Energy (eV)          EEDF (eV^-(3/2))     First Anisotropy
9.00000000000000e-02 1.09252697471603e-01 1.34452652594220e-04
2.70000000000000e-01 1.05130953733626e-01 2.18566289590778e-04
4.50000000000000e-01 1.01164709785006e-01 2.79526325768124e-04
6.30000000000000e-01 9.73480991318307e-02 3.20688815909510e-04
8.10000000000000e-01 9.36754766036554e-02 3.50987177945742e-04
9.90000000000000e-01 9.01414100036886e-02 3.73970155665881e-04
1.17000000000000e+00 8.67406720739980e-02 3.91557868545442e-04
1.35000000000000e+00 8.34682327638430e-02 4.04957591978314e-04
1.53000000000000e+00 8.03192517896983e-02 4.14999711322946e-04
1.71000000000000e+00 7.72890714759628e-02 4.22290532204795e-04
1.89000000000000e+00 7.43732098657655e-02 4.27291929367356e-04
2.07000000000000e+00 7.15673540916776e-02 4.30367005488293e-04
2.25000000000000e+00 6.88673539965257e-02 4.31808182736820e-04
2.43000000000000e+00 6.62692159948709e-02 4.31855460668988e-04
2.61000000000000e+00 6.37690971660738e-02 4.30708815706708e-04
2.79000000000000e+00 6.13632995702093e-02 4.28536930977954e-04
2.97000000000000e+00 5.90482647784220e-02 4.25483530521805e-04
3.15000000000000e+00 5.68205686096345e-02 4.21672094281932e-04
3.33000000000000e+00 5.46769160658216e-02 4.17209445748579e-04
3.51000000000000e+00 5.26141364583597e-02 4.12188534330554e-04
3.69000000000000e+00 5.06291787182438e-02 4.06690629500433e-04
3.87000000000000e+00 4.87191068832337e-02 4.00787076692401e-04
4.05000000000000e+00 4.68810957552559e-02 3.94540720915178e-04
4.23000000000000e+00 4.51124267216369e-02 3.88007074437920e-04
4.41000000000000e+00 4.34104837339877e-02 3.81235284557328e-04
4.59000000000000e+00 4.17727494387922e-02 3.74268943190154e-04
4.77000000000000e+00 4.01968014539749e-02 3.67146769858694e-04
4.95000000000000e+00 3.86803087859424e-02 3.59903192259172e-04
5.13000000000000e+00 3.72210283817968e-02 3.52568843175394e-04
5.31000000000000e+00 3.58168018116241e-02 3.45170988453449e-04
5.49000000000000e+00 3.44655520759481e-02 3.37733897698435e-04
5.67000000000000e+00 3.31652805336286e-02 3.30279167021991e-04
5.85000000000000e+00 3.19140639456601e-02 3.22826001369800e-04
6.03000000000000e+00 3.07100516304979e-02 3.15391462555727e-04
6.21000000000000e+00 2.95514627267048e-02 3.07990688026615e-04
6.39000000000000e+00 2.84365835588685e-02 3.00637084506880e-04
6.57000000000000e+00 2.73637651028952e-02 2.93342499972700e-04
6.75000000000000e+00 2.63314205469280e-02 2.86117376842187e-04
6.93000000000000e+00 2.53380229442850e-02 2.78970888810740e-04
7.11000000000000e+00 2.43821029549434e-02 2.71911063387454e-04
7.29000000000000e+00 2.34622466722309e-02 2.64944891881567e-04
7.47000000000000e+00 2.25770935315078e-02 2.58078428334193e-04
7.65000000000000e+00 2.17253342977485e-02 2.51316878679595e-04
7.83000000000000e+00 2.09057091290441e-02 2.44664681243893e-04
8.01000000000000e+00 2.01170057131637e-02 2.38125579540874e-04
8.19000000000000e+00 1.93580574744161e-02 2.31702688199468e-04
8.37000000000000e+00 1.86277418481612e-02 2.25398552751328e-04
8.55000000000000e+00 1.79249786204183e-02 2.19215203916540e-04
8.73000000000000e+00 1.72487283301153e-02 2.13154206948129e-04
8.91000000000000e+00 1.65979907316162e-02 2.07216706529657e-04
9.09000000000000e+00 1.59718033152521e-02 2.01403467662883e-04
9.27000000000000e+00 1.53692398836673e-02 1.95714912932963e-04
9.45000000000000e+00 1.47894091818763e-02 1.90151156495626e-04
9.63000000000000e+00 1.42314535790026e-02 1.84712035093294e-04
9.81000000000000e+00 1.36945477997526e-02 1.79397136374382e-04
9.99000000000000e+00 1.31778977037463e-02 1.74205824761307e-04
1.01700000000000e+01 1.26807391108992e-02 1.69137265087537e-04
1.03500000000000e+01 1.22023366711197e-02 1.64190444201726e-04
1.05300000000000e+01 1.17419827766487e-02 1.59364190717396e-04
1.07100000000000e+01 1.12989965154324e-02 1.54657193069165e-04
1.08900000000000e+01 1.08727226639819e-02 1.50068016021117e-04
1.10700000000000e+01 1.04625307182282e-02 1.45595115759095e-04
1.12500000000000e+01 1.00678139609403e-02 1.41236853686450e-04
1.14300000000000e+01 9.68798856432607e-03 1.36991509031816e-04
1.16100000000000e+01 9.32249272648921e-03 1.32857290367610e-04
1.17900000000000e+01 8.97078584046511e-03 1.28832346129181e-04
1.19700000000000e+01 8.63234769460589e-03 1.24914774216555e-04
1.21500000000000e+01 8.30667770313243e-03 1.21102630753604e-04
1.23300000000000e+01 7.99329416571511e-03 1.17393938073006e-04
1.25100000000000e+01 7.69173355498809e-03 1.13786691989535e-04
1.26900000000000e+01 7.40154983094344e-03 1.10278868418946e-04
1.28700000000000e+01 7.12231378119072e-03 1.06868429394942e-04
1.30500000000000e+01 6.85361238610661e-03 1.03553328532356e-04
1.32300000000000e+01 6.59504820793519e-03 1.00331515980748e-04
1.34100000000000e+01 6.34623880293550e-03 9.72009429090211e-05
1.35900000000000e+01 6.10681615570687e-03 9.41595655583776e-05
1.37700000000000e+01 5.87642613485520e-03 9.12053488979642e-05
1.39500000000000e+01 5.65472796919529e-03 8.83362699148176e-05
1.41300000000000e+01 5.44139374371416e-03 8.55503205672266e-05
1.43100000000000e+01 5.23610791455015e-03 8.28455104283528e-05
1.44900000000000e+01 5.03856684227022e-03 8.02198690448492e-05
1.46700000000000e+01 4.84847834275508e-03 7.76714480333010e-05
1.48500000000000e+01 4.66556125502806e-03 7.51983229355563e-05
1.50300000000000e+01 4.48954502538831e-03 7.27985948523889e-05
1.52100000000000e+01 4.32016930723326e-03 7.04703918734565e-05
1.53900000000000e+01 4.15718357597851e-03 6.82118703201433e-05
1.55700000000000e+01 4.00034675850549e-03 6.60212158166104e-05
1.57500000000000e+01 3.84942687658884e-03 6.38966442032354e-05
1.59300000000000e+01 3.70420070377611e-03 6.18364023055313e-05
1.61100000000000e+01 3.56445343521224e-03 5.98387685706590e-05
1.62900000000000e+01 3.42997836992050e-03 5.79020535827325e-05
1.64700000000000e+01 3.30057660506988e-03 5.60246004672743e-05
1.66500000000000e+01 3.17605674177680e-03 5.42047851944041e-05
1.68300000000000e+01 3.05623460200594e-03 5.24410167896163e-05
1.70100000000000e+01 2.94093295615146e-03 5.07317374603453e-05
1.71900000000000e+01 2.82998126089568e-03 4.90754226458985e-05
1.73700000000000e+01 2.72321540695749e-03 4.74705809977641e-05
1.75500000000000e+01 2.62047747635740e-03 4.59157542967777e-05
1.77300000000000e+01 2.52161550884016e-03 4.44095173131438e-05
1.79100000000000e+01 2.42648327710945e-03 4.29504776148477e-05
1.80900000000000e+01 2.33494007054230e-03 4.15372753295824e-05
1.82700000000000e+01 2.24685048706321e-03 4.01685828649180e-05
1.84500000000000e+01 2.16208423287013e-03 3.88431045910882e-05
1.86300000000000e+01 2.08051592971620e-03 3.75595764904276e-05
1.88100000000000e+01 2.00202492946207e-03 3.63167657771828e-05
1.89900000000000e+01 1.92649513562453e-03 3.51134704911357e-05
1.91700000000000e+01 1.85381483165756e-03 3.39485190682063e-05
1.93500000000000e+01 1.78387651571177e-03 3.28207698909582e-05
1.95300000000000e+01 1.71657674162776e-03 3.17291108216956e-05
1.97100000000000e+01 1.65181596592838e-03 3.06724587206266e-05
1.98900000000000e+01 1.58949840058335e-03 2.96497589513725e-05
2.00700000000000e+01 1.52953187132868e-03 2.86599848759133e-05
2.02500000000000e+01 1.47182768133118e-03 2.77021373408960e-05
2.04300000000000e+01 1.41630047999648e-03 2.67752441570643e-05
2.06100000000000e+01 1.36286813672647e-03 2.58783595734268e-05
2.07900000000000e+01 1.31145161943946e-03 2.50105637476439e-05
2.09700000000000e+01 1.26197487767342e-03 2.41709622139822e-05
2.11500000000000e+01 1.21436473009926e-03 2.33586853500709e-05
2.13300000000000e+01 1.16855075627795e-03 2.25728878435869e-05
2.15100000000000e+01 1.12446519250123e-03 2.18127481598884e-05
2.16900000000000e+01 1.08204283156193e-03 2.10774680115255e-05
2.18700000000000e+01 1.04122092630563e-03 2.03662718304717e-05
2.20500000000000e+01 1.00193909682095e-03 1.96784062438351e-05
2.22300000000000e+01 9.64139241131344e-04 1.90131395537351e-05
2.24100000000000e+01 9.27765449256084e-04 1.83697612219609e-05
2.25900000000000e+01 8.92763920513514e-04 1.77475813599641e-05
2.27700000000000e+01 8.59082883944154e-04 1.71459302246769e-05
2.29500000000000e+01 8.26672521735978e-04 1.65641577205941e-05
2.31300000000000e+01 7.95484895538607e-04 1.60016329085051e-05
2.33100000000000e+01 7.65473875557424e-04 1.54577435212156e-05
2.34900000000000e+01 7.36595072322734e-04 1.49318954865555e-05
2.36700000000000e+01 7.08805771033046e-04 1.44235124579273e-05
2.38500000000000e+01 6.82064868375370e-04 1.39320353526170e-05
2.40300000000000e+01 6.56332811729069e-04 1.34569218980495e-05
2.42100000000000e+01 6.31571540663363e-04 1.29976461861446e-05
2.43900000000000e+01 6.07744430641920e-04 1.25536982358981e-05
2.45700000000000e+01 5.84816238851304e-04 1.21245835642849e-05
2.47500000000000e+01 5.62753052073128e-04 1.17098227655608e-05
2.49300000000000e+01 5.41522236522818e-04 1.13089510990124e-05
2.51100000000000e+01 5.21092389580800e-04 1.09215180851888e-05
2.52900000000000e+01 5.01433293344708e-04 1.05470871106260e-05
2.54700000000000e+01 4.82515869933910e-04 1.01852350410619e-05
2.56500000000000e+01 4.64312138480255e-04 9.83555184312060e-06
2.58300000000000e+01 4.46795173741407e-04 9.49764021443351e-06
2.60100000000000e+01 4.29939066275570e-04 9.17111522215015e-06
2.61900000000000e+01 4.13718884118685e-04 8.85560394978092e-06
2.63700000000000e+01 3.98110635907421e-04 8.55074515230377e-06
2.65500000000000e+01 3.83091235393412e-04 8.25618891945639e-06
2.67300000000000e+01 3.68638467296260e-04 7.97159634712788e-06
2.69100000000000e+01 3.54730954444781e-04 7.69663921675690e-06
2.70900000000000e+01 3.41348126157919e-04 7.43099968263495e-06
2.72700000000000e+01 3.28470187818526e-04 7.17436996700908e-06
2.74500000000000e+01 3.16078091595040e-04 6.92645206287261e-06
2.76300000000000e+01 3.04153508267722e-04 6.68695744432785e-06
2.78100000000000e+01 2.92678800117809e-04 6.45560678440066e-06
2.79900000000000e+01 2.81636994839462e-04 6.23212968018385e-06
2.81700000000000e+01 2.71011760435929e-04 6.01626438518359e-06
2.83500000000000e+01 2.60787381062803e-04 5.80775754873986e-06
2.85300000000000e+01 2.50948733782622e-04 5.60636396239117e-06
2.87100000000000e+01 2.41481266196449e-04 5.41184631305143e-06
2.88900000000000e+01 2.32370974919333e-04 5.22397494286603e-06
2.90700000000000e+01 2.23604384867828e-04 5.04252761561361e-06
2.92500000000000e+01 2.15168529328919e-04 4.86728928951902e-06
2.94300000000000e+01 2.07050930780879e-04 4.69805189634334e-06
2.96100000000000e+01 1.99239582437702e-04 4.53461412661667e-06
2.97900000000000e+01 1.91722930489796e-04 4.37678122087941e-06
2.99700000000000e+01 1.84489857014675e-04 4.22436476679876e-06
3.01500000000000e+01 1.77529663532378e-04 4.07718250202783e-06
3.03300000000000e+01 1.70832055181292e-04 3.93505812267545e-06
3.05100000000000e+01 1.64387125490954e-04 3.79782109725609e-06
3.06900000000000e+01 1.58185341729343e-04 3.66530648599004e-06
3.08700000000000e+01 1.52217530802958e-04 3.53735476532596e-06
3.10500000000000e+01 1.46474865688845e-04 3.41381165755935e-06
3.12300000000000e+01 1.40948852378495e-04 3.29452796542147e-06
3.14100000000000e+01 1.35631317314310e-04 3.17935941151531e-06
3.15900000000000e+01 1.30514395300049e-04 3.06816648247705e-06
3.17700000000000e+01 1.25590517867368e-04 2.96081427774330e-06
3.19500000000000e+01 1.20852402081256e-04 2.85717236280578e-06
3.21300000000000e+01 1.16293039767810e-04 2.75711462683761e-06
3.23100000000000e+01 1.11905687148398e-04 2.66051914457726e-06
3.24900000000000e+01 1.07683854864902e-04 2.56726804235788e-06
3.26700000000000e+01 1.03621298381270e-04 2.47724736817193e-06
3.28500000000000e+01 9.97120087471902e-05 2.39034696566366e-06
3.30300000000000e+01 9.59502037102139e-05 2.30646035194308e-06
3.32100000000000e+01 9.23303191631968e-05 2.22548459911798e-06
3.33900000000000e+01 8.88470009143953e-05 2.14732021944234e-06
3.35700000000000e+01 8.54950967680512e-05 2.07187105398149e-06
3.37500000000000e+01 8.22696489037498e-05 1.99904416469677e-06
3.39300000000000e+01 7.91658865432797e-05 1.92874972985434e-06
3.41100000000000e+01 7.61792188941477e-05 1.86090094266489e-06
3.42900000000000e+01 7.33052283593115e-05 1.79541391306337e-06
3.44700000000000e+01 7.05396640030872e-05 1.73220757253949e-06
3.46500000000000e+01 6.78784352635659e-05 1.67120358193211e-06
3.48300000000000e+01 6.53176059022404e-05 1.61232624210264e-06
3.50100000000000e+01 6.28533881818928e-05 1.55550240740450e-06
3.51900000000000e+01 6.04821372641307e-05 1.50066140186785e-06
3.53700000000000e+01 5.82003458182863e-05 1.44773493802050e-06
3.55500000000000e+01 5.60046388337035e-05 1.39665703826818e-06
3.57300000000000e+01 5.38917686277405e-05 1.34736395875903e-06
3.59100000000000e+01 5.18586100421042e-05 1.29979411565910e-06
3.60900000000000e+01 4.99021558204107e-05 1.25388801376776e-06
3.62700000000000e+01 4.80195121601356e-05 1.20958817740330e-06
3.64500000000000e+01 4.62078944323739e-05 1.16683908349123e-06
3.66300000000000e+01 4.44646230630800e-05 1.12558709678937e-06
3.68100000000000e+01 4.27871195696941e-05 1.08578040718551e-06
3.69900000000000e+01 4.11729027472945e-05 1.04736896900519e-06
3.71700000000000e+01 3.96195849986330e-05 1.01030444226894e-06
3.73500000000000e+01 3.81248688026266e-05 9.74540135839753e-07
3.75300000000000e+01 3.66865433160807e-05 9.40030952403289e-07
3.77100000000000e+01 3.53024811036187e-05 9.06733335224849e-07
3.78900000000000e+01 3.39706349909799e-05 8.74605216628759e-07
3.80700000000000e+01 3.26890350370331e-05 8.43605968147227e-07
3.82500000000000e+01 3.14557856200249e-05 8.13696352287262e-07
3.84300000000000e+01 3.02690626337549e-05 7.84838475865682e-07
3.86100000000000e+01 2.91271107895302e-05 7.56995744863652e-07
3.87900000000000e+01 2.80282410199078e-05 7.30132820753553e-07
3.89700000000000e+01 2.69708279803852e-05 7.04215578252322e-07
3.91500000000000e+01 2.59533076453445e-05 6.79211064456774e-07
3.93300000000000e+01 2.49741749946927e-05 6.55087459317635e-07
3.95100000000000e+01 2.40319817877787e-05 6.31814037410303e-07
3.96900000000000e+01 2.31253344212915e-05 6.09361130961541e-07
3.98700000000000e+01 2.22528918679745e-05 5.87700094092561e-07
4.00500000000000e+01 2.14133636931037e-05 5.66803268240053e-07
4.02300000000000e+01 2.06055081457989e-05 5.46643948717853e-07
4.04100000000000e+01 1.98281303223429e-05 5.27196352383124e-07
4.05900000000000e+01 1.90800803987924e-05 5.08435586371871e-07
4.07700000000000e+01 1.83602519302670e-05 4.90337617869759e-07
4.09500000000000e+01 1.76675802144003e-05 4.72879244885193e-07
4.11300000000000e+01 1.70010407165329e-05 4.56038067992606e-07
4.13100000000000e+01 1.63596475543167e-05 4.39792463014841e-07
4.14900000000000e+01 1.57424520394915e-05 4.24121554614493e-07
4.16700000000000e+01 1.51485412746742e-05 4.09005190764996e-07
4.18500000000000e+01 1.45770368030876e-05 3.94423918073103e-07
4.20300000000000e+01 1.40270933092295e-05 3.80358957925251e-07
4.22100000000000e+01 1.34978973685622e-05 3.66792183431197e-07
4.23900000000000e+01 1.29886662443715e-05 3.53706097139108e-07
4.25700000000000e+01 1.24986467300163e-05 3.41083809497076e-07
4.27500000000000e+01 1.20271140348565e-05 3.28909018036790e-07
4.29300000000000e+01 1.15733707122110e-05 3.17165987255877e-07
4.31100000000000e+01 1.11367456277603e-05 3.05839529176152e-07
4.32900000000000e+01 1.07165929668682e-05 2.94914984555676e-07
4.34700000000000e+01 1.03122912793533e-05 2.84378204733286e-07
4.36500000000000e+01 9.92324256029891e-06 2.74215534084872e-07
4.38300000000000e+01 9.54887136554029e-06 2.64413793071332e-07
4.40100000000000e+01 9.18862396052210e-06 2.54960261858811e-07
4.41900000000000e+01 8.84196750126642e-06 2.45842664492367e-07
4.43700000000000e+01 8.50838924624024e-06 2.37049153604885e-07
4.45500000000000e+01 8.18739579795649e-06 2.28568295643564e-07
4.47300000000000e+01 7.87851237318708e-06 2.20389056596895e-07
4.49100000000000e+01 7.58128210070830e-06 2.12500788205610e-07
4.50900000000000e+01 7.29526534554003e-06 2.04893214641553e-07
4.52700000000000e+01 7.02003905867914e-06 1.97556419638991e-07
4.54500000000000e+01 6.75519615136531e-06 1.90480834063358e-07
4.56300000000000e+01 6.50034489295373e-06 1.83657223902883e-07
4.58100000000000e+01 6.25510833150411e-06 1.77076678669054e-07
4.59900000000000e+01 6.01912373622890e-06 1.70730600192308e-07
4.61700000000000e+01 5.79204206097615e-06 1.64610691799769e-07
4.63500000000000e+01 5.57352742795336e-06 1.58708947862287e-07
4.65300000000000e+01 5.36325663092872e-06 1.53017643698446e-07
4.67100000000000e+01 5.16091865717496e-06 1.47529325823597e-07
4.68900000000000e+01 4.96621422744867e-06 1.42236802532383e-07
4.70700000000000e+01 4.77885535332463e-06 1.37133134803560e-07
4.72500000000000e+01 4.59856491123058e-06 1.32211627516315e-07
4.74300000000000e+01 4.42507623255208e-06 1.27465820967629e-07
4.76100000000000e+01 4.25813270920151e-06 1.22889482680547e-07
4.77900000000000e+01 4.09748741406760e-06 1.18476599493589e-07
4.79700000000000e+01 3.94290273578410e-06 1.14221369921819e-07
4.81500000000000e+01 3.79415002727748e-06 1.10118196780431e-07
4.83300000000000e+01 3.65100926757377e-06 1.06161680061976e-07
4.85100000000000e+01 3.51326873636425e-06 1.02346610058684e-07
4.86900000000000e+01 3.38072470084879e-06 9.86679607215842e-08
4.88700000000000e+01 3.25318111439345e-06 9.51208832484209e-08
4.90500000000000e+01 3.13044932655685e-06 9.17006998926123e-08
4.92300000000000e+01 3.01234780405621e-06 8.84028979857686e-08
4.94100000000000e+01 2.89870186226043e-06 8.52231241665183e-08
4.95900000000000e+01 2.78934340681310e-06 8.21571788086474e-08
4.97700000000000e+01 2.68411068500313e-06 7.92010106417777e-08
4.99500000000000e+01 2.58284804651546e-06 7.63507115580365e-08
5.01300000000000e+01 2.48540571320774e-06 7.36025115983931e-08
5.03100000000000e+01 2.39163955757267e-06 7.09527741125369e-08
5.04900000000000e+01 2.30141088955818e-06 6.83979910863938e-08
5.06700000000000e+01 2.21458625143017e-06 6.59347786315547e-08
5.08500000000000e+01 2.13103722037444e-06 6.35598726310926e-08
5.10300000000000e+01 2.05064021854576e-06 6.12701245364278e-08
5.12100000000000e+01 1.97327633028322e-06 5.90624973100796e-08
5.13900000000000e+01 1.89883112622133e-06 5.69340615093112e-08
5.15700000000000e+01 1.82719449403696e-06 5.48819915058456e-08
5.17500000000000e+01 1.75826047558156e-06 5.29035618369950e-08
5.19300000000000e+01 1.69192711015786e-06 5.09961436836955e-08
5.21100000000000e+01 1.62809628370920e-06 4.91572014710966e-08
5.22900000000000e+01 1.56667358369854e-06 4.73842895874995e-08
5.24700000000000e+01 1.50756815946225e-06 4.56750492175756e-08
5.26500000000000e+01 1.45069258783247e-06 4.40272052859416e-08
5.28300000000000e+01 1.39596274382894e-06 4.24385635072972e-08
5.30100000000000e+01 1.34329767622930e-06 4.09070075394521e-08
5.31900000000000e+01 1.29261948783366e-06 3.94304962357050e-08
5.33700000000000e+01 1.24385322024642e-06 3.80070609931511e-08
5.35500000000000e+01 1.19692674300490e-06 3.66348031936083e-08
5.37300000000000e+01 1.15177064689070e-06 3.53118917339676e-08
5.39100000000000e+01 1.10831814126623e-06 3.40365606428834e-08
5.40900000000000e+01 1.06650495528421e-06 3.28071067808199e-08
5.42700000000000e+01 1.02626924282434e-06 3.16218876205722e-08
5.44500000000000e+01 9.87551491016340e-07 3.04793191054821e-08
5.46300000000000e+01 9.50294432214150e-07 2.93778735826593e-08
5.48100000000000e+01 9.14442959290991e-07 2.83160778086091e-08
5.49900000000000e+01 8.79944044130131e-07 2.72925110247632e-08
5.51700000000000e+01 8.46746659190684e-07 2.63058031004898e-08
5.53500000000000e+01 8.14801702032491e-07 2.53546327412410e-08
5.55300000000000e+01 7.84061922688421e-07 2.44377257595801e-08
5.57100000000000e+01 7.54481853776674e-07 2.35538534069059e-08
5.58900000000000e+01 7.26017743249723e-07 2.27018307637660e-08
5.60700000000000e+01 6.98627489680411e-07 2.18805151867228e-08
5.62500000000000e+01 6.72270579989492e-07 2.10888048098081e-08
5.64300000000000e+01 6.46908029522503e-07 2.03256370986652e-08
5.66100000000000e+01 6.22502324387346e-07 1.95899874555470e-08
5.67900000000000e+01 5.99017365967272e-07 1.88808678733992e-08
