Energy (eV)          EEDF (eV^-(3/2))     First Anisotropy
9.19642857142857e-04 6.86499014916458e+00 3.28867344542006e-03
2.75892857142857e-03 6.82295189586258e+00 5.43216936164328e-03
4.59821428571429e-03 6.78117106669574e+00 7.17541118704743e-03
6.43750000000000e-03 6.73964608543318e+00 8.50240614830804e-03
8.27678571428571e-03 6.69837538529946e+00 9.61132448028328e-03
1.01160714285714e-02 6.65735740924348e+00 1.05770093558245e-02
1.19553571428571e-02 6.61659060960841e+00 1.14381517598870e-02
1.37946428571429e-02 6.57607344841294e+00 1.22180922283397e-02
1.56339285714286e-02 6.53580439695599e+00 1.29322950205783e-02
1.74732142857143e-02 6.49578193591298e+00 1.35916789864488e-02
1.93125000000000e-02 6.45600455526501e+00 1.42043187569311e-02
2.11517857142857e-02 6.41647075406400e+00 1.47764001549061e-02
2.29910714285714e-02 6.37717904092690e+00 1.53127960532796e-02
2.48303571428571e-02 6.33812793340475e+00 1.58174329083352e-02
2.66696428571429e-02 6.29931595812771e+00 1.62935343928489e-02
2.85089285714286e-02 6.26074165074731e+00 1.67437893247864e-02
3.03482142857143e-02 6.22240355588509e+00 1.71704708798976e-02
3.21875000000000e-02 6.18430022707508e+00 1.75755234132023e-02
3.40267857142857e-02 6.14643022660539e+00 1.79606270338279e-02
3.58660714285714e-02 6.10879212578300e+00 1.83272466342335e-02
3.77053571428571e-02 6.07138450455201e+00 1.86766697081388e-02
3.95446428571429e-02 6.03420595155264e+00 1.90100358998003e-02
4.13839285714286e-02 5.99725506406710e+00 1.93283604778129e-02
4.32232142857143e-02 5.96053044796837e+00 1.96325531640932e-02
4.50625000000000e-02 5.92403071766665e+00 1.99234334157813e-02
4.69017857142857e-02 5.88775449598534e+00 2.02017429068250e-02
4.87410714285714e-02 5.85170041432818e+00 2.04681558826400e-02
5.05803571428571e-02 5.81586711240400e+00 2.07232877881863e-02
5.24196428571429e-02 5.78025323825158e+00 2.09677024661482e-02
5.42589285714286e-02 5.74485744818818e+00 2.12019182721797e-02
5.60982142857143e-02 5.70967840675979e+00 2.14264132674234e-02
5.79375000000000e-02 5.67471478669021e+00 2.16416296680184e-02
5.97767857142857e-02 5.63996526877733e+00 2.18479776426712e-02
6.16160714285714e-02 5.60542854200685e+00 2.20458386313781e-02
6.34553571428571e-02 5.57110330333655e+00 2.22355682301490e-02
6.52946428571429e-02 5.53698825770353e+00 2.24174986715430e-02
6.71339285714286e-02 5.50308211797504e+00 2.25919410267099e-02
6.89732142857143e-02 5.46938360490058e+00 2.27591871358712e-02
7.08125000000000e-02 5.43589144706323e+00 2.29195113197653e-02
7.26517857142857e-02 5.40260438078954e+00 2.30731718705722e-02
7.44910714285714e-02 5.36952115023018e+00 2.32204124088622e-02
7.63303571428571e-02 5.33664050718230e+00 2.33614630952942e-02
7.81696428571429e-02 5.30396121108656e+00 2.34965416825969e-02
8.00089285714286e-02 5.27148202898012e+00 2.36258544844623e-02
8.18482142857143e-02 5.23920173545050e+00 2.37495972411887e-02
8.36875000000000e-02 5.20711911258912e+00 2.38679559063997e-02
8.55267857142857e-02 5.17523294991115e+00 2.39811073356421e-02
8.73660714285714e-02 5.14354204441382e+00 2.40892199383224e-02
8.92053571428571e-02 5.11204520042569e+00 2.41924542709644e-02
9.10446428571429e-02 5.08074122959709e+00 2.42909635487982e-02
9.28839285714286e-02 5.04962895085520e+00 2.43848941347747e-02
9.47232142857143e-02 5.01870719035973e+00 2.44743859811418e-02
9.65625000000000e-02 4.98797478145849e+00 2.45595730391005e-02
9.84017857142857e-02 4.95743056461491e+00 2.46405836142607e-02
1.00241071428571e-01 4.92707338745071e+00 2.47175407034594e-02
1.02080357142857e-01 4.89690210469546e+00 2.47905623788910e-02
1.03919642857143e-01 4.86691557785037e+00 2.48597620021336e-02
1.05758928571429e-01 4.83711267555114e+00 2.49252484185001e-02
1.07598214285714e-01 4.80749227361681e+00 2.49871264253254e-02
1.09437500000000e-01 4.77805325423934e+00 2.50454968744783e-02
1.11276785714286e-01 4.74879450671216e+00 2.51004567868453e-02
1.13116071428571e-01 4.71971492713011e+00 2.51520996513945e-02
1.14955357142857e-01 4.69081341858071e+00 2.52005156971892e-02
1.16794642857143e-01 4.66208889040059e+00 2.52457919732830e-02
1.18633928571429e-01 4.63354025883924e+00 2.52880123716826e-02
1.20473214285714e-01 4.60516644700057e+00 2.53272580468549e-02
1.22312500000000e-01 4.57696638414648e+00 2.53636074214766e-02
1.24151785714286e-01 4.54893900631463e+00 2.53971362279942e-02
1.25991071428571e-01 4.52108325605789e+00 2.54279177224757e-02
1.27830357142857e-01 4.49339808260473e+00 2.54560228792885e-02
1.29669642857143e-01 4.46588244121574e+00 2.54815204157718e-02
1.31508928571429e-01 4.43853529375043e+00 2.55044767691689e-02
1.33348214285714e-01 4.41135560861377e+00 2.55249564374060e-02
1.35187500000000e-01 4.38434236015057e+00 2.55430219470902e-02
1.37026785714286e-01 4.35749452917562e+00 2.55587338570087e-02
1.38866071428571e-01 4.33081110274470e+00 2.55721509210297e-02
1.40705357142857e-01 4.30429107429047e+00 2.55833302363260e-02
1.42544642857143e-01 4.27793344305978e+00 2.55923272387118e-02
1.44383928571429e-01 4.25173721460264e+00 2.55991956564076e-02
1.46223214285714e-01 4.22570140072299e+00 2.56039877979059e-02
1.48062500000000e-01 4.19982501894691e+00 2.56067545010577e-02
1.49901785714286e-01 4.17410709298191e+00 2.56075451161258e-02
1.51741071428571e-01 4.14854665251384e+00 2.56064076359817e-02
1.53580357142857e-01 4.12314273332291e+00 2.56033888144457e-02
1.55419642857143e-01 4.09789437678737e+00 2.55985341457102e-02
1.57258928571429e-01 4.07280063030906e+00 2.55918878067663e-02
1.59098214285714e-01 4.04786054726765e+00 2.55834929072070e-02
1.60937500000000e-01 4.02307318655002e+00 2.55733914292533e-02
1.62776785714286e-01 3.99843761295126e+00 2.55616241998031e-02
1.64616071428571e-01 3.97395289699326e+00 2.55482309983212e-02
1.66455357142857e-01 3.94961811502430e+00 2.55332506547912e-02
1.68294642857143e-01 3.92543234877822e+00 2.55167210205809e-02
1.70133928571429e-01 3.90139468574735e+00 2.54986789058983e-02
1.71973214285714e-01 3.87750421913980e+00 2.54791603006924e-02
1.73812500000000e-01 3.85376004746012e+00 2.54582003109870e-02
1.75651785714286e-01 3.83016127486189e+00 2.54358331251974e-02
1.77491071428571e-01 3.80670701098442e+00 2.54120921060095e-02
1.79330357142857e-01 3.78339637103888e+00 2.53870098736973e-02
1.81169642857143e-01 3.76022847541420e+00 2.53606182726163e-02
1.83008928571429e-01 3.73720245000601e+00 2.53329483072287e-02
1.84848214285714e-01 3.71431742617652e+00 2.53040303400928e-02
1.86687500000000e-01 3.69157254037881e+00 2.52738940275083e-02
1.88526785714286e-01 3.66896693446851e+00 2.52425682831402e-02
1.90366071428571e-01 3.64649975555613e+00 2.52100813578942e-02
1.92205357142857e-01 3.62417015608177e+00 2.51764609122789e-02
1.94044642857143e-01 3.60197729346106e+00 2.51417339809580e-02
1.95883928571429e-01 3.57992033037668e+00 2.51059269093458e-02
1.97723214285714e-01 3.55799843474070e+00 2.50690655328334e-02
1.99562500000000e-01 3.53621077935619e+00 2.50311751134272e-02
2.01401785714286e-01 3.51455654219413e+00 2.49922803024672e-02
2.03241071428571e-01 3.49303490625927e+00 2.49524052111768e-02
2.05080357142857e-01 3.47164505965514e+00 2.49115734745223e-02
2.06919642857143e-01 3.45038619526448e+00 2.48698082152651e-02
2.08758928571429e-01 3.42925751100887e+00 2.48271319822564e-02
2.10598214285714e-01 3.40825820981315e+00 2.47835669138873e-02
2.12437500000000e-01 3.38738749929941e+00 2.47391346766540e-02
2.14276785714286e-01 3.36664459203412e+00 2.46938564280657e-02
2.16116071428571e-01 3.34602870540560e+00 2.46477528797041e-02
2.17955357142857e-01 3.32553906168097e+00 2.46008443542614e-02
2.19794642857143e-01 3.30517488771638e+00 2.45531507499895e-02
2.21633928571429e-01 3.28493541518927e+00 2.45046914812926e-02
2.23473214285714e-01 3.26481988056465e+00 2.44554856286405e-02
2.25312500000000e-01 3.24482752481738e+00 2.44055518795908e-02
2.27151785714286e-01 3.22495759365341e+00 2.43549084924982e-02
2.28991071428571e-01 3.20520933739762e+00 2.43035733534146e-02
2.30830357142857e-01 3.18558201104372e+00 2.42515640275420e-02
2.32669642857143e-01 3.16607487399070e+00 2.41988977245776e-02
2.34508928571429e-01 3.14668719025123e+00 2.41455912419213e-02
2.36348214285714e-01 3.12741822841969e+00 2.40916611028004e-02
2.38187500000000e-01 3.10826726141927e+00 2.40371234999838e-02
2.40026785714286e-01 3.08923356670072e+00 2.39819942606718e-02
2.41866071428571e-01 3.07031642613938e+00 2.39262888982273e-02
2.43705357142857e-01 3.05151512607887e+00 2.38700226589295e-02
2.45544642857143e-01 3.03282895709078e+00 2.38132104885207e-02
2.47383928571429e-01 3.01425721416215e+00 2.37558669781692e-02
2.49223214285714e-01 2.99579919666521e+00 2.36980064921818e-02
2.51062500000000e-01 2.97745420812628e+00 2.36396431145044e-02
2.52901785714286e-01 2.95922155640493e+00 2.35807906150026e-02
2.54741071428571e-01 2.94110055359911e+00 2.35214624967611e-02
2.56580357142857e-01 2.92309051608358e+00 2.34616720388401e-02
2.58419642857143e-01 2.90519076429005e+00 2.34014322641855e-02
2.60258928571429e-01 2.88740062287637e+00 2.33407558883545e-02
2.62098214285714e-01 2.86971942069780e+00 2.32796554379661e-02
2.63937500000000e-01 2.85214649059534e+00 2.32181431999708e-02
2.65776785714286e-01 2.83468116955764e+00 2.31562311894250e-02
2.67616071428571e-01 2.81732279863332e+00 2.30939311929595e-02
2.69455357142857e-01 2.80007072296489e+00 2.30312548080572e-02
2.71294642857143e-01 2.78292429158699e+00 2.29682134124123e-02
2.73133928571429e-01 2.76588285757960e+00 2.29048181153765e-02
2.74973214285714e-01 2.74894577804064e+00 2.28410798680769e-02
2.76812500000000e-01 2.73211241389165e+00 2.27770094154044e-02
2.78651785714286e-01 2.71538213002441e+00 2.27126172653184e-02
2.80491071428571e-01 2.69875429521984e+00 2.26479137289476e-02
2.82330357142857e-01 2.68222828217785e+00 2.25829089568215e-02
2.84169642857143e-01 2.66580346733192e+00 2.25176129096973e-02
2.86008928571429e-01 2.64947923098796e+00 2.24520353126414e-02
2.87848214285714e-01 2.63325495729830e+00 2.23861857576180e-02
2.89687500000000e-01 2.61713003408287e+00 2.23200736580983e-02
2.91526785714286e-01 2.60110385296231e+00 2.22537082198891e-02
2.93366071428571e-01 2.58517580928269e+00 2.21870984782477e-02
2.95205357142857e-01 2.56934530214189e+00 2.21202533314166e-02
2.97044642857143e-01 2.55361173421878e+00 2.20531815129041e-02
2.98883928571429e-01 2.53797451189940e+00 2.19858915480970e-02
3.00723214285714e-01 2.52243304525222e+00 2.19183918499996e-02
3.02562500000000e-01 2.50698674786321e+00 2.18506906763490e-02
3.04401785714286e-01 2.49163503695695e+00 2.17827961019466e-02
3.06241071428571e-01 2.47637733332667e+00 2.17147160530936e-02
3.08080357142857e-01 2.46121306135754e+00 2.16464583387201e-02
3.09919642857143e-01 2.44614164886898e+00 2.15780306240904e-02
3.11758928571429e-01 2.43116252722958e+00 2.15094403898133e-02
3.13598214285714e-01 2.41627513133349e+00 2.14406950213420e-02
3.15437500000000e-01 2.40147889944811e+00 2.13718017684708e-02
3.17276785714286e-01 2.38677327332441e+00 2.13027677191074e-02
3.19116071428571e-01 2.37215769813182e+00 2.12335998313135e-02
3.20955357142857e-01 2.35763162247878e+00 2.11643049622590e-02
3.22794642857143e-01 2.34319449826702e+00 2.10948898433056e-02
3.24633928571429e-01 2.32884578079624e+00 2.10253610413029e-02
3.26473214285714e-01 2.31458492874170e+00 2.09557250423501e-02
3.28312500000000e-01 2.30041140401328e+00 2.08859882135597e-02
3.30151785714286e-01 2.28632467185613e+00 2.08161567782190e-02
3.31991071428571e-01 2.27232420079001e+00 2.07462368456527e-02
3.33830357142857e-01 2.25840946262740e+00 2.06762344382163e-02
3.35669642857143e-01 2.24457993233856e+00 2.06061554676965e-02
3.37508928571429e-01 2.23083508814721e+00 2.05360056987673e-02
3.39348214285714e-01 2.21717441150906e+00 2.04657908274850e-02
3.41187500000000e-01 2.20359738698126e+00 2.03955164451851e-02
3.43026785714286e-01 2.19010350231437e+00 2.03251880149694e-02
3.44866071428571e-01 2.17669224839578e+00 2.02548108995987e-02
3.46705357142857e-01 2.16336311926563e+00 2.01843903866921e-02
3.48544642857143e-01 2.15011561199172e+00 2.01139316663820e-02
3.50383928571429e-01 2.13694922675696e+00 2.00434397968186e-02
3.52223214285714e-01 2.12386346683898e+00 1.99729197778018e-02
3.54062500000000e-01 2.11085783848891e+00 1.99023765166924e-02
3.55901785714286e-01 2.09793185101559e+00 1.98318148061644e-02
3.57741071428571e-01 2.08508501673265e+00 1.97612393502848e-02
3.59580357142857e-01 2.07231685097261e+00 1.96906547880838e-02
3.61419642857143e-01 2.05962687197064e+00 1.96200656724080e-02
3.63258928571429e-01 2.04701460094472e+00 1.95494764373493e-02
3.65098214285714e-01 2.03447956207614e+00 1.94788914673759e-02
3.66937500000000e-01 2.02202128239684e+00 1.94083150651471e-02
3.68776785714286e-01 2.00963929186667e+00 1.93377514304696e-02
3.70616071428571e-01 1.99733312332377e+00 1.92672046847087e-02
3.72455357142857e-01 1.98510231249707e+00 1.91966788928671e-02
3.74294642857143e-01 1.97294639789814e+00 1.91261780435743e-02
3.76133928571429e-01 1.96086492089475e+00 1.90557060183236e-02
3.77973214285714e-01 1.94885742569222e+00 1.89852666564436e-02
3.79812500000000e-01 1.93692345922864e+00 1.89148637246982e-02
3.81651785714286e-01 1.92506257124574e+00 1.88445008973782e-02
3.83491071428571e-01 1.91327431424241e+00 1.87741817791899e-02
3.85330357142857e-01 1.90155824348568e+00 1.87039099259523e-02
3.87169642857143e-01 1.88991391691007e+00 1.86336888256646e-02
3.89008928571429e-01 1.87834089518514e+00 1.85635218694468e-02
3.90848214285714e-01 1.86683874169762e+00 1.84934124126458e-02
3.92687500000000e-01 1.85540702245389e+00 1.84233637461212e-02
3.94526785714286e-01 1.84404530614501e+00 1.83533790774108e-02
3.96366071428571e-01 1.83275316410319e+00 1.82834615522072e-02
3.98205357142857e-01 1.82153017031140e+00 1.82136142737842e-02
4.00044642857143e-01 1.81037590130960e+00 1.81438402850876e-02
4.01883928571429e-01 1.79928993625678e+00 1.80741425412775e-02
4.03723214285714e-01 1.78827185691395e+00 1.80045239672373e-02
4.05562500000000e-01 1.77732124755316e+00 1.79349874304459e-02
4.07401785714286e-01 1.76643769501733e+00 1.78655357231565e-02
4.09241071428571e-01 1.75562078867936e+00 1.77961715825727e-02
4.11080357142857e-01 1.74487012045060e+00 1.77268977091007e-02
4.12919642857143e-01 1.73418528469332e+00 1.76577167493970e-02
4.14758928571429e-01 1.72356587827782e+00 1.75886312704232e-02
4.16598214285714e-01 1.71301150056617e+00 1.75196438136093e-02
4.18437500000000e-01 1.70252175332729e+00 1.74507568692119e-02
4.20276785714286e-01 1.69209624079203e+00 1.73819728594550e-02
4.22116071428571e-01 1.68173456961474e+00 1.73132941574993e-02
4.23955357142857e-01 1.67143634888069e+00 1.72447231046017e-02
4.25794642857143e-01 1.66120119002433e+00 1.71762619940724e-02
4.27633928571429e-01 1.65102870688186e+00 1.71079130467503e-02
4.29473214285714e-01 1.64091851567576e+00 1.70396784620452e-02
4.31312500000000e-01 1.63087023493538e+00 1.69715603936988e-02
4.33151785714286e-01 1.62088348554770e+00 1.69035609338297e-02
4.34991071428571e-01 1.61095789072124e+00 1.68356821307805e-02
4.36830357142857e-01 1.60109307599247e+00 1.67679260052651e-02
4.38669642857143e-01 1.59128866914947e+00 1.67002945351842e-02
4.40508928571429e-01 1.58154430028035e+00 1.66327896324402e-02
4.42348214285714e-01 1.57185960175843e+00 1.65654131910599e-02
4.44187500000000e-01 1.56223420816808e+00 1.64981670642756e-02
4.46026785714286e-01 1.55266775635145e+00 1.64310530494283e-02
4.47866071428571e-01 1.54315988537450e+00 1.63640729047679e-02
4.49705357142857e-01 1.53371023653264e+00 1.62972283646581e-02
4.51544642857143e-01 1.52431845327924e+00 1.62305211252053e-02
4.53383928571429e-01 1.51498418127034e+00 1.61639528223286e-02
4.55223214285714e-01 1.50570706835050e+00 1.60975250771573e-02
4.57062500000000e-01 1.49648676448331e+00 1.60312394743574e-02
4.58901785714286e-01 1.48732292179462e+00 1.59650975478397e-02
4.60741071428571e-01 1.47821519454049e+00 1.58991007965862e-02
4.62580357142857e-01 1.46916323911207e+00 1.58332506989766e-02
4.64419642857143e-01 1.46016671396870e+00 1.57675486991838e-02
4.66258928571429e-01 1.45122527967918e+00 1.57019961864280e-02
4.68098214285714e-01 1.44233859890820e+00 1.56365945378243e-02
4.69937500000000e-01 1.43350633635133e+00 1.55713450978795e-02
4.71776785714286e-01 1.42472815877487e+00 1.55062491649587e-02
4.73616071428571e-01 1.41600373498568e+00 1.54413080062050e-02
4.75455357142857e-01 1.40733273583542e+00 1.53765228710476e-02
4.77294642857143e-01 1.39871483415780e+00 1.53118949783202e-02
4.79133928571429e-01 1.39014970480677e+00 1.52474254966291e-02
4.80973214285714e-01 1.38163702464350e+00 1.51831155848111e-02
4.82812500000000e-01 1.37317647247546e+00 1.51189663725339e-02
4.84651785714286e-01 1.36476772909327e+00 1.50549789474796e-02
4.86491071428571e-01 1.35641047724223e+00 1.49911543694187e-02
4.88330357142857e-01 1.34810440162593e+00 1.49274936829505e-02
4.90169642857143e-01 1.33984918884750e+00 1.48639979053013e-02
4.92008928571429e-01 1.33164452744481e+00 1.48006680077473e-02
4.93848214285714e-01 1.32349010787809e+00 1.47375049538317e-02
4.95687500000000e-01 1.31538562247278e+00 1.46745096810007e-02
4.97526785714286e-01 1.30733076545357e+00 1.46116830884681e-02
4.99366071428571e-01 1.29932523291762e+00 1.45490260504942e-02
5.01205357142857e-01 1.29136872283753e+00 1.44865394284099e-02
5.03044642857143e-01 1.28346093500628e+00 1.44242240590585e-02
5.04883928571429e-01 1.27560157106979e+00 1.43620807372105e-02
5.06723214285714e-01 1.26779033451506e+00 1.43001102516790e-02
5.08562500000000e-01 1.26002693061655e+00 1.42383133679318e-02
5.10401785714286e-01 1.25231106646767e+00 1.41766908165962e-02
5.12241071428571e-01 1.24464245095546e+00 1.41152433059971e-02
5.14080357142857e-01 1.23702079476317e+00 1.40539715335099e-02
5.15919642857143e-01 1.22944581031850e+00 1.39928761746088e-02
5.17758928571429e-01 1.22191721182374e+00 1.39319578662162e-02
5.19598214285714e-01 1.21443471524448e+00 1.38712172408425e-02
5.21437500000000e-01 1.20699803825918e+00 1.38106549101242e-02
5.23276785714286e-01 1.19960690028838e+00 1.37502714539298e-02
5.25116071428571e-01 1.19226102247075e+00 1.36900674322033e-02
5.26955357142857e-01 1.18496012766528e+00 1.36300433956886e-02
5.28794642857143e-01 1.17770394040261e+00 1.35701998755502e-02
5.30633928571429e-01 1.17049218691298e+00 1.35105373676039e-02
5.32473214285714e-01 1.16332459511540e+00 1.34510563646023e-02
5.34312500000000e-01 1.15620089457029e+00 1.33917573406421e-02
5.36151785714286e-01 1.14912081650653e+00 1.33326407408417e-02
5.37991071428571e-01 1.14208409379881e+00 1.32737069925308e-02
5.39830357142857e-01 1.13509046096944e+00 1.32149565153845e-02
5.41669642857143e-01 1.12813965414264e+00 1.31563897115863e-02
5.43508928571429e-01 1.12123141107038e+00 1.30980069508892e-02
5.45348214285714e-01 1.11436547112207e+00 1.30398086011591e-02
5.47187500000000e-01 1.10754157523999e+00 1.29817950136012e-02
5.49026785714286e-01 1.10075946596440e+00 1.29239665129766e-02
5.50866071428571e-01 1.09401888741209e+00 1.28663234081778e-02
5.52705357142857e-01 1.08731958527787e+00 1.28088660018104e-02
5.54544642857143e-01 1.08066130679158e+00 1.27515945808701e-02
5.56383928571429e-01 1.07404380074204e+00 1.26945094025836e-02
5.58223214285714e-01 1.06746681746716e+00 1.26376107233124e-02
5.60062500000000e-01 1.06093010881208e+00 1.25808987845557e-02
5.61901785714286e-01 1.05443342815236e+00 1.25243738036729e-02
5.63741071428571e-01 1.04797653037379e+00 1.24680359838858e-02
5.65580357142857e-01 1.04155917187350e+00 1.24118855233387e-02
5.67419642857143e-01 1.03518111051952e+00 1.23559226062587e-02
5.69258928571429e-01 1.02884210567303e+00 1.23001473895396e-02
5.71098214285714e-01 1.02254191817888e+00 1.22445600300968e-02
5.72937500000000e-01 1.01628031032615e+00 1.21891606716033e-02
5.74776785714286e-01 1.01005704586974e+00 1.21339494356943e-02
5.76616071428571e-01 1.00387189001117e+00 1.20789264314243e-02
5.78455357142857e-01 9.97724609399517e-01 1.20240917638430e-02
5.80294642857143e-01 9.91614972093285e-01 1.19694455256094e-02
