Energy (eV)          EEDF (eV^-(3/2))     First Anisotropy
4.71951219512195e-03 9.47667211075347e-01 5.49191767300730e-04
1.41585365853659e-02 9.39715567790322e-01 9.06113211217667e-04
2.35975609756098e-02 9.31830644779508e-01 1.19416442875537e-03
3.30365853658537e-02 9.24011882226983e-01 1.41178108860398e-03
4.24756097560976e-02 9.16258724995316e-01 1.59227079260201e-03
5.19146341463415e-02 9.08570622606026e-01 1.74825489879644e-03
6.13536585365854e-02 9.00947029213361e-01 1.88627885256117e-03
7.07926829268293e-02 8.93387403522569e-01 2.01030344525840e-03
8.02317073170732e-02 8.85891208796748e-01 2.12296091070771e-03
8.96707317073171e-02 8.78457912802499e-01 2.22611542664074e-03
9.91097560975610e-02 8.71086987772183e-01 2.32114972760802e-03
1.08548780487805e-01 8.63777910385719e-01 2.40912628472222e-03
1.17987804878049e-01 8.56530161636254e-01 2.49088454094305e-03
1.27426829268293e-01 8.49343226995073e-01 2.56710289041474e-03
1.36865853658537e-01 8.42216596180033e-01 2.63833994518132e-03
1.46304878048781e-01 8.35149763146807e-01 2.70506296555929e-03
1.55743902439024e-01 8.28142226195431e-01 2.76766810828461e-03
1.65182926829268e-01 8.21193487742370e-01 2.82649517055142e-03
1.74621951219512e-01 8.14303054467535e-01 2.88183857459030e-03
1.84060975609756e-01 8.07470437143278e-01 2.93395572962543e-03
1.93500000000000e-01 8.00695150614401e-01 2.98307345200095e-03
2.02939024390244e-01 7.93976713867412e-01 3.02939303114468e-03
2.12378048780488e-01 7.87314649856819e-01 3.07309423629011e-03
2.21817073170732e-01 7.80708485605075e-01 3.11433853463256e-03
2.31256097560976e-01 7.74157752069080e-01 3.15327172220954e-03
2.40695121951220e-01 7.67661984115840e-01 3.19002604937264e-03
2.50134146341463e-01 7.61220720569706e-01 3.22472200975924e-03
2.59573170731707e-01 7.54833504071936e-01 3.25746981828999e-03
2.69012195121951e-01 7.48499881152119e-01 3.28837065211712e-03
2.78451219512195e-01 7.42219402118460e-01 3.31751771579269e-03
2.87890243902439e-01 7.35991621031664e-01 3.34499712000046e-03
2.97329268292683e-01 7.29816095737876e-01 3.37088865866052e-03
3.06768292682927e-01 7.23692387770610e-01 3.39526647847417e-03
3.16207317073171e-01 7.17620062324170e-01 3.41819963527687e-03
3.25646341463415e-01 7.11598688279341e-01 3.43975260290825e-03
3.35085365853659e-01 7.05627838097317e-01 3.45998570622445e-03
3.44524390243902e-01 6.99707087862621e-01 3.47895550031660e-03
3.53963414634146e-01 6.93836017198156e-01 3.49671511700522e-03
3.63402439024390e-01 6.88014209238812e-01 3.51331454791411e-03
3.72841463414634e-01 6.82241250649127e-01 3.52880091821581e-03
3.82280487804878e-01 6.76516731530826e-01 3.54321871979116e-03
3.91719512195122e-01 6.70840245455195e-01 3.55661001888221e-03
4.01158536585366e-01 6.65211389388177e-01 3.56901465333569e-03
4.10597560975610e-01 6.59629763664463e-01 3.58047038868676e-03
4.20036585365854e-01 6.54094971999269e-01 3.59101307928360e-03
4.29475609756098e-01 6.48606621406535e-01 3.60067680415610e-03
4.38914634146342e-01 6.43164322223402e-01 3.60949398951264e-03
4.48353658536585e-01 6.37767688043353e-01 3.61749553012509e-03
4.57792682926829e-01 6.32416335690850e-01 3.62471088047649e-03
4.67231707317073e-01 6.27109885228758e-01 3.63116815657966e-03
4.76670731707317e-01 6.21847959885135e-01 3.63689422014573e-03
4.86109756097561e-01 6.16630186071666e-01 3.64191475514198e-03
4.95548780487805e-01 6.11456193323358e-01 3.64625434733805e-03
5.04987804878049e-01 6.06325614273854e-01 3.64993653973071e-03
5.14426829268293e-01 6.01238084659526e-01 3.65298389906617e-03
5.23865853658537e-01 5.96193243262826e-01 3.65541807722292e-03
5.33304878048781e-01 5.91190731888075e-01 3.65725985299443e-03
5.42743902439024e-01 5.86230195363646e-01 3.65852918691272e-03
5.52182926829268e-01 5.81311281479934e-01 3.65924526435998e-03
5.61621951219512e-01 5.76433641000408e-01 3.65942653516396e-03
5.71060975609756e-01 5.71596927609802e-01 3.65909075842730e-03
5.80500000000000e-01 5.66800797890742e-01 3.65825502890873e-03
5.89939024390244e-01 5.62044911323718e-01 3.65693581653606e-03
5.99378048780488e-01 5.57328930230418e-01 3.65514899614892e-03
6.08817073170732e-01 5.52652519781605e-01 3.65290987491406e-03
6.18256097560976e-01 5.48015347949494e-01 3.65023322538599e-03
6.27695121951220e-01 5.43417085485195e-01 3.64713330228402e-03
6.37134146341463e-01 5.38857405916957e-01 3.64362387203791e-03
6.46573170731707e-01 5.34335985498141e-01 3.63971823391170e-03
6.56012195121951e-01 5.29852503212547e-01 3.63542923950988e-03
6.65451219512195e-01 5.25406640730429e-01 3.63076931799522e-03
6.74890243902439e-01 5.20998082386742e-01 3.62575048668233e-03
6.84329268292683e-01 5.16626515178047e-01 3.62038437259970e-03
6.93768292682927e-01 5.12291628720652e-01 3.61468223281916e-03
7.03207317073171e-01 5.07993115229319e-01 3.60865496245950e-03
7.12646341463415e-01 5.03730669513392e-01 3.60231311442160e-03
7.22085365853659e-01 4.99503988931181e-01 3.59566691223143e-03
7.31524390243903e-01 4.95312773391997e-01 3.58872626190164e-03
7.40963414634146e-01 4.91156725317224e-01 3.58150076922122e-03
7.50402439024390e-01 4.87035549619858e-01 3.57399974453840e-03
7.59841463414634e-01 4.82948953699714e-01 3.56623221863431e-03
7.69280487804878e-01 4.78896647401107e-01 3.55820695236284e-03
7.78719512195122e-01 4.74878343013438e-01 3.54993244554607e-03
7.88158536585366e-01 4.70893755234886e-01 3.54141695106439e-03
7.97597560975610e-01 4.66942601152748e-01 3.53266847744819e-03
8.07036585365854e-01 4.63024600237938e-01 3.52369480191996e-03
8.16475609756098e-01 4.59139474305611e-01 3.51450347774599e-03
8.25914634146342e-01 4.55286947514549e-01 3.50510184100141e-03
8.35353658536585e-01 4.51466746333252e-01 3.49549702228186e-03
8.44792682926829e-01 4.47678599521009e-01 3.48569594778811e-03
8.54231707317073e-01 4.43922238121874e-01 3.47570535023331e-03
8.63670731707317e-01 4.40197395427937e-01 3.46553177452903e-03
8.73109756097561e-01 4.36503806977729e-01 3.45518158299335e-03
8.82548780487805e-01 4.32841210524469e-01 3.44466096524922e-03
8.91987804878049e-01 4.29209346017872e-01 3.43397593826264e-03
9.01426829268293e-01 4.25607955597712e-01 3.42313235472128e-03
9.10865853658537e-01 4.22036783563323e-01 3.41213591104483e-03
9.20304878048781e-01 4.18495576355839e-01 3.40099214698543e-03
9.29743902439024e-01 4.14984082551509e-01 3.38970645406776e-03
9.39182926829268e-01 4.11502052828771e-01 3.37828407945098e-03
9.48621951219512e-01 4.08049239965391e-01 3.36673012943804e-03
9.58060975609756e-01 4.04625398809793e-01 3.35504957723516e-03
9.67500000000000e-01 4.01230286264013e-01 3.34324726196604e-03
9.76939024390244e-01 3.97863661276768e-01 3.33132789599311e-03
9.86378048780488e-01 3.94525284812574e-01 3.31929606798455e-03
9.95817073170732e-01 3.91214919848336e-01 3.30715624958755e-03
1.00525609756098e+00 3.87932331330304e-01 3.29491278654379e-03
1.01469512195122e+00 3.84677286222070e-01 3.28256991386315e-03
1.02413414634146e+00 3.81449553412959e-01 3.27013177524411e-03
1.03357317073171e+00 3.78248903701569e-01 3.25760238525358e-03
1.04301219512195e+00 3.75075109870511e-01 3.24498566213429e-03
1.05245121951220e+00 3.71927946549033e-01 3.23228542397287e-03
1.06189024390244e+00 3.68807190316361e-01 3.21950539033982e-03
1.07132926829268e+00 3.65712619568360e-01 3.20664918619339e-03
1.08076829268293e+00 3.62644014617439e-01 3.19372033643974e-03
1.09020731707317e+00 3.59601157590398e-01 3.18072229734226e-03
1.09964634146341e+00 3.56583832415656e-01 3.16765841644455e-03
1.10908536585366e+00 3.53591824888445e-01 3.15453196280812e-03
1.11852439024390e+00 3.50624922548365e-01 3.14134612314531e-03
1.12796341463415e+00 3.47682914769878e-01 3.12810400295856e-03
1.13740243902439e+00 3.44765592643385e-01 3.11480862974736e-03
1.14684146341463e+00 3.41872749062782e-01 3.10146295403295e-03
1.15628048780488e+00 3.39004178609917e-01 3.08806985240443e-03
1.16571951219512e+00 3.36159677639322e-01 3.07463212226094e-03
1.17515853658537e+00 3.33339044189397e-01 3.06115250946945e-03
1.18459756097561e+00 3.30542077970334e-01 3.04763367218952e-03
1.19403658536585e+00 3.27768580419241e-01 3.03407820754792e-03
1.20347560975610e+00 3.25018354593671e-01 3.02048864782529e-03
1.21291463414634e+00 3.22291205248640e-01 3.00686746116069e-03
1.22235365853659e+00 3.19586938733111e-01 2.99321705410160e-03
1.23179268292683e+00 3.16905363064577e-01 2.97953977223003e-03
1.24123170731707e+00 3.14246287828397e-01 2.96583790259939e-03
1.25067073170732e+00 3.11609524250020e-01 2.95211366874736e-03
1.26010975609756e+00 3.08994885117414e-01 2.93836925521167e-03
1.26954878048781e+00 3.06402184769619e-01 2.92460677488120e-03
1.27898780487805e+00 3.03831239143615e-01 2.91082829264191e-03
1.28842682926829e+00 3.01281865681281e-01 2.89703582173002e-03
1.29786585365854e+00 2.98753883395255e-01 2.88323132414817e-03
1.30730487804878e+00 2.96247112778393e-01 2.86941671273335e-03
1.31674390243902e+00 2.93761375867604e-01 2.85559384644452e-03
1.32618292682927e+00 2.91296496173880e-01 2.84176455269720e-03
1.33562195121951e+00 2.88852298671392e-01 2.82793059727219e-03
1.34506097560976e+00 2.86428609838786e-01 2.81409370587747e-03
1.35450000000000e+00 2.84025257575315e-01 2.80025556067204e-03
1.36393902439024e+00 2.81642071259157e-01 2.78641780052806e-03
1.37337804878049e+00 2.79278881665753e-01 2.77258202280515e-03
1.38281707317073e+00 2.76935521024364e-01 2.75874978357422e-03
1.39225609756098e+00 2.74611822938551e-01 2.74492259932298e-03
1.40169512195122e+00 2.72307622441018e-01 2.73110194257635e-03
1.41113414634146e+00 2.70022755931998e-01 2.71728926183900e-03
1.42057317073171e+00 2.67757061169010e-01 2.70348595440778e-03
1.43001219512195e+00 2.65510377302198e-01 2.68969338563299e-03
1.43945121951220e+00 2.63282544800496e-01 2.67591288566443e-03
1.44889024390244e+00 2.61073405501861e-01 2.66214574957287e-03
1.45832926829268e+00 2.58882802541329e-01 2.64839323882788e-03
1.46776829268293e+00 2.56710580399758e-01 2.63465657719161e-03
1.47720731707317e+00 2.54556584847959e-01 2.62093696898542e-03
1.48664634146341e+00 2.52420662936937e-01 2.60723557399884e-03
1.49608536585366e+00 2.50302663029204e-01 2.59355352513377e-03
1.50552439024390e+00 2.48202434731862e-01 2.57989192534266e-03
1.51496341463415e+00 2.46119828941309e-01 2.56625184767254e-03
1.52440243902439e+00 2.44054697778016e-01 2.55263433655523e-03
1.53384146341463e+00 2.42006894629930e-01 2.53904040783370e-03
1.54328048780488e+00 2.39976274088885e-01 2.52547105000687e-03
1.55271951219512e+00 2.37962691992745e-01 2.51192722044926e-03
1.56215853658537e+00 2.35966005375882e-01 2.49840986180258e-03
1.57159756097561e+00 2.33986072460064e-01 2.48491987927080e-03
1.58103658536585e+00 2.32022752681379e-01 2.47145815646688e-03
1.59047560975610e+00 2.30075906630984e-01 2.45802555257283e-03
1.59991463414634e+00 2.28145396093826e-01 2.44462290231500e-03
1.60935365853659e+00 2.26231083990853e-01 2.43125101705975e-03
1.61879268292683e+00 2.24332834416623e-01 2.41791068477520e-03
1.62823170731707e+00 2.22450512582939e-01 2.40460267109154e-03
1.63767073170732e+00 2.20583984855373e-01 2.39132771582401e-03
1.64710975609756e+00 2.18733118709275e-01 2.37808654772202e-03
1.65654878048781e+00 2.16897782721237e-01 2.36487986390657e-03
1.66598780487805e+00 2.15077846592322e-01 2.35170834412585e-03
1.67542682926829e+00 2.13273181095452e-01 2.33857264813646e-03
1.68486585365854e+00 2.11483658109028e-01 2.32547341563173e-03
1.69430487804878e+00 2.09709150565596e-01 2.31241126717958e-03
1.70374390243902e+00 2.07949532484517e-01 2.29938680098162e-03
1.71318292682927e+00 2.06204678931802e-01 2.28640060645054e-03
1.72262195121951e+00 2.04474466012028e-01 2.27345324519186e-03
1.73206097560976e+00 2.02758770889024e-01 2.26054526413281e-03
1.74150000000000e+00 2.01057471737882e-01 2.24767719307232e-03
1.75093902439024e+00 1.99370447775074e-01 2.23484954458470e-03
1.76037804878049e+00 1.97697579211603e-01 2.22206281485353e-03
1.76981707317073e+00 1.96038747282285e-01 2.20931748356917e-03
1.77925609756098e+00 1.94393834200010e-01 2.19661401473772e-03
1.78869512195122e+00 1.92762723184209e-01 2.18395285371027e-03
1.79813414634146e+00 1.91145298424986e-01 2.17133443943695e-03
1.80757317073171e+00 1.89541445075581e-01 2.15875918721594e-03
1.81701219512195e+00 1.87951049270277e-01 2.14622750054575e-03
1.82645121951220e+00 1.86373998081602e-01 2.13373976887125e-03
1.83589024390244e+00 1.84810179546586e-01 2.12129636746613e-03
1.84532926829268e+00 1.83259482624972e-01 2.10889765815531e-03
1.85476829268293e+00 1.81721797224746e-01 2.09654398654648e-03
1.86420731707317e+00 1.80197014169299e-01 2.08423569334025e-03
1.87364634146342e+00 1.78685025190282e-01 2.07197309835434e-03
1.88308536585366e+00 1.77185722943598e-01 2.05975651146130e-03
1.89252439024390e+00 1.75699000970246e-01 2.04758623048570e-03
1.90196341463415e+00 1.74224753719905e-01 2.03546254107573e-03
1.91140243902439e+00 1.72762876512683e-01 2.02338571735023e-03
1.92084146341463e+00 1.71313265562060e-01 2.01135602176814e-03
1.93028048780488e+00 1.69875817937520e-01 1.99937370575763e-03
1.93971951219512e+00 1.68450431586870e-01 1.98743900718263e-03
1.94915853658537e+00 1.67037005306810e-01 1.97555216057486e-03
1.95859756097561e+00 1.65635438736278e-01 1.96371338262198e-03
1.96803658536585e+00 1.64245632370337e-01 1.95192288206850e-03
1.97747560975610e+00 1.62867487525122e-01 1.94018085778295e-03
1.98691463414634e+00 1.61500906358479e-01 1.92848749862223e-03
1.99635365853659e+00 1.60145791835714e-01 1.91684298399714e-03
2.00579268292683e+00 1.58802047749668e-01 1.90524748373482e-03
2.01523170731707e+00 1.57469578687255e-01 1.89370115862900e-03
2.02467073170732e+00 1.56148290048992e-01 1.88220415812005e-03
2.03410975609756e+00 1.54838088022591e-01 1.87075662956674e-03
2.04354878048780e+00 1.53538879576750e-01 1.85935870505376e-03
2.05298780487805e+00 1.52250572473232e-01 1.84801051036155e-03
2.06242682926829e+00 1.50973075235437e-01 1.83671216319379e-03
2.07186585365854e+00 1.49706297166484e-01 1.82546377303805e-03
2.08130487804878e+00 1.48450148318495e-01 1.81426544166200e-03
2.09074390243902e+00 1.47204539510189e-01 1.80311726095337e-03
2.10018292682927e+00 1.45969382302594e-01 1.79201932149987e-03
2.10962195121951e+00 1.44744588993180e-01 1.78097170034963e-03
2.11906097560976e+00 1.43530072626676e-01 1.76997446931392e-03
2.12850000000000e+00 1.42325746966202e-01 1.75902769331363e-03
2.13793902439024e+00 1.41131526509562e-01 1.74813143023949e-03
2.14737804878049e+00 1.39947326461030e-01 1.73728573140070e-03
2.15681707317073e+00 1.38773062747208e-01 1.72649064138514e-03
2.16625609756098e+00 1.37608651989437e-01 1.71574619849642e-03
2.17569512195122e+00 1.36454011519239e-01 1.70505243277685e-03
2.18513414634146e+00 1.35309059356454e-01 1.69440937379475e-03
2.19457317073171e+00 1.34173714203781e-01 1.68381703950495e-03
2.20401219512195e+00 1.33047895456196e-01 1.67327544378527e-03
2.21345121951220e+00 1.31931523175001e-01 1.66278459491996e-03
2.22289024390244e+00 1.30824518102137e-01 1.65234449546169e-03
2.23232926829268e+00 1.29726801634802e-01 1.64195514262737e-03
2.24176829268293e+00 1.28638295839394e-01 1.63161652645636e-03
2.25120731707317e+00 1.27558923431359e-01 1.62132863702807e-03
2.26064634146341e+00 1.26488607770026e-01 1.61109145411671e-03
2.27008536585366e+00 1.25427272867067e-01 1.60090495417584e-03
2.27952439024390e+00 1.24374843362596e-01 1.59076910892433e-03
2.28896341463415e+00 1.23331244538101e-01 1.58068388521087e-03
2.29840243902439e+00 1.22296402293073e-01 1.57064924537320e-03
2.30784146341463e+00 1.21270243157599e-01 1.56066514710366e-03
2.31728048780488e+00 1.20252694269501e-01 1.55073154379931e-03
2.32671951219512e+00 1.19243683386601e-01 1.54084838287647e-03
2.33615853658537e+00 1.18243138868530e-01 1.53101561233126e-03
2.34559756097561e+00 1.17250989671940e-01 1.52123317131309e-03
2.35503658536585e+00 1.16267165357867e-01 1.51150099647573e-03
2.36447560975610e+00 1.15291596070201e-01 1.50181902067971e-03
2.37391463414634e+00 1.14324212547066e-01 1.49218717286148e-03
2.38335365853659e+00 1.13364946099749e-01 1.48260537835184e-03
2.39279268292683e+00 1.12413728623792e-01 1.47307355874593e-03
2.40223170731707e+00 1.11470492578370e-01 1.46359163221399e-03
2.41167073170732e+00 1.10535170997100e-01 1.45415951195747e-03
2.42110975609756e+00 1.09607697471603e-01 1.44477711217868e-03
2.43054878048781e+00 1.08688006147044e-01 1.43544433948653e-03
2.43998780487805e+00 1.07776031728573e-01 1.42616109867413e-03
2.44942682926829e+00 1.06871709461886e-01 1.41692729152951e-03
2.45886585365854e+00 1.05974975143258e-01 1.40774281670977e-03
2.46830487804878e+00 1.05085765100524e-01 1.39860757002397e-03
2.47774390243902e+00 1.04204016202852e-01 1.38952144299482e-03
2.48718292682927e+00 1.03329665845556e-01 1.38048432840019e-03
2.49662195121951e+00 1.02462651945886e-01 1.37149611228118e-03
2.50606097560976e+00 1.01602912948806e-01 1.36255667930698e-03
2.51550000000000e+00 1.00750387809058e-01 1.35366591166476e-03
2.52493902439024e+00 9.99050160002391e-02 1.34482368893845e-03
2.53437804878049e+00 9.90667374972439e-02 1.33602988836668e-03
2.54381707317073e+00 9.82354927851135e-02 1.32728438472254e-03
2.55325609756098e+00 9.74112228418472e-02 1.31858705056549e-03
2.56269512195122e+00 9.65938691470271e-02 1.30993775492404e-03
2.57213414634146e+00 9.57833736680674e-02 1.30133636834330e-03
2.58157317073171e+00 9.49796788562989e-02 1.29278275559181e-03
2.59101219512195e+00 9.41827276520253e-02 1.28427678054886e-03
2.60045121951220e+00 9.33924634682970e-02 1.27581830518619e-03
2.60989024390244e+00 9.26088301989306e-02 1.26740718945256e-03
2.61932926829268e+00 9.18317722026243e-02 1.25904329150384e-03
2.62876829268293e+00 9.10612343107734e-02 1.25072646647416e-03
2.63820731707317e+00 9.02971618147433e-02 1.24245657116726e-03
2.64764634146341e+00 8.95395004621706e-02 1.23423345726911e-03
2.65708536585366e+00 8.87881964615096e-02 1.22605697588941e-03
2.66652439024390e+00 8.80431964670306e-02 1.21792697661176e-03
2.67596341463415e+00 8.73044475860881e-02 1.20984330738262e-03
2.68540243902439e+00 8.65718973644338e-02 1.20180581472166e-03
2.69484146341463e+00 8.58454937933013e-02 1.19381434361219e-03
2.70428048780488e+00 8.51251852950259e-02 1.18586873770646e-03
2.71371951219512e+00 8.44109207299497e-02 1.17796883820033e-03
2.72315853658537e+00 8.37026493848781e-02 1.17011448811021e-03
2.73259756097561e+00 8.30003209696450e-02 1.16230552607418e-03
2.74203658536585e+00 8.23038856210878e-02 1.15454179049390e-03
2.75147560975610e+00 8.16132938894587e-02 1.14682311866257e-03
2.76091463414634e+00 8.09284967448497e-02 1.13914934666033e-03
2.77035365853659e+00 8.02494455638864e-02 1.13152030954212e-03
2.77979268292683e+00 7.95760921359911e-02 1.12393584123394e-03
2.78923170731707e+00 7.89083886503528e-02 1.11639577471670e-03
2.79867073170732e+00 7.82462877020321e-02 1.10889994099444e-03
2.80810975609756e+00 7.75897422814831e-02 1.10144817299683e-03
2.81754878048781e+00 7.69387057713622e-02 1.09404029991514e-03
2.82698780487805e+00 7.62931319500053e-02 1.08667615098052e-03
2.83642682926829e+00 7.56529749791082e-02 1.07935555466440e-03
2.84586585365854e+00 7.50181894094099e-02 1.07207833857963e-03
2.85530487804878e+00 7.43887301686267e-02 1.06484432964880e-03
2.86474390243902e+00 7.37645525669929e-02 1.05765335314151e-03
2.87418292682927e+00 7.31456122875429e-02 1.05050523630545e-03
2.88362195121951e+00 7.25318653830986e-02 1.04339980308965e-03
2.89306097560976e+00 7.19232682793972e-02 1.03633687766046e-03
2.90250000000000e+00 7.13197777636778e-02 1.02931628365477e-03
2.91193902439024e+00 7.07213509898408e-02 1.02233784408579e-03
2.92137804878049e+00 7.01279454672686e-02 1.01540138149705e-03
2.93081707317073e+00 6.95395190658568e-02 1.00850671786942e-03
2.94025609756098e+00 6.89560300050634e-02 1.00165367477187e-03
2.94969512195122e+00 6.83774368588136e-02 9.94842072478765e-04
2.95913414634146e+00 6.78036985466654e-02 9.88071733285487e-04
2.96857317073171e+00 6.72347743310120e-02 9.81342476683556e-04
2.97801219512195e+00 6.66706238198180e-02 9.74654122571196e-04
