Energy (eV)          EEDF (eV^-(3/2))     First Anisotropy
1.85714285714286e-02 9.31354288958931e-02 4.98891788585884e-05
5.57142857142857e-02 9.24803927514135e-02 8.23684207943726e-05
9.28571428571429e-02 9.18299635789051e-02 1.08701762630392e-04
1.30000000000000e-01 9.11841089794784e-02 1.28686798275782e-04
1.67142857142857e-01 9.05427967729735e-02 1.45337519728702e-04
2.04285714285714e-01 8.99059950173888e-02 1.59793735278445e-04
2.41428571428571e-01 8.92736719895704e-02 1.72645423334727e-04
2.78571428571429e-01 8.86457961896919e-02 1.84248928325472e-04
3.15714285714286e-01 8.80223363395088e-02 1.94840632428446e-04
3.52857142857143e-01 8.74032613808910e-02 2.04587639429902e-04
3.90000000000000e-01 8.67885404741620e-02 2.13613673151351e-04
4.27142857142857e-01 8.61781429950823e-02 2.22013629778669e-04
4.64285714285714e-01 8.55720385379106e-02 2.29862352824528e-04
5.01428571428571e-01 8.49701969091005e-02 2.37220220973015e-04
5.38571428571429e-01 8.43725881274720e-02 2.44136864443211e-04
5.75714285714286e-01 8.37791824227004e-02 2.50653727462458e-04
6.12857142857143e-01 8.31899502338646e-02 2.56805888286412e-04
6.50000000000000e-01 8.26048622079536e-02 2.62623385251848e-04
6.87142857142857e-01 8.20238891975451e-02 2.68132203785825e-04
7.24285714285714e-01 8.14470022619938e-02 2.73355025840782e-04
7.61428571428571e-01 8.08741726632747e-02 2.78311808212275e-04
7.98571428571429e-01 8.03053718654845e-02 2.83020234955150e-04
8.35714285714286e-01 7.97405715334126e-02 2.87496076706067e-04
8.72857142857143e-01 7.91797435311442e-02 2.91753479104838e-04
9.10000000000000e-01 7.86228599206498e-02 2.95805196936641e-04
9.47142857142857e-01 7.80698929598048e-02 2.99662785691342e-04
9.84285714285714e-01 7.75208151028087e-02 3.03336760069320e-04
1.02142857142857e+00 7.69755989985509e-02 3.06836727165941e-04
1.05857142857143e+00 7.64342174835526e-02 3.10171496313788e-04
1.09571428571429e+00 7.58966435885907e-02 3.13349171824089e-04
1.13285714285714e+00 7.53628505389629e-02 3.16377236025678e-04
1.17000000000000e+00 7.48328117386009e-02 3.19262615745589e-04
1.20714285714286e+00 7.43065007833486e-02 3.22011739662761e-04
1.24428571428571e+00 7.37838914547514e-02 3.24630590655293e-04
1.28142857142857e+00 7.32649577228909e-02 3.27124751222007e-04
1.31857142857143e+00 7.27496737325837e-02 3.29499440796376e-04
1.35571428571429e+00 7.22380138146545e-02 3.31759547664534e-04
1.39285714285714e+00 7.17299524841854e-02 3.33909662512525e-04
1.43000000000000e+00 7.12254644280535e-02 3.35954102904035e-04
1.46714285714286e+00 7.07245245149048e-02 3.37896935390763e-04
1.50428571428571e+00 7.02271077901361e-02 3.39741997549021e-04
1.54142857142857e+00 6.97331894779114e-02 3.41492917572322e-04
1.57857142857143e+00 6.92427449700894e-02 3.43153129755737e-04
1.61571428571429e+00 6.87557498348795e-02 3.44725887729775e-04
1.65285714285714e+00 6.82721798152957e-02 3.46214281136061e-04
1.69000000000000e+00 6.77920108190082e-02 3.47621246127748e-04
1.72714285714286e+00 6.73152189261186e-02 3.48949575252731e-04
1.76428571428571e+00 6.68417803849592e-02 3.50201928494206e-04
1.80142857142857e+00 6.63716716135552e-02 3.51380843234696e-04
1.83857142857143e+00 6.59048691904689e-02 3.52488741509595e-04
1.87571428571429e+00 6.54413498616495e-02 3.53527936056282e-04
1.91285714285714e+00 6.49810905390311e-02 3.54500640060367e-04
1.95000000000000e+00 6.45240682920538e-02 3.55408972036260e-04
1.98714285714286e+00 6.40702603538801e-02 3.56254960664098e-04
2.02428571428571e+00 6.36196441177945e-02 3.57040551082919e-04
2.06142857142857e+00 6.31721971382708e-02 3.57767610620862e-04
2.09857142857143e+00 6.27278971232356e-02 3.58437932450953e-04
2.13571428571429e+00 6.22867219396058e-02 3.59053238471219e-04
2.17285714285714e+00 6.18486496119995e-02 3.59615185733010e-04
2.21000000000000e+00 6.14136583155146e-02 3.60125368765071e-04
2.24714285714286e+00 6.09817263807936e-02 3.60585322061245e-04
2.28428571428571e+00 6.05528322908824e-02 3.60996524044774e-04
2.32142857142857e+00 6.01269546820084e-02 3.61360400695170e-04
2.35857142857143e+00 5.97040723369356e-02 3.61678327458061e-04
2.39571428571429e+00 5.92841641895130e-02 3.61951630587184e-04
2.43285714285714e+00 5.88672093234782e-02 3.62181591782450e-04
2.47000000000000e+00 5.84531869662170e-02 3.62369449246178e-04
2.50714285714286e+00 5.80420764929491e-02 3.62516398977942e-04
2.54428571428571e+00 5.76338574239508e-02 3.62623597477566e-04
2.58142857142857e+00 5.72285094251162e-02 3.62692164222660e-04
2.61857142857143e+00 5.68260123021752e-02 3.62723182664073e-04
2.65571428571429e+00 5.64263460044780e-02 3.62717700769865e-04
2.69285714285714e+00 5.60294906238766e-02 3.62676734599024e-04
2.73000000000000e+00 5.56354263892698e-02 3.62601268690223e-04
2.76714285714286e+00 5.52441336701010e-02 3.62492256711323e-04
2.80428571428571e+00 5.48555929738779e-02 3.62350623422119e-04
2.84142857142857e+00 5.44697849465668e-02 3.62177266473650e-04
2.87857142857143e+00 5.40866903675110e-02 3.61973056897307e-04
2.91571428571429e+00 5.37062901526094e-02 3.61738839215896e-04
2.95285714285714e+00 5.33285653532675e-02 3.61475434331722e-04
2.99000000000000e+00 5.29534971515837e-02 3.61183639549955e-04
3.02714285714286e+00 5.25810668632990e-02 3.60864228862900e-04
3.06428571428571e+00 5.22112559355631e-02 3.60517954448420e-04
3.10142857142857e+00 5.18440459471997e-02 3.60145548042166e-04
3.13857142857143e+00 5.14794186042026e-02 3.59747721135037e-04
3.17571428571429e+00 5.11173557424268e-02 3.59325164843456e-04
3.21285714285714e+00 5.07578393266015e-02 3.58878552325384e-04
3.25000000000000e+00 5.04008514460504e-02 3.58408538599981e-04
3.28714285714286e+00 5.00463743171952e-02 3.57915760618485e-04
3.32428571428571e+00 4.96943902815325e-02 3.57400838454429e-04
3.36142857142857e+00 4.93448818057966e-02 3.56864376391947e-04
3.39857142857143e+00 4.89978314779407e-02 3.56306962950799e-04
3.43571428571429e+00 4.86532220094291e-02 3.55729170622254e-04
3.47285714285714e+00 4.83110362343073e-02 3.55131557941567e-04
3.51000000000000e+00 4.79712571053712e-02 3.54514669194363e-04
3.54714285714286e+00 4.76338676963066e-02 3.53879034360900e-04
3.58428571428571e+00 4.72988511998447e-02 3.53225170091533e-04
3.62142857142857e+00 4.69661909278451e-02 3.52553580597013e-04
3.65857142857143e+00 4.66358703076883e-02 3.51864757570355e-04
3.69571428571429e+00 4.63078728842393e-02 3.51159179849494e-04
3.73285714285714e+00 4.59821823189689e-02 3.50437315228194e-04
3.77000000000000e+00 4.56587823865067e-02 3.49699620101877e-04
3.80714285714286e+00 4.53376569764779e-02 3.48946539336361e-04
3.84428571428571e+00 4.50187900918142e-02 3.48178507087351e-04
3.88142857142857e+00 4.47021658487741e-02 3.47395947547027e-04
3.91857142857143e+00 4.43877684736878e-02 3.46599274804266e-04
3.95571428571429e+00 4.40755823046464e-02 3.45788892470434e-04
3.99285714285714e+00 4.37655917906712e-02 3.44965195283616e-04
4.03000000000000e+00 4.34577814885974e-02 3.44128568725162e-04
4.06714285714286e+00 4.31521360646570e-02 3.43279388844328e-04
4.10428571428571e+00 4.28486402929264e-02 3.42418022960258e-04
4.14142857142857e+00 4.25472790552966e-02 3.41544830300438e-04
4.17857142857143e+00 4.22480373385238e-02 3.40660161825023e-04
4.21571428571429e+00 4.19509002356876e-02 3.39764359837679e-04
4.25285714285714e+00 4.16558529454047e-02 3.38857759421666e-04
4.29000000000000e+00 4.13628807690004e-02 3.37940688046019e-04
4.32714285714286e+00 4.10719691118767e-02 3.37013465365653e-04
4.36428571428571e+00 4.07831034820816e-02 3.36076403832111e-04
4.40142857142857e+00 4.04962694902392e-02 3.35129809248141e-04
4.43857142857143e+00 4.02114528468670e-02 3.34173980572403e-04
4.47571428571429e+00 3.99286393636385e-02 3.33209209528693e-04
4.51285714285714e+00 3.96478149526387e-02 3.32235781901829e-04
4.55000000000000e+00 3.93689656237870e-02 3.31253977145194e-04
4.58714285714286e+00 3.90920774860240e-02 3.30264068168712e-04
4.62428571428571e+00 3.88171367459877e-02 3.29266321876792e-04
4.66142857142857e+00 3.85441297079129e-02 3.28260999656154e-04
4.69857142857143e+00 3.82730427711826e-02 3.27248357171280e-04
4.73571428571429e+00 3.80038624314245e-02 3.26228643980253e-04
4.77285714285714e+00 3.77365752798046e-02 3.25202104711494e-04
4.81000000000000e+00 3.74711680006726e-02 3.24168978679689e-04
4.84714285714286e+00 3.72076273725930e-02 3.23129499669730e-04
4.88428571428571e+00 3.69459402671185e-02 3.22083896415186e-04
4.92142857142857e+00 3.66860936486638e-02 3.21032393031774e-04
4.95857142857143e+00 3.64280745722654e-02 3.19975208810326e-04
4.99571428571429e+00 3.61718701845346e-02 3.18912557844071e-04
5.03285714285714e+00 3.59174677229880e-02 3.17844650102647e-04
5.07000000000000e+00 3.56648545138896e-02 3.16771691060701e-04
5.10714285714286e+00 3.54140179731486e-02 3.15693881482748e-04
5.14428571428571e+00 3.51649456051796e-02 3.14611417852330e-04
5.18142857142857e+00 3.49176250027576e-02 3.13524492760321e-04
5.21857142857143e+00 3.46720438449620e-02 3.12433294699680e-04
5.25571428571429e+00 3.44281898980070e-02 3.11338007707177e-04
5.29285714285714e+00 3.41860510146060e-02 3.10238812347576e-04
5.33000000000000e+00 3.39456151319898e-02 3.09135885357307e-04
5.36714285714286e+00 3.37068702726886e-02 3.08029399433590e-04
5.40428571428571e+00 3.34698045434717e-02 3.06919523621852e-04
5.44142857142857e+00 3.32344061351878e-02 3.05806423665990e-04
5.47857142857143e+00 3.30006633208731e-02 3.04690261807736e-04
5.51571428571429e+00 3.27685644564767e-02 3.03571196444270e-04
5.55285714285714e+00 3.25380979802563e-02 3.02449383033092e-04
5.59000000000000e+00 3.23092524109541e-02 3.01324973752089e-04
5.62714285714286e+00 3.20820163484791e-02 3.00198117295032e-04
5.66428571428571e+00 3.18563784729188e-02 2.99068959223180e-04
5.70142857142857e+00 3.16323275443675e-02 2.97937642282905e-04
5.73857142857143e+00 3.14098524011841e-02 2.96804306211483e-04
5.77571428571429e+00 3.11889419606236e-02 2.95669087411366e-04
5.81285714285714e+00 3.09695852182646e-02 2.94532119784393e-04
5.85000000000000e+00 3.07517712463261e-02 2.93393534408711e-04
5.88714285714286e+00 3.05354891942629e-02 2.92253459341937e-04
5.92428571428571e+00 3.03207282878436e-02 2.91112019941659e-04
5.96142857142857e+00 3.01074778289704e-02 2.89969339154904e-04
5.99857142857143e+00 2.98957271940701e-02 2.88825537331339e-04
6.03571428571429e+00 2.96854658346462e-02 2.87680731914279e-04
6.07285714285714e+00 2.94766832767345e-02 2.86535038211638e-04
6.11000000000000e+00 2.92693691193476e-02 2.85388569089712e-04
6.14714285714286e+00 2.90635130349954e-02 2.84241434784650e-04
6.18428571428571e+00 2.88591047688227e-02 2.83093743195779e-04
6.22142857142857e+00 2.86561341384236e-02 2.81945600150399e-04
6.25857142857143e+00 2.84545910323531e-02 2.80797109224977e-04
6.29571428571429e+00 2.82544654106093e-02 2.79648371452717e-04
6.33285714285714e+00 2.80557473041163e-02 2.78499486037446e-04
6.37000000000000e+00 2.78584268132842e-02 2.77350550063926e-04
6.40714285714286e+00 2.76624941084638e-02 2.76201658318048e-04
6.44428571428571e+00 2.74679394291394e-02 2.75052903556120e-04
6.48142857142857e+00 2.72747530837397e-02 2.73904376747820e-04
6.51857142857143e+00 2.70829254482586e-02 2.72756166905728e-04
6.55571428571429e+00 2.68924469666768e-02 2.71608360809034e-04
6.59285714285714e+00 2.67033081504698e-02 2.70461043665638e-04
6.63000000000000e+00 2.65154995772737e-02 2.69314298838547e-04
6.66714285714286e+00 2.63290118912815e-02 2.68168207674843e-04
6.70428571428571e+00 2.61438358024871e-02 2.67022849753575e-04
6.74142857142857e+00 2.59599620864944e-02 2.65878303109386e-04
6.77857142857143e+00 2.57773815832377e-02 2.64734644070356e-04
6.81571428571429e+00 2.55960851973495e-02 2.63591946997188e-04
6.85285714285714e+00 2.54160638976933e-02 2.62450284898337e-04
6.89000000000000e+00 2.52373087161245e-02 2.61309729171796e-04
6.92714285714286e+00 2.50598107478367e-02 2.60170349442734e-04
6.96428571428571e+00 2.48835611506523e-02 2.59032213792268e-04
7.00142857142857e+00 2.47085511448314e-02 2.57895388963760e-04
7.03857142857143e+00 2.45347720118829e-02 2.56759940208915e-04
7.07571428571429e+00 2.43622150948853e-02 2.55625931041775e-04
7.11285714285714e+00 2.41908717980424e-02 2.54493423810944e-04
7.15000000000000e+00 2.40207335855322e-02 2.53362479456089e-04
7.18714285714286e+00 2.38517919818081e-02 2.52233157354049e-04
7.22428571428571e+00 2.36840385709333e-02 2.51105515530437e-04
7.26142857142857e+00 2.35174649963904e-02 2.49979610850295e-04
7.29857142857143e+00 2.33520629599755e-02 2.48855498872239e-04
7.33571428571429e+00 2.31878242220773e-02 2.47733233616629e-04
7.37285714285714e+00 2.30247406012558e-02 2.46612868098399e-04
7.41000000000000e+00 2.28628039731698e-02 2.45494454097641e-04
7.44714285714286e+00 2.27020062708400e-02 2.44378042013937e-04
7.48428571428571e+00 2.25423394840233e-02 2.43263681062299e-04
7.52142857142857e+00 2.23837956590241e-02 2.42151419449815e-04
7.55857142857143e+00 2.22263668976646e-02 2.41041304237571e-04
7.59571428571429e+00 2.20700453575274e-02 2.39933381122198e-04
7.63285714285714e+00 2.19148232515549e-02 2.38827694932606e-04
7.67000000000000e+00 2.17606928470505e-02 2.37724289413854e-04
7.70714285714286e+00 2.16076464659070e-02 2.36623207089393e-04
7.74428571428571e+00 2.14556764840184e-02 2.35524489442882e-04
7.78142857142857e+00 2.13047753310935e-02 2.34428177082009e-04
7.81857142857143e+00 2.11549354896963e-02 2.33334309607925e-04
7.85571428571429e+00 2.10061494954563e-02 2.32242925409479e-04
7.89285714285714e+00 2.08584099366880e-02 2.31154062126686e-04
7.93000000000000e+00 2.07117094534591e-02 2.30067756447182e-04
7.96714285714286e+00 2.05660407377887e-02 2.28984043976076e-04
8.00428571428571e+00 2.04213965330940e-02 2.27902959404829e-04
8.04142857142857e+00 2.02777696340069e-02 2.26824536663464e-04
8.07857142857143e+00 2.01351528854784e-02 2.25748808797142e-04
8.11571428571429e+00 1.99935391829614e-02 2.24675807772320e-04
8.15285714285714e+00 1.98529214720479e-02 2.23605564909697e-04
8.19000000000000e+00 1.97132927476000e-02 2.22538110692491e-04
8.22714285714286e+00 1.95746460539211e-02 2.21473474643458e-04
8.26428571428571e+00 1.94369744842348e-02 2.20411685482001e-04
8.30142857142857e+00 1.93002711805057e-02 2.19352771265762e-04
8.33857142857143e+00 1.91645293326022e-02 2.18296759274040e-04
8.37571428571429e+00 1.90297421784549e-02 2.17243675825264e-04
8.41285714285714e+00 1.88959030037113e-02 2.16193546681568e-04
8.45000000000000e+00 1.87630051409243e-02 2.15146396868266e-04
8.48714285714286e+00 1.86310419696994e-02 2.14102250557756e-04
8.52428571428571e+00 1.85000069162046e-02 2.13061131215854e-04
8.56142857142857e+00 1.83698934529939e-02 2.12023061733624e-04
8.59857142857143e+00 1.82406950982258e-02 2.10988064317242e-04
8.63571428571429e+00 1.81124054157992e-02 2.09956160316136e-04
8.67285714285714e+00 1.79850180150255e-02 2.08927370601400e-04
8.71000000000000e+00 1.78585265498690e-02 2.07901715395786e-04
8.74714285714286e+00 1.77329247190742e-02 2.06879214164117e-04
8.78428571428571e+00 1.76082062657033e-02 2.05859885749691e-04
8.82142857142857e+00 1.74843649769644e-02 2.04843748497175e-04
8.85857142857143e+00 1.73613946834801e-02 2.03830820148598e-04
8.89571428571429e+00 1.72392892594045e-02 2.02821117681541e-04
8.93285714285714e+00 1.71180426221103e-02 2.01814657663291e-04
8.97000000000000e+00 1.69976487314796e-02 2.00811456090720e-04
9.00714285714286e+00 1.68781015900114e-02 1.99811528286885e-04
9.04428571428572e+00 1.67593952423863e-02 1.98814889028271e-04
9.08142857142857e+00 1.66415237752985e-02 1.97821552659450e-04
9.11857142857143e+00 1.65244813167724e-02 1.96831532994963e-04
9.15571428571429e+00 1.64082620362605e-02 1.95844843166867e-04
9.19285714285714e+00 1.62928601443478e-02 1.94861495956388e-04
9.23000000000000e+00 1.61782698920864e-02 1.93881503643153e-04
9.26714285714286e+00 1.60644855710874e-02 1.92904877907598e-04
9.30428571428572e+00 1.59515015131099e-02 1.91931629949821e-04
9.34142857142857e+00 1.58393120898983e-02 1.90961770596603e-04
9.37857142857143e+00 1.57279117125412e-02 1.89995310208804e-04
9.41571428571429e+00 1.56172948315553e-02 1.89032258537810e-04
9.45285714285714e+00 1.55074559366035e-02 1.88072625036271e-04
9.49000000000000e+00 1.53983895558716e-02 1.87116418716077e-04
9.52714285714286e+00 1.52900902561459e-02 1.86163648056278e-04
9.56428571428571e+00 1.51825526424255e-02 1.85214321114162e-04
9.60142857142857e+00 1.50757713577642e-02 1.84268445625278e-04
9.63857142857143e+00 1.49697410826693e-02 1.83326028915999e-04
9.67571428571429e+00 1.48644565351730e-02 1.82387077768349e-04
9.71285714285714e+00 1.47599124705630e-02 1.81451598711273e-04
9.75000000000000e+00 1.46561036807994e-02 1.80519597886861e-04
9.78714285714286e+00 1.45530249945789e-02 1.79591080963476e-04
9.82428571428571e+00 1.44506712769687e-02 1.78666053239628e-04
9.86142857142857e+00 1.43490374292537e-02 1.77744519737491e-04
9.89857142857143e+00 1.42481183883724e-02 1.76826485120409e-04
9.93571428571429e+00 1.41479091269765e-02 1.75911953565544e-04
9.97285714285714e+00 1.40484046531747e-02 1.75000929037047e-04
1.00100000000000e+01 1.39496000099852e-02 1.74093415033148e-04
1.00471428571429e+01 1.38514902756802e-02 1.73189415054815e-04
1.00842857142857e+01 1.37540705621794e-02 1.72288931732534e-04
1.01214285714286e+01 1.36573360174151e-02 1.71391967785217e-04
1.01585714285714e+01 1.35612818215386e-02 1.70498525923535e-04
1.01957142857143e+01 1.34659031895552e-02 1.69608607292007e-04
1.02328571428571e+01 1.33711953710476e-02 1.68722213979229e-04
1.02700000000000e+01 1.32771536471568e-02 1.67839347379133e-04
1.03071428571429e+01 1.31837733340431e-02 1.66960008567287e-04
1.03442857142857e+01 1.30910497789993e-02 1.66084198360972e-04
1.03814285714286e+01 1.29989783638305e-02 1.65211917270738e-04
1.04185714285714e+01 1.29075545010536e-02 1.64343165943671e-04
1.04557142857143e+01 1.28167736363365e-02 1.63477943575486e-04
1.04928571428571e+01 1.27266312482354e-02 1.62616250269392e-04
1.05300000000000e+01 1.26371228453879e-02 1.61758085495586e-04
1.05671428571429e+01 1.25482439697194e-02 1.60903448444821e-04
1.06042857142857e+01 1.24599901928295e-02 1.60052338084365e-04
1.06414285714286e+01 1.23723571191246e-02 1.59204753112374e-04
1.06785714285714e+01 1.22853403822837e-02 1.58360692374183e-04
1.07157142857143e+01 1.21989356475180e-02 1.57520153369324e-04
1.07528571428571e+01 1.21131386113218e-02 1.56683134468906e-04
1.07900000000000e+01 1.20279449988606e-02 1.55849633466969e-04
1.08271428571429e+01 1.19433505669436e-02 1.55019647912760e-04
1.08642857142857e+01 1.18593511006627e-02 1.54193175162993e-04
1.09014285714286e+01 1.17759424162969e-02 1.53370212338829e-04
1.09385714285714e+01 1.16931203580240e-02 1.52550756716954e-04
1.09757142857143e+01 1.16108808000156e-02 1.51734804325483e-04
1.10128571428571e+01 1.15292196461999e-02 1.50922352028902e-04
1.10500000000000e+01 1.14481328278307e-02 1.50113396165459e-04
1.10871428571429e+01 1.13676163062444e-02 1.49307932859577e-04
1.11242857142857e+01 1.12876660697317e-02 1.48505958070603e-04
1.11614285714286e+01 1.12082781362326e-02 1.47707467552283e-04
1.11985714285714e+01 1.11294485502750e-02 1.46912457220316e-04
1.12357142857143e+01 1.10511733849175e-02 1.46120921831412e-04
1.12728571428571e+01 1.09734487415248e-02 1.45332856944323e-04
1.13100000000000e+01 1.08962707475027e-02 1.44548257637820e-04
1.13471428571429e+01 1.08196355588569e-02 1.43767118804473e-04
1.13842857142857e+01 1.07435393572802e-02 1.42989435196185e-04
1.14214285714286e+01 1.06679783526539e-02 1.42215201386032e-04
1.14585714285714e+01 1.05929487801966e-02 1.41444412113758e-04
1.14957142857143e+01 1.05184469022665e-02 1.40677061042785e-04
1.15328571428571e+01 1.04444690081488e-02 1.39913142605174e-04
1.15700000000000e+01 1.03710114119439e-02 1.39152650795115e-04
1.16071428571429e+01 1.02980704549446e-02 1.38395579445308e-04
1.16442857142857e+01 1.02256425029212e-02 1.37641922269461e-04
1.16814285714286e+01 1.01537239484449e-02 1.36891672826371e-04
1.17185714285714e+01 1.00823112082315e-02 1.36144824844787e-04
