Energy (eV)          EEDF (eV^-(3/2))     First Anisotropy
5.61111111111111e-02 2.22254900000475e-01 2.73187904312459e-04
1.68333333333333e-01 2.13861907210076e-01 4.44086178339658e-04
2.80555555555556e-01 2.05785858291293e-01 5.67924295973911e-04
3.92777777777778e-01 1.98014784496331e-01 6.51531176269881e-04
5.05000000000000e-01 1.90537169105010e-01 7.13060360281856e-04
6.17222222222222e-01 1.83341930268279e-01 7.59723644974402e-04
7.29444444444444e-01 1.76418404622757e-01 7.95423301393075e-04
8.41666666666667e-01 1.69756331477583e-01 8.22612972791917e-04
9.53888888888889e-01 1.63345837633806e-01 8.42980364240716e-04
1.06611111111111e+00 1.57177422723062e-01 8.57757775640133e-04
1.17833333333333e+00 1.51241945148218e-01 8.67883964121375e-04
1.29055555555556e+00 1.45530608514011e-01 8.74096936361226e-04
1.40277777777778e+00 1.40034948564317e-01 8.76991034129089e-04
1.51500000000000e+00 1.34746820761728e-01 8.77054044955082e-04
1.62722222222222e+00 1.29658388085024e-01 8.74692406573987e-04
1.73944444444444e+00 1.24762109462409e-01 8.70248946109249e-04
1.85166666666667e+00 1.20050728570212e-01 8.64015753117578e-04
1.96388888888889e+00 1.15517263158647e-01 8.56243765802615e-04
2.07611111111111e+00 1.11154994619466e-01 8.47150066005876e-04
2.18833333333333e+00 1.06957458058523e-01 8.36923531038931e-04
2.30055555555556e+00 1.02918432715509e-01 8.25729296072718e-04
2.41277777777778e+00 9.90319327283979e-02 8.13712321133675e-04
2.52500000000000e+00 9.52921983120981e-02 8.01000286831548e-04
2.63722222222222e+00 9.16936871702019e-02 7.87705969944585e-04
2.74944444444444e+00 8.82310662996926e-02 7.73929208677709e-04
2.86166666666667e+00 8.48992040759463e-02 7.59758547572333e-04
2.97388888888889e+00 8.16931626835368e-02 7.45272627382622e-04
3.08611111111111e+00 7.86081907607586e-02 7.30541366806250e-04
3.19833333333333e+00 7.56397163711171e-02 7.15626970521120e-04
3.31055555555556e+00 7.27833402279428e-02 7.00584800521839e-04
3.42277777777778e+00 7.00348291666101e-02 6.85464128319883e-04
3.53500000000000e+00 6.73901098955337e-02 6.70308792113812e-04
3.64722222222222e+00 6.48452629339234e-02 6.55157771836673e-04
3.75944444444444e+00 6.23965168120472e-02 6.40045692159059e-04
3.87166666666667e+00 6.00402424759322e-02 6.25003266632342e-04
3.98388888888889e+00 5.77729479277127e-02 6.10057692186705e-04
4.09611111111111e+00 5.55912730310810e-02 5.95232999611361e-04
4.20833333333333e+00 5.34919845382453e-02 5.80550363648781e-04
4.32055555555556e+00 5.14719712983439e-02 5.66028381921478e-04
4.43277777777778e+00 4.95282396423611e-02 5.51683323129564e-04
4.54500000000000e+00 4.76579089598450e-02 5.37529351252476e-04
4.65722222222222e+00 4.58582074159707e-02 5.23578727311035e-04
4.76944444444444e+00 4.41264678484912e-02 5.09841989827989e-04
4.88166666666667e+00 4.24601238116543e-02 4.96328118059858e-04
4.99388888888889e+00 4.08567057831176e-02 4.83044680468840e-04
5.10611111111111e+00 3.93138374933149e-02 4.69997969259645e-04
5.21833333333333e+00 3.78292324075330e-02 4.57193121055854e-04
5.33055555555556e+00 3.64006903373056e-02 4.44634227699375e-04
5.44277777777778e+00 3.50260941772330e-02 4.32324435952621e-04
5.55500000000000e+00 3.37034067750878e-02 4.20266039129299e-04
5.66722222222222e+00 3.24306679048084e-02 4.08460560597999e-04
5.77944444444444e+00 3.12059913641902e-02 3.96908829007841e-04
5.89166666666667e+00 3.00275621775732e-02 3.85611047087614e-04
6.00388888888889e+00 2.88936339121163e-02 3.74566854986309e-04
6.11611111111111e+00 2.78025260832860e-02 3.63775388151742e-04
6.22833333333333e+00 2.67526216665372e-02 3.53235329342011e-04
6.34055555555556e+00 2.57423647009001e-02 3.42944956943078e-04
6.45277777777778e+00 2.47702579815580e-02 3.32902188473927e-04
6.56500000000000e+00 2.38348608455461e-02 3.23104620951559e-04
6.67722222222222e+00 2.29347870319660e-02 3.13549567831092e-04
6.78944444444444e+00 2.20687026291751e-02 3.04234092208036e-04
6.90166666666667e+00 2.12353240967463e-02 2.95155037293526e-04
7.01388888888889e+00 2.04334163669167e-02 2.86309054634836e-04
7.12611111111111e+00 1.96617910104280e-02 2.77692629935620e-04
7.23833333333333e+00 1.89193044765716e-02 2.69302106085991e-04
7.35055555555556e+00 1.82048563984549e-02 2.61133704710817e-04
7.46277777777778e+00 1.75173879613488e-02 2.53183545407837e-04
7.57500000000000e+00 1.68558803363059e-02 2.45447663687434e-04
7.68722222222222e+00 1.62193531673754e-02 2.37922027351064e-04
7.79944444444444e+00 1.56068631197065e-02 2.30602551035396e-04
7.91166666666667e+00 1.50175024807969e-02 2.23485109524744e-04
8.02388888888889e+00 1.44503978175135e-02 2.16565550092135e-04
8.13611111111111e+00 1.39047086793331e-02 2.09839703725110e-04
8.24833333333333e+00 1.33796263535928e-02 2.03303394936180e-04
8.36055555555556e+00 1.28743726669811e-02 1.96952450983068e-04
8.47277777777778e+00 1.23881988317199e-02 1.90782709916905e-04
8.58500000000000e+00 1.19203843375916e-02 1.84790028098053e-04
8.69722222222222e+00 1.14702358823519e-02 1.78970286977303e-04
8.80944444444444e+00 1.10370863448710e-02 1.73319398936274e-04
8.92166666666667e+00 1.06202937960030e-02 1.67833312563006e-04
9.03388888888889e+00 1.02192405486559e-02 1.62508017516534e-04
9.14611111111111e+00 9.83333224092095e-03 1.57339548865865e-04
9.25833333333333e+00 9.46199695572646e-03 1.52323990686612e-04
9.37055555555555e+00 9.10468437325880e-03 1.47457479448884e-04
9.48277777777778e+00 8.76086495503145e-03 1.42736206794670e-04
9.59500000000000e+00 8.43002916020112e-03 1.38156422118977e-04
9.70722222222222e+00 8.11168668929840e-03 1.33714434807892e-04
9.81944444444444e+00 7.80536575799156e-03 1.29406615985044e-04
9.93166666666667e+00 7.51061239761151e-03 1.25229400007338e-04
1.00438888888889e+01 7.22698978326479e-03 1.21179285804544e-04
1.01561111111111e+01 6.95407758553360e-03 1.17252837925801e-04
1.02683333333333e+01 6.69147134835960e-03 1.13446687353902e-04
1.03805555555556e+01 6.43878188858172e-03 1.09757532377813e-04
1.04927777777778e+01 6.19563471747381e-03 1.06182138151963e-04
1.06050000000000e+01 5.96166949273436e-03 1.02717337503174e-04
1.07172222222222e+01 5.73653947725534e-03 9.93600315545634e-05
1.08294444444444e+01 5.51991102773672e-03 9.61071890537045e-05
1.09416666666667e+01 5.31146309836834e-03 9.29558458554512e-05
1.10538888888889e+01 5.11088677078438e-03 8.99031050461093e-05
1.11661111111111e+01 4.91788479031943e-03 8.69461369938483e-05
1.12783333333333e+01 4.73217112750817e-03 8.40821781642267e-05
1.13905555555556e+01 4.55347055420021e-03 8.13085309390177e-05
1.15027777777778e+01 4.38151823420748e-03 7.86225624660805e-05
1.16150000000000e+01 4.21605933531823e-03 7.60217042741557e-05
1.17272222222222e+01 4.05684864699352e-03 7.35034518530312e-05
1.18394444444444e+01 3.90365021856159e-03 7.10653634014421e-05
1.19516666666667e+01 3.75623700833584e-03 6.87050587180100e-05
1.20638888888889e+01 3.61439055085560e-03 6.64202185640379e-05
1.21761111111111e+01 3.47790062928728e-03 6.42085840122507e-05
1.22883333333333e+01 3.34656496519625e-03 6.20679549939702e-05
1.24005555555556e+01 3.22018891877636e-03 5.99961895566154e-05
1.25127777777778e+01 3.09858519944215e-03 5.79912024947661e-05
1.26250000000000e+01 2.98157359118900e-03 5.60509645281675e-05
1.27372222222222e+01 2.86898068249772e-03 5.41735014832694e-05
1.28494444444444e+01 2.76063961037513e-03 5.23568929361632e-05
1.29616666666667e+01 2.65638981227862e-03 5.05992709757855e-05
1.30738888888889e+01 2.55607679058462e-03 4.88988193104168e-05
1.31861111111111e+01 2.45955188112599e-03 4.72537723863756e-05
1.32983333333333e+01 2.36667203372702e-03 4.56624139830936e-05
1.34105555555556e+01 2.27729960020679e-03 4.41230763097959e-05
1.35227777777778e+01 2.19130212976214e-03 4.26341386947383e-05
1.36350000000000e+01 2.10855217458854e-03 4.11940266639156e-05
1.37472222222222e+01 2.02892709903094e-03 3.98012110388454e-05
1.38594444444444e+01 1.95230889851504e-03 3.84542066838734e-05
1.39716666666667e+01 1.87858402414999e-03 3.71515713497984e-05
1.40838888888889e+01 1.80764321603715e-03 3.58919047655728e-05
1.41961111111111e+01 1.73938133971003e-03 3.46738477518866e-05
1.43083333333333e+01 1.67369723088555e-03 3.34960809910579e-05
1.44205555555556e+01 1.61049354554079e-03 3.23573241506972e-05
1.45327777777778e+01 1.54967661523973e-03 3.12563347411858e-05
1.46450000000000e+01 1.49115630957497e-03 3.01919072498321e-05
1.47572222222222e+01 1.43484590129796e-03 2.91628722985923e-05
1.48694444444444e+01 1.38066193823445e-03 2.81680955727982e-05
1.49816666666667e+01 1.32852411926905e-03 2.72064768248475e-05
1.50938888888889e+01 1.27835517638607e-03 2.62769490563875e-05
1.52061111111111e+01 1.23008075907937e-03 2.53784777241143e-05
1.53183333333333e+01 1.18362932453440e-03 2.45100597191507e-05
1.54305555555556e+01 1.13893203160303e-03 2.36707225958037e-05
1.55427777777778e+01 1.09592263851033e-03 2.28595236258473e-05
1.56550000000000e+01 1.05453740551607e-03 2.20755490490822e-05
1.57672222222222e+01 1.01471499959560e-03 2.13179133468152e-05
1.58794444444444e+01 9.76396403838428e-04 2.05857583652715e-05
1.59916666666667e+01 9.39524829760385e-04 1.98782524962758e-05
1.61038888888889e+01 9.04045633836548e-04 1.91945899859942e-05
1.62161111111111e+01 8.69906235805164e-04 1.85339902654726e-05
1.63283333333333e+01 8.37056040988263e-04 1.78956971315888e-05
1.64405555555556e+01 8.05446365311155e-04 1.72789781037760e-05
1.65527777777778e+01 7.75030362972974e-04 1.66831236661030e-05
1.66650000000000e+01 7.45762957573363e-04 1.61074466484867e-05
1.67772222222222e+01 7.17600774740573e-04 1.55512816280639e-05
1.68894444444444e+01 6.90502078045814e-04 1.50139842319990e-05
1.70016666666667e+01 6.64426707000342e-04 1.44949304834916e-05
1.71138888888889e+01 6.39336017998745e-04 1.39935162394813e-05
1.72261111111111e+01 6.15192826574179e-04 1.35091566470068e-05
1.73383333333333e+01 5.91961352453558e-04 1.30412855005218e-05
1.74505555555556e+01 5.69607166531688e-04 1.25893547231180e-05
1.75627777777778e+01 5.48097139727611e-04 1.21528337722838e-05
1.76750000000000e+01 5.27399394255244e-04 1.17312091442449e-05
1.77872222222222e+01 5.07483256001624e-04 1.13239838950923e-05
1.78994444444444e+01 4.88319209197866e-04 1.09306770970712e-05
1.80116666666667e+01 4.69878852576990e-04 1.05508233271576e-05
1.81238888888889e+01 4.52134857590967e-04 1.01839722212044e-05
1.82361111111111e+01 4.35060927592925e-04 9.82968804336492e-06
1.83483333333333e+01 4.18631758973969e-04 9.48754918983003e-06
1.84605555555556e+01 4.02823003663542e-04 9.15714777993151e-06
1.85727777777778e+01 3.87611232965541e-04 8.83808919750923e-06
1.86850000000000e+01 3.72973903082979e-04 8.52999170211472e-06
1.87972222222222e+01 3.58889321454811e-04 8.23248605372645e-06
1.89094444444444e+01 3.45336614694433e-04 7.94521509476603e-06
1.90216666666667e+01 3.32295697588493e-04 7.66783335608003e-06
1.91338888888889e+01 3.19747243536618e-04 7.40000670976137e-06
1.92461111111111e+01 3.07672655697275e-04 7.14141203413220e-06
1.93583333333333e+01 2.96054039499840e-04 6.89173683510753e-06
1.94705555555556e+01 2.84874176125035e-04 6.65067892917968e-06
1.95827777777778e+01 2.74116496932961e-04 6.41794609359783e-06
1.96950000000000e+01 2.63765059073327e-04 6.19325576601692e-06
1.98072222222222e+01 2.53804521688332e-04 5.97633475477424e-06
1.99194444444444e+01 2.44220123235754e-04 5.76691892102967e-06
2.00316666666667e+01 2.34997659567464e-04 5.56475287860005e-06
2.01438888888889e+01 2.26123463017189e-04 5.36958972722824e-06
2.02561111111111e+01 2.17584382002641e-04 5.18119079534386e-06
2.03683333333333e+01 2.09367761583595e-04 4.99932535383229e-06
2.04805555555556e+01 2.01461424707384e-04 4.82377037328041e-06
2.05927777777778e+01 1.93853654126416e-04 4.65431025957693e-06
2.07050000000000e+01 1.86533175144120e-04 4.49073662455554e-06
2.08172222222222e+01 1.79489138791688e-04 4.33284806486079e-06
2.09294444444444e+01 1.72711105789042e-04 4.18044992226979e-06
2.10416666666667e+01 1.66189031043609e-04 4.03335405702173e-06
2.11538888888889e+01 1.59913248856592e-04 3.89137864500066e-06
2.12661111111111e+01 1.53874458502571e-04 3.75434798221990e-06
2.13783333333333e+01 1.48063710478618e-04 3.62209227002503e-06
2.14905555555556e+01 1.42472393241202e-04 3.49444743098319e-06
2.16027777777778e+01 1.37092220419561e-04 3.37125491048980e-06
2.17150000000000e+01 1.31915218610049e-04 3.25236150320044e-06
2.18272222222222e+01 1.26933715482615e-04 3.13761918574700e-06
2.19394444444444e+01 1.22140328436788e-04 3.02688493723348e-06
2.20516666666667e+01 1.17527953640267e-04 2.92002056926141e-06
2.21638888888889e+01 1.13089755563862e-04 2.81689257296565e-06
2.22761111111111e+01 1.08819156786583e-04 2.71737197160587e-06
2.23883333333333e+01 1.04709828270024e-04 2.62133416033027e-06
2.25005555555556e+01 1.00755679978770e-04 2.52865876760543e-06
2.26127777777778e+01 9.69508518385329e-05 2.43922950722483e-06
2.27250000000000e+01 9.32897051020183e-05 2.35293404790620e-06
2.28372222222222e+01 8.97668139403326e-05 2.26966388764605e-06
2.29494444444444e+01 8.63769574197168e-05 2.18931422002506e-06
2.30616666666667e+01 8.31151117503367e-05 2.11178380747503e-06
2.31738888888889e+01 7.99764428834919e-05 2.03697486667241e-06
2.32861111111111e+01 7.69562993038510e-05 1.96479295812278e-06
2.33983333333333e+01 7.40502051508561e-05 1.89514686721053e-06
2.35105555555556e+01 7.12538535855255e-05 1.82794850055100e-06
2.36227777777778e+01 6.85631003965955e-05 1.76311277613208e-06
2.37350000000000e+01 6.59739578929770e-05 1.70055752591885e-06
2.38472222222222e+01 6.34825889588265e-05 1.64020340203249e-06
2.39594444444444e+01 6.10853013789924e-05 1.58197377763202e-06
2.40716666666667e+01 5.87785423578127e-05 1.52579465286932e-06
2.41838888888889e+01 5.65588932826376e-05 1.47159456948663e-06
2.42961111111111e+01 5.44230646278424e-05 1.41930452855408e-06
2.44083333333333e+01 5.23678910898763e-05 1.36885790252933e-06
2.45205555555556e+01 5.03903268963002e-05 1.32019035812871e-06
2.46327777777778e+01 4.84874412844085e-05 1.27323977510817e-06
2.47450000000000e+01 4.66564141810155e-05 1.22794617387658e-06
2.48572222222222e+01 4.48945319992591e-05 1.18425164577804e-06
2.49694444444444e+01 4.31991836252354e-05 1.14210027989226e-06
2.50816666666667e+01 4.15678565419888e-05 1.10143809352443e-06
2.51938888888889e+01 3.99981331254836e-05 1.06221296885332e-06
2.53061111111111e+01 3.84876870415970e-05 1.02437459191871e-06
2.54183333333333e+01 3.70342798053620e-05 9.87874387833109e-07
2.55305555555556e+01 3.56357574635445e-05 9.52665463633953e-07
2.56427777777778e+01 3.42900473973598e-05 9.18702548445880e-07
2.57550000000000e+01 3.29951552665948e-05 8.85941939902933e-07
2.58672222222222e+01 3.17491620377980e-05 8.54341452553956e-07
2.59794444444444e+01 3.05502211458204e-05 8.23860363982582e-07
2.60916666666667e+01 2.93965557528968e-05 7.94459363605809e-07
2.62038888888889e+01 2.82864561286410e-05 7.66100505859692e-07
2.63161111111111e+01 2.72182771025725e-05 7.38747165119894e-07
2.64283333333333e+01 2.61904356306426e-05 7.12363988112706e-07
2.65405555555556e+01 2.52014084491706e-05 6.86916851727386e-07
2.66527777777778e+01 2.42497298138804e-05 6.62372819062178e-07
2.67650000000000e+01 2.33339893383777e-05 6.38700099907730e-07
2.68772222222222e+01 2.24528298929386e-05 6.15868012697818e-07
2.69894444444444e+01 2.16049455970170e-05 5.93846944962993e-07
2.71016666666667e+01 2.07890798809965e-05 5.72608315725805e-07
2.72138888888889e+01 2.00040236329858e-05 5.52124541020956e-07
2.73261111111111e+01 1.92486133976224e-05 5.32369000696948e-07
2.74383333333333e+01 1.85217296550086e-05 5.13316003551167e-07
2.75505555555556e+01 1.78222951615885e-05 4.94940756284274e-07
2.76627777777778e+01 1.71492733512969e-05 4.77219331297152e-07
2.77750000000000e+01 1.65016668066656e-05 4.60128637633704e-07
2.78872222222222e+01 1.58785157731439e-05 4.43646393005377e-07
2.79994444444444e+01 1.52788967393131e-05 4.27751094837332e-07
2.81116666666667e+01 1.47019210662420e-05 4.12421992720029e-07
2.82238888888889e+01 1.41467336766822e-05 3.97639063086408e-07
2.83361111111111e+01 1.36125117815078e-05 3.83382984832538e-07
2.84483333333333e+01 1.30984636625085e-05 3.69635113832614e-07
2.85605555555556e+01 1.26038274990659e-05 3.56377460155257e-07
2.86727777777778e+01 1.21278702375144e-05 3.43592664523251e-07
2.87850000000000e+01 1.16698865097345e-05 3.31263977003732e-07
2.88972222222222e+01 1.12291975826751e-05 3.19375236493433e-07
2.90094444444444e+01 1.08051503542258e-05 3.07910849566328e-07
2.91216666666667e+01 1.03971163839531e-05 2.96855770337391e-07
2.92338888888889e+01 1.00044909659554e-05 2.86195481911257e-07
2.93461111111111e+01 9.62669222836435e-06 2.75915978523444e-07
2.94583333333333e+01 9.26316027248926e-06 2.66003746949021e-07
2.95705555555556e+01 8.91335634304906e-06 2.56445749822270e-07
2.96827777777778e+01 8.57676202862994e-06 2.47229408463230e-07
2.97950000000000e+01 8.25287849679983e-06 2.38342587285884e-07
2.99072222222222e+01 7.94122575134100e-06 2.29773578789109e-07
3.00194444444444e+01 7.64134192209318e-06 2.21511088133519e-07
3.01316666666667e+01 7.35278257952868e-06 2.13544218452149e-07
3.02438888888889e+01 7.07512007898023e-06 2.05862457289670e-07
3.03561111111111e+01 6.80794292391658e-06 1.98455663548728e-07
3.04683333333333e+01 6.55085515711489e-06 1.91314053951648e-07
3.05805555555556e+01 6.30347577385318e-06 1.84428190854312e-07
3.06927777777778e+01 6.06543815650433e-06 1.77788969739789e-07
3.08050000000000e+01 5.83638953353397e-06 1.71387607833597e-07
3.09172222222222e+01 5.61599045430122e-06 1.65215633145145e-07
3.10294444444444e+01 5.40391428681163e-06 1.59264873241297e-07
3.11416666666667e+01 5.19984673300992e-06 1.53527444549420e-07
3.12538888888889e+01 5.00348536495555e-06 1.47995742463900e-07
3.13661111111111e+01 4.81453917460282e-06 1.42662431823199e-07
3.14783333333333e+01 4.63272814321804e-06 1.37520437066862e-07
3.15905555555556e+01 4.45778282639243e-06 1.32562933349486e-07
3.17027777777778e+01 4.28944395420726e-06 1.27783337447547e-07
3.18150000000000e+01 4.12746204858762e-06 1.23175299461728e-07
3.19272222222222e+01 3.97159705193857e-06 1.18732694830287e-07
3.20394444444444e+01 3.82161797194019e-06 1.14449616169950e-07
3.21516666666667e+01 3.67730253877955e-06 1.10320365498506e-07
3.22638888888889e+01 3.53843687709287e-06 1.06339447029403e-07
3.23761111111111e+01 3.40481518761758e-06 1.02501560236549e-07
3.24883333333333e+01 3.27623944267111e-06 9.88015927081969e-08
3.26005555555556e+01 3.15251909267433e-06 9.52346136782079e-08
3.27127777777778e+01 3.03347078340181e-06 9.17958674240061e-08
3.28250000000000e+01 2.91891808534178e-06 8.84807672287682e-08
3.29372222222222e+01 2.80869123110552e-06 8.52848895702017e-08
3.30494444444444e+01 2.70262686421611e-06 8.22039681989195e-08
3.31616666666667e+01 2.60056779671419e-06 7.92338884917498e-08
3.32738888888889e+01 2.50236277712822e-06 7.63706822122360e-08
3.33861111111111e+01 2.40786626537055e-06 7.36105224678247e-08
3.34983333333333e+01 2.31693821737147e-06 7.09497185284095e-08
3.36105555555556e+01 2.22944387753415e-06 6.83847111244304e-08
3.37227777777778e+01 2.14525357878315e-06 6.59120676596730e-08
3.38350000000000e+01 2.06424255114618e-06 6.35284778243126e-08
3.39472222222222e+01 1.98629073607527e-06 6.12307493727584e-08
3.40594444444444e+01 1.91128260878342e-06 5.90158038313069e-08
3.41716666666667e+01 1.83910700683103e-06 5.68806724036862e-08
3.42838888888889e+01 1.76965696601638e-06 5.48224921664453e-08
3.43961111111111e+01 1.70282956120335e-06 5.28385024072972e-08
3.45083333333333e+01 1.63852575400896e-06 5.09260408725776e-08
3.46205555555556e+01 1.57665024602866e-06 4.90825403542656e-08
3.47327777777778e+01 1.51711133743677e-06 4.73055252228138e-08
3.48450000000000e+01 1.45982079160115e-06 4.55926082439128e-08
3.49572222222222e+01 1.40469370378803e-06 4.39414875149361e-08
3.50694444444444e+01 1.35164837551406e-06 4.23499433571385e-08
3.51816666666667e+01 1.30060619332770e-06 4.08158353501993e-08
3.52938888888889e+01 1.25149151273911e-06 3.93370995730593e-08
3.54061111111111e+01 1.20423154566755e-06 3.79117459485149e-08
