Energy (eV)          EEDF (eV^-(3/2))     First Anisotropy
2.43396226415094e-03 1.73746072418656e+00 8.80348384366990e-04
7.30188679245283e-03 1.72619465440724e+00 1.45387999393642e-03
1.21698113207547e-02 1.71500163625290e+00 1.91974892253803e-03
1.70377358490566e-02 1.70388119603191e+00 2.27395500048161e-03
2.19056603773585e-02 1.69283286316292e+00 2.56960068166201e-03
2.67735849056604e-02 1.68185617007490e+00 2.82675174162022e-03
3.16415094339623e-02 1.67095065220232e+00 3.05578654876072e-03
3.65094339622642e-02 1.66011584806964e+00 3.26296894109215e-03
4.13773584905660e-02 1.64935129914903e+00 3.45245101219685e-03
4.62452830188679e-02 1.63865654986543e+00 3.62716582349693e-03
5.11132075471698e-02 1.62803114764874e+00 3.78928343767870e-03
5.59811320754717e-02 1.61747464283577e+00 3.94046709724956e-03
6.08490566037736e-02 1.60698658867944e+00 4.08202763813967e-03
6.57169811320755e-02 1.59656654131469e+00 4.21502179043150e-03
7.05849056603774e-02 1.58621405978747e+00 4.34031755293443e-03
7.54528301886792e-02 1.57592870598526e+00 4.45863925136684e-03
8.03207547169811e-02 1.56571004462427e+00 4.57059952216467e-03
8.51886792452830e-02 1.55555764326966e+00 4.67672261831222e-03
9.00566037735849e-02 1.54547107227670e+00 4.77746175721470e-03
9.49245283018868e-02 1.53544990478657e+00 4.87321227645838e-03
9.97924528301887e-02 1.52549371669883e+00 4.96432178137291e-03
1.04660377358491e-01 1.51560208669225e+00 5.05109810304172e-03
1.09528301886792e-01 1.50577459610337e+00 5.13381557948286e-03
1.14396226415094e-01 1.49601082912814e+00 5.21272014272792e-03
1.19264150943396e-01 1.48631037248342e+00 5.28803340755229e-03
1.24132075471698e-01 1.47667281573193e+00 5.35995603574195e-03
1.29000000000000e-01 1.46709775094022e+00 5.42867051832106e-03
1.33867924528302e-01 1.45758477296983e+00 5.49434348810513e-03
1.38735849056604e-01 1.44813347916659e+00 5.55712766609870e-03
1.43603773584906e-01 1.43874346962345e+00 5.61716350159081e-03
1.48471698113208e-01 1.42941434689627e+00 5.67458057189284e-03
1.53339622641509e-01 1.42014571624265e+00 5.72949877546618e-03
1.58207547169811e-01 1.41093718536038e+00 5.78202936267528e-03
1.63075471698113e-01 1.40178836460561e+00 5.83227582301651e-03
1.67943396226415e-01 1.39269886675097e+00 5.88033465994746e-03
1.72811320754717e-01 1.38366830718581e+00 5.92629606340535e-03
1.77679245283019e-01 1.37469630369144e+00 5.97024451050671e-03
1.82547169811321e-01 1.36578247657834e+00 6.01225925333546e-03
1.87415094339623e-01 1.35692644866667e+00 6.05241482582612e-03
1.92283018867925e-01 1.34812784512709e+00 6.09078142034887e-03
1.97150943396226e-01 1.33938629365265e+00 6.12742525639597e-03
2.02018867924528e-01 1.33070142426176e+00 6.16240890550005e-03
2.06886792452830e-01 1.32207286945767e+00 6.19579157888798e-03
2.11754716981132e-01 1.31350026404358e+00 6.22762938866289e-03
2.16622641509434e-01 1.30498324527103e+00 6.25797557993873e-03
2.21490566037736e-01 1.29652145266590e+00 6.28688074311004e-03
2.26358490566038e-01 1.28811452816690e+00 6.31439300312152e-03
2.31226415094340e-01 1.27976211596132e+00 6.34055819372064e-03
2.36094339622642e-01 1.27146386261461e+00 6.36542001323247e-03
2.40962264150943e-01 1.26321941691505e+00 6.38902016891410e-03
2.45830188679245e-01 1.25502842999523e+00 6.41139850626692e-03
2.50698113207547e-01 1.24689055518475e+00 6.43259312963096e-03
2.55566037735849e-01 1.23880544812443e+00 6.45264051037636e-03
2.60433962264151e-01 1.23077276662640e+00 6.47157559410571e-03
2.65301886792453e-01 1.22279217075234e+00 6.48943186908575e-03
2.70169811320755e-01 1.21486332279737e+00 6.50624148623556e-03
2.75037735849057e-01 1.20698588718798e+00 6.52203531472345e-03
2.79905660377358e-01 1.19915953058346e+00 6.53684301932007e-03
2.84773584905660e-01 1.19138392174915e+00 6.55069312848768e-03
2.89641509433962e-01 1.18365873165220e+00 6.56361309547701e-03
2.94509433962264e-01 1.17598363334060e+00 6.57562935697523e-03
2.99377358490566e-01 1.16835830203375e+00 6.58676738569991e-03
3.04245283018868e-01 1.16078241500690e+00 6.59705174119848e-03
3.09113207547170e-01 1.15325565167679e+00 6.60650611535720e-03
3.13981132075472e-01 1.14577769349118e+00 6.61515337663061e-03
3.18849056603774e-01 1.13834822400999e+00 6.62301560961054e-03
3.23716981132075e-01 1.13096692879950e+00 6.63011415372188e-03
3.28584905660377e-01 1.12363349550930e+00 6.63646963778344e-03
3.33452830188679e-01 1.11634761377088e+00 6.64210201401755e-03
3.38320754716981e-01 1.10910897527073e+00 6.64703058836357e-03
3.43188679245283e-01 1.10191727365291e+00 6.65127405493622e-03
3.48056603773585e-01 1.09477220456878e+00 6.65485050494835e-03
3.52924528301887e-01 1.08767346566300e+00 6.65777747983204e-03
3.57792452830189e-01 1.08062075650101e+00 6.66007197774642e-03
3.62660377358491e-01 1.07361377863527e+00 6.66175048042540e-03
3.67528301886792e-01 1.06665223551533e+00 6.66282897556338e-03
3.72396226415094e-01 1.05973583255093e+00 6.66332297652637e-03
3.77264150943396e-01 1.05286427702549e+00 6.66324754237884e-03
3.82132075471698e-01 1.04603727815622e+00 6.66261729545287e-03
3.87000000000000e-01 1.03925454701081e+00 6.66144643932354e-03
3.91867924528302e-01 1.03251579656476e+00 6.65974877451632e-03
3.96735849056604e-01 1.02582074162107e+00 6.65753771469475e-03
4.01603773584906e-01 1.01916909886500e+00 6.65482630074261e-03
4.06471698113208e-01 1.01256058678655e+00 6.65162721538522e-03
4.11339622641509e-01 1.00599492573277e+00 6.64795279585125e-03
4.16207547169811e-01 9.99471837833000e-01 6.64381504711580e-03
4.21075471698113e-01 9.92991047048799e-01 6.63922565331370e-03
4.25943396226415e-01 9.86552279101739e-01 6.63419598976966e-03
4.30811320754717e-01 9.80155261521200e-01 6.62873713331274e-03
4.35679245283019e-01 9.73799723574535e-01 6.62285987670690e-03
4.40547169811321e-01 9.67485396298987e-01 6.61657472406182e-03
4.45415094339623e-01 9.61212012489636e-01 6.60989192163266e-03
4.50283018867924e-01 9.54979306646497e-01 6.60282145286403e-03
4.55150943396226e-01 9.48787015018318e-01 6.59537305010133e-03
4.60018867924528e-01 9.42634875537390e-01 6.58755620336905e-03
4.64886792452830e-01 9.36522627861501e-01 6.57938016772257e-03
4.69754716981132e-01 9.30450013310832e-01 6.57085397130966e-03
4.74622641509434e-01 9.24416774908166e-01 6.56198642207681e-03
4.79490566037736e-01 9.18422657317762e-01 6.55278611518927e-03
4.84358490566038e-01 9.12467406883916e-01 6.54326143916225e-03
4.89226415094340e-01 9.06550771571722e-01 6.53342058270239e-03
4.94094339622641e-01 9.00672501004070e-01 6.52327154032330e-03
4.98962264150943e-01 8.94832346404208e-01 6.51282211866823e-03
5.03830188679245e-01 8.89030060631251e-01 6.50207994166000e-03
5.08698113207547e-01 8.83265398124470e-01 6.49105245635494e-03
5.13566037735849e-01 8.77538114937389e-01 6.47974693767648e-03
5.18433962264151e-01 8.71847968683717e-01 6.46817049670073e-03
5.23301886792453e-01 8.66194718559664e-01 6.45633007356532e-03
5.28169811320755e-01 8.60578125333276e-01 6.44423245960482e-03
5.33037735849057e-01 8.54997951302979e-01 6.43188429030661e-03
5.37905660377358e-01 8.49453960329017e-01 6.41929205214271e-03
5.42773584905660e-01 8.43945917782644e-01 6.40646208710911e-03
5.47641509433962e-01 8.38473590576338e-01 6.39340059628137e-03
5.52509433962264e-01 8.33036747114448e-01 6.38011364404863e-03
5.57377358490566e-01 8.27635157322245e-01 6.36660716140076e-03
5.62245283018868e-01 8.22268592597955e-01 6.35288694988662e-03
5.67113207547170e-01 8.16936825840707e-01 6.33895868465752e-03
5.71981132075472e-01 8.11639631403897e-01 6.32482791817101e-03
5.76849056603774e-01 8.06376785122078e-01 6.31050008301305e-03
5.81716981132075e-01 8.01148064265606e-01 6.29598049536788e-03
5.86584905660377e-01 7.95953247566521e-01 6.28127435763818e-03
5.91452830188679e-01 7.90792115174427e-01 6.26638676170153e-03
5.96320754716981e-01 7.85664448681409e-01 6.25132269134610e-03
6.01188679245283e-01 7.80570031079089e-01 6.23608702770610e-03
6.06056603773585e-01 7.75508646774563e-01 6.22068454200448e-03
6.10924528301887e-01 7.70480081580917e-01 6.20511991265485e-03
6.15792452830189e-01 7.65484122683962e-01 6.18939771815568e-03
6.20660377358491e-01 7.60520558665310e-01 6.17352244160355e-03
6.25528301886792e-01 7.55589179461826e-01 6.15749847332913e-03
6.30396226415094e-01 7.50689776387866e-01 6.14133011279254e-03
6.35264150943396e-01 7.45822142095783e-01 6.12502157107314e-03
6.40132075471698e-01 7.40986070597358e-01 6.10857697263886e-03
6.45000000000000e-01 7.36181357225323e-01 6.09200035769580e-03
6.49867924528302e-01 7.31407798654021e-01 6.07529568384225e-03
6.54735849056604e-01 7.26665192861911e-01 6.05846682829243e-03
6.59603773584906e-01 7.21953339151488e-01 6.04151758942282e-03
6.64471698113207e-01 7.17272038112731e-01 6.02445168887544e-03
6.69339622641509e-01 7.12621091642318e-01 6.00727277300611e-03
6.74207547169811e-01 7.08000302907988e-01 5.98998441487910e-03
6.79075471698113e-01 7.03409476367075e-01 5.97259011562249e-03
6.83943396226415e-01 6.98848417731750e-01 5.95509330632019e-03
6.88811320754717e-01 6.94316933986904e-01 5.93749734928324e-03
6.93679245283019e-01 6.89814833356249e-01 5.91980554179945e-03
6.98547169811321e-01 6.85341925313389e-01 5.90202110949548e-03
7.03415094339623e-01 6.80898020573498e-01 5.88414721974183e-03
7.08283018867925e-01 6.76482931066782e-01 5.86618697518628e-03
7.13150943396226e-01 6.72096469955093e-01 5.84814341687285e-03
7.18018867924528e-01 6.67738451599788e-01 5.83001952582786e-03
7.22886792452830e-01 6.63408691577772e-01 5.81181822407668e-03
7.27754716981132e-01 6.59107006650127e-01 5.79354237615555e-03
7.32622641509434e-01 6.54833214777599e-01 5.77519479006763e-03
7.37490566037736e-01 6.50587135089969e-01 5.75677821872250e-03
7.42358490566038e-01 6.46368587901011e-01 5.73829536083631e-03
7.47226415094340e-01 6.42177394678583e-01 5.71974886230457e-03
7.52094339622641e-01 6.38013378059077e-01 5.70114131705052e-03
7.56962264150943e-01 6.33876361818203e-01 5.68247526833567e-03
7.61830188679245e-01 6.29766170884946e-01 5.66375320955780e-03
7.66698113207547e-01 6.25682631313035e-01 5.64497758550289e-03
7.71566037735849e-01 6.21625570294419e-01 5.62615079309778e-03
7.76433962264151e-01 6.17594816131393e-01 5.60727518426290e-03
7.81301886792453e-01 6.13590198244675e-01 5.58835305998964e-03
7.86169811320755e-01 6.09611547165982e-01 5.56938668139245e-03
7.91037735849057e-01 6.05658694516026e-01 5.55037826394974e-03
7.95905660377358e-01 6.01731473017073e-01 5.53132997987465e-03
8.00773584905660e-01 5.97829716466436e-01 5.51224395919049e-03
8.05641509433962e-01 5.93953259748611e-01 5.49312229034156e-03
8.10509433962264e-01 5.90101938809376e-01 5.47396702122350e-03
8.15377358490566e-01 5.86275590667513e-01 5.45478015976188e-03
8.20245283018868e-01 5.82474053389487e-01 5.43556367489765e-03
8.25113207547170e-01 5.78697166100781e-01 5.41631949713395e-03
8.29981132075472e-01 5.74944768961131e-01 5.39704951948320e-03
8.34849056603774e-01 5.71216703175491e-01 5.37775559798363e-03
8.39716981132075e-01 5.67512810969811e-01 5.35843955260725e-03
8.44584905660377e-01 5.63832935601634e-01 5.33910316774789e-03
8.49452830188679e-01 5.60176921336413e-01 5.31974819309493e-03
8.54320754716981e-01 5.56544613457752e-01 5.30037634409453e-03
8.59188679245283e-01 5.52935858244241e-01 5.28098930419700e-03
8.64056603773585e-01 5.49350502975353e-01 5.26158871964829e-03
8.68924528301887e-01 5.45788395924823e-01 5.24217620873185e-03
8.73792452830189e-01 5.42249386342219e-01 5.22275335670504e-03
8.78660377358491e-01 5.38733324462499e-01 5.20332171766654e-03
8.83528301886792e-01 5.35240061483938e-01 5.18388281531813e-03
8.88396226415094e-01 5.31769449577368e-01 5.16443814334419e-03
8.93264150943396e-01 5.28321341864578e-01 5.14498916614562e-03
8.98132075471698e-01 5.24895592427254e-01 5.12553731919961e-03
9.03000000000000e-01 5.21492056285831e-01 5.10608400976531e-03
9.07867924528302e-01 5.18110589408149e-01 5.08663061722512e-03
9.12735849056604e-01 5.14751048688748e-01 5.06717849376407e-03
9.17603773584906e-01 5.11413291957242e-01 5.04772896469421e-03
9.22471698113208e-01 5.08097177958048e-01 5.02828332911015e-03
9.27339622641509e-01 5.04802566358489e-01 5.00884286019460e-03
9.32207547169811e-01 5.01529317728946e-01 4.98940880585035e-03
9.37075471698113e-01 4.98277293550697e-01 4.96998238899180e-03
9.41943396226415e-01 4.95046356196483e-01 4.95056480815380e-03
9.46811320754717e-01 4.91836368938091e-01 4.93115723776744e-03
9.51679245283019e-01 4.88647195927322e-01 4.91176082993128e-03
9.56547169811321e-01 4.85478702200133e-01 4.89237670993304e-03
9.61415094339623e-01 4.82330753670797e-01 4.87300598390016e-03
9.66283018867924e-01 4.79203217116654e-01 4.85364973444654e-03
9.71150943396226e-01 4.76095960185185e-01 4.83430902214318e-03
9.76018867924528e-01 4.73008851375851e-01 4.81498488605796e-03
9.80886792452830e-01 4.69941760046941e-01 4.79567834398349e-03
9.85754716981132e-01 4.66894556397776e-01 4.77639039295972e-03
9.90622641509434e-01 4.63867111475337e-01 4.75712200949021e-03
9.95490566037736e-01 4.60859297156830e-01 4.73787415004607e-03
1.00035849056604e+00 4.57870986156102e-01 4.71864774803641e-03
1.00522641509434e+00 4.54902052015074e-01 4.69944373048329e-03
1.01009433962264e+00 4.51952369067343e-01 4.68026298697914e-03
1.01496226415094e+00 4.49021812512230e-01 4.66110639888550e-03
1.01983018867925e+00 4.46110258302234e-01 4.64197482756167e-03
1.02469811320755e+00 4.43217583249666e-01 4.62286911562327e-03
1.02956603773585e+00 4.40343664910738e-01 4.60379008853685e-03
1.03443396226415e+00 4.37488381689908e-01 4.58473854348628e-03
1.03930188679245e+00 4.34651612752698e-01 4.56571529168277e-03
1.04416981132075e+00 4.31833238022279e-01 4.54672109647887e-03
1.04903773584906e+00 4.29033138252655e-01 4.52775671457559e-03
1.05390566037736e+00 4.26251194919363e-01 4.50882288696783e-03
1.05877358490566e+00 4.23487290317624e-01 4.48992033801672e-03
1.06364150943396e+00 4.20741307455266e-01 4.47104977691993e-03
1.06850943396226e+00 4.18013130148808e-01 4.45221189679292e-03
1.07337735849057e+00 4.15302642918559e-01 4.43340737611067e-03
1.07824528301887e+00 4.12609731082676e-01 4.41463687779843e-03
1.08311320754717e+00 4.09934280654393e-01 4.39590105064536e-03
1.08798113207547e+00 4.07276178434098e-01 4.37720051916910e-03
1.09284905660377e+00 4.04635311931968e-01 4.35853592200174e-03
1.09771698113208e+00 4.02011569364666e-01 4.33990785567778e-03
1.10258490566038e+00 3.99404839719945e-01 4.32131691201890e-03
1.10745283018868e+00 3.96815012659597e-01 4.30276366988481e-03
1.11232075471698e+00 3.94241978606186e-01 4.28424869430913e-03
1.11718867924528e+00 3.91685628647949e-01 4.26577253780634e-03
1.12205660377358e+00 3.89145854623724e-01 4.24733573951876e-03
1.12692452830189e+00 3.86622549029744e-01 4.22893882649666e-03
1.13179245283019e+00 3.84115605102818e-01 4.21058231285445e-03
1.13666037735849e+00 3.81624916728975e-01 4.19226670102906e-03
1.14152830188679e+00 3.79150378524919e-01 4.17399247254598e-03
1.14639622641509e+00 3.76691885769210e-01 4.15576012289054e-03
1.15126415094340e+00 3.74249334399085e-01 4.13757011039215e-03
1.15613207547170e+00 3.71822621067617e-01 4.11942289018575e-03
1.16100000000000e+00 3.69411643057345e-01 4.10131890669095e-03
1.16586792452830e+00 3.67016298357097e-01 4.08325859281064e-03
1.17073584905660e+00 3.64636485577323e-01 4.06524237109649e-03
1.17560377358491e+00 3.62272104025341e-01 4.04727065295817e-03
1.18047169811321e+00 3.59923053622343e-01 4.02934383980555e-03
1.18533962264151e+00 3.57589234977100e-01 4.01146231450415e-03
1.19020754716981e+00 3.55270549323383e-01 3.99362647360392e-03
1.19507547169811e+00 3.52966898516896e-01 3.97583668005564e-03
1.19994339622641e+00 3.50678185087015e-01 3.95809329460186e-03
1.20481132075472e+00 3.48404312158228e-01 3.94039666881123e-03
1.20967924528302e+00 3.46145183519724e-01 3.92274714432674e-03
1.21454716981132e+00 3.43900703548369e-01 3.90514505392744e-03
1.21941509433962e+00 3.41670777276884e-01 3.88759072078769e-03
1.22428301886792e+00 3.39455310318317e-01 3.87008445951876e-03
1.22915094339623e+00 3.37254208932853e-01 3.85262657543830e-03
1.23401886792453e+00 3.35067379953741e-01 3.83521736559208e-03
1.23888679245283e+00 3.32894730852765e-01 3.81785711096196e-03
1.24375471698113e+00 3.30736169684334e-01 3.80054610580059e-03
1.24862264150943e+00 3.28591605082582e-01 3.78328461455533e-03
1.25349056603774e+00 3.26460946307300e-01 3.76607290044805e-03
1.25835849056604e+00 3.24344103173760e-01 3.74891121911265e-03
1.26322641509434e+00 3.22240986114588e-01 3.73179981790177e-03
1.26809433962264e+00 3.20151506110927e-01 3.71473893683829e-03
1.27296226415094e+00 3.18075574753076e-01 3.69772880793170e-03
1.27783018867925e+00 3.16013104172975e-01 3.68076965611200e-03
1.28269811320755e+00 3.13964007103639e-01 3.66386169855479e-03
1.28756603773585e+00 3.11928196812925e-01 3.64700514559883e-03
1.29243396226415e+00 3.09905587161793e-01 3.63020019363412e-03
1.29730188679245e+00 3.07896092554270e-01 3.61344705182979e-03
1.30216981132075e+00 3.05899627934703e-01 3.59674590285580e-03
1.30703773584906e+00 3.03916108828611e-01 3.58009692892813e-03
1.31190566037736e+00 3.01945451279897e-01 3.56350030599468e-03
1.31677358490566e+00 2.99987571905938e-01 3.54695620309636e-03
1.32164150943396e+00 2.98042387835974e-01 3.53046478322149e-03
1.32650943396226e+00 2.96109816765128e-01 3.51402620267523e-03
1.33137735849057e+00 2.94189776893951e-01 3.49764061191997e-03
1.33624528301887e+00 2.92282186981379e-01 3.48130815495184e-03
1.34111320754717e+00 2.90386966285420e-01 3.46502897012700e-03
1.34598113207547e+00 2.88504034615079e-01 3.44880318366401e-03
1.35084905660377e+00 2.86633312285507e-01 3.43263093402118e-03
1.35571698113208e+00 2.84774720115398e-01 3.41651233605226e-03
1.36058490566038e+00 2.82928179463393e-01 3.40044750475996e-03
1.36545283018868e+00 2.81093612171792e-01 3.38443654998196e-03
1.37032075471698e+00 2.79270940615707e-01 3.36847957580134e-03
1.37518867924528e+00 2.77460087647812e-01 3.35257668131674e-03
1.38005660377358e+00 2.75660976646548e-01 3.33672796006032e-03
1.38492452830189e+00 2.73873531461904e-01 3.32093350075528e-03
1.38979245283019e+00 2.72097676462685e-01 3.30519338674132e-03
1.39466037735849e+00 2.70333336483297e-01 3.28950769671908e-03
1.39952830188679e+00 2.68580436870107e-01 3.27387649881102e-03
1.40439622641509e+00 2.66838903441178e-01 3.25829987281273e-03
1.40926415094340e+00 2.65108662483800e-01 3.24277787745704e-03
1.41413207547170e+00 2.63389640786987e-01 3.22731057209618e-03
1.41900000000000e+00 2.61681765590936e-01 3.21189801184183e-03
1.42386792452830e+00 2.59984964630945e-01 3.19654024702105e-03
1.42873584905660e+00 2.58299166087801e-01 3.18123732387153e-03
1.43360377358491e+00 2.56624298630854e-01 3.16598928400575e-03
1.43847169811321e+00 2.54960291369322e-01 3.15079616509389e-03
1.44333962264151e+00 2.53307073894536e-01 3.13565799535084e-03
1.44820754716981e+00 2.51664576243072e-01 3.12057481417908e-03
1.45307547169811e+00 2.50032728894388e-01 3.10554664178311e-03
1.45794339622642e+00 2.48411462800440e-01 3.09057349928693e-03
1.46281132075472e+00 2.46800709339397e-01 3.07565540421883e-03
1.46767924528302e+00 2.45200400355698e-01 3.06079237000326e-03
1.47254716981132e+00 2.43610468114603e-01 3.04598440660022e-03
1.47741509433962e+00 2.42030845341496e-01 3.03123152000436e-03
1.48228301886792e+00 2.40461465177263e-01 3.01653371287359e-03
1.48715094339623e+00 2.38902261216844e-01 3.00189098403517e-03
1.49201886792453e+00 2.37353167465430e-01 2.98730332910289e-03
1.49688679245283e+00 2.35814118376283e-01 2.97277073543302e-03
1.50175471698113e+00 2.34285048817539e-01 2.95829320099153e-03
1.50662264150943e+00 2.32765894069986e-01 2.94387070656841e-03
1.51149056603774e+00 2.31256589853566e-01 2.92950323416667e-03
1.51635849056604e+00 2.29757072285705e-01 2.91519076286777e-03
1.52122641509434e+00 2.28267277917201e-01 2.90093326836348e-03
1.52609433962264e+00 2.26787143691304e-01 2.88673072353490e-03
1.53096226415094e+00 2.25316606978926e-01 2.87258309799060e-03
1.53583018867925e+00 2.23855605538466e-01 2.85849035863549e-03
