Energy (eV)          EEDF (eV^-(3/2))     First Anisotropy
8.17105263157895e-04 1.47390437983148e+01 8.30338878480806e-03
2.45131578947368e-03 1.46056463801383e+01 1.36952480189708e-02
4.08552631578947e-03 1.44734562912085e+01 1.80369239563272e-02
5.71973684210526e-03 1.43424626038477e+01 2.13096643456675e-02
7.35394736842105e-03 1.42126544899146e+01 2.40180134053164e-02
8.98815789473684e-03 1.40840212194234e+01 2.63533489814378e-02
1.06223684210526e-02 1.39565521591548e+01 2.84150130928484e-02
1.22565789473684e-02 1.38302367721947e+01 3.02631748165573e-02
1.38907894736842e-02 1.37050646174747e+01 3.19378570059089e-02
1.55250000000000e-02 1.35810253479600e+01 3.34674296332728e-02
1.71592105263158e-02 1.34581087096762e+01 3.48729543360799e-02
1.87934210526316e-02 1.33363045428099e+01 3.61706285527795e-02
2.04276315789474e-02 1.32156027787632e+01 3.73732608208001e-02
2.20618421052632e-02 1.30959934400818e+01 3.84912110953343e-02
2.36960526315789e-02 1.29774666391923e+01 3.95330169119995e-02
2.53302631578947e-02 1.28600125789247e+01 4.05058256203886e-02
2.69644736842105e-02 1.27436215502901e+01 4.14157017369954e-02
2.85986842105263e-02 1.26282839321834e+01 4.22678509932237e-02
3.02328947368421e-02 1.25139901902553e+01 4.30667873503980e-02
3.18671052631579e-02 1.24007308771262e+01 4.38164599666861e-02
3.35013157894737e-02 1.22884966305622e+01 4.45203513046757e-02
3.51355263157895e-02 1.21772781727958e+01 4.51815538372766e-02
3.67697368421053e-02 1.20670663106019e+01 4.58028311762542e-02
3.84039473684211e-02 1.19578519336619e+01 4.63866671918386e-02
4.00381578947368e-02 1.18496260141100e+01 4.69353058300098e-02
4.16723684210526e-02 1.17423796055701e+01 4.74507837844216e-02
4.33065789473684e-02 1.16361038430963e+01 4.79349576121104e-02
4.49407894736842e-02 1.15307899417372e+01 4.83895263635433e-02
4.65750000000000e-02 1.14264291960512e+01 4.88160505266942e-02
4.82092105263158e-02 1.13230129792039e+01 4.92159680684112e-02
4.98434210526316e-02 1.12205327428190e+01 4.95906081662320e-02
5.14776315789474e-02 1.11189800156919e+01 4.99412029790907e-02
5.31118421052632e-02 1.10183464032885e+01 5.02688977176874e-02
5.47460526315789e-02 1.09186235868952e+01 5.05747593717157e-02
5.63802631578947e-02 1.08198033234089e+01 5.08597843653965e-02
5.80144736842105e-02 1.07218774441656e+01 5.11249052529826e-02
5.96486842105263e-02 1.06248378544345e+01 5.13709965316680e-02
6.12828947368421e-02 1.05286765326131e+01 5.15988797700416e-02
6.29171052631579e-02 1.04333855299745e+01 5.18093282007342e-02
6.45513157894737e-02 1.03389569695905e+01 5.20030708147681e-02
6.61855263157895e-02 1.02453830457038e+01 5.21807958811114e-02
6.78197368421053e-02 1.01526560234533e+01 5.23431542170663e-02
6.94539473684210e-02 1.00607682378555e+01 5.24907621080776e-02
7.10881578947368e-02 9.96971209329926e+00 5.26242038759588e-02
7.27223684210526e-02 9.87948006281296e+00 5.27440341982875e-02
7.43565789473684e-02 9.79006468776627e+00 5.28507802534168e-02
7.59907894736842e-02 9.70145857692272e+00 5.29449436660136e-02
7.76250000000000e-02 9.61365440594107e+00 5.30270022218823e-02
7.92592105263158e-02 9.52664491667639e+00 5.30974114328288e-02
8.08934210526316e-02 9.44042291686631e+00 5.31566060091785e-02
8.25276315789474e-02 9.35498127924470e+00 5.32050012076490e-02
8.41618421052632e-02 9.27031294105186e+00 5.32429940178425e-02
8.57960526315789e-02 9.18641090336707e+00 5.32709642546929e-02
8.74302631578947e-02 9.10326823078457e+00 5.32892756045294e-02
8.90644736842105e-02 9.02087805058115e+00 5.32982765901266e-02
9.06986842105263e-02 8.93923355223638e+00 5.32983014164360e-02
9.23328947368421e-02 8.85832798679459e+00 5.32896707554390e-02
9.39671052631579e-02 8.77815466653459e+00 5.32726925112833e-02
9.56013157894737e-02 8.69870696418527e+00 5.32476625406135e-02
9.72355263157895e-02 8.61997831238744e+00 5.32148652319945e-02
9.88697368421053e-02 8.54196220336195e+00 5.31745741322900e-02
1.00503947368421e-01 8.46465218815712e+00 5.31270525581606e-02
1.02138157894737e-01 8.38804187592762e+00 5.30725539246973e-02
1.03772368421053e-01 8.31212493451308e+00 5.30113224961627e-02
1.05406578947368e-01 8.23689508784850e+00 5.29435936420875e-02
1.07040789473684e-01 8.16234611791785e+00 5.28695943164260e-02
1.08675000000000e-01 8.08847186176738e+00 5.27895434635049e-02
1.10309210526316e-01 8.01526621340569e+00 5.27036523690886e-02
1.11943421052632e-01 7.94272312095035e+00 5.26121250277463e-02
1.13577631578947e-01 7.87083658841756e+00 5.25151584511454e-02
1.15211842105263e-01 7.79960067299329e+00 5.24129429943041e-02
1.16846052631579e-01 7.72900948672048e+00 5.23056626273614e-02
1.18480263157895e-01 7.65905719388682e+00 5.21934952265157e-02
1.20114473684211e-01 7.58973801261670e+00 5.20766128144641e-02
1.21748684210526e-01 7.52104621236837e+00 5.19551818208514e-02
1.23382894736842e-01 7.45297611543735e+00 5.18293632957095e-02
1.25017105263158e-01 7.38552209455622e+00 5.16993132153490e-02
1.26651315789474e-01 7.31867857386301e+00 5.15651823841294e-02
1.28285526315789e-01 7.25244002841149e+00 5.14271170752568e-02
1.29919736842105e-01 7.18680098235643e+00 5.12852589259789e-02
1.31553947368421e-01 7.12175601029505e+00 5.11397451744474e-02
1.33188157894737e-01 7.05729973506510e+00 5.09907088418492e-02
1.34822368421053e-01 6.99342682901437e+00 5.08382788760700e-02
1.36456578947368e-01 6.93013201188456e+00 5.06825803172213e-02
1.38090789473684e-01 6.86741005201344e+00 5.05237344268063e-02
1.39725000000000e-01 6.80525576429973e+00 5.03618588385738e-02
1.41359210526316e-01 6.74366401134223e+00 5.01970676749389e-02
1.42993421052632e-01 6.68262970148136e+00 5.00294716848489e-02
1.44627631578947e-01 6.62214778987906e+00 4.98591783489458e-02
1.46261842105263e-01 6.56221327663302e+00 4.96862920058732e-02
1.47896052631579e-01 6.50282120780105e+00 4.95109139474970e-02
1.49530263157895e-01 6.44396667358412e+00 4.93331425349055e-02
1.51164473684211e-01 6.38564480929858e+00 4.91530732847893e-02
1.52798684210526e-01 6.32785079362452e+00 4.89707989762391e-02
1.54432894736842e-01 6.27057984952897e+00 4.87864097292485e-02
1.56067105263158e-01 6.21382724257634e+00 4.85999931574082e-02
1.57701315789474e-01 6.15758828149993e+00 4.84116342222125e-02
1.59335526315789e-01 6.10185831779582e+00 4.82214156480042e-02
1.60969736842105e-01 6.04663274442266e+00 4.80294177800087e-02
1.62603947368421e-01 5.99190699663268e+00 4.78357187040338e-02
1.64238157894737e-01 5.93767655040680e+00 4.76403943279919e-02
1.65872368421053e-01 5.88393692324462e+00 4.74435184386673e-02
1.67506578947368e-01 5.83068367265293e+00 4.72451627774622e-02
1.69140789473684e-01 5.77791239689702e+00 4.70453970923661e-02
1.70775000000000e-01 5.72561873354014e+00 4.68442892084653e-02
1.72409210526316e-01 5.67379836015827e+00 4.66419050755932e-02
1.74043421052632e-01 5.62244699292823e+00 4.64383088340656e-02
1.75677631578947e-01 5.57156038730788e+00 4.62335628584414e-02
1.77311842105263e-01 5.52113433667076e+00 4.60277278189084e-02
1.78946052631579e-01 5.47116467295351e+00 4.58208627215099e-02
1.80580263157895e-01 5.42164726533505e+00 4.56130249655541e-02
1.82214473684211e-01 5.37257802085301e+00 4.54042703806561e-02
1.83848684210526e-01 5.32395288312545e+00 4.51946532805060e-02
1.85482894736842e-01 5.27576783293798e+00 4.49842264969961e-02
1.87117105263158e-01 5.22801888700621e+00 4.47730414722902e-02
1.88751315789474e-01 5.18070209832055e+00 4.45611481233832e-02
1.90385526315789e-01 5.13381355580760e+00 4.43485951384079e-02
1.92019736842105e-01 5.08734938336379e+00 4.41354298462999e-02
1.93653947368421e-01 5.04130574038667e+00 4.39216982888168e-02
1.95288157894737e-01 4.99567882062126e+00 4.37074452639084e-02
1.96922368421053e-01 4.95046485266641e+00 4.34927143514252e-02
1.98556578947368e-01 4.90566009885691e+00 4.32775479539818e-02
2.00190789473684e-01 4.86126085574617e+00 4.30619873207502e-02
2.01825000000000e-01 4.81726345302260e+00 4.28460725860072e-02
2.03459210526316e-01 4.77366425396984e+00 4.26298427911671e-02
2.05093421052632e-01 4.73045965441608e+00 4.24133359211811e-02
2.06727631578947e-01 4.68764608317296e+00 4.21965889249692e-02
2.08361842105263e-01 4.64522000101649e+00 4.19796377498290e-02
2.09996052631579e-01 4.60317790110566e+00 4.17625173603763e-02
2.11630263157895e-01 4.56151630799384e+00 4.15452617711095e-02
2.13264473684211e-01 4.52023177802804e+00 4.13279040639970e-02
2.14898684210526e-01 4.47932089838961e+00 4.11104764193160e-02
2.16532894736842e-01 4.43878028747514e+00 4.08930101319920e-02
2.18167105263158e-01 4.39860659396527e+00 4.06755356732719e-02
2.19801315789474e-01 4.35879649703331e+00 4.04580825758221e-02
2.21435526315789e-01 4.31934670606204e+00 4.02406796554907e-02
2.23069736842105e-01 4.28025395990753e+00 4.00233549010858e-02
2.24703947368421e-01 4.24151502724479e+00 3.98061355223207e-02
2.26338157894737e-01 4.20312670569588e+00 3.95890479755884e-02
2.27972368421053e-01 4.16508582215976e+00 3.93721179765378e-02
2.29606578947368e-01 4.12738923196543e+00 3.91553705245878e-02
2.31240789473684e-01 4.09003381918676e+00 3.89388299146308e-02
2.32875000000000e-01 4.05301649581973e+00 3.87225197603579e-02
2.34509210526316e-01 4.01633420208299e+00 3.85064630051583e-02
2.36143421052632e-01 3.97998390561830e+00 3.82906819443274e-02
2.37777631578947e-01 3.94396260177747e+00 3.80751982352194e-02
2.39411842105263e-01 3.90826731284526e+00 3.78600329184158e-02
2.41046052631579e-01 3.87289508831328e+00 3.76452064271811e-02
2.42680263157895e-01 3.83784300412457e+00 3.74307386076451e-02
2.44314473684211e-01 3.80310816293505e+00 3.72166487276146e-02
2.45948684210526e-01 3.76868769337907e+00 3.70029554958383e-02
2.47582894736842e-01 3.73457875031898e+00 3.67896770702168e-02
2.49217105263158e-01 3.70077851413087e+00 3.65768311017341e-02
2.50851315789474e-01 3.66728419082874e+00 3.63644346397020e-02
2.52485526315789e-01 3.63409301182726e+00 3.61525043020847e-02
2.54119736842105e-01 3.60120223337101e+00 3.59410561846934e-02
2.55753947368421e-01 3.56860913676110e+00 3.57301058950947e-02
2.57388157894737e-01 3.53631102768425e+00 3.55196685690954e-02
2.59022368421053e-01 3.50430523642917e+00 3.53097588771099e-02
2.60656578947368e-01 3.47258911723375e+00 3.51003910399316e-02
2.62290789473684e-01 3.44116004849165e+00 3.48915788346688e-02
2.63925000000000e-01 3.41001543211697e+00 3.46833356098431e-02
2.65559210526316e-01 3.37915269374156e+00 3.44756742909199e-02
2.67193421052632e-01 3.34856928209662e+00 3.42686073947706e-02
2.68827631578947e-01 3.31826266920105e+00 3.40621470348261e-02
2.70461842105263e-01 3.28823034975945e+00 3.38563049349289e-02
2.72096052631579e-01 3.25846984134194e+00 3.36510924341419e-02
2.73730263157895e-01 3.22897868379810e+00 3.34465205000304e-02
2.75364473684211e-01 3.19975443942853e+00 3.32425997331296e-02
2.76998684210526e-01 3.17079469241422e+00 3.30393403796923e-02
2.78632894736842e-01 3.14209704898031e+00 3.28367523358548e-02
2.80267105263158e-01 3.11365913684031e+00 3.26348451801166e-02
2.81901315789474e-01 3.08547860526703e+00 3.24336280959691e-02
2.83535526315789e-01 3.05755312489364e+00 3.22331100048421e-02
2.85169736842105e-01 3.02988038726527e+00 3.20332994919542e-02
2.86803947368421e-01 3.00245810498765e+00 3.18342048312309e-02
2.88438157894737e-01 2.97528401120369e+00 3.16358339963862e-02
2.90072368421053e-01 2.94835585973542e+00 3.14381946641208e-02
2.91706578947368e-01 2.92167142457397e+00 3.12412942247705e-02
2.93340789473684e-01 2.89522850001498e+00 3.10451397852767e-02
2.94975000000000e-01 2.86902490016169e+00 3.08497381794234e-02
2.96609210526316e-01 2.84305845905410e+00 3.06550959705956e-02
2.98243421052632e-01 2.81732703018475e+00 3.04612194616195e-02
2.99877631578947e-01 2.79182848662187e+00 3.02681146973225e-02
3.01511842105263e-01 2.76656072053746e+00 3.00757874739968e-02
3.03146052631579e-01 2.74152164332475e+00 2.98842433417724e-02
3.04780263157895e-01 2.71670918513821e+00 2.96934876137245e-02
3.06414473684211e-01 2.69212129500554e+00 2.95035253680719e-02
3.08048684210526e-01 2.66775594037919e+00 2.93143614569397e-02
3.09682894736842e-01 2.64361110724321e+00 2.91260005083913e-02
3.11317105263158e-01 2.61968479967595e+00 2.89384469510467e-02
3.12951315789474e-01 2.59597503988715e+00 2.87517049510826e-02
3.14585526315789e-01 2.57247986805108e+00 2.85657785171411e-02
3.16219736842105e-01 2.54919734195061e+00 2.83806714399583e-02
3.17853947368421e-01 2.52612553707399e+00 2.81963873111318e-02
3.19488157894737e-01 2.50326254620225e+00 2.80129295308350e-02
3.21122368421053e-01 2.48060647950133e+00 2.78303013093188e-02
3.22756578947368e-01 2.45815546411973e+00 2.76485056743427e-02
3.24390789473684e-01 2.43590764427624e+00 2.74675454725565e-02
3.26025000000000e-01 2.41386118086751e+00 2.72874233766618e-02
3.27659210526316e-01 2.39201425155162e+00 2.71081418866763e-02
3.29293421052632e-01 2.37036505036523e+00 2.69297033368405e-02
3.30927631578947e-01 2.34891178780317e+00 2.67521098967734e-02
3.32561842105263e-01 2.32765269044492e+00 2.65753635781344e-02
3.34196052631579e-01 2.30658600103039e+00 2.63994662356741e-02
3.35830263157895e-01 2.28570997809547e+00 2.62244195736609e-02
3.37464473684211e-01 2.26502289604412e+00 2.60502251468368e-02
3.39098684210526e-01 2.24452304479279e+00 2.58768843666168e-02
3.40732894736842e-01 2.22420872983897e+00 2.57043985019565e-02
3.42367105263158e-01 2.20407827191415e+00 2.55327686983136e-02
3.44001315789474e-01 2.18413000699958e+00 2.53619959263790e-02
3.45635526315789e-01 2.16436228618603e+00 2.51920810655072e-02
3.47269736842105e-01 2.14477347538923e+00 2.50230248545713e-02
3.48903947368421e-01 2.12536195541169e+00 2.48548279063461e-02
3.50538157894737e-01 2.10612612161472e+00 2.46874907130085e-02
3.52172368421053e-01 2.08706438397718e+00 2.45210136467111e-02
3.53806578947368e-01 2.06817516677533e+00 2.43553969648887e-02
3.55440789473684e-01 2.04945690863869e+00 2.41906408107616e-02
3.57075000000000e-01 2.03090806223743e+00 2.40267452184668e-02
3.58709210526316e-01 2.01252709433544e+00 2.38637101134945e-02
3.60343421052632e-01 1.99431248548518e+00 2.37015353176448e-02
3.61977631578947e-01 1.97626273007797e+00 2.35402205494068e-02
3.63611842105263e-01 1.95837633604611e+00 2.33797654287462e-02
3.65246052631579e-01 1.94065182491054e+00 2.32201694774273e-02
3.66880263157895e-01 1.92308773149000e+00 2.30614321236429e-02
3.68514473684211e-01 1.90568260394623e+00 2.29035527022805e-02
3.70148684210526e-01 1.88843500349992e+00 2.27465304593985e-02
3.71782894736842e-01 1.87134350447356e+00 2.25903645524437e-02
3.73417105263158e-01 1.85440669401405e+00 2.24350540650351e-02
3.75051315789474e-01 1.83762317209503e+00 2.22805979652002e-02
3.76685526315789e-01 1.82099155139916e+00 2.21269951721216e-02
3.78319736842105e-01 1.80451045708906e+00 2.19742445160978e-02
3.79953947368421e-01 1.78817852684555e+00 2.18223447497017e-02
3.81588157894737e-01 1.77199441060521e+00 2.16712945517753e-02
3.83222368421053e-01 1.75595677059659e+00 2.15210925274815e-02
3.84856578947368e-01 1.74006428108384e+00 2.13717372121644e-02
3.86490789473684e-01 1.72431562840091e+00 2.12232270713656e-02
3.88125000000000e-01 1.70870951070111e+00 2.10755605045595e-02
3.89759210526316e-01 1.69324463798946e+00 2.09287358451337e-02
3.91393421052632e-01 1.67791973187795e+00 2.07827513640050e-02
3.93027631578947e-01 1.66273352561614e+00 2.06376052695666e-02
3.94661842105263e-01 1.64768476385200e+00 2.04932957111827e-02
3.96296052631579e-01 1.63277220266076e+00 2.03498207791103e-02
3.97930263157895e-01 1.61799460931128e+00 2.02071785078814e-02
3.99564473684210e-01 1.60335076229318e+00 2.00653668761932e-02
4.01198684210526e-01 1.58883945108858e+00 1.99243838101831e-02
4.02832894736842e-01 1.57445947619759e+00 1.97842271832903e-02
4.04467105263158e-01 1.56020964891532e+00 1.96448948278845e-02
4.06101315789474e-01 1.54608879132610e+00 1.95063845011990e-02
4.07735526315789e-01 1.53209573620459e+00 1.93686939389814e-02
4.09369736842105e-01 1.51822932683039e+00 1.92318208228276e-02
4.11003947368421e-01 1.50448841701051e+00 1.90957627889212e-02
4.12638157894737e-01 1.49087187086812e+00 1.89605174309670e-02
4.14272368421053e-01 1.47737856286360e+00 1.88260822999624e-02
4.15906578947368e-01 1.46400737758809e+00 1.86924549070424e-02
4.17540789473684e-01 1.45075720978319e+00 1.85596327232286e-02
4.19175000000000e-01 1.43762696413917e+00 1.84276131821826e-02
4.20809210526316e-01 1.42461555531340e+00 1.82963936799426e-02
4.22443421052632e-01 1.41172190773313e+00 1.81659715775866e-02
4.24077631578947e-01 1.39894495561264e+00 1.80363442009508e-02
4.25711842105263e-01 1.38628364276047e+00 1.79075088432124e-02
4.27346052631579e-01 1.37373692259542e+00 1.77794627645922e-02
4.28980263157895e-01 1.36130375795809e+00 1.76522031948543e-02
4.30614473684211e-01 1.34898312112576e+00 1.75257273329959e-02
4.32248684210526e-01 1.33677399362813e+00 1.74000323496698e-02
4.33882894736842e-01 1.32467536626116e+00 1.72751153868580e-02
4.35517105263158e-01 1.31268623890688e+00 1.71509735670765e-02
4.37151315789474e-01 1.30080562052300e+00 1.70276039655485e-02
4.38785526315789e-01 1.28903252905981e+00 1.69050036534921e-02
4.40419736842105e-01 1.27736599130952e+00 1.67831696714309e-02
4.42053947368421e-01 1.26580504291809e+00 1.66620990360832e-02
4.43688157894737e-01 1.25434872821447e+00 1.65417887425390e-02
4.45322368421053e-01 1.24299610022143e+00 1.64222357638893e-02
4.46956578947368e-01 1.23174622048862e+00 1.63034370533355e-02
4.48590789473684e-01 1.22059815910255e+00 1.61853895438087e-02
4.50225000000000e-01 1.20955099452327e+00 1.60680901500165e-02
4.51859210526316e-01 1.19860381359352e+00 1.59515357680524e-02
4.53493421052632e-01 1.18775571137903e+00 1.58357232773784e-02
4.55127631578947e-01 1.17700579117686e+00 1.57206495404296e-02
4.56761842105263e-01 1.16635316435920e+00 1.56063114045351e-02
4.58396052631579e-01 1.15579695038093e+00 1.54927057015151e-02
4.60030263157895e-01 1.14533627662685e+00 1.53798292495436e-02
4.61664473684211e-01 1.13497027841851e+00 1.52676788527381e-02
4.63298684210526e-01 1.12469809886480e+00 1.51562513029679e-02
4.64932894736842e-01 1.11451888886804e+00 1.50455433794385e-02
4.66567105263158e-01 1.10443180697785e+00 1.49355518560137e-02
4.68201315789474e-01 1.09443601937834e+00 1.48262734784511e-02
4.69835526315789e-01 1.08453069981826e+00 1.47177049994412e-02
4.71469736842105e-01 1.07471502948811e+00 1.46098431567662e-02
4.73103947368421e-01 1.06498819702498e+00 1.45026846787608e-02
4.74738157894737e-01 1.05534939837391e+00 1.43962262859400e-02
4.76372368421053e-01 1.04579783679206e+00 1.42904646905632e-02
4.78006578947368e-01 1.03633272271312e+00 1.41853965982106e-02
4.79640789473684e-01 1.02695327375089e+00 1.40810187073474e-02
4.81275000000000e-01 1.01765871456662e+00 1.39773277108506e-02
4.82909210526316e-01 1.00844827687205e+00 1.38743202955692e-02
4.84543421052632e-01 9.99321199299647e-01 1.37719931438089e-02
4.86177631578947e-01 9.90276727405052e-01 1.36703429328869e-02
4.87811842105263e-01 9.81314113540162e-01 1.35693663365721e-02
4.89446052631579e-01 9.72432616855089e-01 1.34690600246396e-02
4.91080263157895e-01 9.63631503173947e-01 1.33694206642674e-02
4.92714473684211e-01 9.54910044996346e-01 1.32704449195884e-02
4.94348684210526e-01 9.46267521375860e-01 1.31721294530454e-02
4.95982894736842e-01 9.37703217921051e-01 1.30744709249440e-02
4.97617105263158e-01 9.29216426676562e-01 1.29774659993048e-02
4.99251315789474e-01 9.20806446109318e-01 1.28811113252111e-02
5.00885526315789e-01 9.12472581049820e-01 1.27854035652460e-02
5.02519736842105e-01 9.04214142591634e-01 1.26903393775934e-02
5.04153947368421e-01 8.96030448091642e-01 1.25959154203863e-02
5.05788157894737e-01 8.87920821057131e-01 1.25021283529281e-02
5.07422368421053e-01 8.79884591145649e-01 1.24089748352395e-02
5.09056578947368e-01 8.71921094054516e-01 1.23164515292439e-02
5.10690789473684e-01 8.64029671520299e-01 1.22245550983158e-02
5.12325000000000e-01 8.56209671210694e-01 1.21332822084297e-02
5.13959210526316e-01 8.48460446723634e-01 1.20426295277086e-02
5.15593421052632e-01 8.40781357481486e-01 1.19525937275397e-02
