Energy (eV)          EEDF (eV^-(3/2))     First Anisotropy
7.97058823529412e-04 9.85107247001718e+00 4.89019642933118e-03
2.39117647058824e-03 9.78456387882808e+00 8.07499161684724e-03
3.98529411764706e-03 9.71850431437018e+00 1.06596056778848e-02
5.57941176470588e-03 9.65289074481277e+00 1.26229761288436e-02
7.17352941176471e-03 9.58772015907804e+00 1.42603019521754e-02
8.76764705882353e-03 9.52298956641410e+00 1.56831731899040e-02
1.03617647058824e-02 9.45869599632210e+00 1.69493275252799e-02
1.19558823529412e-02 9.39483649835536e+00 1.80936249967956e-02
1.35500000000000e-02 9.33140814154452e+00 1.91391813498018e-02
1.51441176470588e-02 9.26840801552967e+00 2.01023315116271e-02
1.67382352941177e-02 9.20583322875601e+00 2.09951653526067e-02
1.83323529411765e-02 9.14368090994384e+00 2.18269523786265e-02
1.99264705882353e-02 9.08194820651783e+00 2.26050006446822e-02
2.15205882352941e-02 9.02063228578094e+00 2.33352036028736e-02
2.31147058823529e-02 8.95973033359238e+00 2.40224038182319e-02
2.47088235294118e-02 8.89923955533486e+00 2.46706436640893e-02
2.63029411764706e-02 8.83915717477249e+00 2.52833433761240e-02
2.78970588235294e-02 8.77948043486554e+00 2.58634307238518e-02
2.94911764705882e-02 8.72020659694881e+00 2.64134376447038e-02
3.10852941176471e-02 8.66133294069117e+00 2.69355733954730e-02
3.26794117647059e-02 8.60285676447225e+00 2.74317811476435e-02
3.42735294117647e-02 8.54477538458434e+00 2.79037822276129e-02
3.58676470588235e-02 8.48708613574905e+00 2.83531112233926e-02
3.74617647058824e-02 8.42978637038668e+00 2.87811441742003e-02
3.90558823529412e-02 8.37287345907418e+00 2.91891214374245e-02
4.06500000000000e-02 8.31634478987164e+00 2.95781664296940e-02
4.22441176470588e-02 8.26019776873070e+00 2.99493011120851e-02
4.38382352941177e-02 8.20442981887003e+00 3.03034588996059e-02
4.54323529411765e-02 8.14903838114144e+00 3.06414954935657e-02
4.70264705882353e-02 8.09402091344772e+00 3.09641980436048e-02
4.86205882352941e-02 8.03937489107237e+00 3.12722929366832e-02
5.02147058823529e-02 7.98509780613454e+00 3.15664524673996e-02
5.18088235294118e-02 7.93118716788702e+00 3.18473005725795e-02
5.34029411764706e-02 7.87764050220400e+00 3.21154177956862e-02
5.49970588235294e-02 7.82445535185122e+00 3.23713455851614e-02
5.65911764705882e-02 7.77162927608710e+00 3.26155901061707e-02
5.81852941176471e-02 7.71915985057098e+00 3.28486254705684e-02
5.97794117647059e-02 7.66704466749228e+00 3.30708966868703e-02
6.13735294117647e-02 7.61528133513918e+00 3.32828222159993e-02
6.29676470588235e-02 7.56386747809979e+00 3.34847962440768e-02
6.45617647058824e-02 7.51280073685164e+00 3.36771907078000e-02
6.61558823529412e-02 7.46207876794591e+00 3.38603570983084e-02
6.77500000000000e-02 7.41169924361593e+00 3.40346280792482e-02
6.93441176470588e-02 7.36165985194615e+00 3.42003189358286e-02
7.09382352941177e-02 7.31195829649810e+00 3.43577288824355e-02
7.25323529411765e-02 7.26259229646543e+00 3.45071422394089e-02
7.41264705882353e-02 7.21355958631596e+00 3.46488295008425e-02
7.57205882352941e-02 7.16485791593418e+00 3.47830482997498e-02
7.73147058823530e-02 7.11648505027807e+00 3.49100442883553e-02
7.89088235294118e-02 7.06843876951015e+00 3.50300519368810e-02
8.05029411764706e-02 7.02071686866805e+00 3.51432952655835e-02
8.20970588235294e-02 6.97331715778506e+00 3.52499885031157e-02
8.36911764705882e-02 6.92623746162391e+00 3.53503367331674e-02
8.52852941176471e-02 6.87947561958558e+00 3.54445364056618e-02
8.68794117647059e-02 6.83302948575646e+00 3.55327758867852e-02
8.84735294117647e-02 6.78689692861485e+00 3.56152359276520e-02
9.00676470588235e-02 6.74107583112360e+00 3.56920901022197e-02
9.16617647058824e-02 6.69556409044689e+00 3.57635052144370e-02
9.32558823529412e-02 6.65035961803558e+00 3.58296416726349e-02
9.48500000000000e-02 6.60546033935359e+00 3.58906538389267e-02
9.64441176470588e-02 6.56086419395650e+00 3.59466903511523e-02
9.80382352941177e-02 6.51656913522703e+00 3.59978944244320e-02
9.96323529411765e-02 6.47257313044738e+00 3.60444041435510e-02
1.01226470588235e-01 6.42887416046516e+00 3.60863526413638e-02
1.02820588235294e-01 6.38547022022216e+00 3.61238685125320e-02
1.04414705882353e-01 6.34235931747510e+00 3.61570759538147e-02
1.06008823529412e-01 6.29953947381211e+00 3.61860947625844e-02
1.07602941176471e-01 6.25700872453469e+00 3.62110409361150e-02
1.09197058823529e-01 6.21476511749523e+00 3.62320266565174e-02
1.10791176470588e-01 6.17280671408241e+00 3.62491602673998e-02
1.12385294117647e-01 6.13113158910864e+00 3.62625468294085e-02
1.13979411764706e-01 6.08973782971325e+00 3.62722880812664e-02
1.15573529411765e-01 6.04862353628572e+00 3.62784823947439e-02
1.17167647058824e-01 6.00778682235548e+00 3.62812252875399e-02
1.18761764705882e-01 5.96722581355712e+00 3.62806093661552e-02
1.20355882352941e-01 5.92693864849622e+00 3.62767242650533e-02
1.21950000000000e-01 5.88692347864166e+00 3.62696571231677e-02
1.23544117647059e-01 5.84717846734764e+00 3.62594924569845e-02
1.25138235294118e-01 5.80770179094886e+00 3.62463123136521e-02
1.26732352941176e-01 5.76849163752589e+00 3.62301964340399e-02
1.28326470588235e-01 5.72954620767645e+00 3.62112221158153e-02
1.29920588235294e-01 5.69086371441349e+00 3.61894646366548e-02
1.31514705882353e-01 5.65244238227932e+00 3.61649971708275e-02
1.33108823529412e-01 5.61428044807118e+00 3.61378907046052e-02
1.34702941176471e-01 5.57637616074327e+00 3.61082144346331e-02
1.36297058823529e-01 5.53872778056522e+00 3.60760356790417e-02
1.37891176470588e-01 5.50133357980561e+00 3.60414197874614e-02
1.39485294117647e-01 5.46419184263757e+00 3.60044305174262e-02
1.41079411764706e-01 5.42730086433828e+00 3.59651299415076e-02
1.42673529411765e-01 5.39065895193461e+00 3.59235783538334e-02
1.44267647058824e-01 5.35426442411051e+00 3.58798346268335e-02
1.45861764705882e-01 5.31811561044580e+00 3.58339561154963e-02
1.47455882352941e-01 5.28221085202634e+00 3.57859985618187e-02
1.49050000000000e-01 5.24654850135325e+00 3.57360164337853e-02
1.50644117647059e-01 5.21112692161834e+00 3.56840627824000e-02
1.52238235294118e-01 5.17594448748742e+00 3.56301893271249e-02
1.53832352941177e-01 5.14099958418527e+00 3.55744465510806e-02
1.55426470588235e-01 5.10629060804651e+00 3.55168835567967e-02
1.57020588235294e-01 5.07181596642913e+00 3.54575483768947e-02
1.58614705882353e-01 5.03757407704964e+00 3.53964878768766e-02
1.60208823529412e-01 5.00356336850458e+00 3.53337476586050e-02
1.61802941176471e-01 4.96978228018687e+00 3.52693723572169e-02
1.63397058823529e-01 4.93622926165059e+00 3.52034055442273e-02
1.64991176470588e-01 4.90290277310522e+00 3.51358896311268e-02
1.66585294117647e-01 4.86980128533454e+00 3.50668661536401e-02
1.68179411764706e-01 4.83692327908917e+00 3.49963756754252e-02
1.69773529411765e-01 4.80426724555583e+00 3.49244576923702e-02
1.71367647058824e-01 4.77183168627789e+00 3.48511509051211e-02
1.72961764705882e-01 4.73961511257450e+00 3.47764931235445e-02
1.74555882352941e-01 4.70761604598645e+00 3.47005211721741e-02
1.76150000000000e-01 4.67583301819822e+00 3.46232711517932e-02
1.77744117647059e-01 4.64426457048224e+00 3.45447783076521e-02
1.79338235294118e-01 4.61290925427852e+00 3.44650770857279e-02
1.80932352941176e-01 4.58176563049385e+00 3.43842011973214e-02
1.82526470588235e-01 4.55083226990791e+00 3.43021834880922e-02
1.84120588235294e-01 4.52010775309875e+00 3.42190561814335e-02
1.85714705882353e-01 4.48959066992836e+00 3.41348507872381e-02
1.87308823529412e-01 4.45927961992903e+00 3.40495980117033e-02
1.88902941176471e-01 4.42917321223086e+00 3.39633279916244e-02
1.90497058823529e-01 4.39927006506828e+00 3.38760702048437e-02
1.92091176470588e-01 4.36956880614776e+00 3.37878533815417e-02
1.93685294117647e-01 4.34006807257727e+00 3.36987057299899e-02
1.95279411764706e-01 4.31076651039258e+00 3.36086548486874e-02
1.96873529411765e-01 4.28166277490772e+00 3.35177276393487e-02
1.98467647058824e-01 4.25275553064582e+00 3.34259505246019e-02
2.00061764705882e-01 4.22404345088448e+00 3.33333493617565e-02
2.01655882352941e-01 4.19552521798985e+00 3.32399493576457e-02
2.03250000000000e-01 4.16719952334893e+00 3.31457752786721e-02
2.04844117647059e-01 4.13906506693286e+00 3.30508513353151e-02
2.06438235294118e-01 4.11112055773634e+00 3.29552012229433e-02
2.08032352941177e-01 4.08336471322792e+00 3.28588481695509e-02
2.09626470588235e-01 4.05579625965656e+00 3.27618148215407e-02
2.11220588235294e-01 4.02841393198653e+00 3.26641234407673e-02
2.12814705882353e-01 4.00121647349070e+00 3.25657958236734e-02
2.14408823529412e-01 3.97420263604295e+00 3.24668532214647e-02
2.16002941176471e-01 3.94737118005487e+00 3.23673165305525e-02
2.17597058823529e-01 3.92072087408432e+00 3.22672062135939e-02
2.19191176470588e-01 3.89425049511463e+00 3.21665422213866e-02
2.20785294117647e-01 3.86795882849287e+00 3.20653441770358e-02
2.22379411764706e-01 3.84184466755303e+00 3.19636312988233e-02
2.23973529411765e-01 3.81590681388286e+00 3.18614223239191e-02
2.25567647058824e-01 3.79014407726337e+00 3.17587356865644e-02
2.27161764705882e-01 3.76455527530608e+00 3.16555894426658e-02
2.28755882352941e-01 3.73913923370817e+00 3.15520011953777e-02
2.30350000000000e-01 3.71389478619315e+00 3.14479882675570e-02
2.31944117647059e-01 3.68882077416156e+00 3.13435676021534e-02
2.33538235294118e-01 3.66391604702994e+00 3.12387557935619e-02
2.35132352941177e-01 3.63917946179219e+00 3.11335691247332e-02
2.36726470588235e-01 3.61460988325477e+00 3.10280234688257e-02
2.38320588235294e-01 3.59020618397961e+00 3.09221344518140e-02
2.39914705882353e-01 3.56596724395717e+00 3.08159173822198e-02
2.41508823529412e-01 3.54189195083143e+00 3.07093871817669e-02
2.43102941176471e-01 3.51797919984418e+00 3.06025585429267e-02
2.44697058823529e-01 3.49422789351971e+00 3.04954458604285e-02
2.46291176470588e-01 3.47063694188005e+00 3.03880631635469e-02
2.47885294117647e-01 3.44720526239069e+00 3.02804242688080e-02
2.49479411764706e-01 3.42393177965627e+00 3.01725427131930e-02
2.51073529411765e-01 3.40081542562678e+00 3.00644316880983e-02
2.52667647058824e-01 3.37785513954437e+00 2.99561041873951e-02
2.54261764705882e-01 3.35504986764971e+00 2.98475729422325e-02
2.55855882352941e-01 3.33239856337963e+00 2.97388503566969e-02
2.57450000000000e-01 3.30990018731490e+00 2.96299486513860e-02
2.59044117647059e-01 3.28755370689691e+00 2.95208797779154e-02
2.60638235294118e-01 3.26535809669284e+00 2.94116554438898e-02
2.62232352941177e-01 3.24331233804075e+00 2.93022871426579e-02
2.63826470588235e-01 3.22141541923249e+00 2.91927860689387e-02
2.65420588235294e-01 3.19966633546337e+00 2.90831632546821e-02
2.67014705882353e-01 3.17806408856600e+00 2.89734295084300e-02
2.68608823529412e-01 3.15660768718547e+00 2.88635953554718e-02
2.70202941176471e-01 3.13529614673035e+00 2.87536711696934e-02
2.71797058823529e-01 3.11412848911537e+00 2.86436671145129e-02
2.73391176470588e-01 3.09310374292945e+00 2.85335930844901e-02
2.74985294117647e-01 3.07222094338779e+00 2.84234588333175e-02
2.76579411764706e-01 3.05147913208318e+00 2.83132739162561e-02
2.78173529411765e-01 3.03087735714718e+00 2.82030476332182e-02
2.79767647058824e-01 3.01041467320321e+00 2.80927891530468e-02
2.81361764705882e-01 2.99009014112616e+00 2.79825074573574e-02
2.82955882352941e-01 2.96990282819710e+00 2.78722112851030e-02
2.84550000000000e-01 2.94985180805724e+00 2.77619092532613e-02
2.86144117647059e-01 2.92993616047563e+00 2.76516097835078e-02
2.87738235294118e-01 2.91015497155875e+00 2.75413211225588e-02
2.89332352941177e-01 2.89050733346033e+00 2.74310513665237e-02
2.90926470588235e-01 2.87099234452499e+00 2.73208083885404e-02
2.92520588235294e-01 2.85160910924378e+00 2.72105999532623e-02
2.94114705882353e-01 2.83235673803524e+00 2.71004336646412e-02
2.95708823529412e-01 2.81323434738325e+00 2.69903169143856e-02
2.97302941176471e-01 2.79424105979363e+00 2.68802569932004e-02
2.98897058823529e-01 2.77537600358224e+00 2.67702610399265e-02
3.00491176470588e-01 2.75663831300728e+00 2.66603359912666e-02
3.02085294117647e-01 2.73802712822699e+00 2.65504886898991e-02
3.03679411764706e-01 2.71954159509440e+00 2.64407258349061e-02
3.05273529411765e-01 2.70118086528455e+00 2.63310539327781e-02
3.06867647058824e-01 2.68294409625293e+00 2.62214794024987e-02
3.08461764705882e-01 2.66483045103693e+00 2.61120085271962e-02
3.10055882352941e-01 2.64683909837801e+00 2.60026474064260e-02
3.11650000000000e-01 2.62896921268102e+00 2.58934020583182e-02
3.13244117647059e-01 2.61121997382191e+00 2.57842783566239e-02
3.14838235294118e-01 2.59359056731507e+00 2.56752820475563e-02
3.16432352941176e-01 2.57608018407375e+00 2.55664187699970e-02
3.18026470588235e-01 2.55868802052387e+00 2.54576939933604e-02
3.19620588235294e-01 2.54141327856475e+00 2.53491131146877e-02
3.21214705882353e-01 2.52425516538741e+00 2.52406814136769e-02
3.22808823529412e-01 2.50721289358385e+00 2.51324040082904e-02
3.24402941176471e-01 2.49028568110874e+00 2.50242859491796e-02
3.25997058823529e-01 2.47347275110334e+00 2.49163321758814e-02
3.27591176470588e-01 2.45677333200052e+00 2.48085474735160e-02
3.29185294117647e-01 2.44018665748735e+00 2.47009365646309e-02
3.30779411764706e-01 2.42371196633436e+00 2.45935040665120e-02
3.32373529411765e-01 2.40734850249668e+00 2.44862544489765e-02
3.33967647058824e-01 2.39109551507726e+00 2.43791921237165e-02
3.35561764705882e-01 2.37495225816149e+00 2.42723214026624e-02
3.37155882352941e-01 2.35891799091444e+00 2.41656464568669e-02
3.38750000000000e-01 2.34299197754485e+00 2.40591714034254e-02
3.40344117647059e-01 2.32717348714484e+00 2.39529002513518e-02
3.41938235294118e-01 2.31146179382430e+00 2.38468369156640e-02
3.43532352941177e-01 2.29585617651190e+00 2.37409852343255e-02
3.45126470588235e-01 2.28035591904566e+00 2.36353489148018e-02
3.46720588235294e-01 2.26496031013828e+00 2.35299316168099e-02
3.48314705882353e-01 2.24966864322530e+00 2.34247369135578e-02
3.49908823529412e-01 2.23448021655232e+00 2.33197682534688e-02
3.51502941176471e-01 2.21939433314106e+00 2.32150290407127e-02
3.53097058823529e-01 2.20441030064207e+00 2.31105225974423e-02
3.54691176470588e-01 2.18952743141869e+00 2.30062521264589e-02
3.56285294117647e-01 2.17474504251379e+00 2.29022207895914e-02
3.57879411764706e-01 2.16006245550695e+00 2.27984316708860e-02
3.59473529411765e-01 2.14547899659524e+00 2.26948877402084e-02
3.61067647058824e-01 2.13099399656065e+00 2.25915919295478e-02
3.62661764705882e-01 2.11660679063151e+00 2.24885470971019e-02
3.64255882352941e-01 2.10231671856033e+00 2.23857559918120e-02
3.65850000000000e-01 2.08812312459182e+00 2.22832213276478e-02
3.67444117647059e-01 2.07402535732848e+00 2.21809457369792e-02
3.69038235294118e-01 2.06002276983929e+00 2.20789317824580e-02
3.70632352941177e-01 2.04611471949315e+00 2.19771819713269e-02
3.72226470588235e-01 2.03230056803163e+00 2.18756987093731e-02
3.73820588235294e-01 2.01857968153812e+00 2.17744843717307e-02
3.75414705882353e-01 2.00495143031024e+00 2.16735412694204e-02
3.77008823529412e-01 1.99141518892989e+00 2.15728716163137e-02
3.78602941176471e-01 1.97797033623306e+00 2.14724775980748e-02
3.80197058823529e-01 1.96461625518600e+00 2.13723613395572e-02
3.81791176470588e-01 1.95135233295260e+00 2.12725248725703e-02
3.83385294117647e-01 1.93817796086493e+00 2.11729702030202e-02
3.84979411764706e-01 1.92509253430295e+00 2.10736992791204e-02
3.86573529411765e-01 1.91209545275947e+00 2.09747139599623e-02
3.88167647058824e-01 1.89918611981124e+00 2.08760160809076e-02
3.89761764705882e-01 1.88636394300219e+00 2.07776074225725e-02
3.91355882352941e-01 1.87362833390600e+00 2.06794896801975e-02
3.92950000000000e-01 1.86097870809778e+00 2.05816645273362e-02
3.94544117647059e-01 1.84841448504071e+00 2.04841335756293e-02
3.96138235294118e-01 1.83593508817431e+00 2.03868983848865e-02
3.97732352941177e-01 1.82353994477448e+00 2.02899604752374e-02
3.99326470588235e-01 1.81122848601204e+00 2.01933212873877e-02
4.00920588235294e-01 1.79900014692531e+00 2.00969822433930e-02
4.02514705882353e-01 1.78685436631246e+00 2.00009447177448e-02
4.04108823529412e-01 1.77479058678786e+00 1.99052100088039e-02
4.05702941176471e-01 1.76280825475532e+00 1.98097793980128e-02
4.07297058823529e-01 1.75090682030344e+00 1.97146541217059e-02
4.08891176470588e-01 1.73908573725994e+00 1.96198353432377e-02
4.10485294117647e-01 1.72734446316549e+00 1.95253242106723e-02
4.12079411764706e-01 1.71568245917195e+00 1.94311218292935e-02
4.13673529411765e-01 1.70409919009483e+00 1.93372292344225e-02
4.15267647058824e-01 1.69259412438759e+00 1.92436474476268e-02
4.16861764705882e-01 1.68116673404281e+00 1.91503774498974e-02
4.18455882352941e-01 1.66981649464271e+00 1.90574201551483e-02
4.20050000000000e-01 1.65854288533401e+00 1.89647764649886e-02
4.21644117647059e-01 1.64734538873190e+00 1.88724472339553e-02
4.23238235294118e-01 1.63622349099209e+00 1.87804332781059e-02
4.24832352941177e-01 1.62517668169257e+00 1.86887353853868e-02
4.26426470588235e-01 1.61420445388094e+00 1.85973542812735e-02
4.28020588235294e-01 1.60330630405007e+00 1.85062906810782e-02
4.29614705882353e-01 1.59248173204677e+00 1.84155452649226e-02
4.31208823529412e-01 1.58173024111736e+00 1.83251186530058e-02
4.32802941176471e-01 1.57105133788393e+00 1.82350114565921e-02
4.34397058823529e-01 1.56044453225551e+00 1.81452242536038e-02
4.35991176470588e-01 1.54990933747200e+00 1.80557575644854e-02
4.37585294117647e-01 1.53944527008093e+00 1.79666119019016e-02
4.39179411764706e-01 1.52905184985108e+00 1.78777877469293e-02
4.40773529411765e-01 1.51872859981490e+00 1.77892855255135e-02
4.42367647058824e-01 1.50847504624570e+00 1.77011056569104e-02
4.43961764705882e-01 1.49829071857364e+00 1.76132485304497e-02
4.45555882352941e-01 1.48817514942672e+00 1.75257144825775e-02
4.47150000000000e-01 1.47812787460834e+00 1.74385038440777e-02
4.48744117647059e-01 1.46814843301573e+00 1.73516169099673e-02
4.50338235294118e-01 1.45823636669890e+00 1.72650539468567e-02
4.51932352941177e-01 1.44839122076043e+00 1.71788152018288e-02
4.53526470588235e-01 1.43861254339377e+00 1.70929008726781e-02
4.55120588235294e-01 1.42889988586171e+00 1.70073111530455e-02
4.56714705882353e-01 1.41925280241854e+00 1.69220462107198e-02
4.58308823529412e-01 1.40967085034705e+00 1.68371061661977e-02
4.59902941176471e-01 1.40015358993743e+00 1.67524911366912e-02
4.61497058823529e-01 1.39070058441159e+00 1.66682012149631e-02
4.63091176470588e-01 1.38131139995879e+00 1.65842364483989e-02
4.64685294117647e-01 1.37198560571505e+00 1.65005968819136e-02
4.66279411764706e-01 1.36272277368943e+00 1.64172825373062e-02
4.67873529411765e-01 1.35352247879853e+00 1.63342933928383e-02
4.69467647058824e-01 1.34438429884619e+00 1.62516294250712e-02
4.71061764705882e-01 1.33530781445190e+00 1.61692905887110e-02
4.72655882352941e-01 1.32629260908398e+00 1.60872767966935e-02
4.74250000000000e-01 1.31733826903977e+00 1.60055879609797e-02
4.75844117647059e-01 1.30844438337591e+00 1.59242239664524e-02
4.77438235294118e-01 1.29961054395686e+00 1.58431846772392e-02
4.79032352941177e-01 1.29083634536959e+00 1.57624699443370e-02
4.80626470588235e-01 1.28212138495470e+00 1.56820795798019e-02
4.82220588235294e-01 1.27346526278731e+00 1.56020133957683e-02
4.83814705882353e-01 1.26486758161054e+00 1.55222711856168e-02
4.85408823529412e-01 1.25632794686560e+00 1.54428527053616e-02
4.87002941176471e-01 1.24784596667305e+00 1.53637577117032e-02
4.88597058823529e-01 1.23942125176810e+00 1.52849859436586e-02
4.90191176470588e-01 1.23105341552961e+00 1.52065371043871e-02
4.91785294117647e-01 1.22274207396175e+00 1.51284108983079e-02
4.93379411764706e-01 1.21448684563099e+00 1.50506070131693e-02
4.94973529411765e-01 1.20628735169416e+00 1.49731251023159e-02
4.96567647058824e-01 1.19814321588043e+00 1.48959648208912e-02
4.98161764705882e-01 1.19005406443001e+00 1.48191258083320e-02
4.99755882352941e-01 1.18201952612121e+00 1.47426076710669e-02
5.01350000000000e-01 1.17403923225282e+00 1.46664100178268e-02
5.02944117647059e-01 1.16611281658437e+00 1.45905324369843e-02
