Energy (eV)          EEDF (eV^-(3/2))     First Anisotropy
2.81896551724138e-02 3.86096140076748e-02 1.90269695600868e-05
8.45689655172414e-02 3.83804106664363e-02 3.14313426707073e-05
1.40948275862069e-01 3.81525679739924e-02 4.15258175453651e-05
1.97327586206897e-01 3.79260778552107e-02 4.92147191091983e-05
2.53706896551724e-01 3.77009322798519e-02 5.56439779648354e-05
3.10086206896552e-01 3.74771232652734e-02 6.12462616817590e-05
3.66465517241379e-01 3.72546428779471e-02 6.62451850764950e-05
4.22844827586207e-01 3.70334832304399e-02 7.07756113171897e-05
4.79224137931034e-01 3.68136364817644e-02 7.49268716559216e-05
5.35603448275862e-01 3.65950948384943e-02 7.87620247222947e-05
5.91982758620690e-01 3.63778505529094e-02 8.23276917584754e-05
6.48362068965517e-01 3.61618959229786e-02 8.56595797314140e-05
7.04741379310345e-01 3.59472232931038e-02 8.87858098815203e-05
7.61120689655172e-01 3.57338250527525e-02 9.17290361039223e-05
8.17500000000000e-01 3.55216936363261e-02 9.45078530218229e-05
8.73879310344828e-01 3.53108215236812e-02 9.71377664156196e-05
9.30258620689655e-01 3.51012012387994e-02 9.96318820131562e-05
9.86637931034483e-01 3.48928253505343e-02 1.02001407109544e-04
1.04301724137931e+00 3.46856864707521e-02 1.04256023576491e-04
1.09939655172414e+00 3.44797772569257e-02 1.06404171071588e-04
1.15577586206897e+00 3.42750904092140e-02 1.08453265584049e-04
1.21215517241379e+00 3.40716186711129e-02 1.10409869961588e-04
1.26853448275862e+00 3.38693548291976e-02 1.12279829509497e-04
1.32491379310345e+00 3.36682917128665e-02 1.14068380712181e-04
1.38129310344828e+00 3.34684221940868e-02 1.15780239411952e-04
1.43767241379310e+00 3.32697391871420e-02 1.17419673022920e-04
1.49405172413793e+00 3.30722356483798e-02 1.18990560195288e-04
1.55043103448276e+00 3.28759045759630e-02 1.20496440511513e-04
1.60681034482759e+00 3.26807390096207e-02 1.21940556188796e-04
1.66318965517241e+00 3.24867320304016e-02 1.23325887314932e-04
1.71956896551724e+00 3.22938767604270e-02 1.24655181808883e-04
1.77594827586207e+00 3.21021663626505e-02 1.25930981047824e-04
1.83232758620690e+00 3.19115940406138e-02 1.27155641908202e-04
1.88870689655172e+00 3.17221530382055e-02 1.28331355818561e-04
1.94508620689655e+00 3.15338366394217e-02 1.29460165309387e-04
2.00146551724138e+00 3.13466381681276e-02 1.30543978453268e-04
2.05784482758621e+00 3.11605509878211e-02 1.31584581517599e-04
2.11422413793103e+00 3.09755685013975e-02 1.32583650095186e-04
2.17060344827586e+00 3.07916841509151e-02 1.33542758932615e-04
2.22698275862069e+00 3.06088914173635e-02 1.34463390639520e-04
2.28336206896552e+00 3.04271838204320e-02 1.35346943432022e-04
2.33974137931034e+00 3.02465549182796e-02 1.36194738039314e-04
2.39612068965517e+00 3.00669983073074e-02 1.37008023882489e-04
2.45250000000000e+00 2.98885076219308e-02 1.37787984755288e-04
2.50887931034483e+00 2.97110765336431e-02 1.38535743396154e-04
2.56525862068966e+00 2.95346987529494e-02 1.39252366266000e-04
2.62163793103448e+00 2.93593680269591e-02 1.39938867894779e-04
2.67801724137931e+00 2.91850781399017e-02 1.40596214144382e-04
2.73439655172414e+00 2.90118229129062e-02 1.41225325699530e-04
2.79077586206897e+00 2.88395962037823e-02 1.41827081116183e-04
2.84715517241379e+00 2.86683919068022e-02 1.42402319602389e-04
2.90353448275862e+00 2.84982039524848e-02 1.42951843560137e-04
2.95991379310345e+00 2.83290263073799e-02 1.43476420913142e-04
3.01629310344828e+00 2.81608529738545e-02 1.43976787242491e-04
3.07267241379310e+00 2.79936779898804e-02 1.44453647749513e-04
3.12905172413793e+00 2.78274954288224e-02 1.44907679062867e-04
3.18543103448276e+00 2.76622993992287e-02 1.45339530904904e-04
3.24181034482759e+00 2.74980840446216e-02 1.45749827630669e-04
3.29818965517241e+00 2.73348435432899e-02 1.46139169651589e-04
3.35456896551724e+00 2.71725721080825e-02 1.46508134753951e-04
3.41094827586207e+00 2.70112639862036e-02 1.46857279322180e-04
3.46732758620690e+00 2.68509134590086e-02 1.47187139475313e-04
3.52370689655172e+00 2.66915148418013e-02 1.47498232123779e-04
3.58008620689655e+00 2.65330624836323e-02 1.47791055953670e-04
3.63646551724138e+00 2.63755507670988e-02 1.48066092344504e-04
3.69284482758621e+00 2.62189741081451e-02 1.48323806226028e-04
3.74922413793103e+00 2.60633269558653e-02 1.48564646879013e-04
3.80560344827586e+00 2.59086037923057e-02 1.48789048684527e-04
3.86198275862069e+00 2.57547991322699e-02 1.48997431825788e-04
3.91836206896552e+00 2.56019075231238e-02 1.49190202946264e-04
3.97474137931034e+00 2.54499235446026e-02 1.49367755767385e-04
4.03112068965517e+00 2.52988418086185e-02 1.49530471668950e-04
4.08750000000000e+00 2.51486569590698e-02 1.49678720324581e-04
4.14387931034483e+00 2.49993636712904e-02 1.49812859944882e-04
4.20025862068966e+00 2.48509566529520e-02 1.49933237943306e-04
4.25663793103448e+00 2.47034306427760e-02 1.50040191575166e-04
4.31301724137931e+00 2.45567804107168e-02 1.50134048092849e-04
4.36939655172414e+00 2.44110007577770e-02 1.50215125245384e-04
4.42577586206897e+00 2.42660865158223e-02 1.50283731663251e-04
4.48215517241379e+00 2.41220325473989e-02 1.50340167222512e-04
4.53853448275862e+00 2.39788337455514e-02 1.50384723389593e-04
4.59491379310345e+00 2.38364850336410e-02 1.50417683547963e-04
4.65129310344828e+00 2.36949813651664e-02 1.50439323307926e-04
4.70767241379310e+00 2.35543177235845e-02 1.50449910800668e-04
4.76405172413793e+00 2.34144891221325e-02 1.50449706957456e-04
4.82043103448276e+00 2.32754906036512e-02 1.50438965774935e-04
4.87681034482759e+00 2.31373172404093e-02 1.50417934567401e-04
4.93318965517241e+00 2.29999641339286e-02 1.50386854206964e-04
4.98956896551724e+00 2.28634264148102e-02 1.50345959352037e-04
5.04594827586207e+00 2.27276992425623e-02 1.50295478665052e-04
5.10232758620690e+00 2.25927778054285e-02 1.50235635020200e-04
5.15870689655172e+00 2.24586573202167e-02 1.50166645701406e-04
5.21508620689655e+00 2.23253330321303e-02 1.50088722591344e-04
5.27146551724138e+00 2.21928002145990e-02 1.50002072351889e-04
5.32784482758621e+00 2.20610541691116e-02 1.49906896596609e-04
5.38422413793103e+00 2.19300902250492e-02 1.49803392055613e-04
5.44060344827586e+00 2.17999037395197e-02 1.49691750733255e-04
5.49698275862069e+00 2.16704900971933e-02 1.49572160059049e-04
5.55336206896552e+00 2.15418447101389e-02 1.49444803032170e-04
5.60974137931034e+00 2.14139630176611e-02 1.49309858359880e-04
5.66612068965517e+00 2.12868404861390e-02 1.49167500590196e-04
5.72250000000000e+00 2.11604726088650e-02 1.49017900302941e-04
5.77887931034483e+00 2.10348549056683e-02 1.48861224039235e-04
5.83525862068965e+00 2.09099829234122e-02 1.48697634547711e-04
5.89163793103448e+00 2.07858522351747e-02 1.48527291026886e-04
5.94801724137931e+00 2.06624584403143e-02 1.48350349037244e-04
6.00439655172414e+00 2.05397971643133e-02 1.48166960670786e-04
6.06077586206897e+00 2.04178640586234e-02 1.47977274650841e-04
6.11715517241379e+00 2.02966548005108e-02 1.47781436428088e-04
6.17353448275862e+00 2.01761650929035e-02 1.47579588272941e-04
6.22991379310345e+00 2.00563906642387e-02 1.47371869364498e-04
6.28629310344828e+00 1.99373272683117e-02 1.47158415876182e-04
6.34267241379310e+00 1.98189706841247e-02 1.46939361058230e-04
6.39905172413793e+00 1.97013167157379e-02 1.46714835317205e-04
6.45543103448276e+00 1.95843611921203e-02 1.46484966292654e-04
6.51181034482759e+00 1.94680999670019e-02 1.46249878931028e-04
6.56818965517241e+00 1.93525289187269e-02 1.46009695557041e-04
6.62456896551724e+00 1.92376439501072e-02 1.45764535942435e-04
6.68094827586207e+00 1.91234409882775e-02 1.45514517372412e-04
6.73732758620690e+00 1.90099159845508e-02 1.45259754709869e-04
6.79370689655172e+00 1.88970649142751e-02 1.45000360457382e-04
6.85008620689655e+00 1.87848837766900e-02 1.44736444817088e-04
6.90646551724138e+00 1.86733685947857e-02 1.44468115748592e-04
6.96284482758621e+00 1.85625154151615e-02 1.44195479025006e-04
7.01922413793103e+00 1.84523203078860e-02 1.43918638287079e-04
7.07560344827586e+00 1.83427793663572e-02 1.43637695095610e-04
7.13198275862069e+00 1.82338887071648e-02 1.43352748982178e-04
7.18836206896552e+00 1.81256444699519e-02 1.43063897498264e-04
7.24474137931034e+00 1.80180428172782e-02 1.42771236262791e-04
7.30112068965517e+00 1.79110799344844e-02 1.42474859008176e-04
7.35750000000000e+00 1.78047520295565e-02 1.42174857672394e-04
7.41387931034483e+00 1.76990553328493e-02 1.41871322299309e-04
7.47025862068965e+00 1.75939860973824e-02 1.41564341176321e-04
7.52663793103448e+00 1.74895405982746e-02 1.41254000971544e-04
7.58301724137931e+00 1.73857151327576e-02 1.40940386627843e-04
7.63939655172414e+00 1.72825060200440e-02 1.40623581449812e-04
7.69577586206897e+00 1.71799096011972e-02 1.40303667140970e-04
7.75215517241379e+00 1.70779222390019e-02 1.39980723839796e-04
7.80853448275862e+00 1.69765403178345e-02 1.39654830154712e-04
7.86491379310345e+00 1.68757602435355e-02 1.39326063198133e-04
7.92129310344828e+00 1.67755784432820e-02 1.38994498619467e-04
7.97767241379310e+00 1.66759913654607e-02 1.38660210637198e-04
8.03405172413793e+00 1.65769954795423e-02 1.38323272070085e-04
8.09043103448276e+00 1.64785872759563e-02 1.37983754367473e-04
8.14681034482759e+00 1.63807632659665e-02 1.37641727638757e-04
8.20318965517241e+00 1.62835199815472e-02 1.37297260682092e-04
8.25956896551724e+00 1.61868539752607e-02 1.36950421012218e-04
8.31594827586207e+00 1.60907618201345e-02 1.36601274887582e-04
8.37232758620690e+00 1.59952401095402e-02 1.36249887336781e-04
8.42870689655172e+00 1.59002854570726e-02 1.35896322184207e-04
8.48508620689655e+00 1.58058944964298e-02 1.35540642075081e-04
8.54146551724138e+00 1.57120638812935e-02 1.35182908499807e-04
8.59784482758621e+00 1.56187902852108e-02 1.34823181817651e-04
8.65422413793103e+00 1.55260704014760e-02 1.34461521279866e-04
8.71060344827586e+00 1.54339009430133e-02 1.34097985052202e-04
8.76698275862069e+00 1.53422786422606e-02 1.33732630236800e-04
8.82336206896552e+00 1.52512002510533e-02 1.33365512893582e-04
8.87974137931034e+00 1.51606625405094e-02 1.32996688061086e-04
8.93612068965517e+00 1.50706623009149e-02 1.32626209776764e-04
8.99250000000000e+00 1.49811963416102e-02 1.32254131132850e-04
9.04887931034483e+00 1.48922614907786e-02 1.31880504186912e-04
9.10525862068966e+00 1.48038545956300e-02 1.31505380053503e-04
9.16163793103448e+00 1.47159725219915e-02 1.31128808996003e-04
9.21801724137931e+00 1.46286121542957e-02 1.30750840333902e-04
9.27439655172414e+00 1.45417703954709e-02 1.30371522497354e-04
9.33077586206896e+00 1.44554441668308e-02 1.29990903044260e-04
9.38715517241379e+00 1.43696304079655e-02 1.29609028676977e-04
9.44353448275862e+00 1.42843260766330e-02 1.29225945258564e-04
9.49991379310345e+00 1.41995281486515e-02 1.28841697828693e-04
9.55629310344828e+00 1.41152336177918e-02 1.28456330619185e-04
9.61267241379310e+00 1.40314394956713e-02 1.28069887069151e-04
9.66905172413793e+00 1.39481428116474e-02 1.27682409839837e-04
9.72543103448276e+00 1.38653406127128e-02 1.27293940829096e-04
9.78181034482759e+00 1.37830299633903e-02 1.26904521185522e-04
9.83818965517241e+00 1.37012079456292e-02 1.26514191322301e-04
9.89456896551724e+00 1.36198716587013e-02 1.26122990930711e-04
9.95094827586207e+00 1.35390182190987e-02 1.25730958993334e-04
1.00073275862069e+01 1.34586447604310e-02 1.25338133674598e-04
1.00637068965517e+01 1.33787484336394e-02 1.24944552976606e-04
1.01200862068966e+01 1.32993264052396e-02 1.24550253647540e-04
1.01764655172414e+01 1.32203758603818e-02 1.24155271559163e-04
1.02328448275862e+01 1.31418940001341e-02 1.23759642651861e-04
1.02892241379310e+01 1.30638780421804e-02 1.23363401917670e-04
1.03456034482759e+01 1.29863252207217e-02 1.22966583724758e-04
1.04019827586207e+01 1.29092327863779e-02 1.22569221828436e-04
1.04583620689655e+01 1.28325980060900e-02 1.22171349381724e-04
1.05147413793103e+01 1.27564181630242e-02 1.21772998946145e-04
1.05711206896552e+01 1.26806905564750e-02 1.21374202502316e-04
1.06275000000000e+01 1.26054125017697e-02 1.20974991739169e-04
1.06838793103448e+01 1.25305813294746e-02 1.20575397222078e-04
1.07402586206897e+01 1.24561943874078e-02 1.20175448966224e-04
1.07966379310345e+01 1.23822490384250e-02 1.19775177014593e-04
1.08530172413793e+01 1.23087426610374e-02 1.19374610590999e-04
1.09093965517241e+01 1.22356726493185e-02 1.18973778396313e-04
1.09657758620690e+01 1.21630364128113e-02 1.18572708617237e-04
1.10221551724138e+01 1.20908313764372e-02 1.18171428934955e-04
1.10785344827586e+01 1.20190549804044e-02 1.17769966534037e-04
1.11349137931034e+01 1.19477046801175e-02 1.17368348110909e-04
1.11912931034483e+01 1.18767779460866e-02 1.16966600138340e-04
1.12476724137931e+01 1.18062722632136e-02 1.16564748100806e-04
1.13040517241379e+01 1.17361851325876e-02 1.16162817019775e-04
1.13604310344828e+01 1.16665140695001e-02 1.15760831983324e-04
1.14168103448276e+01 1.15972566039932e-02 1.15358817367772e-04
1.14731896551724e+01 1.15284102807716e-02 1.14956797108704e-04
1.15295689655172e+01 1.14599726591154e-02 1.14554794707965e-04
1.15859482758621e+01 1.13919413127943e-02 1.14152833240872e-04
1.16423275862069e+01 1.13243138299812e-02 1.13750935363685e-04
1.16987068965517e+01 1.12570878131666e-02 1.13349123558074e-04
1.17550862068966e+01 1.11902608785073e-02 1.12947419421164e-04
1.18114655172414e+01 1.11238306574509e-02 1.12545844152013e-04
1.18678448275862e+01 1.10577947949331e-02 1.12144419042202e-04
1.19242241379310e+01 1.09921509498699e-02 1.11743164753230e-04
1.19806034482759e+01 1.09268967950751e-02 1.11342101567121e-04
1.20369827586207e+01 1.08620300171779e-02 1.10941249392648e-04
1.20933620689655e+01 1.07975483165401e-02 1.10540627771159e-04
1.21497413793103e+01 1.07334494071758e-02 1.10140255882673e-04
1.22061206896552e+01 1.06697310166694e-02 1.09740152551910e-04
1.22625000000000e+01 1.06063908860957e-02 1.09340336472660e-04
1.23188793103448e+01 1.05434267694300e-02 1.08940825553972e-04
1.23752586206897e+01 1.04808364350052e-02 1.08541637367084e-04
1.24316379310345e+01 1.04186176638874e-02 1.08142789596247e-04
1.24880172413793e+01 1.03567682503153e-02 1.07744299373337e-04
1.25443965517241e+01 1.02952860016219e-02 1.07346183507914e-04
1.26007758620690e+01 1.02341687381566e-02 1.06948458492206e-04
1.26571551724138e+01 1.01734142932083e-02 1.06551140506088e-04
1.27135344827586e+01 1.01130205129287e-02 1.06154245422285e-04
1.27699137931034e+01 1.00529852562555e-02 1.05757788811235e-04
1.28262931034483e+01 9.99330639483686e-03 1.05361786147322e-04
1.28826724137931e+01 9.93398181249695e-03 1.04966252206192e-04
1.29390517241379e+01 9.87500940654493e-03 1.04571201475908e-04
1.29954310344828e+01 9.81638708630869e-03 1.04176648571725e-04
1.30518103448276e+01 9.75811277352726e-03 1.03782607622810e-04
1.31081896551724e+01 9.70018440227715e-03 1.03389092483724e-04
1.31645689655172e+01 9.64259991889882e-03 1.02996116738481e-04
1.32209482758621e+01 9.58535728192445e-03 1.02603693704802e-04
1.32773275862069e+01 9.52845446200527e-03 1.02211836438561e-04
1.33337068965517e+01 9.47188944183961e-03 1.01820557925139e-04
1.33900862068966e+01 9.41566021568301e-03 1.01429870518553e-04
1.34464655172414e+01 9.35976479053926e-03 1.01039786323457e-04
1.35028448275862e+01 9.30420118482051e-03 1.00650317580603e-04
1.35592241379310e+01 9.24896742870250e-03 1.00261476096163e-04
1.36156034482759e+01 9.19406156405469e-03 9.98732734379853e-05
1.36719827586207e+01 9.13948164437079e-03 9.94857209393004e-05
1.37283620689655e+01 9.08522573469974e-03 9.90988297022132e-05
1.37847413793103e+01 9.03129191157738e-03 9.87126106013815e-05
1.38411206896552e+01 8.97767826295807e-03 9.83270742876416e-05
1.38975000000000e+01 8.92438288814693e-03 9.79422313643245e-05
1.39538793103448e+01 8.87140389735426e-03 9.75580918694184e-05
1.40102586206897e+01 8.81873941276929e-03 9.71746656277221e-05
1.40666379310345e+01 8.76638756734659e-03 9.67919626062090e-05
1.41230172413793e+01 8.71434650512429e-03 9.64099923871927e-05
1.41793965517241e+01 8.66261438115836e-03 9.60287643491552e-05
1.42357758620690e+01 8.61118936145699e-03 9.56482876697720e-05
1.42921551724138e+01 8.56006962291584e-03 9.52685713289569e-05
1.43485344827586e+01 8.50925335325339e-03 9.48896241120256e-05
1.44049137931034e+01 8.45873875094664e-03 9.45114546127117e-05
1.44612931034483e+01 8.40852402516718e-03 9.41340713957493e-05
1.45176724137931e+01 8.35860739537540e-03 9.37574825183993e-05
1.45740517241379e+01 8.30898709229005e-03 9.33816958554193e-05
1.46304310344828e+01 8.25966135678713e-03 9.30067194269782e-05
1.46868103448276e+01 8.21062844018558e-03 9.26325609119329e-05
1.47431896551724e+01 8.16188660418527e-03 9.22592278145885e-05
1.47995689655172e+01 8.11343412080519e-03 9.18867274671964e-05
1.48559482758621e+01 8.06526927232258e-03 9.15150670325961e-05
1.49123275862069e+01 8.01739035121184e-03 9.11442535069850e-05
1.49687068965517e+01 7.96979566008399e-03 9.07742938712210e-05
1.50250862068966e+01 7.92248351131284e-03 9.04051946446923e-05
1.50814655172414e+01 7.87545222792120e-03 9.00369621879723e-05
1.51378448275862e+01 7.82870014257026e-03 8.96696030082834e-05
1.51942241379310e+01 7.78222559781925e-03 8.93031233056837e-05
1.52506034482759e+01 7.73602694606670e-03 8.89375291282710e-05
1.53069827586207e+01 7.69010254949198e-03 8.85728263745023e-05
1.53633620689655e+01 7.64445077999721e-03 8.82090207953678e-05
1.54197413793103e+01 7.59907001914973e-03 8.78461179967087e-05
1.54761206896552e+01 7.55395865812460e-03 8.74841234415214e-05
1.55325000000000e+01 7.50911509764758e-03 8.71230425897230e-05
1.55888793103448e+01 7.46453774765365e-03 8.67628804854120e-05
1.56452586206897e+01 7.42022502808952e-03 8.64036420365704e-05
1.57016379310345e+01 7.37617536799412e-03 8.60453322974063e-05
1.57580172413793e+01 7.33238720573227e-03 8.56879560485222e-05
1.58143965517241e+01 7.28885898893936e-03 8.53315179402903e-05
1.58707758620690e+01 7.24558917446620e-03 8.49760224947683e-05
1.59271551724138e+01 7.20257622832445e-03 8.46214741076254e-05
1.59835344827586e+01 7.15981862563224e-03 8.42678770501766e-05
1.60399137931034e+01 7.11731485056009e-03 8.39152354712884e-05
1.60962931034483e+01 7.07506339627712e-03 8.35635535265921e-05
1.61526724137931e+01 7.03306276463880e-03 8.32128349964167e-05
1.62090517241379e+01 6.99131146691455e-03 8.28630835444605e-05
1.62654310344828e+01 6.94980802295008e-03 8.25143029789232e-05
1.63218103448276e+01 6.90855096137795e-03 8.21664968638904e-05
1.63781896551724e+01 6.86753881956537e-03 8.18196686518971e-05
1.64345689655172e+01 6.82677014356228e-03 8.14738216855031e-05
1.64909482758621e+01 6.78624348805002e-03 8.11289591989733e-05
1.65473275862069e+01 6.74595741628997e-03 8.07850843201034e-05
1.66037068965517e+01 6.70591050007263e-03 8.04422001906976e-05
1.66600862068966e+01 6.66610131942900e-03 8.01003096097590e-05
1.67164655172414e+01 6.62652846329792e-03 7.97594152748645e-05
1.67728448275862e+01 6.58719052875456e-03 7.94195200258501e-05
1.68292241379310e+01 6.54808612120247e-03 7.90806264819143e-05
1.68856034482759e+01 6.50921385432414e-03 7.87427371652278e-05
1.69419827586207e+01 6.47057235003180e-03 7.84058545024294e-05
1.69983620689655e+01 6.43216023841857e-03 7.80699808260257e-05
1.70547413793103e+01 6.39397615771003e-03 7.77351183758950e-05
1.71111206896552e+01 6.35601875421584e-03 7.74012693007885e-05
1.71675000000000e+01 6.31828668228175e-03 7.70684357698804e-05
1.72238793103448e+01 6.28077860402507e-03 7.67366196420900e-05
1.72802586206897e+01 6.24349318994115e-03 7.64058226895950e-05
1.73366379310345e+01 6.20642911819888e-03 7.60760468235230e-05
1.73930172413793e+01 6.16958507481412e-03 7.57472937576293e-05
1.74493965517241e+01 6.13295975360313e-03 7.54195651227351e-05
1.75057758620690e+01 6.09655185613616e-03 7.50928624679842e-05
1.75621551724138e+01 6.06036009169155e-03 7.47671872620762e-05
1.76185344827586e+01 6.02438317720997e-03 7.44425408946079e-05
1.76749137931034e+01 5.98861983724888e-03 7.41189246773150e-05
1.77312931034483e+01 5.95306880393732e-03 7.37963399474076e-05
1.77876724137931e+01 5.91772881673320e-03 7.34747877609788e-05
