Energy (eV)          EEDF (eV^-(3/2))     First Anisotropy
2.30645161290323e-02 1.33490893705808e-01 8.96658085029969e-05
6.91935483870968e-02 1.32009598401046e-01 1.47738902496359e-04
1.15322580645161e-01 1.30544740443058e-01 1.94173446121376e-04
1.61451612903226e-01 1.29096137427338e-01 2.28931930209565e-04
2.07580645161290e-01 1.27663608985939e-01 2.57495260923388e-04
2.53709677419355e-01 1.26246976743672e-01 2.81948876259651e-04
2.99838709677419e-01 1.24846064301293e-01 3.03378508815927e-04
3.45967741935484e-01 1.23460697228228e-01 3.22443654913794e-04
3.92096774193548e-01 1.22090703023173e-01 3.39584233231675e-04
4.38225806451613e-01 1.20735911099139e-01 3.55112943008077e-04
4.84354838709677e-01 1.19396152759456e-01 3.69262563739417e-04
5.30483870967742e-01 1.18071261185544e-01 3.82212593368425e-04
5.76612903225806e-01 1.16761071406625e-01 3.94105345396728e-04
6.22741935483871e-01 1.15465420282577e-01 4.05056220971760e-04
6.68870967741935e-01 1.14184146481713e-01 4.15160556734831e-04
7.15000000000000e-01 1.12917090466677e-01 4.24498356549867e-04
7.61129032258064e-01 1.11664094468254e-01 4.33137659908756e-04
8.07258064516129e-01 1.10425002467959e-01 4.41137000784611e-04
8.53387096774194e-01 1.09199660177168e-01 4.48547242645287e-04
8.99516129032258e-01 1.07987915022350e-01 4.55412974564445e-04
9.45645161290323e-01 1.06789616121435e-01 4.61773590986730e-04
9.91774193548387e-01 1.05604614266650e-01 4.67664138720120e-04
1.03790322580645e+00 1.04432761904807e-01 4.73115990399656e-04
1.08403225806452e+00 1.03273913124493e-01 4.78157387493845e-04
1.13016129032258e+00 1.02127923629872e-01 4.82813882697721e-04
1.17629032258065e+00 1.00994650716722e-01 4.87108698414703e-04
1.22241935483871e+00 9.98739532842398e-02 4.91063029554833e-04
1.26854838709677e+00 9.87656917870511e-02 4.94696296531224e-04
1.31467741935484e+00 9.76697282282849e-02 4.98026354135725e-04
1.36080645161290e+00 9.65859261344613e-02 5.01069668904014e-04
1.40693548387097e+00 9.55141505629315e-02 5.03841473712710e-04
1.45306451612903e+00 9.44542680599990e-02 5.06355900685716e-04
1.49919354838710e+00 9.34061466527921e-02 5.08626091367358e-04
1.54532258064516e+00 9.23696558329885e-02 5.10664296545836e-04
1.59145161290323e+00 9.13446665340651e-02 5.12481959338440e-04
1.63758064516129e+00 9.03310511348426e-02 5.14089791631892e-04
1.68370967741935e+00 8.93286834235346e-02 5.15497841479642e-04
1.72983870967742e+00 8.83374385889010e-02 5.16715549386968e-04
1.77596774193548e+00 8.73571931992049e-02 5.17751798436411e-04
1.82209677419355e+00 8.63878252036587e-02 5.18614961515901e-04
1.86822580645161e+00 8.54292139000502e-02 5.19312943613493e-04
1.91435483870968e+00 8.44812399255305e-02 5.19853216087204e-04
1.96048387096774e+00 8.35437852418189e-02 5.20242850867003e-04
2.00661290322581e+00 8.26167331158773e-02 5.20488548077086e-04
2.05274193548387e+00 8.16999681193732e-02 5.20596664005942e-04
2.09887096774194e+00 8.07933761000328e-02 5.20573236549496e-04
2.14500000000000e+00 7.98968441723064e-02 5.20424005703769e-04
2.19112903225806e+00 7.90102606992767e-02 5.20154432411643e-04
2.23725806451613e+00 7.81335152910313e-02 5.19769717929617e-04
2.28338709677419e+00 7.72664987784156e-02 5.19274821631101e-04
2.32951612903226e+00 7.64091032036757e-02 5.18674474909766e-04
2.37564516129032e+00 7.55612218034845e-02 5.17973194124516e-04
2.42177419354839e+00 7.47227490064794e-02 5.17175294525590e-04
2.46790322580645e+00 7.38935804090867e-02 5.16284903168267e-04
2.51403225806452e+00 7.30736127662434e-02 5.15305968118488e-04
2.56016129032258e+00 7.22627439785749e-02 5.14242269569204e-04
2.60629032258064e+00 7.14608730766120e-02 5.13097427704388e-04
2.65241935483871e+00 7.06679002175228e-02 5.11874912324611e-04
2.69854838709677e+00 6.98837266632209e-02 5.10578051861572e-04
2.74467741935484e+00 6.91082547712781e-02 5.09210039766994e-04
2.79080645161290e+00 6.83413879800419e-02 5.07773940618427e-04
2.83693548387097e+00 6.75830308049283e-02 5.06272697510688e-04
2.88306451612903e+00 6.68330888180804e-02 5.04709139023672e-04
2.92919354838710e+00 6.60914686394583e-02 5.03085983469371e-04
2.97532258064516e+00 6.53580779252393e-02 5.01405845058174e-04
3.02145161290323e+00 6.46328253539244e-02 4.99671237635627e-04
3.06758064516129e+00 6.39156206222096e-02 4.97884580158008e-04
3.11370967741935e+00 6.32063744263882e-02 4.96048201892620e-04
3.15983870967742e+00 6.25049984537246e-02 4.94164345629947e-04
3.20596774193548e+00 6.18114053693109e-02 4.92235170838381e-04
3.25209677419355e+00 6.11255088117257e-02 4.90262758073811e-04
3.29822580645161e+00 6.04472233756485e-02 4.88249113188788e-04
3.34435483870968e+00 5.97764646034625e-02 4.86196169390603e-04
3.39048387096774e+00 5.91131489747532e-02 4.84105791042235e-04
3.43661290322581e+00 5.84571938940087e-02 4.81979775521520e-04
3.48274193548387e+00 5.78085176860842e-02 4.79819856658952e-04
3.52887096774194e+00 5.71670395801992e-02 4.77627708037156e-04
3.57500000000000e+00 5.65326797018593e-02 4.75404944694905e-04
3.62112903225806e+00 5.59053590611894e-02 4.73153124855250e-04
3.66725806451613e+00 5.52849995483211e-02 4.70873752792448e-04
3.71338709677419e+00 5.46715239183700e-02 4.68568281595552e-04
3.75951612903226e+00 5.40648557836056e-02 4.66238114463407e-04
3.80564516129032e+00 5.34649196023804e-02 4.63884606040827e-04
3.85177419354839e+00 5.28716406744798e-02 4.61509064841027e-04
3.89790322580645e+00 5.22849451269973e-02 4.59112755588136e-04
3.94403225806452e+00 5.17047599067607e-02 4.56696899924596e-04
3.99016129032258e+00 5.11310127712448e-02 4.54262678568372e-04
4.03629032258065e+00 5.05636322781785e-02 4.51811231983475e-04
4.08241935483871e+00 5.00025477808820e-02 4.49343662367535e-04
4.12854838709677e+00 4.94476894151803e-02 4.46861035582725e-04
4.17467741935484e+00 4.88989880921536e-02 4.44364381860000e-04
4.22080645161290e+00 4.83563754882613e-02 4.41854696561772e-04
4.26693548387097e+00 4.78197840407080e-02 4.39332941900665e-04
4.31306451612903e+00 4.72891469351061e-02 4.36800048614026e-04
4.35919354838710e+00 4.67643980984771e-02 4.34256916256483e-04
4.40532258064516e+00 4.62454721910328e-02 4.31704414756592e-04
4.45145161290323e+00 4.57323045968933e-02 4.29143384713311e-04
4.49758064516129e+00 4.52248314195078e-02 4.26574638842249e-04
4.54370967741936e+00 4.47229894701876e-02 4.23998963389555e-04
4.58983870967742e+00 4.42267162614246e-02 4.21417118505989e-04
4.63596774193548e+00 4.37359499980617e-02 4.18829838682716e-04
4.68209677419355e+00 4.32506295727842e-02 4.16237834024172e-04
4.72822580645161e+00 4.27706945552844e-02 4.13641791495351e-04
4.77435483870968e+00 4.22960851858238e-02 4.11042374989356e-04
4.82048387096774e+00 4.18267423677974e-02 4.08440226495393e-04
4.86661290322581e+00 4.13626076594276e-02 4.05835966187410e-04
4.91274193548387e+00 4.09036232693530e-02 4.03230193516267e-04
4.95887096774194e+00 4.04497320465312e-02 4.00623488282475e-04
5.00500000000000e+00 4.00008774741036e-02 3.98016410818989e-04
5.05112903225806e+00 3.95570036614870e-02 3.95409502233363e-04
5.09725806451613e+00 3.91180553400563e-02 3.92803285381734e-04
5.14338709677419e+00 3.86839778535879e-02 3.90198265827603e-04
5.18951612903226e+00 3.82547171523562e-02 3.87594931965894e-04
5.23564516129032e+00 3.78302197856009e-02 3.84993755204450e-04
5.28177419354839e+00 3.74104328973118e-02 3.82395190837348e-04
5.32790322580645e+00 3.69953042171772e-02 3.79799678905680e-04
5.37403225806452e+00 3.65847820549070e-02 3.77207644105949e-04
5.42016129032258e+00 3.61788152937993e-02 3.74619496601640e-04
5.46629032258064e+00 3.57773533836471e-02 3.72035631961434e-04
5.51241935483871e+00 3.53803463366503e-02 3.69456431923399e-04
5.55854838709677e+00 3.49877447189587e-02 3.66882265150229e-04
5.60467741935484e+00 3.45994996452700e-02 3.64313487263463e-04
5.65080645161290e+00 3.42155627720701e-02 3.61750440930094e-04
5.69693548387097e+00 3.38358862936562e-02 3.59193456554121e-04
5.74306451612903e+00 3.34604229341176e-02 3.56642852960947e-04
5.78919354838710e+00 3.30891259421440e-02 3.54098937255990e-04
5.83532258064516e+00 3.27219490852080e-02 3.51562005472208e-04
5.88145161290323e+00 3.23588466431947e-02 3.49032342459499e-04
5.92758064516129e+00 3.19997734045633e-02 3.46510222496128e-04
5.97370967741935e+00 3.16446846588417e-02 3.43995909894966e-04
6.01983870967742e+00 3.12935361916929e-02 3.41489658984172e-04
6.06596774193548e+00 3.09462842788419e-02 3.38991714134817e-04
6.11209677419355e+00 3.06028856823518e-02 3.36502310318223e-04
6.15822580645161e+00 3.02632976434999e-02 3.34021673659285e-04
6.20435483870968e+00 2.99274778780394e-02 3.31550021271446e-04
6.25048387096774e+00 2.95953845709363e-02 3.29087561781762e-04
6.29661290322581e+00 2.92669763706453e-02 3.26634495195210e-04
6.34274193548387e+00 2.89422123855259e-02 3.24191013391683e-04
6.38887096774194e+00 2.86210521771681e-02 3.21757300619906e-04
6.43500000000000e+00 2.83034557558914e-02 3.19333533446590e-04
6.48112903225806e+00 2.79893835752853e-02 3.16919880747408e-04
6.52725806451613e+00 2.76787965287403e-02 3.14516504162471e-04
6.57338709677419e+00 2.73716559431069e-02 3.12123558549691e-04
6.61951612903226e+00 2.70679235743759e-02 3.09741191924069e-04
6.66564516129032e+00 2.67675616024707e-02 3.07369545436712e-04
6.71177419354839e+00 2.64705326278919e-02 3.05008753793457e-04
6.75790322580645e+00 2.61767996656913e-02 3.02658945671602e-04
6.80403225806452e+00 2.58863261413276e-02 3.00320243545395e-04
6.85016129032258e+00 2.55990758861130e-02 2.97992764082498e-04
6.89629032258065e+00 2.53150131323021e-02 2.95676617995859e-04
6.94241935483871e+00 2.50341025098734e-02 2.93371910420132e-04
6.98854838709677e+00 2.47563090408763e-02 2.91078741287080e-04
7.03467741935484e+00 2.44815981354966e-02 2.88797205251598e-04
7.08080645161290e+00 2.42099355873696e-02 2.86527391652886e-04
7.12693548387097e+00 2.39412875704734e-02 2.84269384861767e-04
7.17306451612903e+00 2.36756206337521e-02 2.82023264627360e-04
7.21919354838710e+00 2.34129016973419e-02 2.79789105905699e-04
7.26532258064516e+00 2.31530980484542e-02 2.77566979190002e-04
7.31145161290323e+00 2.28961773369537e-02 2.75356950363509e-04
7.35758064516129e+00 2.26421075723836e-02 2.73159081013320e-04
7.40370967741935e+00 2.23908571189178e-02 2.70973428744006e-04
7.44983870967742e+00 2.21423946917804e-02 2.68800047097355e-04
7.49596774193548e+00 2.18966893530261e-02 2.66638985503239e-04
7.54209677419355e+00 2.16537105086710e-02 2.64490289570194e-04
7.58822580645161e+00 2.14134279038899e-02 2.62354001375957e-04
7.63435483870968e+00 2.11758116195824e-02 2.60230159303463e-04
7.68048387096774e+00 2.09408320686495e-02 2.58118798318073e-04
7.72661290322581e+00 2.07084599920107e-02 2.56019949825253e-04
7.77274193548387e+00 2.04786664558630e-02 2.53933641934264e-04
7.81887096774194e+00 2.02514228471663e-02 2.51859899722001e-04
7.86500000000000e+00 2.00267008703885e-02 2.49798745150951e-04
7.91112903225806e+00 1.98044725437038e-02 2.47750197014683e-04
7.95725806451613e+00 1.95847101963512e-02 2.45714271182558e-04
8.00338709677419e+00 1.93673864643376e-02 2.43690980844847e-04
8.04951612903226e+00 1.91524742873169e-02 2.41680336430616e-04
8.09564516129032e+00 1.89399469049614e-02 2.39682345551602e-04
8.14177419354839e+00 1.87297778544171e-02 2.37697013229692e-04
8.18790322580645e+00 1.85219409662129e-02 2.35724342124795e-04
8.23403225806452e+00 1.83164103612694e-02 2.33764332384722e-04
8.28016129032258e+00 1.81131604476775e-02 2.31816981862749e-04
8.32629032258065e+00 1.79121659172725e-02 2.29882285986092e-04
8.37241935483871e+00 1.77134017432067e-02 2.27960237963135e-04
8.41854838709677e+00 1.75168431761018e-02 2.26050828991328e-04
8.46467741935484e+00 1.73224657412134e-02 2.24154048177082e-04
8.51080645161290e+00 1.71302452351604e-02 2.22269882478578e-04
8.55693548387097e+00 1.69401577235882e-02 2.20398316898809e-04
8.60306451612903e+00 1.67521795375046e-02 2.18539334679318e-04
8.64919354838710e+00 1.65662872705625e-02 2.16692917160756e-04
8.69532258064516e+00 1.63824577761459e-02 2.14859043968006e-04
8.74145161290322e+00 1.62006681642822e-02 2.13037692887434e-04
8.78758064516129e+00 1.60208957994148e-02 2.11228840043202e-04
8.83370967741936e+00 1.58431182969551e-02 2.09432460074402e-04
8.87983870967742e+00 1.56673135207075e-02 2.07648526058290e-04
8.92596774193548e+00 1.54934595799204e-02 2.05877009453787e-04
8.97209677419355e+00 1.53215348271442e-02 2.04117880266036e-04
9.01822580645161e+00 1.51515178549462e-02 2.02371107211737e-04
9.06435483870968e+00 1.49833874934432e-02 2.00636657590572e-04
9.11048387096774e+00 1.48171228076661e-02 1.98914497443305e-04
9.15661290322581e+00 1.46527030947751e-02 1.97204591438035e-04
9.20274193548387e+00 1.44901078820202e-02 1.95506903020852e-04
9.24887096774193e+00 1.43293169236483e-02 1.93821394567305e-04
9.29500000000000e+00 1.41703101985653e-02 1.92148027309783e-04
9.34112903225806e+00 1.40130679076771e-02 1.90486761282818e-04
9.38725806451613e+00 1.38575704719282e-02 1.88837555463853e-04
9.43338709677419e+00 1.37037985293545e-02 1.87200367914828e-04
9.47951612903226e+00 1.35517329328437e-02 1.85575155711407e-04
9.52564516129032e+00 1.34013547475956e-02 1.83961874889165e-04
9.57177419354839e+00 1.32526452492370e-02 1.82360480575188e-04
9.61790322580645e+00 1.31055859210128e-02 1.80770927120516e-04
9.66403225806452e+00 1.29601584516407e-02 1.79193167986580e-04
9.71016129032258e+00 1.28163447330315e-02 1.77627155871807e-04
9.75629032258064e+00 1.26741268578902e-02 1.76072842610617e-04
9.80241935483871e+00 1.25334871179229e-02 1.74530179294187e-04
9.84854838709677e+00 1.23944080011908e-02 1.72999116392093e-04
9.89467741935484e+00 1.22568721900780e-02 1.71479603686201e-04
9.94080645161290e+00 1.21208625590000e-02 1.69971590219554e-04
9.98693548387097e+00 1.19863621726814e-02 1.68475024409449e-04
1.00330645161290e+01 1.18533542836330e-02 1.66989854041384e-04
1.00791935483871e+01 1.17218223305922e-02 1.65516026805294e-04
1.01253225806452e+01 1.15917499344005e-02 1.64053489166463e-04
1.01714516129032e+01 1.14631209002177e-02 1.62602186945092e-04
1.02175806451613e+01 1.13359192116151e-02 1.61162066665111e-04
1.02637096774194e+01 1.12101290286815e-02 1.59733073192600e-04
1.03098387096774e+01 1.10857346897226e-02 1.58315150948776e-04
1.03559677419355e+01 1.09627207055996e-02 1.56908245082186e-04
1.04020967741935e+01 1.08410717578944e-02 1.55512299198640e-04
1.04482258064516e+01 1.07207727005079e-02 1.54127256525443e-04
1.04943548387097e+01 1.06018085542315e-02 1.52753061037343e-04
1.05404838709677e+01 1.04841645049711e-02 1.51389655274274e-04
1.05866129032258e+01 1.03678259052491e-02 1.50036981458894e-04
1.06327419354839e+01 1.02527782689993e-02 1.48694982578209e-04
1.06788709677419e+01 1.01390072698477e-02 1.47363600285599e-04
1.07250000000000e+01 1.00264987425234e-02 1.46042775973649e-04
1.07711290322581e+01 9.91523867786785e-03 1.44732451489249e-04
1.08172580645161e+01 9.80521322217656e-03 1.43432568416220e-04
1.08633870967742e+01 9.69640867448556e-03 1.42143067481736e-04
1.09095161290323e+01 9.58881148786150e-03 1.40863889220919e-04
1.09556451612903e+01 9.48240826468844e-03 1.39594974958497e-04
1.10017741935484e+01 9.37718575507439e-03 1.38336264900556e-04
1.10479032258065e+01 9.27313085806313e-03 1.37087699108154e-04
1.10940322580645e+01 9.17023061711191e-03 1.35849218440047e-04
1.11401612903226e+01 9.06847221854998e-03 1.34620762717647e-04
1.11862903225806e+01 8.96784299271654e-03 1.33402271660593e-04
1.12324193548387e+01 8.86833040962117e-03 1.32193685792176e-04
1.12785483870968e+01 8.76992207745252e-03 1.30994944674597e-04
1.13246774193548e+01 8.67260574364684e-03 1.29805987808014e-04
1.13708064516129e+01 8.57636929072317e-03 1.28626755500244e-04
1.14169354838710e+01 8.48120073484061e-03 1.27457187169512e-04
1.14630645161290e+01 8.38708822680148e-03 1.26297222208470e-04
1.15091935483871e+01 8.29402004805373e-03 1.25146800819652e-04
1.15553225806452e+01 8.20198460929525e-03 1.24005862383092e-04
1.16014516129032e+01 8.11097045141531e-03 1.22874346286560e-04
1.16475806451613e+01 8.02096624165763e-03 1.21752192728410e-04
1.16937096774194e+01 7.93196077226929e-03 1.20639341147495e-04
1.17398387096774e+01 7.84394296138467e-03 1.19535731020724e-04
1.17859677419355e+01 7.75690184934219e-03 1.18441302634878e-04
1.18320967741935e+01 7.67082659737634e-03 1.17355995576308e-04
1.18782258064516e+01 7.58570648844756e-03 1.16279749497158e-04
1.19243548387097e+01 7.50153092370599e-03 1.15212504857377e-04
1.19704838709677e+01 7.41828942122536e-03 1.14154201471828e-04
1.20166129032258e+01 7.33597161678193e-03 1.13104779246506e-04
1.20627419354839e+01 7.25456726045896e-03 1.12064178891914e-04
1.21088709677419e+01 7.17406621542123e-03 1.11032340525351e-04
1.21550000000000e+01 7.09445845864592e-03 1.10009204378322e-04
1.22011290322581e+01 7.01573407766194e-03 1.08994711267032e-04
1.22472580645161e+01 6.93788326999309e-03 1.07988802111786e-04
1.22933870967742e+01 6.86089634131916e-03 1.06991417537300e-04
1.23395161290323e+01 6.78476370614181e-03 1.06002498310200e-04
1.23856451612903e+01 6.70947588469972e-03 1.05021985987960e-04
1.24317741935484e+01 6.63502350183346e-03 1.04049821645119e-04
1.24779032258065e+01 6.56139728760971e-03 1.03085946516764e-04
1.25240322580645e+01 6.48858807435763e-03 1.02130302622279e-04
1.25701612903226e+01 6.41658679557092e-03 1.01182831539651e-04
1.26162903225806e+01 6.34538448649264e-03 1.00243475024269e-04
1.26624193548387e+01 6.27497228126788e-03 9.93121756084825e-05
1.27085483870968e+01 6.20534141188172e-03 9.83888754221374e-05
1.27546774193548e+01 6.13648320870697e-03 9.74735167876736e-05
1.28008064516129e+01 6.06838909776836e-03 9.65660427964801e-05
1.28469354838710e+01 6.00105059971516e-03 9.56663961738500e-05
1.28930645161290e+01 5.93445933033405e-03 9.47745198513210e-05
1.29391935483871e+01 5.86860699792021e-03 9.38903575207557e-05
1.29853225806452e+01 5.80348540228346e-03 9.30138525420190e-05
1.30314516129032e+01 5.73908643522824e-03 9.21449484933415e-05
1.30775806451613e+01 5.67540207802750e-03 9.12835897041722e-05
1.31237096774194e+01 5.61242440046076e-03 9.04297202039260e-05
1.31698387096774e+01 5.55014556126357e-03 8.95832842510927e-05
1.32159677419355e+01 5.48855780569967e-03 8.87442268458270e-05
1.32620967741935e+01 5.42765346463020e-03 8.79124927181308e-05
1.33082258064516e+01 5.36742495493417e-03 8.70880268365687e-05
1.33543548387097e+01 5.30786477717511e-03 8.62707749013782e-05
1.34004838709677e+01 5.24896551470023e-03 8.54606823705838e-05
1.34466129032258e+01 5.19071983403375e-03 8.46576949491264e-05
1.34927419354839e+01 5.13312048263404e-03 8.38617590632631e-05
1.35388709677419e+01 5.07616028802188e-03 8.30728209231418e-05
1.35850000000000e+01 5.01983215814814e-03 8.22908269931219e-05
1.36311290322581e+01 4.96412907923784e-03 8.15157243039726e-05
1.36772580645161e+01 4.90904411534518e-03 8.07474601290262e-05
1.37233870967742e+01 4.85457040709787e-03 7.99859817137508e-05
1.37695161290323e+01 4.80070117203013e-03 7.92312365661445e-05
1.38156451612903e+01 4.74742970253974e-03 7.84831728890380e-05
1.38617741935484e+01 4.69474936508087e-03 7.77417387244905e-05
1.39079032258065e+01 4.64265360047476e-03 7.70068823823532e-05
1.39540322580645e+01 4.59113592194533e-03 7.62785528560506e-05
1.40001612903226e+01 4.54018991433838e-03 7.55566989988553e-05
1.40462903225806e+01 4.48980923441138e-03 7.48412699362612e-05
1.40924193548387e+01 4.43998760894437e-03 7.41322154658991e-05
1.41385483870968e+01 4.39071883398479e-03 7.34294852644726e-05
1.41846774193548e+01 4.34199677511750e-03 7.27330292845687e-05
1.42308064516129e+01 4.29381536564803e-03 7.20427981393278e-05
1.42769354838710e+01 4.24616860587213e-03 7.13587423388722e-05
1.43230645161290e+01 4.19905056332727e-03 7.06808126721603e-05
1.43691935483871e+01 4.15245537104529e-03 7.00089605770091e-05
1.44153225806452e+01 4.10637722684587e-03 6.93431374049123e-05
1.44614516129032e+01 4.06081039357057e-03 6.86832947884437e-05
1.45075806451613e+01 4.01574919740229e-03 6.80293849972930e-05
1.45537096774194e+01 3.97118802718160e-03 6.73813602303896e-05
