Energy (eV)          EEDF (eV^-(3/2))     First Anisotropy
1.09000000000000e-02 7.89645794119846e-01 6.53387784861728e-04
3.27000000000000e-02 7.76114490598643e-01 1.07329292826300e-03
5.45000000000000e-02 7.62815058350097e-01 1.40201556135897e-03
7.63000000000000e-02 7.49743524047455e-01 1.64289180004556e-03
9.81000000000000e-02 7.36895982450750e-01 1.83658667531330e-03
1.19900000000000e-01 7.24268595239909e-01 1.99872089525332e-03
1.41700000000000e-01 7.11857589867993e-01 2.13750034366333e-03
1.63500000000000e-01 6.99659258434115e-01 2.25795255797025e-03
1.85300000000000e-01 6.87669956575663e-01 2.36345910343759e-03
2.07100000000000e-01 6.75886102379516e-01 2.45644289007929e-03
2.28900000000000e-01 6.64304175311913e-01 2.53872141765493e-03
2.50700000000000e-01 6.52920715166663e-01 2.61170641077861e-03
2.72500000000000e-01 6.41732321031376e-01 2.67652487862179e-03
2.94300000000000e-01 6.30735650271408e-01 2.73409664498845e-03
3.16100000000000e-01 6.19927417531219e-01 2.78518621684202e-03
3.37900000000000e-01 6.09304393752845e-01 2.83043874962024e-03
3.59700000000000e-01 5.98863405211186e-01 2.87040574298147e-03
3.81500000000000e-01 5.88601332565827e-01 2.90556387210038e-03
4.03300000000000e-01 5.78515109929105e-01 2.93632909370003e-03
4.25100000000000e-01 5.68601723950149e-01 2.96306741579691e-03
4.46900000000000e-01 5.58858212914616e-01 2.98610325913599e-03
4.68700000000000e-01 5.49281665859846e-01 3.00572604596587e-03
4.90500000000000e-01 5.39869221705191e-01 3.02219546125647e-03
5.12300000000000e-01 5.30618068397239e-01 3.03574570419622e-03
5.34100000000000e-01 5.21525442069685e-01 3.04658896094399e-03
5.55900000000000e-01 5.12588626217607e-01 3.05491826915902e-03
5.77700000000000e-01 5.03804950885879e-01 3.06090990201733e-03
5.99500000000000e-01 4.95171791871499e-01 3.06472536861229e-03
6.21300000000000e-01 4.86686569939589e-01 3.06651310514080e-03
6.43100000000000e-01 4.78346750052819e-01 3.06640991463152e-03
6.64900000000000e-01 4.70149840614045e-01 3.06454220050475e-03
6.86700000000000e-01 4.62093392721921e-01 3.06102702981083e-03
7.08500000000000e-01 4.54174999439267e-01 3.05597305476583e-03
7.30300000000000e-01 4.46392295073976e-01 3.04948131561685e-03
7.52100000000000e-01 4.38742954472239e-01 3.04164594351423e-03
7.73900000000000e-01 4.31224692323888e-01 3.03255477864192e-03
7.95700000000000e-01 4.23835262479634e-01 3.02228991614227e-03
8.17500000000000e-01 4.16572457280015e-01 3.01092819020336e-03
8.39300000000000e-01 4.09434106895833e-01 2.99854160493438e-03
8.61100000000000e-01 4.02418078679901e-01 2.98519771924385e-03
8.82900000000000e-01 3.95522276529891e-01 2.97095999178647e-03
9.04700000000000e-01 3.88744640262111e-01 2.95588809110422e-03
9.26500000000000e-01 3.82083144995999e-01 2.94003817531298e-03
9.48300000000000e-01 3.75535800549176e-01 2.92346314504372e-03
9.70100000000000e-01 3.69100650842862e-01 2.90621287281441e-03
9.91900000000000e-01 3.62775773317475e-01 2.88833441156278e-03
1.01370000000000e+00 3.56559278358252e-01 2.86987218469617e-03
1.03550000000000e+00 3.50449308730708e-01 2.85086815969811e-03
1.05730000000000e+00 3.44444039025773e-01 2.83136200706479e-03
1.07910000000000e+00 3.38541675114431e-01 2.81139124611670e-03
1.10090000000000e+00 3.32740453611709e-01 2.79099137903808e-03
1.12270000000000e+00 3.27038641349850e-01 2.77019601433021e-03
1.14450000000000e+00 3.21434534860514e-01 2.74903698072148e-03
1.16630000000000e+00 3.15926459865847e-01 2.72754443245589e-03
1.18810000000000e+00 3.10512770778283e-01 2.70574694677412e-03
1.20990000000000e+00 3.05191850208903e-01 2.68367161431002e-03
1.23170000000000e+00 2.99962108484228e-01 2.66134412304482e-03
1.25350000000000e+00 2.94821983171288e-01 2.63878883639175e-03
1.27530000000000e+00 2.89769938610836e-01 2.61602886592271e-03
1.29710000000000e+00 2.84804465458546e-01 2.59308613919513e-03
1.31890000000000e+00 2.79924080234095e-01 2.56998146309003e-03
1.34070000000000e+00 2.75127324877949e-01 2.54673458303061e-03
1.36250000000000e+00 2.70412766315761e-01 2.52336423841448e-03
1.38430000000000e+00 2.65778996030223e-01 2.49988821456010e-03
1.40610000000000e+00 2.61224629640261e-01 2.47632339143913e-03
1.42790000000000e+00 2.56748306487440e-01 2.45268578944115e-03
1.44970000000000e+00 2.52348689229450e-01 2.42899061239372e-03
1.47150000000000e+00 2.48024463440567e-01 2.40525228804150e-03
1.49330000000000e+00 2.43774337218954e-01 2.38148450616945e-03
1.51510000000000e+00 2.39597040800697e-01 2.35770025453820e-03
1.53690000000000e+00 2.35491326180446e-01 2.33391185278656e-03
1.55870000000000e+00 2.31455966738567e-01 2.31013098444182e-03
1.58050000000000e+00 2.27489756874677e-01 2.28636872716682e-03
1.60230000000000e+00 2.23591511647455e-01 2.26263558136267e-03
1.62410000000000e+00 2.19760066420640e-01 2.23894149723608e-03
1.64590000000000e+00 2.15994276515075e-01 2.21529590043122e-03
1.66770000000000e+00 2.12293016866730e-01 2.19170771631849e-03
1.68950000000000e+00 2.08655181690577e-01 2.16818539302543e-03
1.71130000000000e+00 2.05079684150227e-01 2.14473692328811e-03
1.73310000000000e+00 2.01565456033227e-01 2.12136986519611e-03
1.75490000000000e+00 1.98111447431920e-01 2.09809136189798e-03
1.77670000000000e+00 1.94716626429783e-01 2.07490816032967e-03
1.79850000000000e+00 1.91379978793122e-01 2.05182662902359e-03
1.82030000000000e+00 1.88100507668068e-01 2.02885277505239e-03
1.84210000000000e+00 1.84877233282757e-01 2.00599226015693e-03
1.86390000000000e+00 1.81709192654610e-01 1.98325041610503e-03
1.88570000000000e+00 1.78595439302637e-01 1.96063225932452e-03
1.90750000000000e+00 1.75535042964667e-01 1.93814250485065e-03
1.92930000000000e+00 1.72527089319422e-01 1.91578557962557e-03
1.95110000000000e+00 1.69570679713357e-01 1.89356563518522e-03
1.97290000000000e+00 1.66664930892177e-01 1.87148655976621e-03
1.99470000000000e+00 1.63808974736958e-01 1.84955198986363e-03
2.01650000000000e+00 1.61001958004789e-01 1.82776532126880e-03
2.03830000000000e+00 1.58243042073857e-01 1.80612971961373e-03
2.06010000000000e+00 1.55531402692902e-01 1.78464813044746e-03
2.08190000000000e+00 1.52866229734963e-01 1.76332328886841e-03
2.10370000000000e+00 1.50246726955346e-01 1.74215772873513e-03
2.12550000000000e+00 1.47672111753740e-01 1.72115379147600e-03
2.14730000000000e+00 1.45141614940406e-01 1.70031363451813e-03
2.16910000000000e+00 1.42654480506374e-01 1.67963923935384e-03
2.19090000000000e+00 1.40209965397582e-01 1.65913241926227e-03
2.21270000000000e+00 1.37807339292877e-01 1.63879482670274e-03
2.23450000000000e+00 1.35445884385831e-01 1.61862796039534e-03
2.25630000000000e+00 1.33124895170284e-01 1.59863317210358e-03
2.27810000000000e+00 1.30843678229568e-01 1.57881167313302e-03
2.29990000000000e+00 1.28601552029348e-01 1.55916454055893e-03
2.32170000000000e+00 1.26397846714001e-01 1.53969272319552e-03
2.34350000000000e+00 1.24231903906496e-01 1.52039704731844e-03
2.36530000000000e+00 1.22103076511693e-01 1.50127822215175e-03
2.38710000000000e+00 1.20010728523019e-01 1.48233684512990e-03
2.40890000000000e+00 1.17954234832457e-01 1.46357340694470e-03
2.43070000000000e+00 1.15932981043789e-01 1.44498829638687e-03
2.45250000000000e+00 1.13946363289038e-01 1.42658180499100e-03
2.47430000000000e+00 1.11993788048055e-01 1.40835413149267e-03
2.49610000000000e+00 1.10074671971206e-01 1.39030538610565e-03
2.51790000000000e+00 1.08188441705085e-01 1.37243559462725e-03
2.53970000000000e+00 1.06334533721221e-01 1.35474470237869e-03
2.56150000000000e+00 1.04512394147720e-01 1.33723257798782e-03
2.58330000000000e+00 1.02721478603790e-01 1.31989901702069e-03
2.60510000000000e+00 1.00961252037101e-01 1.30274374546839e-03
2.62690000000000e+00 9.92311885639374e-02 1.28576642309503e-03
2.64870000000000e+00 9.75307713120789e-02 1.26896664665270e-03
2.67050000000000e+00 9.58594922663858e-02 1.25234395296905e-03
2.69230000000000e+00 9.42168521170226e-02 1.23589782191227e-03
2.71410000000000e+00 9.26023601102846e-02 1.21962767923883e-03
2.73590000000000e+00 9.10155339019813e-02 1.20353289932869e-03
2.75770000000000e+00 8.94558994133313e-02 1.18761280781236e-03
2.77950000000000e+00 8.79229906893272e-02 1.17186668409415e-03
2.80130000000000e+00 8.64163497595271e-02 1.15629376377595e-03
2.82310000000000e+00 8.49355265012320e-02 1.14089324098529e-03
2.84490000000000e+00 8.34800785050072e-02 1.12566427061146e-03
2.86670000000000e+00 8.20495709425087e-02 1.11060597045349e-03
2.88850000000000e+00 8.06435764365742e-02 1.09571742328332e-03
2.91030000000000e+00 7.92616749335404e-02 1.08099767882732e-03
2.93210000000000e+00 7.79034535777480e-02 1.06644575566975e-03
2.95390000000000e+00 7.65685065881973e-02 1.05206064308067e-03
2.97570000000000e+00 7.52564351373174e-02 1.03784130277160e-03
2.99750000000000e+00 7.39668472318130e-02 1.02378667058160e-03
3.01930000000000e+00 7.26993575955529e-02 1.00989565809631e-03
3.04110000000000e+00 7.14535875544648e-02 9.96167154202674e-04
3.06290000000000e+00 7.02291649234035e-02 9.82600026581690e-04
3.08470000000000e+00 6.90257238949567e-02 9.69193123141661e-04
3.10650000000000e+00 6.78429049301573e-02 9.55945273393967e-04
3.12830000000000e+00 6.66803546510673e-02 9.42855289773824e-04
3.15010000000000e+00 6.55377257352032e-02 9.29921968907872e-04
3.17190000000000e+00 6.44146768117701e-02 9.17144092830641e-04
3.19370000000000e+00 6.33108723596744e-02 9.04520430151919e-04
3.21550000000000e+00 6.22259826072833e-02 8.92049737176682e-04
3.23730000000000e+00 6.11596834339030e-02 8.79730758979449e-04
3.25910000000000e+00 6.01116562729444e-02 8.67562230434816e-04
3.28090000000000e+00 5.90815880167484e-02 8.55542877205693e-04
3.30270000000000e+00 5.80691709230426e-02 8.43671416690794e-04
3.32450000000000e+00 5.70741025229998e-02 8.31946558933010e-04
3.34630000000000e+00 5.60960855308732e-02 8.20367007490014e-04
3.36810000000000e+00 5.51348277551794e-02 8.08931460268497e-04
3.38990000000000e+00 5.41900420114034e-02 7.97638610323379e-04
3.41170000000000e+00 5.32614460361999e-02 7.86487146623392e-04
3.43350000000000e+00 5.23487624030644e-02 7.75475754784065e-04
3.45530000000000e+00 5.14517184394495e-02 7.64603117769439e-04
3.47710000000000e+00 5.05700461453013e-02 7.53867916563690e-04
3.49890000000000e+00 4.97034821129926e-02 7.43268830813666e-04
3.52070000000000e+00 4.88517674486265e-02 7.32804539443459e-04
3.54250000000000e+00 4.80146476946905e-02 7.22473721242008e-04
3.56430000000000e+00 4.71918727540341e-02 7.12275055424761e-04
3.58610000000000e+00 4.63831968151505e-02 7.02207222170244e-04
3.60790000000000e+00 4.55883782787383e-02 6.92268903132657e-04
3.62970000000000e+00 4.48071796855212e-02 6.82458781931154e-04
3.65150000000000e+00 4.40393676453047e-02 6.72775544616723e-04
3.67330000000000e+00 4.32847127672492e-02 6.63217880117613e-04
3.69510000000000e+00 4.25429895913372e-02 6.53784480663932e-04
3.71690000000000e+00 4.18139765210148e-02 6.44474042192211e-04
3.73870000000000e+00 4.10974557569878e-02 6.35285264730729e-04
3.76050000000000e+00 4.03932132321525e-02 6.26216852766310e-04
3.78230000000000e+00 3.97010385476409e-02 6.17267515593171e-04
3.80410000000000e+00 3.90207249099623e-02 6.08435967644545e-04
3.82590000000000e+00 3.83520690692216e-02 5.99720928807746e-04
3.84770000000000e+00 3.76948712583967e-02 5.91121124723219e-04
3.86950000000000e+00 3.70489351336564e-02 5.82635287068163e-04
3.89130000000000e+00 3.64140677157008e-02 5.74262153825394e-04
3.91310000000000e+00 3.57900793321069e-02 5.66000469537934e-04
3.93490000000000e+00 3.51767835606622e-02 5.57848985549726e-04
3.95670000000000e+00 3.45739971736696e-02 5.49806460233214e-04
3.97850000000000e+00 3.39815400832063e-02 5.41871659204158e-04
4.00030000000000e+00 3.33992352873207e-02 5.34043355524134e-04
4.02210000000000e+00 3.28269088171521e-02 5.26320329891275e-04
4.04390000000000e+00 3.22643896849550e-02 5.18701370819591e-04
4.06570000000000e+00 3.17115098330158e-02 5.11185274807316e-04
4.08750000000000e+00 3.11681040834434e-02 5.03770846494797e-04
4.10930000000000e+00 3.06340100888214e-02 4.96456898812214e-04
4.13110000000000e+00 3.01090682837045e-02 4.89242253117493e-04
4.15290000000000e+00 2.95931218369480e-02 4.82125739324882e-04
4.17470000000000e+00 2.90860166048518e-02 4.75106196024499e-04
4.19650000000000e+00 2.85876010851095e-02 4.68182470593184e-04
4.21830000000000e+00 2.80977263715456e-02 4.61353419296999e-04
4.24010000000000e+00 2.76162461096278e-02 4.54617907385728e-04
4.26190000000000e+00 2.71430164527430e-02 4.47974809179609e-04
4.28370000000000e+00 2.66778960192214e-02 4.41423008148690e-04
4.30550000000000e+00 2.62207458500975e-02 4.34961396985054e-04
4.32730000000000e+00 2.57714293675949e-02 4.28588877668177e-04
4.34910000000000e+00 2.53298123343223e-02 4.22304361523723e-04
4.37090000000000e+00 2.48957628131693e-02 4.16106769275996e-04
4.39270000000000e+00 2.44691511278883e-02 4.09995031094371e-04
4.41450000000000e+00 2.40498498243532e-02 4.03968086633862e-04
4.43630000000000e+00 2.36377336324809e-02 3.98024885070110e-04
4.45810000000000e+00 2.32326794288057e-02 3.92164385129013e-04
4.47990000000000e+00 2.28345661996954e-02 3.86385555111201e-04
4.50170000000000e+00 2.24432750051971e-02 3.80687372911586e-04
4.52350000000000e+00 2.20586889435028e-02 3.75068826034206e-04
4.54530000000000e+00 2.16806931160242e-02 3.69528911602496e-04
4.56710000000000e+00 2.13091745930652e-02 3.64066636365229e-04
4.58890000000000e+00 2.09440223800836e-02 3.58681016698305e-04
4.61070000000000e+00 2.05851273845303e-02 3.53371078602565e-04
4.63250000000000e+00 2.02323823832567e-02 3.48135857697782e-04
4.65430000000000e+00 1.98856819904813e-02 3.42974399212978e-04
4.67610000000000e+00 1.95449226263041e-02 3.37885757973329e-04
4.69790000000000e+00 1.92100024857619e-02 3.32868998383678e-04
4.71970000000000e+00 1.88808215084123e-02 3.27923194408857e-04
4.74150000000000e+00 1.85572813484405e-02 3.23047429551005e-04
4.76330000000000e+00 1.82392853452771e-02 3.18240796823976e-04
4.78510000000000e+00 1.79267384947202e-02 3.13502398724951e-04
4.80690000000000e+00 1.76195474205516e-02 3.08831347203438e-04
4.82870000000000e+00 1.73176203466403e-02 3.04226763627736e-04
4.85050000000000e+00 1.70208670695233e-02 2.99687778749015e-04
4.87230000000000e+00 1.67291989314563e-02 2.95213532663117e-04
4.89410000000000e+00 1.64425287939270e-02 2.90803174770184e-04
4.91590000000000e+00 1.61607710116209e-02 2.86455863732216e-04
4.93770000000000e+00 1.58838414068344e-02 2.82170767428689e-04
4.95950000000000e+00 1.56116572443262e-02 2.77947062910312e-04
4.98130000000000e+00 1.53441372065989e-02 2.73783936351017e-04
5.00310000000000e+00 1.50812013696047e-02 2.69680582998282e-04
5.02490000000000e+00 1.48227711788678e-02 2.65636207121887e-04
5.04670000000000e+00 1.45687694260150e-02 2.61650021961178e-04
5.06850000000000e+00 1.43191202257096e-02 2.57721249670915e-04
5.09030000000000e+00 1.40737489929792e-02 2.53849121265816e-04
5.11210000000000e+00 1.38325824209334e-02 2.50032876563819e-04
5.13390000000000e+00 1.35955484588626e-02 2.46271764128214e-04
5.15570000000000e+00 1.33625762907117e-02 2.42565041208643e-04
5.17750000000000e+00 1.31335963139238e-02 2.38911973681081e-04
5.19930000000000e+00 1.29085401186455e-02 2.35311835986847e-04
5.22110000000000e+00 1.26873404672889e-02 2.31763911070728e-04
5.24290000000000e+00 1.24699312744434e-02 2.28267490318246e-04
5.26470000000000e+00 1.22562475871328e-02 2.24821873492172e-04
5.28650000000000e+00 1.20462255654094e-02 2.21426368668315e-04
5.30830000000000e+00 1.18398024632816e-02 2.18080292170623e-04
5.33010000000000e+00 1.16369166099675e-02 2.14782968505704e-04
5.35190000000000e+00 1.14375073914709e-02 2.11533730296777e-04
5.37370000000000e+00 1.12415152324715e-02 2.08331918217112e-04
5.39550000000000e+00 1.10488815785270e-02 2.05176880923006e-04
5.41730000000000e+00 1.08595488785789e-02 2.02067974986351e-04
5.43910000000000e+00 1.06734605677588e-02 1.99004564826824e-04
5.46090000000000e+00 1.04905610504890e-02 1.95986022643746e-04
5.48270000000000e+00 1.03107956838732e-02 1.93011728347657e-04
5.50450000000000e+00 1.01341107613707e-02 1.90081069491643e-04
5.52630000000000e+00 9.96045349675195e-03 1.87193441202448e-04
5.54810000000000e+00 9.78977200832758e-03 1.84348246111405e-04
5.56990000000000e+00 9.62201530344849e-03 1.81544894285231e-04
5.59170000000000e+00 9.45713326327129e-03 1.78782803156719e-04
5.61350000000000e+00 9.29507662778486e-03 1.76061397455337e-04
5.63530000000000e+00 9.13579698109345e-03 1.73380109137793e-04
5.65710000000000e+00 8.97924673695202e-03 1.70738377318592e-04
5.67890000000000e+00 8.82537912454940e-03 1.68135648200590e-04
5.70070000000000e+00 8.67414817453507e-03 1.65571375005588e-04
5.72250000000000e+00 8.52550870528541e-03 1.63045017904992e-04
5.74430000000000e+00 8.37941630940529e-03 1.60556043950575e-04
5.76610000000000e+00 8.23582734046095e-03 1.58103927005330e-04
5.78790000000000e+00 8.09469889994021e-03 1.55688147674476e-04
5.80970000000000e+00 7.95598882443618e-03 1.53308193236608e-04
5.83150000000000e+00 7.81965567305053e-03 1.50963557575038e-04
5.85330000000000e+00 7.68565871501267e-03 1.48653741109324e-04
5.87510000000000e+00 7.55395791751105e-03 1.46378250727013e-04
5.89690000000000e+00 7.42451393373298e-03 1.44136599715629e-04
5.91870000000000e+00 7.29728809110942e-03 1.41928307694905e-04
5.94050000000000e+00 7.17224237976123e-03 1.39752900549281e-04
5.96230000000000e+00 7.04933944114330e-03 1.37609910360690e-04
5.98410000000000e+00 6.92854255688342e-03 1.35498875341636e-04
6.00590000000000e+00 6.80981563781231e-03 1.33419339768598e-04
6.02770000000000e+00 6.69312321318160e-03 1.31370853915746e-04
6.04950000000000e+00 6.57843042006670e-03 1.29352973988995e-04
6.07130000000000e+00 6.46570299295112e-03 1.27365262060415e-04
6.09310000000000e+00 6.35490725348939e-03 1.25407286002998e-04
6.11490000000000e+00 6.24601010044530e-03 1.23478619425812e-04
6.13670000000000e+00 6.13897899980261e-03 1.21578841609513e-04
6.15850000000000e+00 6.03378197504526e-03 1.19707537442268e-04
6.18030000000000e+00 5.93038759760405e-03 1.17864297356073e-04
6.20210000000000e+00 5.82876497746706e-03 1.16048717263476e-04
6.22390000000000e+00 5.72888375395105e-03 1.14260398494729e-04
6.24570000000000e+00 5.63071408663084e-03 1.12498947735360e-04
6.26750000000000e+00 5.53422664642426e-03 1.10763976964178e-04
6.28930000000000e+00 5.43939260682983e-03 1.09055103391713e-04
6.31110000000000e+00 5.34618363531452e-03 1.07371949399100e-04
6.33290000000000e+00 5.25457188484924e-03 1.05714142477429e-04
6.35470000000000e+00 5.16452998558919e-03 1.04081315167540e-04
6.37650000000000e+00 5.07603103669694e-03 1.02473105000268e-04
6.39830000000000e+00 4.98904859830552e-03 1.00889154437177e-04
6.42010000000000e+00 4.90355668361931e-03 9.93291108117604e-05
6.44190000000000e+00 4.81952975115018e-03 9.77926262710919e-05
6.46370000000000e+00 4.73694269708682e-03 9.62793577179776e-05
6.48550000000000e+00 4.65577084779468e-03 9.47889667535870e-05
6.50730000000000e+00 4.57598995244453e-03 9.33211196205523e-05
6.52910000000000e+00 4.49757617576731e-03 9.18754871465694e-05
6.55090000000000e+00 4.42050609093309e-03 9.04517446884804e-05
6.57270000000000e+00 4.34475667255215e-03 8.90495720768428e-05
6.59450000000000e+00 4.27030528979586e-03 8.76686535609983e-05
6.61630000000000e+00 4.19712969963558e-03 8.63086777546305e-05
6.63810000000000e+00 4.12520804019734e-03 8.49693375818187e-05
6.65990000000000e+00 4.05451882423035e-03 8.36503302235875e-05
6.68170000000000e+00 3.98504093268758e-03 8.23513570649467e-05
6.70350000000000e+00 3.91675360841615e-03 8.10721236424353e-05
6.72530000000000e+00 3.84963644995606e-03 7.98123395921646e-05
6.74710000000000e+00 3.78366940544494e-03 7.85717185983495e-05
6.76890000000000e+00 3.71883276662748e-03 7.73499783423411e-05
6.79070000000000e+00 3.65510716296734e-03 7.61468404521586e-05
6.81250000000000e+00 3.59247355586008e-03 7.49620304525123e-05
6.83430000000000e+00 3.53091323294514e-03 7.37952777153234e-05
6.85610000000000e+00 3.47040780251540e-03 7.26463154107442e-05
6.87790000000000e+00 3.41093918802250e-03 7.15148804586681e-05
