Energy (eV)          EEDF (eV^-(3/2))     First Anisotropy
8.89285714285714e-02 5.75369034504880e-02 5.71487420261986e-05
2.66785714285714e-01 5.61352270108402e-02 9.35337829746953e-05
4.44642857142857e-01 5.47676972965830e-02 1.21282627890182e-04
6.22500000000000e-01 5.34334824478271e-02 1.41075064934530e-04
8.00357142857143e-01 5.21317708712966e-02 1.56548264895921e-04
9.78214285714286e-01 5.08617707411400e-02 1.69115928785886e-04
1.15607142857143e+00 4.96227095200381e-02 1.79528783550245e-04
1.33392857142857e+00 4.84138335023386e-02 1.88251410874644e-04
1.51178571428571e+00 4.72344073342373e-02 1.95599189926228e-04
1.68964285714286e+00 4.60837135701686e-02 2.01800001244105e-04
1.86750000000000e+00 4.49610522578787e-02 2.07026086259624e-04
2.04535714285714e+00 4.38657404884451e-02 2.11412135237053e-04
2.22321428571429e+00 4.27971119897333e-02 2.15066305598012e-04
2.40107142857143e+00 4.17545167167547e-02 2.18077311828041e-04
2.57892857142857e+00 4.07373204697598e-02 2.20519192147797e-04
2.75678571428571e+00 3.97449044939277e-02 2.22454630149044e-04
2.93464285714286e+00 3.87766651049884e-02 2.23937338017117e-04
3.11250000000000e+00 3.78320133322824e-02 2.25013813627370e-04
3.29035714285714e+00 3.69103745495209e-02 2.25724663430519e-04
3.46821428571429e+00 3.60111881291261e-02 2.26105616987508e-04
3.64607142857143e+00 3.51339070988283e-02 2.26188318983462e-04
3.82392857142857e+00 3.42779978163517e-02 2.26000957223123e-04
4.00178571428571e+00 3.34429396370036e-02 2.25568767017742e-04
4.17964285714286e+00 3.26282245978076e-02 2.24914439747926e-04
4.35750000000000e+00 3.18333571145262e-02 2.24058459644174e-04
4.53535714285714e+00 3.10578536738839e-02 2.23019383020411e-04
4.71321428571429e+00 3.03012425416541e-02 2.21814071392735e-04
4.89107142857143e+00 2.95630634742180e-02 2.20457888265673e-04
5.06892857142857e+00 2.88428674432201e-02 2.18964866801485e-04
5.24678571428571e+00 2.81402163576085e-02 2.17347853462356e-04
5.42464285714286e+00 2.74546827975875e-02 2.15618630802323e-04
5.60250000000000e+00 2.67858497584967e-02 2.13788024768995e-04
5.78035714285714e+00 2.61333103931112e-02 2.11865998101811e-04
5.95821428571429e+00 2.54966677655587e-02 2.09861731694214e-04
6.13607142857143e+00 2.48755346088690e-02 2.07783696245384e-04
6.31392857142857e+00 2.42695330924875e-02 2.05639715871852e-04
6.49178571428571e+00 2.36782945892416e-02 2.03437024640536e-04
6.66964285714286e+00 2.31014594513676e-02 2.01182316204684e-04
6.84750000000000e+00 2.25386767943816e-02 1.98881788864857e-04
7.02535714285714e+00 2.19896042808992e-02 1.96541185915355e-04
7.20321428571429e+00 2.14539079133386e-02 1.94165831622553e-04
7.38107142857143e+00 2.09312618300555e-02 1.91760663744362e-04
7.55892857142857e+00 2.04213481092758e-02 1.89330263186972e-04
7.73678571428571e+00 1.99238565734802e-02 1.86878880980162e-04
7.91464285714286e+00 1.94384846008910e-02 1.84410462256185e-04
8.09250000000000e+00 1.89649369432578e-02 1.81928668646434e-04
8.27035714285714e+00 1.85029255443288e-02 1.79436898688317e-04
8.44821428571429e+00 1.80521693652922e-02 1.76938306257207e-04
8.62607142857143e+00 1.76123942133201e-02 1.74435817513738e-04
8.80392857142857e+00 1.71833325763262e-02 1.71932146657577e-04
8.98178571428571e+00 1.67647234586438e-02 1.69429810482036e-04
9.15964285714286e+00 1.63563122223752e-02 1.66931141359269e-04
9.33750000000000e+00 1.59578504338529e-02 1.64438299653089e-04
9.51535714285714e+00 1.55690957111209e-02 1.61953285154798e-04
9.69321428571429e+00 1.51898115769751e-02 1.59477947477502e-04
9.87107142857143e+00 1.48197673147466e-02 1.57013995725855e-04
1.00489285714286e+01 1.44587378290946e-02 1.54563007473551e-04
1.02267857142857e+01 1.41065035092628e-02 1.52126437891992e-04
1.04046428571429e+01 1.37628500898017e-02 1.49705626373776e-04
1.05825000000000e+01 1.34275685317079e-02 1.47301804589543e-04
1.07603571428571e+01 1.31004548820440e-02 1.44916103186343e-04
1.09382142857143e+01 1.27813101626050e-02 1.42549557970145e-04
1.11160714285714e+01 1.24699402366252e-02 1.40203115970546e-04
1.12939285714286e+01 1.21661557024875e-02 1.37877640540485e-04
1.14717857142857e+01 1.18697717697134e-02 1.35573917828653e-04
1.16496428571429e+01 1.15806081471621e-02 1.33292659769100e-04
1.18275000000000e+01 1.12984889408206e-02 1.31034509801521e-04
1.20053571428571e+01 1.10232425368757e-02 1.28800046919986e-04
1.21832142857143e+01 1.07547015068982e-02 1.26589789544054e-04
1.23610714285714e+01 1.04927024967650e-02 1.24404199381644e-04
1.25389285714286e+01 1.02370861361939e-02 1.22243684604159e-04
1.27167857142857e+01 9.98769693516173e-03 1.20108604187708e-04
1.28946428571429e+01 9.74438318975887e-03 1.17999269540664e-04
1.30725000000000e+01 9.50699689557929e-03 1.15915948369864e-04
1.32503571428571e+01 9.27539365014242e-03 1.13858867265862e-04
1.34282142857143e+01 9.04943257233907e-03 1.11828214196126e-04
1.36060714285714e+01 8.82897620970241e-03 1.09824141035181e-04
1.37839285714286e+01 8.61389046158475e-03 1.07846765586082e-04
1.39617857142857e+01 8.40404449252239e-03 1.05896174574013e-04
1.41396428571429e+01 8.19931065297165e-03 1.03972424498076e-04
1.43175000000000e+01 7.99956440601131e-03 1.02075544310520e-04
1.44953571428571e+01 7.80468424579730e-03 1.00205537097033e-04
1.46732142857143e+01 7.61455162924536e-03 9.83623817103950e-05
1.48510714285714e+01 7.42905089851742e-03 9.65460344575772e-05
1.50289285714286e+01 7.24806921588973e-03 9.47564304011374e-05
1.52067857142857e+01 7.07149649121945e-03 9.29934854640905e-05
1.53846428571429e+01 6.89922531521783e-03 9.12570968292833e-05
1.55625000000000e+01 6.73115089747829e-03 8.95471448288308e-05
1.57403571428571e+01 6.56717099825627e-03 8.78634940452645e-05
1.59182142857143e+01 6.40718587060579e-03 8.62059943908766e-05
1.60960714285714e+01 6.25109819551886e-03 8.45744822439485e-05
1.62739285714286e+01 6.09881302677386e-03 8.29687812873888e-05
1.64517857142857e+01 5.95023773016163e-03 8.13887040088423e-05
1.66296428571429e+01 5.80528192731780e-03 7.98340518339615e-05
1.68075000000000e+01 5.66385744336516e-03 7.83046164749929e-05
1.69853571428571e+01 5.52587824979310e-03 7.68001806519821e-05
1.71632142857143e+01 5.39126041549806e-03 7.53205188059934e-05
1.73410714285714e+01 5.25992205246707e-03 7.38653978667463e-05
1.75189285714286e+01 5.13178326912183e-03 7.24345777877418e-05
1.76967857142857e+01 5.00676611936677e-03 7.10278126250876e-05
1.78746428571429e+01 4.88479455531289e-03 6.96448505155032e-05
1.80525000000000e+01 4.76579438306832e-03 6.82854346464309e-05
1.82303571428571e+01 4.64969321487948e-03 6.69493037236971e-05
1.84082142857143e+01 4.53642042773812e-03 6.56361924388288e-05
1.85860714285714e+01 4.42590711786586e-03 6.43458319858413e-05
1.87639285714286e+01 4.31808606127504e-03 6.30779503946940e-05
1.89417857142857e+01 4.21289167103061e-03 6.18322733114421e-05
1.91196428571429e+01 4.11025995745994e-03 6.06085238883495e-05
1.92975000000000e+01 4.01012849084082e-03 5.94064234848659e-05
1.94753571428571e+01 3.91243636128084e-03 5.82256919642405e-05
1.96532142857143e+01 3.81712414374385e-03 5.70660479938942e-05
1.98310714285714e+01 3.72413385988976e-03 5.59272093895509e-05
2.00089285714286e+01 3.63340894475584e-03 5.48088933137766e-05
2.01867857142857e+01 3.54489421089442e-03 5.37108168415876e-05
2.03646428571429e+01 3.45853581488441e-03 5.26326968041813e-05
2.05425000000000e+01 3.37428122585263e-03 5.15742502962246e-05
2.07203571428571e+01 3.29207919182517e-03 5.05351948564597e-05
2.08982142857143e+01 3.21187971019301e-03 4.95152486541272e-05
2.10760714285714e+01 3.13363399570473e-03 4.85141307134464e-05
2.12539285714286e+01 3.05729445233250e-03 4.75315610218464e-05
2.14317857142857e+01 2.98281464316939e-03 4.65672609399862e-05
2.16096428571429e+01 2.91014926224571e-03 4.56209530247362e-05
2.17875000000000e+01 2.83925410797969e-03 4.46923613958766e-05
2.19653571428571e+01 2.77008605494658e-03 4.37812118380303e-05
2.21432142857143e+01 2.70260302894793e-03 4.28872319092714e-05
2.23210714285714e+01 2.63676398015571e-03 4.20101510824882e-05
2.24989285714286e+01 2.57252885936581e-03 4.11497007935100e-05
2.26767857142857e+01 2.50985859272315e-03 4.03056147375315e-05
2.28546428571429e+01 2.44871505800307e-03 3.94776286870857e-05
2.30325000000000e+01 2.38906106222529e-03 3.86654807560748e-05
2.32103571428571e+01 2.33086031796103e-03 3.78689114486616e-05
2.33882142857143e+01 2.27407742229589e-03 3.70876637149997e-05
2.35660714285714e+01 2.21867783428949e-03 3.63214830349523e-05
2.37439285714286e+01 2.16462785493902e-03 3.55701174267663e-05
2.39217857142857e+01 2.11189460595317e-03 3.48333176601923e-05
2.40996428571429e+01 2.06044600979143e-03 3.41108370789039e-05
2.42775000000000e+01 2.01025077079276e-03 3.34024317892861e-05
2.44553571428571e+01 1.96127835528589e-03 3.27078606740154e-05
2.46332142857143e+01 1.91349897384304e-03 3.20268854122482e-05
2.48110714285714e+01 1.86688356235680e-03 3.13592705236178e-05
2.49889285714286e+01 1.82140376513900e-03 3.07047833516448e-05
2.51667857142857e+01 1.77703191709130e-03 3.00631942156231e-05
2.53446428571429e+01 1.73374102690740e-03 2.94342762429249e-05
2.55225000000000e+01 1.69150476116748e-03 2.88178055025509e-05
2.57003571428571e+01 1.65029742763746e-03 2.82135609957235e-05
2.58782142857143e+01 1.61009396030254e-03 2.76213246526474e-05
2.60560714285714e+01 1.57086990347744e-03 2.70408813494497e-05
2.62339285714286e+01 1.53260139755332e-03 2.64720188760903e-05
2.64117857142857e+01 1.49526516401912e-03 2.59145280432143e-05
2.65896428571429e+01 1.45883849132570e-03 2.53682025272110e-05
2.67675000000000e+01 1.42329922148197e-03 2.48328389632241e-05
2.69453571428571e+01 1.38862573602921e-03 2.43082369213257e-05
2.71232142857143e+01 1.35479694342170e-03 2.37941988883148e-05
2.73010714285714e+01 1.32179226568148e-03 2.32905302665846e-05
2.74789285714286e+01 1.28959162638111e-03 2.27970393332259e-05
2.76567857142857e+01 1.25817543805802e-03 2.23135373138058e-05
2.78346428571429e+01 1.22752459031892e-03 2.18398382414061e-05
2.80125000000000e+01 1.19762043854572e-03 2.13757590199474e-05
2.81903571428571e+01 1.16844479211442e-03 2.09211193918796e-05
2.83682142857143e+01 1.13997990375675e-03 2.04757419109278e-05
2.85460714285714e+01 1.11220845835016e-03 2.00394519292515e-05
2.87239285714286e+01 1.08511356278751e-03 1.96120775522909e-05
2.89017857142857e+01 1.05867873540083e-03 1.91934496883351e-05
2.90796428571429e+01 1.03288789595099e-03 1.87834019217389e-05
2.92575000000000e+01 1.00772535611257e-03 1.83817705545946e-05
2.94353571428571e+01 9.83175809576579e-04 1.79883945700288e-05
2.96132142857143e+01 9.59224323083580e-04 1.76031155999889e-05
2.97910714285714e+01 9.35856327005995e-04 1.72257779051854e-05
2.99689285714286e+01 9.13057606809703e-04 1.68562283287369e-05
3.01467857142857e+01 8.90814294165484e-04 1.64943163281094e-05
3.03246428571429e+01 8.69112858525253e-04 1.61398938620769e-05
3.05025000000000e+01 8.47940099106437e-04 1.57928154167059e-05
3.06803571428571e+01 8.27283136576258e-04 1.54529379670331e-05
3.08582142857143e+01 8.07129405494830e-04 1.51201209426981e-05
3.10360714285714e+01 7.87466646402163e-04 1.47942262038214e-05
3.12139285714286e+01 7.68282898622552e-04 1.44751179954474e-05
3.13917857142857e+01 7.49566492793652e-04 1.41626629667493e-05
3.15696428571429e+01 7.31306043777876e-04 1.38567300709306e-05
3.17475000000000e+01 7.13490443910596e-04 1.35571905799496e-05
3.19253571428571e+01 6.96108856012466e-04 1.32639180464256e-05
3.21032142857143e+01 6.79150707021562e-04 1.29767882690091e-05
3.22810714285714e+01 6.62605681343947e-04 1.26956792663759e-05
3.24589285714286e+01 6.46463714790423e-04 1.24204712337331e-05
3.26367857142857e+01 6.30714988296592e-04 1.21510465529263e-05
3.28146428571429e+01 6.15349921957843e-04 1.18872897042840e-05
3.29925000000000e+01 6.00359169342570e-04 1.16290872733670e-05
3.31703571428571e+01 5.85733611619846e-04 1.13763279142937e-05
3.33482142857143e+01 5.71464352194113e-04 1.11289023160823e-05
3.35260714285714e+01 5.57542711116991e-04 1.08867031762526e-05
3.37039285714286e+01 5.43960219978736e-04 1.06496251601417e-05
3.38817857142857e+01 5.30708616629038e-04 1.04175649046102e-05
3.40596428571429e+01 5.17779840157521e-04 1.01904209407523e-05
3.42375000000000e+01 5.05166026104338e-04 9.96809369509797e-06
3.44153571428571e+01 4.92859501524712e-04 9.75048545508571e-06
3.45932142857143e+01 4.80852780468786e-04 9.53750033715153e-06
3.47710714285714e+01 4.69138559284884e-04 9.32904426092717e-06
3.49489285714286e+01 4.57709712315771e-04 9.12502491175587e-06
3.51267857142857e+01 4.46559287460408e-04 8.92535173999362e-06
3.53046428571429e+01 4.35680501950118e-04 8.72993589349491e-06
3.54825000000000e+01 4.25066738315206e-04 8.53869021505945e-06
3.56603571428571e+01 4.14711540236573e-04 8.35152921045434e-06
3.58382142857143e+01 4.04608608737920e-04 8.16836901870027e-06
3.60160714285714e+01 3.94751798237948e-04 7.98912738749740e-06
3.61939285714286e+01 3.85135112924934e-04 7.81372363908899e-06
3.63717857142857e+01 3.75752703025262e-04 7.64207866662436e-06
3.65496428571429e+01 3.66598861249147e-04 7.47411487536756e-06
3.67275000000000e+01 3.57668019394131e-04 7.30975617769882e-06
3.69053571428571e+01 3.48954744857998e-04 7.14892796386766e-06
3.70832142857143e+01 3.40453737431329e-04 6.99155707469917e-06
3.72610714285714e+01 3.32159825978969e-04 6.83757177862321e-06
3.74389285714286e+01 3.24067965386254e-04 6.68690174087131e-06
3.76167857142857e+01 3.16173233421590e-04 6.53947801797340e-06
3.77946428571429e+01 3.08470827745609e-04 6.39523300669765e-06
3.79725000000000e+01 3.00956063051131e-04 6.25410043755930e-06
3.81503571428571e+01 2.93624368131764e-04 6.11601534833341e-06
3.83282142857143e+01 2.86471283180345e-04 5.98091405924884e-06
3.85060714285714e+01 2.79492456999202e-04 5.84873415181786e-06
3.86839285714286e+01 2.72683644428063e-04 5.71941444124600e-06
3.88617857142857e+01 2.66040703705987e-04 5.59289496983919e-06
3.90396428571429e+01 2.59559593954644e-04 5.46911696275751e-06
3.92175000000000e+01 2.53236372770119e-04 5.34802282071651e-06
3.93953571428571e+01 2.47067193758502e-04 5.22955609618842e-06
3.95732142857143e+01 2.41048304260576e-04 5.11366147104734e-06
3.97510714285714e+01 2.35176043006465e-04 5.00028473727230e-06
3.99289285714286e+01 2.29446837949393e-04 4.88937277238462e-06
4.01067857142857e+01 2.23857204047390e-04 4.78087353231988e-06
4.02846428571429e+01 2.18403741145537e-04 4.67473601316210e-06
4.04625000000000e+01 2.13083131948318e-04 4.57091024352137e-06
4.06403571428571e+01 2.07892139947696e-04 4.46934726328859e-06
4.08182142857143e+01 2.02827607506902e-04 4.36999910362902e-06
4.09960714285714e+01 1.97886453888577e-04 4.27281876954759e-06
4.11739285714286e+01 1.93065673430454e-04 4.17776021813192e-06
4.13517857142857e+01 1.88362333679954e-04 4.08477835127826e-06
4.15296428571429e+01 1.83773573612166e-04 3.99382898265483e-06
4.17075000000000e+01 1.79296601922677e-04 3.90486883009151e-06
4.18853571428571e+01 1.74928695285536e-04 3.81785549671629e-06
4.20632142857143e+01 1.70667196739552e-04 3.73274745315297e-06
4.22410714285714e+01 1.66509514030386e-04 3.64950402188154e-06
4.24189285714286e+01 1.62453118074242e-04 3.56808535804922e-06
4.25967857142857e+01 1.58495541389180e-04 3.48845244231711e-06
4.27746428571429e+01 1.54634376595599e-04 3.41056705238105e-06
4.29525000000000e+01 1.50867274978940e-04 3.33439175559953e-06
4.31303571428571e+01 1.47191945024950e-04 3.25988989232075e-06
4.33082142857143e+01 1.43606151060807e-04 3.18702556011787e-06
4.34860714285714e+01 1.40107711861097e-04 3.11576359984336e-06
4.36639285714286e+01 1.36694499354127e-04 3.04606957876672e-06
4.38417857142857e+01 1.33364437302699e-04 2.97790978371821e-06
4.40196428571429e+01 1.30115500042314e-04 2.91125119657144e-06
4.41975000000000e+01 1.26945711271136e-04 2.84606148725467e-06
4.43753571428571e+01 1.23853142818356e-04 2.78230899907129e-06
4.45532142857143e+01 1.20835913499952e-04 2.71996273479675e-06
4.47310714285714e+01 1.17892187946508e-04 2.65899234430538e-06
4.49089285714286e+01 1.15020175513873e-04 2.59936810979978e-06
4.50867857142857e+01 1.12218129173696e-04 2.54106093936179e-06
4.52646428571429e+01 1.09484344451670e-04 2.48404234587100e-06
4.54425000000000e+01 1.06817158408839e-04 2.42828444048568e-06
4.56203571428571e+01 1.04214948605946e-04 2.37375991976171e-06
4.57982142857143e+01 1.01676132139950e-04 2.32044205343470e-06
4.59760714285714e+01 9.91991646583569e-05 2.26830467348893e-06
4.61539285714286e+01 9.67825394419765e-05 2.21732216125444e-06
4.63317857142857e+01 9.44247864718424e-05 2.16746944142747e-06
4.65096428571429e+01 9.21244715357802e-05 2.11872196396287e-06
4.66875000000000e+01 8.98801953708362e-05 2.07105569806908e-06
4.68653571428571e+01 8.76905927923732e-05 2.02444712093815e-06
4.70432142857143e+01 8.55543318828388e-05 1.97887320704166e-06
4.72210714285714e+01 8.34701131628901e-05 1.93431141850915e-06
4.73989285714286e+01 8.14366688190967e-05 1.89073969388411e-06
4.75767857142857e+01 7.94527619191777e-05 1.84813644264190e-06
4.77546428571429e+01 7.75171856602140e-05 1.80648052965166e-06
4.79325000000000e+01 7.56287626467272e-05 1.76575126969977e-06
4.81103571428571e+01 7.37863441583004e-05 1.72592841765483e-06
4.82882142857143e+01 7.19888094665547e-05 1.68699215911506e-06
4.84660714285714e+01 7.02350651381085e-05 1.64892310196614e-06
4.86439285714286e+01 6.85240443843408e-05 1.61170226660400e-06
4.88217857142857e+01 6.68547064013554e-05 1.57531108095437e-06
4.89996428571429e+01 6.52260357373815e-05 1.53973136715106e-06
4.91775000000000e+01 6.36370416850597e-05 1.50494533658226e-06
4.93553571428571e+01 6.20867576655356e-05 1.47093558132693e-06
4.95332142857143e+01 6.05742406534014e-05 1.43768506600239e-06
4.97110714285714e+01 5.90985705905029e-05 1.40517712037800e-06
4.98889285714286e+01 5.76588498384894e-05 1.37339543088950e-06
5.00667857142857e+01 5.62542026236689e-05 1.34232403614772e-06
5.02446428571429e+01 5.48837745047010e-05 1.31194731552654e-06
5.04225000000000e+01 5.35467318610348e-05 1.28224998471205e-06
5.06003571428571e+01 5.22422613749372e-05 1.25321708826114e-06
5.07782142857143e+01 5.09695695473470e-05 1.22483399251025e-06
5.09560714285714e+01 4.97278822048900e-05 1.19708637912863e-06
5.11339285714286e+01 4.85164440389800e-05 1.16996023776621e-06
5.13117857142857e+01 4.73345181388861e-05 1.14344186202883e-06
5.14896428571429e+01 4.61813855438186e-05 1.11751783970903e-06
5.16675000000000e+01 4.50563448123140e-05 1.09217504880985e-06
5.18453571428571e+01 4.39587115866142e-05 1.06740065109016e-06
5.20232142857143e+01 4.28878181850721e-05 1.04318208590800e-06
5.22010714285714e+01 4.18430131875438e-05 1.01950706460632e-06
5.23789285714286e+01 4.08236610473659e-05 9.96363564152696e-07
5.25567857142857e+01 3.98291416986125e-05 9.73739823551640e-07
5.27346428571429e+01 3.88588501791938e-05 9.51624335487329e-07
5.29125000000000e+01 3.79121962683859e-05 9.30005842788609e-07
5.30903571428571e+01 3.69886041204599e-05 9.08873332839201e-07
5.32682142857143e+01 3.60875119215438e-05 8.88216032241546e-07
5.34460714285714e+01 3.52083715409217e-05 8.68023401937099e-07
5.36239285714286e+01 3.43506482043743e-05 8.48285131711793e-07
5.38017857142857e+01 3.35138201638301e-05 8.28991137012243e-07
5.39796428571429e+01 3.26973783802197e-05 8.10131551800927e-07
5.41575000000000e+01 3.19008262183713e-05 7.91696725426383e-07
5.43353571428571e+01 3.11236791388747e-05 7.73677217789562e-07
5.45132142857143e+01 3.03654644092125e-05 7.56063794725916e-07
5.46910714285714e+01 2.96257208104841e-05 7.38847423771502e-07
5.48689285714286e+01 2.89039983624107e-05 7.22019269422377e-07
5.50467857142857e+01 2.81998580454645e-05 7.05570690320315e-07
5.52246428571429e+01 2.75128715340041e-05 6.89493233147949e-07
5.54025000000000e+01 2.68426209394616e-05 6.73778629867839e-07
5.55803571428571e+01 2.61886985511794e-05 6.58418793548151e-07
5.57582142857143e+01 2.55507065932331e-05 6.43405814371843e-07
5.59360714285714e+01 2.49282569777656e-05 6.28731955969040e-07
5.61139285714286e+01 2.43209710734906e-05 6.14389651331542e-07
