Energy (eV)          EEDF (eV^-(3/2))     First Anisotropy
1.32786885245902e-02 1.11091891952401e-01 5.33723370755749e-05
3.98360655737705e-02 1.10463422505407e-01 8.81800497849227e-05
6.63934426229508e-02 1.09838508437150e-01 1.16532636473472e-04
9.29508196721311e-02 1.09217129635281e-01 1.38148561234677e-04
1.19508196721311e-01 1.08599266100435e-01 1.56239737121553e-04
1.46065573770492e-01 1.07984897945401e-01 1.72018394298564e-04
1.72622950819672e-01 1.07374005396099e-01 1.86110808670984e-04
1.99180327868852e-01 1.06766568790315e-01 1.98894549503943e-04
2.25737704918033e-01 1.06162568577071e-01 2.10619621166671e-04
2.52295081967213e-01 1.05561985315993e-01 2.21462436369345e-04
2.78852459016393e-01 1.04964799676684e-01 2.31553374923712e-04
3.05409836065574e-01 1.04370992436092e-01 2.40992257542941e-04
3.31967213114754e-01 1.03780544484131e-01 2.49857669986134e-04
3.58524590163934e-01 1.03193436816590e-01 2.58212896447046e-04
3.85081967213115e-01 1.02609650536776e-01 2.66109862679591e-04
4.11639344262295e-01 1.02029166854901e-01 2.73591853106923e-04
4.38196721311475e-01 1.01451967087482e-01 2.80695439267571e-04
4.64754098360656e-01 1.00878032656734e-01 2.87451883770175e-04
4.91311475409836e-01 1.00307345089971e-01 2.93888184941688e-04
5.17868852459016e-01 9.97398860190142e-02 3.00027869010967e-04
5.44426229508197e-01 9.91756371795983e-02 3.05891600935124e-04
5.70983606557377e-01 9.86145804107814e-02 3.11497662387499e-04
5.97540983606557e-01 9.80566976543641e-02 3.16862330753060e-04
6.24098360655738e-01 9.75019709543080e-02 3.22000183206394e-04
6.50655737704918e-01 9.69503824561561e-02 3.26924343297941e-04
6.77213114754098e-01 9.64019144064583e-02 3.31646682865695e-04
7.03770491803279e-01 9.58565491521996e-02 3.36177988833385e-04
7.30327868852459e-01 9.53142691402320e-02 3.40528102120655e-04
7.56885245901639e-01 9.47750569167096e-02 3.44706034192052e-04
7.83442622950820e-01 9.42388951265264e-02 3.48720065517444e-04
8.10000000000000e-01 9.37057665127585e-02 3.52577829386680e-04
8.36557377049180e-01 9.31756539154693e-02 3.56286383178770e-04
8.63114754098361e-01 9.26485402731014e-02 3.59852270138178e-04
8.89672131147541e-01 9.21244086199532e-02 3.63281572797349e-04
9.16229508196721e-01 9.16032420863020e-02 3.66579958860362e-04
9.42786885245902e-01 9.10850238978606e-02 3.69752721625913e-04
9.69344262295082e-01 9.05697373752378e-02 3.72804815304527e-04
9.95901639344262e-01 9.00573659334012e-02 3.75740886269132e-04
1.02245901639344e+00 8.95478930801220e-02 3.78565299289414e-04
1.04901639344262e+00 8.90413024219168e-02 3.81282164360887e-04
1.07557377049180e+00 8.85375776487599e-02 3.83895356884031e-04
1.10213114754098e+00 8.80367025478236e-02 3.86408535087026e-04
1.12868852459016e+00 8.75386609979804e-02 3.88825159057248e-04
1.15524590163934e+00 8.70434369736620e-02 3.91148507822295e-04
1.18180327868852e+00 8.65510145312135e-02 3.93381691569742e-04
1.20836065573770e+00 8.60613778215461e-02 3.95527661649139e-04
1.23491803278689e+00 8.55745110892304e-02 3.97589226889727e-04
1.26147540983607e+00 8.50903986599705e-02 3.99569061419487e-04
1.28803278688525e+00 8.46090249521542e-02 4.01469712357163e-04
1.31459016393443e+00 8.41303744723202e-02 4.03293609985457e-04
1.34114754098361e+00 8.36544318182517e-02 4.05043076952934e-04
1.36770491803279e+00 8.31811816676314e-02 4.06720333840612e-04
1.39426229508197e+00 8.27106087884460e-02 4.08327503382148e-04
1.42081967213115e+00 8.22426980381861e-02 4.09866620867301e-04
1.44737704918033e+00 8.17774343533293e-02 4.11339637406052e-04
1.47393442622951e+00 8.13148027589132e-02 4.12748422805014e-04
1.50049180327869e+00 8.08547883677751e-02 4.14094774444273e-04
1.52704918032787e+00 8.03973763707878e-02 4.15380419462220e-04
1.55360655737705e+00 7.99425520457097e-02 4.16607017322875e-04
1.58016393442623e+00 7.94903007535801e-02 4.17776164914033e-04
1.60672131147541e+00 7.90406079410793e-02 4.18889401202375e-04
1.63327868852459e+00 7.85934591315477e-02 4.19948209096559e-04
1.65983606557377e+00 7.81488399330585e-02 4.20954016435922e-04
1.68639344262295e+00 7.77067360377480e-02 4.21908202568907e-04
1.71295081967213e+00 7.72671332134027e-02 4.22812099004912e-04
1.73950819672131e+00 7.68300173109762e-02 4.23666990525746e-04
1.76606557377049e+00 7.63953742614696e-02 4.24474118710195e-04
1.79262295081967e+00 7.59631900779042e-02 4.25234685160385e-04
1.81918032786885e+00 7.55334508475423e-02 4.25949852265078e-04
1.84573770491803e+00 7.51061427388026e-02 4.26620743254964e-04
1.87229508196721e+00 7.46812520006369e-02 4.27248447421725e-04
1.89885245901639e+00 7.42587649552087e-02 4.27834019994942e-04
1.92540983606557e+00 7.38386680043532e-02 4.28378481955411e-04
1.95196721311475e+00 7.34209476289806e-02 4.28882824821138e-04
1.97852459016393e+00 7.30055903821768e-02 4.29348010325695e-04
2.00508196721311e+00 7.25925828952605e-02 4.29774970576606e-04
2.03163934426229e+00 7.21819118751779e-02 4.30164610386675e-04
2.05819672131148e+00 7.17735641060720e-02 4.30517809409949e-04
2.08475409836066e+00 7.13675264428451e-02 4.30835422168635e-04
2.11131147540984e+00 7.09637858167688e-02 4.31118277501186e-04
2.13786885245902e+00 7.05623292349347e-02 4.31367182604269e-04
2.16442622950820e+00 7.01631437741581e-02 4.31582922409753e-04
2.19098360655738e+00 6.97662165862577e-02 4.31766259421932e-04
2.21754098360656e+00 6.93715348957399e-02 4.31917935577411e-04
2.24409836065574e+00 6.89790860011411e-02 4.32038673948484e-04
2.27065573770492e+00 6.85888572693201e-02 4.32129178516473e-04
2.29721311475410e+00 6.82008361403754e-02 4.32190133434133e-04
2.32377049180328e+00 6.78150101271263e-02 4.32222206535805e-04
2.35032786885246e+00 6.74313668096919e-02 4.32226048559609e-04
2.37688524590164e+00 6.70498938401267e-02 4.32202292364026e-04
2.40344262295082e+00 6.66705789419216e-02 4.32151556244432e-04
2.43000000000000e+00 6.62934099048489e-02 4.32074443121136e-04
2.45655737704918e+00 6.59183745893468e-02 4.31971540155953e-04
2.48311475409836e+00 6.55454609245293e-02 4.31843420179684e-04
2.50967213114754e+00 6.51746569092796e-02 4.31690642998309e-04
2.53622950819672e+00 6.48059506073982e-02 4.31513754993568e-04
2.56278688524590e+00 6.44393301517011e-02 4.31313288276412e-04
2.58934426229508e+00 6.40747837435517e-02 4.31089763644087e-04
2.61590163934426e+00 6.37122996482317e-02 4.30843689719982e-04
2.64245901639344e+00 6.33518661988261e-02 4.30575562097582e-04
2.66901639344262e+00 6.29934717957629e-02 4.30285866159707e-04
2.69557377049180e+00 6.26371049024006e-02 4.29975076211676e-04
2.72213114754098e+00 6.22827540487144e-02 4.29643655008873e-04
2.74868852459016e+00 6.19304078295656e-02 4.29292054910241e-04
2.77524590163934e+00 6.15800549056012e-02 4.28920718932671e-04
2.80180327868852e+00 6.12316839990808e-02 4.28530080283175e-04
2.82836065573770e+00 6.08852838973343e-02 4.28120561494228e-04
2.85491803278689e+00 6.05408434523318e-02 4.27692576979505e-04
2.88147540983607e+00 6.01983515766904e-02 4.27246532167425e-04
2.90803278688525e+00 5.98577972469642e-02 4.26782823001132e-04
2.93459016393443e+00 5.95191695020697e-02 4.26301836956513e-04
2.96114754098361e+00 5.91824574440709e-02 4.25803953972378e-04
2.98770491803279e+00 5.88476502343973e-02 4.25289545962939e-04
3.01426229508197e+00 5.85147370969400e-02 4.24758975965720e-04
3.04081967213115e+00 5.81837073176426e-02 4.24212600477403e-04
3.06737704918033e+00 5.78545502408761e-02 4.23650768603220e-04
3.09393442622951e+00 5.75272552723868e-02 4.23073821215751e-04
3.12049180327869e+00 5.72018118788961e-02 4.22482093201623e-04
3.14704918032787e+00 5.68782095846263e-02 4.21875912622654e-04
3.17360655737705e+00 5.65564379741112e-02 4.21255600212596e-04
3.20016393442623e+00 5.62364866908063e-02 4.20621470244626e-04
3.22672131147541e+00 5.59183454377425e-02 4.19973831323482e-04
3.25327868852459e+00 5.56020039742239e-02 4.19312985899689e-04
3.27983606557377e+00 5.52874521184789e-02 4.18639229454417e-04
3.30639344262295e+00 5.49746797472828e-02 4.17952852570270e-04
3.33295081967213e+00 5.46636767927844e-02 4.17254140121703e-04
3.35950819672131e+00 5.43544332450387e-02 4.16543370777828e-04
3.38606557377049e+00 5.40469391507297e-02 4.15820817789163e-04
3.41262295081967e+00 5.37411846137450e-02 4.15086749705756e-04
3.43918032786885e+00 5.34371597921574e-02 4.14341429899140e-04
3.46573770491803e+00 5.31348549006193e-02 4.13585115779629e-04
3.49229508196721e+00 5.28342602100017e-02 4.12818060713067e-04
3.51885245901639e+00 5.25353660444894e-02 4.12040513243249e-04
3.54540983606557e+00 5.22381627838700e-02 4.11252716324632e-04
3.57196721311475e+00 5.19426408631802e-02 4.10454909174924e-04
3.59852459016393e+00 5.16487907699123e-02 4.09647326513730e-04
3.62508196721311e+00 5.13566030462031e-02 4.08830198087349e-04
3.65163934426229e+00 5.10660682876944e-02 4.08003749359021e-04
3.67819672131148e+00 5.07771771440152e-02 4.07168202139002e-04
3.70475409836066e+00 5.04899203161164e-02 4.06323774128949e-04
3.73131147540984e+00 5.02042885583445e-02 4.05470678188814e-04
3.75786885245902e+00 4.99202726781057e-02 4.04609124060049e-04
3.78442622950820e+00 4.96378635332973e-02 4.03739317639229e-04
3.81098360655738e+00 4.93570520342938e-02 4.02861460519232e-04
3.83754098360656e+00 4.90778291428924e-02 4.01975750624831e-04
3.86409836065574e+00 4.88001858727390e-02 4.01082382792895e-04
3.89065573770492e+00 4.85241132868753e-02 4.00181548332864e-04
3.91721311475410e+00 4.82496024996243e-02 3.99273434328820e-04
3.94377049180328e+00 4.79766446762682e-02 3.98358225246523e-04
3.97032786885246e+00 4.77052310306828e-02 3.97436102241491e-04
3.99688524590164e+00 4.74353528271433e-02 3.96507242476423e-04
4.02344262295082e+00 4.71670013800100e-02 3.95571820679148e-04
4.05000000000000e+00 4.69001680514458e-02 3.94630008466680e-04
4.07655737704918e+00 4.66348442531487e-02 3.93681973914663e-04
4.10311475409836e+00 4.63710214454024e-02 3.92727882124756e-04
4.12967213114754e+00 4.61086911374357e-02 3.91767895742588e-04
4.15622950819672e+00 4.58478448852387e-02 3.90802174545813e-04
4.18278688524590e+00 4.55884742932085e-02 3.89830874795380e-04
4.20934426229508e+00 4.53305710138499e-02 3.88854150693050e-04
4.23590163934426e+00 4.50741267456647e-02 3.87872153739215e-04
4.26245901639344e+00 4.48191332347328e-02 3.86885032099487e-04
4.28901639344262e+00 4.45655822744170e-02 3.85892932019397e-04
4.31557377049180e+00 4.43134657033253e-02 3.84895997196887e-04
4.34213114754098e+00 4.40627754068295e-02 3.83894368380504e-04
4.36868852459016e+00 4.38135033162067e-02 3.82888183879324e-04
4.39524590163934e+00 4.35656414089435e-02 3.81877580028680e-04
4.42180327868852e+00 4.33191817067825e-02 3.80862690805672e-04
4.44836065573771e+00 4.30741162771663e-02 3.79843647227586e-04
4.47491803278688e+00 4.28304372329569e-02 3.78820578678714e-04
4.50147540983607e+00 4.25881367305468e-02 3.77793612315192e-04
4.52803278688525e+00 4.23472069712473e-02 3.76762872681166e-04
4.55459016393443e+00 4.21076402004885e-02 3.75728482184738e-04
4.58114754098361e+00 4.18694287080886e-02 3.74690561532618e-04
4.60770491803279e+00 4.16325648264424e-02 3.73649229362976e-04
4.63426229508197e+00 4.13970409318439e-02 3.72604601675039e-04
4.66081967213115e+00 4.11628494442173e-02 3.71556793075134e-04
4.68737704918033e+00 4.09299828253637e-02 3.70505916211926e-04
4.71393442622951e+00 4.06984335802331e-02 3.69452081219562e-04
4.74049180327869e+00 4.04681942566602e-02 3.68395396929072e-04
4.76704918032787e+00 4.02392574436681e-02 3.67335970316951e-04
4.79360655737705e+00 4.00116157726918e-02 3.66273906148526e-04
4.82016393442623e+00 3.97852619168519e-02 3.65209307409470e-04
4.84672131147541e+00 3.95601885911815e-02 3.64142275699945e-04
4.87327868852459e+00 3.93363885509972e-02 3.63072910893442e-04
4.89983606557377e+00 3.91138545930657e-02 3.62001310608442e-04
4.92639344262295e+00 3.88925795553519e-02 3.60927571348149e-04
4.95295081967213e+00 3.86725563154399e-02 3.59851787977815e-04
4.97950819672131e+00 3.84537777916569e-02 3.58774053385144e-04
5.00606557377049e+00 3.82362369423929e-02 3.57694458884787e-04
5.03262295081967e+00 3.80199267663023e-02 3.56613094587884e-04
5.05918032786885e+00 3.78048403007868e-02 3.55530049077175e-04
5.08573770491803e+00 3.75909706230687e-02 3.54445408906301e-04
5.11229508196721e+00 3.73783108499484e-02 3.53359259673098e-04
5.13885245901639e+00 3.71668541363343e-02 3.52271685523772e-04
5.16540983606557e+00 3.69565936762757e-02 3.51182768663941e-04
5.19196721311475e+00 3.67475227027257e-02 3.50092590403524e-04
5.21852459016393e+00 3.65396344861155e-02 3.49001230672662e-04
5.24508196721311e+00 3.63329223353505e-02 3.47908767706628e-04
5.27163934426229e+00 3.61273795971888e-02 3.46815278414878e-04
5.29819672131148e+00 3.59229996564119e-02 3.45720838718108e-04
5.32475409836066e+00 3.57197759344532e-02 3.44625523246822e-04
5.35131147540984e+00 3.55177018903490e-02 3.43529404877567e-04
5.37786885245902e+00 3.53167710205117e-02 3.42432555718224e-04
5.40442622950820e+00 3.51169768573993e-02 3.41335046649157e-04
5.43098360655738e+00 3.49183129704322e-02 3.40236947023454e-04
5.45754098360656e+00 3.47207729654102e-02 3.39138325014097e-04
5.48409836065574e+00 3.45243504846632e-02 3.38039247931111e-04
5.51065573770492e+00 3.43290392057713e-02 3.36939781934666e-04
5.53721311475410e+00 3.41348328424409e-02 3.35839991595567e-04
5.56377049180328e+00 3.39417251442874e-02 3.34739940825061e-04
5.59032786885246e+00 3.37497098955919e-02 3.33639692439518e-04
5.61688524590164e+00 3.35587809161471e-02 3.32539307731018e-04
5.64344262295082e+00 3.33689320610431e-02 3.31438847373391e-04
5.67000000000000e+00 3.31801572194613e-02 3.30338370997175e-04
5.69655737704918e+00 3.29924503154905e-02 3.29237936911666e-04
5.72311475409836e+00 3.28058053075916e-02 3.28137602422877e-04
5.74967213114754e+00 3.26202161887259e-02 3.27037424124172e-04
5.77622950819672e+00 3.24356769851919e-02 3.25937457630227e-04
5.80278688524590e+00 3.22521817574063e-02 3.24837757169674e-04
5.82934426229508e+00 3.20697245996990e-02 3.23738376441128e-04
5.85590163934426e+00 3.18882996391841e-02 3.22639368210046e-04
5.88245901639344e+00 3.17079010365135e-02 3.21540783910901e-04
5.90901639344262e+00 3.15285229856753e-02 3.20442674481755e-04
5.93557377049180e+00 3.13501597128975e-02 3.19345089970277e-04
5.96213114754098e+00 3.11728054773758e-02 3.18248079275980e-04
5.98868852459016e+00 3.09964545707823e-02 3.17151690442139e-04
6.01524590163934e+00 3.08211013173729e-02 3.16055970922618e-04
6.04180327868852e+00 3.06467400729297e-02 3.14960967335021e-04
6.06836065573770e+00 3.04733652254572e-02 3.13866725083215e-04
6.09491803278689e+00 3.03009711949899e-02 3.12773289146413e-04
6.12147540983606e+00 3.01295524325643e-02 3.11680703705553e-04
6.14803278688525e+00 2.99591034208921e-02 3.10589011898116e-04
6.17459016393443e+00 2.97896186738971e-02 3.09498256093740e-04
6.20114754098361e+00 2.96210927368100e-02 3.08408478146206e-04
6.22770491803279e+00 2.94535201851766e-02 3.07319719158654e-04
6.25426229508197e+00 2.92868956255026e-02 3.06232019125474e-04
6.28081967213115e+00 2.91212136950684e-02 3.05145417678845e-04
6.30737704918033e+00 2.89564690609654e-02 3.04059953734153e-04
6.33393442622951e+00 2.87926564207187e-02 3.02975665140055e-04
6.36049180327869e+00 2.86297705021053e-02 3.01892589406800e-04
6.38704918032787e+00 2.84678060622170e-02 3.00810763359719e-04
6.41360655737705e+00 2.83067578880626e-02 2.99730222911771e-04
6.44016393442623e+00 2.81466207961412e-02 2.98651003317256e-04
6.46672131147541e+00 2.79873896325217e-02 2.97573139403853e-04
6.49327868852459e+00 2.78290592719378e-02 2.96496665354741e-04
6.51983606557377e+00 2.76716246183642e-02 2.95421614376393e-04
6.54639344262295e+00 2.75150806048432e-02 2.94348019388166e-04
6.57295081967213e+00 2.73594221926044e-02 2.93275912693410e-04
6.59950819672131e+00 2.72046443716222e-02 2.92205325763144e-04
6.62606557377049e+00 2.70507421602137e-02 2.91136289476000e-04
6.65262295081967e+00 2.68977106051076e-02 2.90068834337764e-04
6.67918032786885e+00 2.67455447805944e-02 2.89002990274034e-04
6.70573770491803e+00 2.65942397890608e-02 2.87938786314888e-04
6.73229508196721e+00 2.64437907608231e-02 2.86876251248173e-04
6.75885245901639e+00 2.62941928532997e-02 2.85815413307145e-04
6.78540983606557e+00 2.61454412515286e-02 2.84756299862265e-04
6.81196721311475e+00 2.59975311680028e-02 2.83698938058805e-04
6.83852459016393e+00 2.58504578418659e-02 2.82643354511629e-04
6.86508196721311e+00 2.57042165394121e-02 2.81589575104366e-04
6.89163934426229e+00 2.55588025537151e-02 2.80537625210767e-04
6.91819672131148e+00 2.54142112046846e-02 2.79487529897329e-04
6.94475409836066e+00 2.52704378382892e-02 2.78439313730830e-04
6.97131147540984e+00 2.51274778270353e-02 2.77393000485504e-04
6.99786885245902e+00 2.49853265698105e-02 2.76348613747534e-04
7.02442622950820e+00 2.48439794911262e-02 2.75306176625135e-04
7.05098360655738e+00 2.47034320415816e-02 2.74265711557394e-04
7.07754098360656e+00 2.45636796975128e-02 2.73227240524051e-04
7.10409836065574e+00 2.44247179610420e-02 2.72190785237426e-04
7.13065573770492e+00 2.42865423593459e-02 2.71156366959161e-04
7.15721311475410e+00 2.41491484451010e-02 2.70124006222195e-04
7.18377049180328e+00 2.40125317963323e-02 2.69093723403979e-04
7.21032786885246e+00 2.38766880157013e-02 2.68065538450947e-04
7.23688524590164e+00 2.37416127309363e-02 2.67039470606593e-04
7.26344262295082e+00 2.36073015946845e-02 2.66015538971255e-04
7.29000000000000e+00 2.34737502838182e-02 2.64993762232884e-04
7.31655737704918e+00 2.33409544998512e-02 2.63974158489475e-04
7.34311475409836e+00 2.32089099686149e-02 2.62956745442867e-04
7.36967213114754e+00 2.30776124402979e-02 2.61941540576303e-04
7.39622950819672e+00 2.29470576887749e-02 2.60928560984187e-04
7.42278688524590e+00 2.28172415120072e-02 2.59917823113665e-04
7.44934426229508e+00 2.26881597319002e-02 2.58909343295774e-04
7.47590163934426e+00 2.25598081936498e-02 2.57903137489515e-04
7.50245901639344e+00 2.24321827661299e-02 2.56899221029286e-04
7.52901639344262e+00 2.23052793417526e-02 2.55897609143669e-04
7.55557377049180e+00 2.21790938358314e-02 2.54898316705134e-04
7.58213114754098e+00 2.20536221869561e-02 2.53901358065072e-04
7.60868852459016e+00 2.19288603566930e-02 2.52906747233218e-04
7.63524590163934e+00 2.18048043296160e-02 2.51914498041862e-04
7.66180327868852e+00 2.16814501126908e-02 2.50924623987575e-04
7.68836065573770e+00 2.15587937356354e-02 2.49937137991124e-04
7.71491803278689e+00 2.14368312507853e-02 2.48952052889929e-04
7.74147540983606e+00 2.13155587324936e-02 2.47969381200175e-04
7.76803278688525e+00 2.11949722774799e-02 2.46989134959724e-04
7.79459016393443e+00 2.10750680045452e-02 2.46011325898343e-04
7.82114754098361e+00 2.09558420545990e-02 2.45035965593548e-04
7.84770491803279e+00 2.08372905900781e-02 2.44063065319921e-04
7.87426229508197e+00 2.07194097952817e-02 2.43092635820850e-04
7.90081967213115e+00 2.06021958762430e-02 2.42124687776103e-04
7.92737704918033e+00 2.04856450601623e-02 2.41159231575677e-04
7.95393442622951e+00 2.03697535957317e-02 2.40196277096523e-04
7.98049180327869e+00 2.02545177530089e-02 2.39235834159485e-04
8.00704918032787e+00 2.01399338228646e-02 2.38277912308095e-04
8.03360655737705e+00 2.00259981172974e-02 2.37322520662495e-04
8.06016393442623e+00 1.99127069691695e-02 2.36369668077113e-04
8.08672131147541e+00 1.98000567322275e-02 2.35419363285125e-04
8.11327868852459e+00 1.96880437805675e-02 2.34471614758366e-04
8.13983606557377e+00 1.95766645089375e-02 2.33526430494903e-04
8.16639344262295e+00 1.94659153326160e-02 2.32583818453169e-04
8.19295081967213e+00 1.93557926868906e-02 2.31643786341534e-04
8.21950819672131e+00 1.92462930273506e-02 2.30706341479171e-04
8.24606557377049e+00 1.91374128296370e-02 2.29771490945897e-04
8.27262295081967e+00 1.90291485894591e-02 2.28839241719330e-04
8.29918032786885e+00 1.89214968220892e-02 2.27909600541377e-04
8.32573770491803e+00 1.88144540626443e-02 2.26982573716250e-04
8.35229508196721e+00 1.87080168659702e-02 2.26058167522987e-04
8.37885245901639e+00 1.86021818061479e-02 2.25136388015236e-04
