Energy (eV)          EEDF (eV^-(3/2))     First Anisotropy
1.20666666666667e-02 3.69986857685076e-01 2.51695555713277e-04
3.62000000000000e-02 3.65748956546323e-01 4.14634521145043e-04
6.03333333333333e-02 3.61559597139983e-01 5.44757672782916e-04
8.44666666666667e-02 3.57418223472526e-01 6.42041079389731e-04
1.08600000000000e-01 3.53324285902489e-01 7.21885994758278e-04
1.32733333333333e-01 3.49277241072324e-01 7.90155690763910e-04
1.56866666666667e-01 3.45276551890597e-01 8.49904335610026e-04
1.81000000000000e-01 3.41321687384704e-01 9.02988037314501e-04
2.05133333333333e-01 3.37412122648750e-01 9.50645526016568e-04
2.29266666666667e-01 3.33547338831969e-01 9.93757731764456e-04
2.53400000000000e-01 3.29726823002539e-01 1.03298075038322e-03
2.77533333333333e-01 3.25950068091711e-01 1.06882073209192e-03
3.01666666666667e-01 3.22216572868270e-01 1.10167915200197e-03
3.25800000000000e-01 3.18525841826018e-01 1.13188170674135e-03
3.49933333333333e-01 3.14877385124719e-01 1.15969757467461e-03
3.74066666666667e-01 3.11270718556996e-01 1.18535273233225e-03
3.98200000000000e-01 3.07705363449717e-01 1.20903943596751e-03
4.22333333333333e-01 3.04180846604691e-01 1.23092313953172e-03
4.46466666666667e-01 3.00696700261325e-01 1.25114766443955e-03
4.70600000000000e-01 2.97252462007496e-01 1.26983913251670e-03
4.94733333333333e-01 2.93847674721083e-01 1.28710900253324e-03
5.18866666666667e-01 2.90481886530229e-01 1.30305645954596e-03
5.43000000000000e-01 2.87154650731322e-01 1.31777031568834e-03
5.67133333333333e-01 2.83865525731823e-01 1.33133053505488e-03
5.91266666666667e-01 2.80614075009247e-01 1.34380947940471e-03
6.15400000000000e-01 2.77399867034817e-01 1.35527293169149e-03
6.39533333333333e-01 2.74222475217787e-01 1.36578093973651e-03
6.63666666666667e-01 2.71081477863865e-01 1.37538852584699e-03
6.87800000000000e-01 2.67976458103578e-01 1.38414628433116e-03
7.11933333333333e-01 2.64907003838196e-01 1.39210088370541e-03
7.36066666666667e-01 2.61872707698062e-01 1.39929549940022e-03
7.60200000000000e-01 2.58873166975008e-01 1.40577018518618e-03
7.84333333333333e-01 2.55907983569902e-01 1.41156218971667e-03
8.08466666666667e-01 2.52976763951224e-01 1.41670623503018e-03
8.32600000000000e-01 2.50079119091031e-01 1.42123475935067e-03
8.56733333333333e-01 2.47214664414136e-01 1.42517812598169e-03
8.80866666666667e-01 2.44383019757151e-01 1.42856481062405e-03
9.05000000000000e-01 2.41583809307624e-01 1.43142156678346e-03
9.29133333333333e-01 2.38816661554839e-01 1.43377356891302e-03
9.53266666666667e-01 2.36081209249478e-01 1.43564454309558e-03
9.77400000000000e-01 2.33377089345639e-01 1.43705688368493e-03
1.00153333333333e+00 2.30703942953223e-01 1.43803175451916e-03
1.02566666666667e+00 2.28061415298332e-01 1.43858918197456e-03
1.04980000000000e+00 2.25449155675214e-01 1.43874814458536e-03
1.07393333333333e+00 2.22866817363672e-01 1.43852663764621e-03
1.09806666666667e+00 2.20314057663504e-01 1.43794174667347e-03
1.12220000000000e+00 2.17790537774787e-01 1.43700972020731e-03
1.14633333333333e+00 2.15295922757098e-01 1.43574600692574e-03
1.17046666666667e+00 2.12829881550398e-01 1.43416531699319e-03
1.19460000000000e+00 2.10392086864051e-01 1.43228167814927e-03
1.21873333333333e+00 2.07982215137011e-01 1.43010846070941e-03
1.24286666666667e+00 2.05599946554213e-01 1.42765842632393e-03
1.26700000000000e+00 2.03244964943315e-01 1.42494377280981e-03
1.29113333333333e+00 2.00916957735900e-01 1.42197615068432e-03
1.31526666666667e+00 1.98615615980067e-01 1.41876670269234e-03
1.33940000000000e+00 1.96340634244059e-01 1.41532610032909e-03
1.36353333333333e+00 1.94091710578513e-01 1.41166455436444e-03
1.38766666666667e+00 1.91868546525817e-01 1.40779184745145e-03
1.41180000000000e+00 1.89670847029929e-01 1.40371736438520e-03
1.43593333333333e+00 1.87498320399676e-01 1.39945009831052e-03
1.46006666666667e+00 1.85350678315370e-01 1.39499867804226e-03
1.48420000000000e+00 1.83227635744205e-01 1.39037139351121e-03
1.50833333333333e+00 1.81128910904619e-01 1.38557619884321e-03
1.53246666666667e+00 1.79054225270560e-01 1.38062073556413e-03
1.55660000000000e+00 1.77003303491961e-01 1.37551235428360e-03
1.58073333333333e+00 1.74975873360146e-01 1.37025811549296e-03
1.60486666666667e+00 1.72971665810098e-01 1.36486480951548e-03
1.62900000000000e+00 1.70990414845552e-01 1.35933897520185e-03
1.65313333333333e+00 1.69031857505448e-01 1.35368689906031e-03
1.67726666666667e+00 1.67095733864483e-01 1.34791463259393e-03
1.70140000000000e+00 1.65181786962439e-01 1.34202800858853e-03
1.72553333333333e+00 1.63289762771661e-01 1.33603263902407e-03
1.74966666666667e+00 1.61419410196143e-01 1.32993393028548e-03
1.77380000000000e+00 1.59570481004753e-01 1.32373709748486e-03
1.79793333333333e+00 1.57742729799714e-01 1.31744716148659e-03
1.82206666666667e+00 1.55935914014436e-01 1.31106896236591e-03
1.84620000000000e+00 1.54149793850339e-01 1.30460717210624e-03
1.87033333333333e+00 1.52384132246313e-01 1.29806629098683e-03
1.89446666666667e+00 1.50638694875487e-01 1.29145065958049e-03
1.91860000000000e+00 1.48913250085370e-01 1.28476447009272e-03
1.94273333333333e+00 1.47207568868281e-01 1.27801176229901e-03
1.96686666666667e+00 1.45521424857199e-01 1.27119643431187e-03
1.99100000000000e+00 1.43854594268994e-01 1.26432225277294e-03
2.01513333333333e+00 1.42206855875798e-01 1.25739284848154e-03
2.03926666666667e+00 1.40577991000077e-01 1.25041172611472e-03
2.06340000000000e+00 1.38967783460736e-01 1.24338227344157e-03
2.08753333333333e+00 1.37376019545402e-01 1.23630775675064e-03
2.11166666666667e+00 1.35802488004846e-01 1.22919132967158e-03
2.13580000000000e+00 1.34246980001760e-01 1.22203604154818e-03
2.15993333333333e+00 1.32709289083936e-01 1.21484483274739e-03
2.18406666666667e+00 1.31189211178131e-01 1.20762054270307e-03
2.20820000000000e+00 1.29686544541353e-01 1.20036591755953e-03
2.23233333333333e+00 1.28201089734902e-01 1.19308360542545e-03
2.25646666666667e+00 1.26732649617776e-01 1.18577616373912e-03
2.28060000000000e+00 1.25281029300298e-01 1.17844606627481e-03
2.30473333333333e+00 1.23846036119004e-01 1.17109569838950e-03
2.32886666666667e+00 1.22427479629662e-01 1.16372736379256e-03
2.35300000000000e+00 1.21025171563100e-01 1.15634329099155e-03
2.37713333333333e+00 1.19638925800910e-01 1.14894562856859e-03
2.40126666666667e+00 1.18268558368159e-01 1.14153645142370e-03
2.42540000000000e+00 1.16913887391276e-01 1.13411776672438e-03
2.44953333333333e+00 1.15574733074555e-01 1.12669150923968e-03
2.47366666666667e+00 1.14250917692614e-01 1.11925954711540e-03
2.49780000000000e+00 1.12942265550219e-01 1.11182368738208e-03
2.52193333333333e+00 1.11648602959567e-01 1.10438567136784e-03
2.54606666666667e+00 1.10369758232537e-01 1.09694718005519e-03
2.57020000000000e+00 1.09105561642358e-01 1.08950983919366e-03
2.59433333333333e+00 1.07855845401622e-01 1.08207521480714e-03
2.61846666666667e+00 1.06620443654400e-01 1.07464481817481e-03
2.64260000000000e+00 1.05399192439624e-01 1.06722011058845e-03
2.66673333333333e+00 1.04191929669836e-01 1.05980249896549e-03
2.69086666666667e+00 1.02998495123186e-01 1.05239334049088e-03
2.71500000000000e+00 1.01818730408445e-01 1.04499394705325e-03
2.73913333333333e+00 1.00652478944464e-01 1.03760558097207e-03
2.76326666666667e+00 9.94995859520895e-02 1.03022945933212e-03
2.78740000000000e+00 9.83598984207247e-02 1.02286675812841e-03
2.81153333333333e+00 9.72332650884647e-02 1.01551860811291e-03
2.83566666666667e+00 9.61195364339713e-02 1.00818609884952e-03
2.85980000000000e+00 9.50185646444972e-02 1.00087028259366e-03
2.88393333333333e+00 9.39302035966757e-02 9.93572170262228e-04
2.90806666666667e+00 9.28543088483832e-02 9.86292735233231e-04
2.93220000000000e+00 9.17907376081464e-02 9.79032916983054e-04
2.95633333333333e+00 9.07393487165708e-02 9.71793617181470e-04
2.98046666666667e+00 8.97000026382122e-02 9.64575703257484e-04
3.00460000000000e+00 8.86725614322958e-02 9.57380011814445e-04
3.02873333333333e+00 8.76568887347635e-02 9.50207344850628e-04
3.05286666666667e+00 8.66528497501751e-02 9.43058473110354e-04
3.07700000000000e+00 8.56603112236739e-02 9.35934139294926e-04
3.10113333333333e+00 8.46791414236317e-02 9.28835054408403e-04
3.12526666666667e+00 8.37092101335985e-02 9.21761900910851e-04
3.14940000000000e+00 8.27503886254526e-02 9.14715335740972e-04
3.17353333333333e+00 8.18025496426235e-02 9.07695986786092e-04
3.19766666666667e+00 8.08655673921076e-02 9.00704455852632e-04
3.22180000000000e+00 7.99393175187419e-02 8.93741321514696e-04
3.24593333333333e+00 7.90236770889889e-02 8.86807135706397e-04
3.27006666666667e+00 7.81185245830295e-02 8.79902426523165e-04
3.29420000000000e+00 7.72237398701083e-02 8.73027700909248e-04
3.31833333333333e+00 7.63392041928599e-02 8.66183441370001e-04
3.34246666666667e+00 7.54648001594928e-02 8.59370108616303e-04
3.36660000000000e+00 7.46004117201537e-02 8.52588144102538e-04
3.39073333333333e+00 7.37459241517780e-02 8.45837966856252e-04
3.41486666666667e+00 7.29012240503755e-02 8.39119975976769e-04
3.43900000000000e+00 7.20661993083644e-02 8.32434553034035e-04
3.46313333333333e+00 7.12407390999300e-02 8.25782059012899e-04
3.48726666666667e+00 7.04247338734195e-02 8.19162836675874e-04
3.51140000000000e+00 6.96180753296019e-02 8.12577212832310e-04
3.53553333333333e+00 6.88206564075168e-02 8.06025495394307e-04
3.55966666666667e+00 6.80323712769871e-02 7.99507975612778e-04
3.58380000000000e+00 6.72531153177608e-02 7.93024930225608e-04
3.60793333333333e+00 6.64827851058348e-02 7.86576618621973e-04
3.63206666666667e+00 6.57212784060904e-02 7.80163284960037e-04
3.65620000000000e+00 6.49684941522779e-02 7.73785160201975e-04
3.68033333333333e+00 6.42243324337988e-02 7.67442459383438e-04
3.70446666666667e+00 6.34886944884707e-02 7.61135383620573e-04
3.72860000000000e+00 6.27614826833145e-02 7.54864122039132e-04
3.75273333333333e+00 6.20426005017816e-02 7.48628849145748e-04
3.77686666666667e+00 6.13319525366510e-02 7.42429726731228e-04
3.80100000000000e+00 6.06294444715848e-02 7.36266905700402e-04
3.82513333333333e+00 5.99349830687837e-02 7.30140523542000e-04
3.84926666666667e+00 5.92484761620214e-02 7.24050706134511e-04
3.87340000000000e+00 5.85698326389329e-02 7.17997569482995e-04
3.89753333333333e+00 5.78989624290852e-02 7.11981217284145e-04
3.92166666666667e+00 5.72357764971509e-02 7.06001742640696e-04
3.94580000000000e+00 5.65801868258973e-02 7.00059229710763e-04
3.96993333333333e+00 5.59321064046585e-02 6.94153751364903e-04
3.99406666666667e+00 5.52914492226502e-02 6.88285370814633e-04
4.01820000000000e+00 5.46581302526288e-02 6.82454143179326e-04
4.04233333333333e+00 5.40320654397516e-02 6.76660113232083e-04
4.06646666666667e+00 5.34131716950340e-02 6.70903316947368e-04
4.09060000000000e+00 5.28013668796503e-02 6.65183782990371e-04
4.11473333333333e+00 5.21965697941682e-02 6.59501530548549e-04
4.13886666666667e+00 5.15987001721500e-02 6.53856570803002e-04
4.16300000000000e+00 5.10076786650667e-02 6.48248908344823e-04
4.18713333333333e+00 5.04234268318950e-02 6.42678539089174e-04
4.21126666666667e+00 4.98458671328626e-02 6.37145451674736e-04
4.23540000000000e+00 4.92749229149492e-02 6.31649628811169e-04
4.25953333333333e+00 4.87105184018345e-02 6.26191045272743e-04
4.28366666666667e+00 4.81525786877871e-02 6.20769669229988e-04
4.30780000000000e+00 4.76010297237278e-02 6.15385463532077e-04
4.33193333333333e+00 4.70557983075164e-02 6.10038383776992e-04
4.35606666666667e+00 4.65168120779841e-02 6.04728379579187e-04
4.38020000000000e+00 4.59839995015357e-02 5.99455395790499e-04
4.40433333333333e+00 4.54572898627635e-02 5.94219370644070e-04
4.42846666666667e+00 4.49366132586228e-02 5.89020236961400e-04
4.45260000000000e+00 4.44219005855501e-02 5.83857923315177e-04
4.47673333333333e+00 4.39130835303932e-02 5.78732352244235e-04
4.50086666666667e+00 4.34100945647294e-02 5.73643441403303e-04
4.52500000000000e+00 4.29128669324773e-02 5.68591104670807e-04
4.54913333333333e+00 4.24213346411334e-02 5.63575250432213e-04
4.57326666666667e+00 4.19354324562310e-02 5.58595782675564e-04
4.59740000000000e+00 4.14550958894256e-02 5.53652602047149e-04
4.62153333333333e+00 4.09802611900279e-02 5.48745604200656e-04
4.64566666666667e+00 4.05108653396013e-02 5.43874680841350e-04
4.66980000000000e+00 4.00468460405023e-02 5.39039720732432e-04
4.69393333333333e+00 3.95881417076990e-02 5.34240608107396e-04
4.71806666666667e+00 3.91346914635064e-02 5.29477223665583e-04
4.74220000000000e+00 3.86864351265629e-02 5.24749445531798e-04
4.76633333333333e+00 3.82433132039243e-02 5.20057147729459e-04
4.79046666666667e+00 3.78052668859361e-02 5.15400201130023e-04
4.81460000000000e+00 3.73722380356271e-02 5.10778474368293e-04
4.83873333333333e+00 3.69441691810711e-02 5.06191832374096e-04
4.86286666666667e+00 3.65210035103927e-02 5.01640137277866e-04
4.88700000000000e+00 3.61026848615624e-02 4.97123249283911e-04
4.91113333333333e+00 3.56891577150159e-02 4.92641025258371e-04
4.93526666666667e+00 3.52803671887924e-02 4.88193319593249e-04
4.95940000000000e+00 3.48762590287141e-02 4.83779985039745e-04
4.98353333333333e+00 3.44767796012553e-02 4.79400871350253e-04
5.00766666666667e+00 3.40818758888105e-02 4.75055826103017e-04
5.03180000000000e+00 3.36914954802429e-02 4.70744695497536e-04
5.05593333333333e+00 3.33055865639951e-02 4.66467323048496e-04
5.08006666666667e+00 3.29240979234842e-02 4.62223550372989e-04
5.10420000000000e+00 3.25469789280059e-02 4.58013217949896e-04
5.12833333333333e+00 3.21741795260768e-02 4.53836163863813e-04
5.15246666666667e+00 3.18056502409561e-02 4.49692224556640e-04
5.17660000000000e+00 3.14413421618893e-02 4.45581235552736e-04
5.20073333333333e+00 3.10812069376763e-02 4.41503030250846e-04
5.22486666666667e+00 3.07251967723154e-02 4.37457440641881e-04
5.24900000000000e+00 3.03732644165745e-02 4.33444298001500e-04
5.27313333333333e+00 3.00253631617767e-02 4.29463431728206e-04
5.29726666666667e+00 2.96814468355646e-02 4.25514670028961e-04
5.32140000000000e+00 2.93414697937857e-02 4.21597840580777e-04
5.34553333333333e+00 2.90053869144883e-02 4.17712769413173e-04
5.36966666666667e+00 2.86731535938039e-02 4.13859281563191e-04
5.39380000000000e+00 2.83447257381344e-02 4.10037201707530e-04
5.41793333333333e+00 2.80200597583509e-02 4.06246353087649e-04
5.44206666666667e+00 2.76991125657918e-02 4.02486558135597e-04
5.46620000000000e+00 2.73818415647405e-02 3.98757639078138e-04
5.49033333333333e+00 2.70682046468196e-02 3.95059416902847e-04
5.51446666666667e+00 2.67581601871028e-02 3.91391711956211e-04
5.53860000000000e+00 2.64516670368708e-02 3.87754344521011e-04
5.56273333333333e+00 2.61486845181956e-02 3.84147133821842e-04
5.58686666666667e+00 2.58491724201629e-02 3.80569898596789e-04
5.61100000000000e+00 2.55530909918955e-02 3.77022457649370e-04
5.63513333333333e+00 2.52604009373213e-02 3.73504628891934e-04
5.65926666666667e+00 2.49710634115034e-02 3.70016229892161e-04
5.68340000000000e+00 2.46850400139218e-02 3.66557078400780e-04
5.70753333333333e+00 2.44022927834173e-02 3.63126991431345e-04
5.73166666666667e+00 2.41227841946283e-02 3.59725785782759e-04
5.75580000000000e+00 2.38464771515190e-02 3.56353278543935e-04
5.77993333333333e+00 2.35733349824957e-02 3.53009286208543e-04
5.80406666666667e+00 2.33033214369454e-02 3.49693625174675e-04
5.82820000000000e+00 2.30364006790029e-02 3.46406112227426e-04
5.85233333333333e+00 2.27725372828321e-02 3.43146563687345e-04
5.87646666666667e+00 2.25116962292654e-02 3.39914795888318e-04
5.90060000000000e+00 2.22538428997997e-02 3.36710625639131e-04
5.92473333333333e+00 2.19989430720369e-02 3.33533869404229e-04
5.94886666666667e+00 2.17469629164224e-02 3.30384343760834e-04
5.97300000000000e+00 2.14978689904607e-02 3.27261865840512e-04
5.99713333333333e+00 2.12516282343103e-02 3.24166252540966e-04
6.02126666666667e+00 2.10082079676181e-02 3.21097320963352e-04
6.04540000000000e+00 2.07675758839465e-02 3.18054888834742e-04
6.06953333333333e+00 2.05297000465177e-02 3.15038773749806e-04
6.09366666666667e+00 2.02945488851414e-02 3.12048793589210e-04
6.11780000000000e+00 2.00620911908456e-02 3.09084766923833e-04
6.14193333333333e+00 1.98322961117650e-02 3.06146512285175e-04
6.16606666666667e+00 1.96051331501595e-02 3.03233848565734e-04
6.19020000000000e+00 1.93805721572412e-02 3.00346595405810e-04
6.21433333333333e+00 1.91585833292019e-02 2.97484572491514e-04
6.23846666666667e+00 1.89391372043205e-02 2.94647599937924e-04
6.26260000000000e+00 1.87222046579782e-02 2.91835498659292e-04
6.28673333333333e+00 1.85077568988207e-02 2.89048089693582e-04
6.31086666666667e+00 1.82957654659520e-02 2.86285194569211e-04
6.33500000000000e+00 1.80862022241308e-02 2.83546635659390e-04
6.35913333333333e+00 1.78790393600629e-02 2.80832235532155e-04
6.38326666666667e+00 1.76742493796792e-02 2.78141817301416e-04
6.40740000000000e+00 1.74718051035063e-02 2.75475204966182e-04
6.43153333333333e+00 1.72716796630848e-02 2.72832222785114e-04
6.45566666666667e+00 1.70738464983288e-02 2.70212695612573e-04
6.47980000000000e+00 1.68782793530652e-02 2.67616449223387e-04
6.50393333333333e+00 1.66849522715725e-02 2.65043309710998e-04
6.52806666666667e+00 1.64938395960206e-02 2.62493103809190e-04
6.55220000000000e+00 1.63049159621714e-02 2.59965659203038e-04
6.57633333333333e+00 1.61181562960352e-02 2.57460803949717e-04
6.60046666666667e+00 1.59335358113877e-02 2.54978366786568e-04
6.62460000000000e+00 1.57510300056263e-02 2.52518177428863e-04
6.64873333333333e+00 1.55706146565401e-02 2.50080066012388e-04
6.67286666666667e+00 1.53922658199019e-02 2.47663863388458e-04
6.69700000000000e+00 1.52159598254747e-02 2.45269401409063e-04
6.72113333333333e+00 1.50416732738905e-02 2.42896512390408e-04
6.74526666666667e+00 1.48693830343164e-02 2.40545029395451e-04
6.76940000000000e+00 1.46990662406051e-02 2.38214786507001e-04
6.79353333333333e+00 1.45307002882791e-02 2.35905618311421e-04
6.81766666666667e+00 1.43642628322687e-02 2.33617360169194e-04
6.84180000000000e+00 1.41997317832006e-02 2.31349848476530e-04
6.86593333333333e+00 1.40370853044851e-02 2.29102920168450e-04
6.89006666666667e+00 1.38763018101229e-02 2.26876412977940e-04
6.91420000000000e+00 1.37173599611274e-02 2.24670165686537e-04
6.93833333333333e+00 1.35602386627112e-02 2.22484017646055e-04
6.96246666666667e+00 1.34049170621593e-02 2.20317809026852e-04
6.98660000000000e+00 1.32513745453810e-02 2.18171381057864e-04
7.01073333333333e+00 1.30995907341914e-02 2.16044575566248e-04
7.03486666666667e+00 1.29495454842501e-02 2.13937235215226e-04
7.05900000000000e+00 1.28012188817374e-02 2.11849203734071e-04
7.08313333333333e+00 1.26545912407271e-02 2.09780325474981e-04
7.10726666666667e+00 1.25096431011899e-02 2.07730445640927e-04
7.13140000000000e+00 1.23663552257882e-02 2.05699410506032e-04
7.15553333333333e+00 1.22247085973386e-02 2.03687066988999e-04
7.17966666666667e+00 1.20846844168763e-02 2.01693262871447e-04
7.20380000000000e+00 1.19462641005655e-02 1.99717847009068e-04
7.22793333333333e+00 1.18094292772476e-02 1.97760668921001e-04
7.25206666666667e+00 1.16741617865662e-02 1.95821578999053e-04
7.27620000000000e+00 1.15404436759873e-02 1.93900428710024e-04
7.30033333333333e+00 1.14082571984314e-02 1.91997070200421e-04
7.32446666666667e+00 1.12775848104563e-02 1.90111356496964e-04
7.34860000000000e+00 1.11484091693846e-02 1.88243141700476e-04
7.37273333333333e+00 1.10207131310154e-02 1.86392280605357e-04
7.39686666666667e+00 1.08944797478641e-02 1.84558628891715e-04
7.42100000000000e+00 1.07696922663926e-02 1.82742043311223e-04
7.44513333333333e+00 1.06463341247983e-02 1.80942381320734e-04
7.46926666666667e+00 1.05243889513095e-02 1.79159501266461e-04
7.49340000000000e+00 1.04038405615138e-02 1.77393262562117e-04
7.51753333333333e+00 1.02846729562229e-02 1.75643525336160e-04
7.54166666666667e+00 1.01668703198205e-02 1.73910150608328e-04
7.56580000000000e+00 1.00504170176867e-02 1.72193000460399e-04
7.58993333333333e+00 9.93529759413477e-03 1.70491937696570e-04
7.61406666666667e+00 9.82149677081118e-03 1.68806826012656e-04
