Energy (eV)          EEDF (eV^-(3/2))     First Anisotropy
1.60714285714286e-01 6.59798926109738e-02 9.14731630819941e-05
4.82142857142857e-01 6.28091526339511e-02 1.47916058877686e-04
8.03571428571429e-01 5.97907862268402e-02 1.87140487899534e-04
1.12500000000000e+00 5.69174709069025e-02 2.12393758476016e-04
1.44642857142857e+00 5.41822360631567e-02 2.29965179614891e-04
1.76785714285714e+00 5.15784460960588e-02 2.42393332485043e-04
2.08928571428571e+00 4.90997842677857e-02 2.51068700167707e-04
2.41071428571429e+00 4.67402373998174e-02 2.56873354901079e-04
2.73214285714286e+00 4.44940812841643e-02 2.60417521543115e-04
3.05357142857143e+00 4.23558667968768e-02 2.62148058420921e-04
3.37500000000000e+00 4.03204066780499e-02 2.62405470879766e-04
3.69642857142857e+00 3.83827629423075e-02 2.61456870246361e-04
4.01785714285714e+00 3.65382349162749e-02 2.59516426214126e-04
4.33928571428571e+00 3.47823478166901e-02 2.56758774202321e-04
4.66071428571429e+00 3.31108419012292e-02 2.53328197672245e-04
4.98214285714286e+00 3.15196621344037e-02 2.49345147929668e-04
5.30357142857143e+00 3.00049483502319e-02 2.44911013201400e-04
5.62500000000000e+00 2.85630258874874e-02 2.40111696413015e-04
5.94642857142857e+00 2.71903966727520e-02 2.35020357195524e-04
6.26785714285714e+00 2.58837307414216e-02 2.29699553390770e-04
6.58928571428571e+00 2.46398581516181e-02 2.24202940367206e-04
6.91071428571429e+00 2.34557612966961e-02 2.18576637929173e-04
7.23214285714286e+00 2.23285675845797e-02 2.12860344253998e-04
7.55357142857143e+00 2.12555424689519e-02 2.07088253126709e-04
7.87500000000000e+00 2.02340828152846e-02 2.01289816598648e-04
8.19642857142857e+00 1.92617105845198e-02 1.95490384236829e-04
8.51785714285714e+00 1.83360668250871e-02 1.89711743441823e-04
8.83928571428572e+00 1.74549059462704e-02 1.83972579007253e-04
9.16071428571429e+00 1.66160902718149e-02 1.78288865991589e-04
9.48214285714286e+00 1.58175848539659e-02 1.72674207888398e-04
9.80357142857143e+00 1.50574525367452e-02 1.67140128826117e-04
1.01250000000000e+01 1.43338492564460e-02 1.61696327246743e-04
1.04464285714286e+01 1.36450195666600e-02 1.56350896730841e-04
1.07678571428571e+01 1.29892923818788e-02 1.51110518760334e-04
1.10892857142857e+01 1.23650769288451e-02 1.45980633229186e-04
1.14107142857143e+01 1.17708588691380e-02 1.40965586668379e-04
1.17321428571429e+01 1.12051966435245e-02 1.36068762423831e-04
1.20535714285714e+01 1.06667179730233e-02 1.31292698466816e-04
1.23750000000000e+01 1.01541165159697e-02 1.26639189011841e-04
1.26964285714286e+01 9.66614871312491e-03 1.22109374783332e-04
1.30178571428571e+01 9.20163076591158e-03 1.17703824376049e-04
1.33392857142857e+01 8.75943576785303e-03 1.13422606231349e-04
1.36607142857143e+01 8.33849096046888e-03 1.09265351950031e-04
1.39821428571429e+01 7.93777514138726e-03 1.05231312384013e-04
1.43035714285714e+01 7.55631618594467e-03 1.01319409414008e-04
1.46250000000000e+01 7.19318868062113e-03 9.75282803889411e-05
1.49464285714286e+01 6.84751168648807e-03 9.38563178782785e-05
1.52678571428571e+01 6.51844659914694e-03 9.03017059240767e-05
1.55892857142857e+01 6.20519511629137e-03 8.68624521561721e-05
1.59107142857143e+01 5.90699729485240e-03 8.35364159536761e-05
1.62321428571429e+01 5.62312971379329e-03 8.03213333610998e-05
1.65535714285714e+01 5.35290371852690e-03 7.72148404631828e-05
1.68750000000000e+01 5.09566374524402e-03 7.42144930678166e-05
1.71964285714286e+01 4.85078573570579e-03 7.13177842919761e-05
1.75178571428571e+01 4.61767562150842e-03 6.85221607073254e-05
1.78392857142857e+01 4.39576788411977e-03 6.58250365237620e-05
1.81607142857143e+01 4.18452417912258e-03 6.32238058368301e-05
1.84821428571429e+01 3.98343203415298e-03 6.07158533286485e-05
1.88035714285714e+01 3.79200360530385e-03 5.82985644814612e-05
1.91250000000000e+01 3.60977449050876e-03 5.59693338199079e-05
1.94464285714286e+01 3.43630260613327e-03 5.37255721868390e-05
1.97678571428571e+01 3.27116711338009e-03 5.15647134428311e-05
2.00892857142857e+01 3.11396739811755e-03 4.94842202042484e-05
2.04107142857143e+01 2.96432209660033e-03 4.74815886000143e-05
2.07321428571429e+01 2.82186817276859e-03 4.55543522759667e-05
2.10535714285714e+01 2.68626003731456e-03 4.37000863258638e-05
2.13750000000000e+01 2.55716870732170e-03 4.19164101339681e-05
2.16964285714286e+01 2.43428101019344e-03 4.02009897786156e-05
2.20178571428571e+01 2.31729882320255e-03 3.85515402382550e-05
2.23392857142857e+01 2.20593835074427e-03 3.69658271256947e-05
2.26607142857143e+01 2.09992943432944e-03 3.54416679208240e-05
2.29821428571429e+01 1.99901489876249e-03 3.39769328416453e-05
2.33035714285714e+01 1.90294992810461e-03 3.25695457971403e-05
2.36250000000000e+01 1.81150147049753e-03 3.12174847288018e-05
2.39464285714286e+01 1.72444767408487e-03 2.99187817671371e-05
2.42678571428571e+01 1.64157734835648e-03 2.86715233564205e-05
2.45892857142857e+01 1.56268945212142e-03 2.74738501552195e-05
2.49107142857143e+01 1.48759260480636e-03 2.63239566846206e-05
2.52321428571429e+01 1.41610462318375e-03 2.52200908117551e-05
2.55535714285714e+01 1.34805207931320e-03 2.41605533617998e-05
2.58750000000000e+01 1.28326987899737e-03 2.31436973847425e-05
2.61964285714286e+01 1.22160086210593e-03 2.21679273597130e-05
2.65178571428571e+01 1.16289542101953e-03 2.12316984357680e-05
2.68392857142857e+01 1.10701113789019e-03 2.03335155748893e-05
2.71607142857143e+01 1.05381243850347e-03 1.94719325739556e-05
2.74821428571429e+01 1.00317026403513e-03 1.86455510214776e-05
2.78035714285714e+01 9.54961757902056e-04 1.78530193845192e-05
2.81250000000000e+01 9.09069967186875e-04 1.70930319015422e-05
2.84464285714286e+01 8.65383559458415e-04 1.63643274701781e-05
2.87678571428571e+01 8.23796552493702e-04 1.56656885944547e-05
2.90892857142857e+01 7.84208057301393e-04 1.49959402980807e-05
2.94107142857143e+01 7.46522032952505e-04 1.43539489856334e-05
2.97321428571429e+01 7.10647054016069e-04 1.37386212875850e-05
3.00535714285714e+01 6.76496088727281e-04 1.31489030202430e-05
3.03750000000000e+01 6.43986287504618e-04 1.25837780382088e-05
3.06964285714286e+01 6.13038782315894e-04 1.20422671063910e-05
3.10178571428571e+01 5.83578495223067e-04 1.15234268340174e-05
3.13392857142857e+01 5.55533956332834e-04 1.10263486057138e-05
3.16607142857143e+01 5.28837130139747e-04 1.05501574958940e-05
3.19821428571429e+01 5.03423250755298e-04 1.00940111897958e-05
3.23035714285714e+01 4.79230664763974e-04 9.65709899949733e-06
3.26250000000000e+01 4.56200681425739e-04 9.23864082209243e-06
3.29464285714286e+01 4.34277430528919e-04 8.83788612578387e-06
3.32678571428571e+01 4.13407726769242e-04 8.45411299198359e-06
3.35892857142857e+01 3.93540940781598e-04 8.08662716827175e-06
3.39107142857143e+01 3.74628876134346e-04 7.73476112197463e-06
3.42321428571429e+01 3.56625652591897e-04 7.39787310960642e-06
3.45535714285714e+01 3.39487594794967e-04 7.07534632193113e-06
3.48750000000000e+01 3.23173126154422e-04 6.76658799943781e-06
3.51964285714286e+01 3.07642668143147e-04 6.47102857632827e-06
3.55178571428571e+01 2.92858544225763e-04 6.18812087169485e-06
3.58392857142857e+01 2.78784888494760e-04 5.91733929647570e-06
3.61607142857143e+01 2.65387558541189e-04 5.65817906865202e-06
3.64821428571429e+01 2.52634052749383e-04 5.41015544669040e-06
3.68035714285714e+01 2.40493431438656e-04 5.17280302178066e-06
3.71250000000000e+01 2.28936241704149e-04 4.94567499631655e-06
3.74464285714286e+01 2.17934446068270e-04 4.72834248809669e-06
3.77678571428571e+01 2.07461354426735e-04 4.52039387270954e-06
3.80892857142857e+01 1.97491559324661e-04 4.32143414222970e-06
3.84107142857143e+01 1.88000874239098e-04 4.13108427472264e-06
3.87321428571429e+01 1.78966274985296e-04 3.94898062114238e-06
3.90535714285714e+01 1.70365843853850e-04 3.77477433721137e-06
3.93750000000000e+01 1.62178716371981e-04 3.60813081016994e-06
3.96964285714286e+01 1.54385030755873e-04 3.44872910728593e-06
4.00178571428571e+01 1.46965879702631e-04 3.29626145446590e-06
4.03392857142857e+01 1.39903264538765e-04 3.15043272972477e-06
4.06607142857143e+01 1.33180051502622e-04 3.01095996751635e-06
4.09821428571429e+01 1.26779930233248e-04 2.87757187826939e-06
4.13035714285714e+01 1.20687374197351e-04 2.75000840194187e-06
4.16250000000000e+01 1.14887602977528e-04 2.62802026093015e-06
4.19464285714286e+01 1.09366546461553e-04 2.51136853068864e-06
4.22678571428571e+01 1.04110810692670e-04 2.39982423365580e-06
4.25892857142857e+01 9.91076453876686e-05 2.29316794585432e-06
4.29107142857143e+01 9.43449129693185e-05 2.19118941327155e-06
4.32321428571429e+01 8.98110591577469e-05 2.09368718089287e-06
4.35535714285714e+01 8.54950849370359e-05 2.00046824724026e-06
4.38750000000000e+01 8.13865198418023e-05 1.91134772040728e-06
4.41964285714286e+01 7.74753965871438e-05 1.82614848814326e-06
4.45178571428571e+01 7.37522268775292e-05 1.74470090574786e-06
4.48392857142857e+01 7.02079783961539e-05 1.66684249435340e-06
4.51607142857143e+01 6.68340528687517e-05 1.59241764750618e-06
4.54821428571429e+01 6.36222652291732e-05 1.52127734794830e-06
4.58035714285714e+01 6.05648237606019e-05 1.45327890339503e-06
4.61250000000000e+01 5.76543111727863e-05 1.38828568465839e-06
4.64464285714286e+01 5.48836666287756e-05 1.32616687471525e-06
4.67678571428571e+01 5.22461686082830e-05 1.26679723125203e-06
4.70892857142857e+01 4.97354186066521e-05 1.21005685749943e-06
4.74107142857143e+01 4.73453255960519e-05 1.15583097985303e-06
4.77321428571429e+01 4.50700912655022e-05 1.10400973353938e-06
4.80535714285714e+01 4.29041959529583e-05 1.05448796235487e-06
4.83750000000000e+01 4.08423852410750e-05 1.00716502091912e-06
4.86964285714286e+01 3.88796572242257e-05 9.61944585340439e-07
4.90178571428571e+01 3.70112503691288e-05 9.18734474000433e-07
4.93392857142857e+01 3.52326319670052e-05 8.77446474830859e-07
4.96607142857143e+01 3.35394871263960e-05 8.37996178001040e-07
4.99821428571429e+01 3.19277083166345e-05 8.00302814850772e-07
5.03035714285714e+01 3.03933854021640e-05 7.64289107204699e-07
5.06250000000000e+01 2.89327961473953e-05 7.29881119035756e-07
5.09464285714286e+01 2.75423971961988e-05 6.97008114528257e-07
5.12678571428571e+01 2.62188154725110e-05 6.65602423692493e-07
5.15892857142857e+01 2.49588399997199e-05 6.35599312992744e-07
5.19107142857143e+01 2.37594141035027e-05 6.06936860211913e-07
5.22321428571429e+01 2.26176280040574e-05 5.79555834106180e-07
5.25535714285714e+01 2.15307117564311e-05 5.53399581691164e-07
5.28750000000000e+01 2.04960285244312e-05 5.28413917572287e-07
5.31964285714286e+01 1.95110681901949e-05 5.04547018104398e-07
5.35178571428571e+01 1.85734412624692e-05 4.81749321158718e-07
5.38392857142857e+01 1.76808730813819e-05 4.59973429719599e-07
5.41607142857143e+01 1.68311982951428e-05 4.39174018753871e-07
5.44821428571429e+01 1.60223556121433e-05 4.19307745719487e-07
5.48035714285714e+01 1.52523827998959e-05 4.00333166667639e-07
5.51250000000000e+01 1.45194119204474e-05 3.82210654048495e-07
5.54464285714286e+01 1.38216648032008e-05 3.64902318137460e-07
5.57678571428571e+01 1.31574487295991e-05 3.48371932607867e-07
5.60892857142857e+01 1.25251523277309e-05 3.32584863004417e-07
5.64107142857143e+01 1.19232416597626e-05 3.17507997717991e-07
5.67321428571429e+01 1.13502565041710e-05 3.03109681704769e-07
5.70535714285714e+01 1.08048068129980e-05 2.89359654294786e-07
5.73750000000000e+01 1.02855693367312e-05 2.76228988379695e-07
5.76964285714286e+01 9.79128441712195e-06 2.63690032300338e-07
5.80178571428571e+01 9.32075293025208e-06 2.51716354789769e-07
5.83392857142857e+01 8.87283337823778e-06 2.40282692098260e-07
5.86607142857143e+01 8.44643911765525e-06 2.29364897014202e-07
5.89821428571429e+01 8.04053572577269e-06 2.18939889941704e-07
5.93035714285714e+01 7.65413849087342e-06 2.08985612961625e-07
5.96250000000000e+01 7.28631002139513e-06 1.99480984986281e-07
5.99464285714286e+01 6.93615797387754e-06 1.90405858918385e-07
6.02678571428571e+01 6.60283288745507e-06 1.81740981054829e-07
6.05892857142857e+01 6.28552612359621e-06 1.73467952122486e-07
6.09107142857143e+01 5.98346790277845e-06 1.65569189741202e-07
6.12321428571429e+01 5.69592543866017e-06 1.58027892420319e-07
6.15535714285714e+01 5.42220116022778e-06 1.50828005727681e-07
6.18750000000000e+01 5.16163101815823e-06 1.43954189312589e-07
6.21964285714286e+01 4.91358287524144e-06 1.37391785410965e-07
6.25178571428571e+01 4.67745497235042e-06 1.31126788995620e-07
6.28392857142857e+01 4.45267446893707e-06 1.25145819141367e-07
6.31607142857143e+01 4.23869605225072e-06 1.19436091458473e-07
6.34821428571429e+01 4.03500061554138e-06 1.13985391664627e-07
6.38035714285714e+01 3.84109399863008e-06 1.08782050736310e-07
6.41250000000000e+01 3.65650578816772e-06 1.03814920718951e-07
6.44464285714286e+01 3.48078817737345e-06 9.90733516297252e-08
6.47678571428572e+01 3.31351487933807e-06 9.45471695632343e-08
6.50892857142857e+01 3.15428009310083e-06 9.02266556978801e-08
6.54107142857143e+01 3.00269751844472e-06 8.61025260981563e-08
6.57321428571429e+01 2.85839941950659e-06 8.21659123591074e-08
6.60535714285714e+01 2.72103573259778e-06 7.84083433973515e-08
6.63750000000000e+01 2.59027321632842e-06 7.48217277455234e-08
6.66964285714286e+01 2.46579464382154e-06 7.13983366499125e-08
6.70178571428572e+01 2.34729803290389e-06 6.81307880459235e-08
6.73392857142857e+01 2.23449591366773e-06 6.50120311990190e-08
6.76607142857143e+01 2.12711463056825e-06 6.20353319362353e-08
6.79821428571429e+01 2.02489367906557e-06 5.91942584986856e-08
6.83035714285714e+01 1.92758507360533e-06 5.64826682253471e-08
6.86250000000000e+01 1.83495274558037e-06 5.38946946185709e-08
6.89464285714286e+01 1.74677197107905e-06 5.14247349985715e-08
6.92678571428572e+01 1.66282882555669e-06 4.90674387974233e-08
6.95892857142857e+01 1.58291966497165e-06 4.68176963432806e-08
6.99107142857143e+01 1.50685063140199e-06 4.46706280812831e-08
7.02321428571429e+01 1.43443718310977e-06 4.26215742511090e-08
7.05535714285714e+01 1.36550364681870e-06 4.06660851665270e-08
7.08750000000000e+01 1.29988279123923e-06 3.87999117825497e-08
7.11964285714286e+01 1.23741542167467e-06 3.70189966935566e-08
7.15178571428572e+01 1.17794999371323e-06 3.53194655965841e-08
7.18392857142857e+01 1.12134224566169e-06 3.36976191148011e-08
7.21607142857143e+01 1.06745484833136e-06 3.21499249429105e-08
7.24821428571429e+01 1.01615707212706e-06 3.06730103275379e-08
7.28035714285714e+01 9.67324469880711e-07 2.92636549831272e-08
7.31250000000000e+01 9.20838574742461e-07 2.79187842233609e-08
7.34464285714286e+01 8.76586612992469e-07 2.66354624073265e-08
7.37678571428572e+01 8.34461230382168e-07 2.54108867235795e-08
7.40892857142857e+01 7.94360231748176e-07 2.42423812382331e-08
7.44107142857143e+01 7.56186332925373e-07 2.31273911797520e-08
7.47321428571429e+01 7.19846924907001e-07 2.20634774689633e-08
7.50535714285714e+01 6.85253849164032e-07 2.10483115638322e-08
7.53750000000000e+01 6.52323183635194e-07 2.00796704650101e-08
7.56964285714286e+01 6.20975039278007e-07 1.91554319508615e-08
7.60178571428572e+01 5.91133366210139e-07 1.82735700576300e-08
7.63392857142857e+01 5.62725769250475e-07 1.74321507527542e-08
7.66607142857143e+01 5.35683332177466e-07 1.66293277818211e-08
7.69821428571429e+01 5.09940450656299e-07 1.58633386946805e-08
7.73035714285714e+01 4.85434673075154e-07 1.51325010988653e-08
7.76250000000000e+01 4.62106548943163e-07 1.44352090324718e-08
7.79464285714286e+01 4.39899484763920e-07 1.37699295040941e-08
7.82678571428572e+01 4.18759606706822e-07 1.31351992104055e-08
7.85892857142857e+01 3.98635629935378e-07 1.25296213947816e-08
7.89107142857143e+01 3.79478734113910e-07 1.19518628330347e-08
7.92321428571429e+01 3.61242445050581e-07 1.14006509498278e-08
7.95535714285714e+01 3.43882521945795e-07 1.08747710991066e-08
7.98750000000000e+01 3.27356849999052e-07 1.03730639329928e-08
8.01964285714286e+01 3.11625338307577e-07 9.89442289212025e-09
8.05178571428572e+01 2.96649822583204e-07 9.43779182457762e-09
8.08392857142857e+01 2.82393972583910e-07 9.00216270767516e-09
8.11607142857143e+01 2.68823203924126e-07 8.58657346259053e-09
8.14821428571429e+01 2.55904594228934e-07 8.19010586418742e-09
8.18035714285714e+01 2.43606803260829e-07 7.81188356910048e-09
8.21250000000000e+01 2.31899996843558e-07 7.45107020913083e-09
8.24464285714286e+01 2.20755774532063e-07 7.10686757281785e-09
8.27678571428572e+01 2.10147100697456e-07 6.77851388002676e-09
8.30892857142857e+01 2.00048238951072e-07 6.46528213138883e-09
8.34107142857143e+01 1.90434689671809e-07 6.16647852549571e-09
8.37321428571429e+01 1.81283130608601e-07 5.88144094531104e-09
8.40535714285714e+01 1.72571360298201e-07 5.60953752980271e-09
8.43750000000000e+01 1.64278244173598e-07 5.35016529366690e-09
8.46964285714286e+01 1.56383663324426e-07 5.10274881100181e-09
8.50178571428572e+01 1.48868465677777e-07 4.86673896619846e-09
8.53392857142857e+01 1.41714419543903e-07 4.64161175924925e-09
8.56607142857143e+01 1.34904169361192e-07 4.42686716040848e-09
8.59821428571429e+01 1.28421193618177e-07 4.22202801513021e-09
8.63035714285714e+01 1.22249764770674e-07 4.02663901037721e-09
8.66250000000000e+01 1.16374911065512e-07 3.84026567625974e-09
8.69464285714286e+01 1.10782380241727e-07 3.66249343400556e-09
8.72678571428572e+01 1.05458604947214e-07 3.49292669246611e-09
8.75892857142857e+01 1.00390669830278e-07 3.33118798413609e-09
8.79107142857143e+01 9.55662801897993e-08 3.17691713707203e-09
8.82321428571429e+01 9.09737321666410e-08 3.02977048328927e-09
8.85535714285714e+01 8.66018843489489e-08 2.88942011133008e-09
8.88750000000000e+01 8.24401307284168e-08 2.75555314473190e-09
8.91964285714286e+01 7.84783749857715e-08 2.62787105403061e-09
8.95178571428572e+01 7.47070059920187e-08 2.50608900378514e-09
8.98392857142857e+01 7.11168744959634e-08 2.38993522826171e-09
9.01607142857143e+01 6.76992709162521e-08 2.27915043319905e-09
9.04821428571429e+01 6.44459042246142e-08 2.17348722401269e-09
9.08035714285714e+01 6.13488818310428e-08 2.07270956577396e-09
9.11250000000000e+01 5.84006904262443e-08 1.97659226214086e-09
9.14464285714286e+01 5.55941777651723e-08 1.88492045854065e-09
9.17678571428572e+01 5.29225353121736e-08 1.79748917060525e-09
9.20892857142857e+01 5.03792817263310e-08 1.71410283337259e-09
9.24107142857143e+01 4.79582471295284e-08 1.63457486941491e-09
9.27321428571429e+01 4.56535581470962e-08 1.55872727611118e-09
9.30535714285714e+01 4.34596236584661e-08 1.48639023576568e-09
9.33750000000000e+01 4.13711212261152e-08 1.41740173957072e-09
9.36964285714286e+01 3.93829841908169e-08 1.35160722909343e-09
9.40178571428572e+01 3.74903893775031e-08 1.28885925596020e-09
9.43392857142857e+01 3.56887453962156e-08 1.22901715657374e-09
9.46607142857143e+01 3.39736814977250e-08 1.17194674055078e-09
9.49821428571429e+01 3.23410369761595e-08 1.11751999300976e-09
9.53035714285714e+01 3.07868510747628e-08 1.06561479327744e-09
9.56250000000000e+01 2.93073533722611e-08 1.01611464369288e-09
9.59464285714286e+01 2.78989546409987e-08 9.68908411064841e-10
9.62678571428572e+01 2.65582381377991e-08 9.23890081234998e-10
9.65892857142857e+01 2.52819513163128e-08 8.80958524514043e-10
9.69107142857143e+01 2.40669979324205e-08 8.40017271054867e-10
9.72321428571429e+01 2.29104305369424e-08 8.00974296237341e-10
9.75535714285714e+01 2.18094433248734e-08 7.63741817847808e-10
9.78750000000000e+01 2.07613653251540e-08 7.28236100613063e-10
9.81964285714286e+01 1.97636539244787e-08 6.94377269864382e-10
9.85178571428572e+01 1.88138886977604e-08 6.62089134635289e-10
9.88392857142857e+01 1.79097655371264e-08 6.31299018617120e-10
9.91607142857143e+01 1.70490910594404e-08 6.01937598305180e-10
9.94821428571429e+01 1.62297772880624e-08 5.73938748376391e-10
9.98035714285714e+01 1.54498365872431e-08 5.47239395536400e-10
1.00125000000000e+02 1.47073768378035e-08 5.21779377367167e-10
1.00446428571429e+02 1.40005968513881e-08 4.97501309632763e-10
1.00767857142857e+02 1.33277819910230e-08 4.74350456214795e-10
1.01089285714286e+02 1.26873000297812e-08 4.52274609505302e-10
1.01410714285714e+02 1.20775971666286e-08 4.31223974149424e-10
