Energy (eV)          EEDF (eV^-(3/2))     First Anisotropy
3.33333333333333e-03 1.00310894654762e+00 -4.17881977805407e-04
1.00000000000000e-02 1.00381921552255e+00 -3.53434991315432e-04
1.66666666666667e-02 1.00380384579411e+00 2.43255169929917e-04
2.33333333333333e-02 1.00344814062707e+00 7.39373068470829e-04
3.00000000000000e-02 1.00284902967882e+00 1.22604606536567e-03
3.66666666666667e-02 1.00204948723720e+00 1.71513812682203e-03
4.33333333333333e-02 1.00107629122224e+00 2.21652603068450e-03
5.00000000000000e-02 9.99938521103027e-01 2.72906060513651e-03
5.66666666666667e-02 9.98652439762032e-01 3.23754525633941e-03
6.33333333333333e-02 9.97232874878784e-01 3.74542256214424e-03
7.00000000000000e-02 9.95686634926244e-01 4.24902132972290e-03
7.66666666666667e-02 9.94027128530698e-01 4.73571702507664e-03
8.33333333333333e-02 9.92267115429152e-01 5.21269166174818e-03
9.00000000000000e-02 9.90411266015653e-01 5.68903727803091e-03
9.66666666666667e-02 9.88463796951239e-01 6.16413988694989e-03
1.03333333333333e-01 9.86428592339662e-01 6.61778978070906e-03
1.10000000000000e-01 9.84322046969339e-01 7.04834347084670e-03
1.16666666666667e-01 9.82147223488321e-01 7.47509636623202e-03
1.23333333333333e-01 9.79906956120742e-01 7.89788882135874e-03
1.30000000000000e-01 9.77603884951016e-01 8.31656275452380e-03
1.36666666666667e-01 9.75240485549384e-01 8.73096010768029e-03
1.43333333333333e-01 9.72819091919587e-01 9.14092675673849e-03
1.50000000000000e-01 9.70341914563390e-01 9.54631507950534e-03
1.56666666666667e-01 9.67811054914073e-01 9.94698559834591e-03
1.63333333333333e-01 9.65228517028742e-01 1.03428079787096e-02
1.70000000000000e-01 9.62596217182661e-01 1.07336615442739e-02
1.76666666666667e-01 9.59915991854556e-01 1.11194348085178e-02
1.83333333333333e-01 9.57189604786369e-01 1.15000207819939e-02
1.90000000000000e-01 9.54418755099635e-01 1.18753096262113e-02
1.96666666666667e-01 9.51605086045035e-01 1.22452076438192e-02
2.03333333333333e-01 9.48750181508587e-01 1.25895908826498e-02
2.10000000000000e-01 9.45865665895678e-01 1.29083883408773e-02
2.16666666666667e-01 9.42952693781510e-01 1.32221480654948e-02
2.23333333333333e-01 9.40012371012173e-01 1.35309212491808e-02
2.30000000000000e-01 9.37045757200345e-01 1.38347595153325e-02
2.36666666666667e-01 9.34053869176136e-01 1.41337122351771e-02
2.43333333333333e-01 9.31037684051947e-01 1.44278268679973e-02
2.50000000000000e-01 9.27998141956017e-01 1.47171492480366e-02
2.56666666666667e-01 9.24936148480421e-01 1.50017238266143e-02
2.63333333333333e-01 9.21852576881743e-01 1.52815938768517e-02
2.70000000000000e-01 9.18748270066609e-01 1.55568016602054e-02
2.76666666666667e-01 9.15624042392417e-01 1.58273884206094e-02
2.83333333333333e-01 9.12480681369625e-01 1.60933934413939e-02
2.90000000000000e-01 9.09318949632645e-01 1.63548524184419e-02
2.96666666666667e-01 9.06139587123417e-01 1.66118018866718e-02
3.03333333333333e-01 9.02943310833038e-01 1.68548850160898e-02
3.10000000000000e-01 8.99735016319803e-01 1.70843903784872e-02
3.16666666666667e-01 8.96515206640660e-01 1.73101420872584e-02
3.23333333333333e-01 8.93284373071884e-01 1.75321697107397e-02
3.30000000000000e-01 8.90042995407814e-01 1.77505030676713e-02
3.36666666666667e-01 8.86791542261725e-01 1.79651721670595e-02
3.43333333333333e-01 8.83530471363339e-01 1.81762071650731e-02
3.50000000000000e-01 8.80260229851519e-01 1.83836383278459e-02
3.56666666666667e-01 8.76981254561225e-01 1.85874959990100e-02
3.63333333333333e-01 8.73693972304022e-01 1.87878105712820e-02
3.70000000000000e-01 8.70398800141650e-01 1.89846124591610e-02
3.76666666666667e-01 8.67096145653324e-01 1.91779320208130e-02
3.83333333333333e-01 8.63786407218211e-01 1.93677991478263e-02
3.90000000000000e-01 8.60469974430813e-01 1.95542425881715e-02
3.96666666666667e-01 8.57147228636837e-01 1.97372915456964e-02
4.03333333333333e-01 8.53818542647781e-01 1.99073035197290e-02
4.10000000000000e-01 8.50488331072367e-01 2.00646564044551e-02
4.16666666666667e-01 8.47156784484221e-01 2.02194988101403e-02
4.23333333333333e-01 8.43824092511086e-01 2.03718402710745e-02
4.30000000000000e-01 8.40490445070351e-01 2.05216869442063e-02
4.36666666666667e-01 8.37156031988538e-01 2.06690464427636e-02
4.43333333333333e-01 8.33821042663809e-01 2.08139277074793e-02
4.50000000000000e-01 8.30485665766752e-01 2.09563408895254e-02
4.56666666666667e-01 8.27150088975389e-01 2.10962972437063e-02
4.63333333333333e-01 8.23814498740785e-01 2.12338090308627e-02
4.70000000000000e-01 8.20479080080059e-01 2.13688894274280e-02
4.76666666666667e-01 8.17144016394419e-01 2.15015524176210e-02
4.83333333333333e-01 8.13809489319111e-01 2.16318125289418e-02
4.90000000000000e-01 8.10475678658027e-01 2.17596844385810e-02
4.96666666666667e-01 8.07142762395988e-01 2.18851836501347e-02
5.03333333333333e-01 8.03810916369217e-01 2.20046614964306e-02
5.10000000000000e-01 8.00481756359571e-01 2.21180253447445e-02
5.16666666666667e-01 7.97155472264901e-01 2.22289225576391e-02
5.23333333333333e-01 7.93832238647344e-01 2.23374187200804e-02
5.30000000000000e-01 7.90512226222629e-01 2.24435414786664e-02
5.36666666666667e-01 7.87195601918378e-01 2.25473182988156e-02
5.43333333333333e-01 7.83882528933320e-01 2.26487764569010e-02
5.50000000000000e-01 7.80573166797098e-01 2.27479430335259e-02
5.56666666666667e-01 7.77267671430465e-01 2.28448449076787e-02
5.63333333333333e-01 7.73966195205656e-01 2.29395087516788e-02
5.70000000000000e-01 7.70668887006788e-01 2.30319610262124e-02
5.76666666666667e-01 7.67375892290363e-01 2.31222279613584e-02
5.83333333333333e-01 7.64087353151082e-01 2.32103354454489e-02
5.90000000000000e-01 7.60803408422373e-01 2.32963088434794e-02
5.96666666666667e-01 7.57524193806878e-01 2.33801734227000e-02
6.03333333333333e-01 7.54249841811528e-01 2.34619842026294e-02
6.10000000000000e-01 7.50980473601591e-01 2.35422889042393e-02
6.16666666666667e-01 7.47716070522772e-01 2.36220296375819e-02
6.23333333333333e-01 7.44456496464006e-01 2.37015996436054e-02
6.30000000000000e-01 7.41201631310842e-01 2.37809148368094e-02
6.36666666666667e-01 7.37951369853024e-01 2.38598961932873e-02
6.43333333333333e-01 7.34705620763219e-01 2.39384694784067e-02
6.50000000000000e-01 7.31464305641911e-01 2.40165649906408e-02
6.56666666666667e-01 7.28227358123853e-01 2.40941173202630e-02
6.63333333333333e-01 7.24994723041876e-01 2.41710651219083e-02
6.70000000000000e-01 7.21766355644142e-01 2.42473508997561e-02
6.76666666666667e-01 7.18542220861361e-01 2.43229207965108e-02
6.83333333333333e-01 7.15322292623543e-01 2.43977243408293e-02
6.90000000000000e-01 7.12106553239416e-01 2.44717141532963e-02
6.96666666666667e-01 7.08894992837251e-01 2.45448460369150e-02
7.03333333333333e-01 7.05687608726286e-01 2.46159055544125e-02
7.10000000000000e-01 7.02484819883034e-01 2.46850625415327e-02
7.16666666666667e-01 6.99286579522962e-01 2.47540936271295e-02
7.23333333333333e-01 6.96092738240819e-01 2.48233537900135e-02
7.30000000000000e-01 6.92903163192241e-01 2.48927416155775e-02
7.36666666666667e-01 6.89717737117798e-01 2.49621607061196e-02
7.43333333333333e-01 6.86536357419947e-01 2.50315194655819e-02
7.50000000000000e-01 6.83358935289760e-01 2.51007308947259e-02
7.56666666666667e-01 6.80185394880560e-01 2.51697123960310e-02
7.63333333333333e-01 6.77015672525737e-01 2.52383855877847e-02
7.70000000000000e-01 6.73849715998242e-01 2.53066761264994e-02
7.76666666666667e-01 6.70687483809496e-01 2.53745135315289e-02
7.83333333333333e-01 6.67528944547507e-01 2.54418309751075e-02
7.90000000000000e-01 6.64374076264936e-01 2.55085650403329e-02
7.96666666666667e-01 6.61222865915425e-01 2.55746557649392e-02
8.03333333333333e-01 6.58075308737544e-01 2.56400227995298e-02
8.10000000000000e-01 6.54931413581477e-01 2.57041344844000e-02
8.16666666666667e-01 6.51791307511996e-01 2.57660855318122e-02
8.23333333333333e-01 6.48655220233732e-01 2.58254732535793e-02
8.30000000000000e-01 6.45523374511631e-01 2.58823414749142e-02
8.36666666666667e-01 6.42395986399516e-01 2.59367330315339e-02
8.43333333333333e-01 6.39273265456527e-01 2.59886898249208e-02
8.50000000000000e-01 6.36155414952226e-01 2.60382528742391e-02
8.56666666666667e-01 6.33042632061029e-01 2.60854623653665e-02
8.63333333333333e-01 6.29935108046603e-01 2.61303576971094e-02
8.70000000000000e-01 6.26833028436834e-01 2.61729775246751e-02
8.76666666666667e-01 6.23736573189949e-01 2.62133597967315e-02
8.83333333333333e-01 6.20645916853659e-01 2.62515417639396e-02
8.90000000000000e-01 6.17561228725358e-01 2.62875599769026e-02
8.96666666666667e-01 6.14482673008661e-01 2.63214504298336e-02
9.03333333333333e-01 6.11410408921310e-01 2.63534515905818e-02
9.10000000000000e-01 6.08344543575392e-01 2.63839500904181e-02
9.16666666666667e-01 6.05285145411543e-01 2.64130735000264e-02
9.23333333333333e-01 6.02232291859105e-01 2.64407896968951e-02
9.30000000000000e-01 5.99186058912750e-01 2.64671112567093e-02
9.36666666666667e-01 5.96146521168479e-01 2.64920505539405e-02
9.43333333333333e-01 5.93113751856890e-01 2.65156197799938e-02
9.50000000000000e-01 5.90087822873938e-01 2.65378309602038e-02
9.56666666666667e-01 5.87068804809331e-01 2.65586959698167e-02
9.63333333333333e-01 5.84056766972744e-01 2.65782265489768e-02
9.70000000000000e-01 5.81051777417998e-01 2.65964343163854e-02
9.76666666666667e-01 5.78053902965463e-01 2.66133307730064e-02
9.83333333333333e-01 5.75063209225747e-01 2.66289272476113e-02
9.90000000000000e-01 5.72079760640803e-01 2.66432347811750e-02
9.96666666666667e-01 5.69103620545536e-01 2.66562644144559e-02
1.00333333333333e+00 5.66134851111955e-01 2.66717329929525e-02
1.01000000000000e+00 5.63172452220617e-01 2.66926346133824e-02
1.01666666666667e+00 5.60215828985764e-01 2.67180442061204e-02
1.02333333333333e+00 5.57264435495667e-01 2.67476486538435e-02
1.03000000000000e+00 5.54317756627579e-01 2.67812177598132e-02
1.03666666666667e+00 5.51375307012999e-01 2.68185271941719e-02
1.04333333333333e+00 5.48436630025606e-01 2.68593584578222e-02
1.05000000000000e+00 5.45501296791273e-01 2.69034988455787e-02
1.05666666666667e+00 5.42568905219632e-01 2.69507414084970e-02
1.06333333333333e+00 5.39639079056687e-01 2.70008849153920e-02
1.07000000000000e+00 5.36711466957965e-01 2.70537338134599e-02
1.07666666666667e+00 5.33785741581763e-01 2.71090981879340e-02
1.08333333333333e+00 5.30861598702046e-01 2.71667937206889e-02
1.09000000000000e+00 5.27938756340603e-01 2.72266416474064e-02
1.09666666666667e+00 5.25016953918127e-01 2.72884687100027e-02
1.10333333333333e+00 5.22095951424571e-01 2.73562033710500e-02
1.11000000000000e+00 5.19174167497104e-01 2.74294242003852e-02
1.11666666666667e+00 5.16251458802696e-01 2.75036408836098e-02
1.12333333333333e+00 5.13327692919685e-01 2.75787490414519e-02
1.13000000000000e+00 5.10402751095606e-01 2.76546322437392e-02
1.13666666666667e+00 5.07476527783176e-01 2.77311771349892e-02
1.14333333333333e+00 5.04548930182124e-01 2.78082734449861e-02
1.15000000000000e+00 5.01619877787071e-01 2.78858139960447e-02
1.15666666666667e+00 4.98689301941570e-01 2.79636947072991e-02
1.16333333333333e+00 4.95757145398446e-01 2.80418145961568e-02
1.17000000000000e+00 4.92823361886510e-01 2.81200757771443e-02
1.17666666666667e+00 4.89887915683747e-01 2.81983834582869e-02
1.18333333333333e+00 4.86950781197030e-01 2.82766459351088e-02
1.19000000000000e+00 4.84011942548450e-01 2.83547745818015e-02
1.19666666666667e+00 4.81071393168399e-01 2.84326838351587e-02
1.20333333333333e+00 4.78129135396420e-01 2.85155175990919e-02
1.21000000000000e+00 4.75183340660623e-01 2.86019120007118e-02
1.21666666666667e+00 4.72234292538642e-01 2.86858447634459e-02
1.22333333333333e+00 4.69282164200970e-01 2.87678482054280e-02
1.23000000000000e+00 4.66327127667428e-01 2.88479249337065e-02
1.23666666666667e+00 4.63369353966899e-01 2.89260762322974e-02
1.24333333333333e+00 4.60409013285769e-01 2.90023021543909e-02
1.25000000000000e+00 4.57446275105581e-01 2.90766016112103e-02
1.25666666666667e+00 4.54481308330380e-01 2.91489724577321e-02
1.26333333333333e+00 4.51514281404195e-01 2.92194115753258e-02
1.27000000000000e+00 4.48545362419096e-01 2.92879149513562e-02
1.27666666666667e+00 4.45574719214256e-01 2.93544777558044e-02
1.28333333333333e+00 4.42602519466425e-01 2.94190944150039e-02
1.29000000000000e+00 4.39628930772208e-01 2.94817586828129e-02
1.29666666666667e+00 4.36654120722485e-01 2.95424637113608e-02
1.30333333333333e+00 4.33678256968908e-01 2.95987002137857e-02
1.31000000000000e+00 4.30702273529139e-01 2.96500988597473e-02
1.31666666666667e+00 4.27726409807001e-01 2.96997229425569e-02
1.32333333333333e+00 4.24750719024848e-01 2.97484919746160e-02
1.33000000000000e+00 4.21775255553721e-01 2.97963929887637e-02
1.33666666666667e+00 4.18800075075942e-01 2.98434114102330e-02
1.34333333333333e+00 4.15825234728742e-01 2.98895312323541e-02
1.35000000000000e+00 4.12850793229586e-01 2.99347351875298e-02
1.35666666666667e+00 4.09876810983884e-01 2.99790049130209e-02
1.36333333333333e+00 4.06903350175814e-01 3.00223211114890e-02
1.37000000000000e+00 4.03930474842946e-01 3.00646637062495e-02
1.37666666666667e+00 4.00958250935359e-01 3.01060119912498e-02
1.38333333333333e+00 3.97986746359929e-01 3.01463447757738e-02
1.39000000000000e+00 3.95016031010459e-01 3.01856405238882e-02
1.39666666666667e+00 3.92046176784297e-01 3.02238774887637e-02
1.40333333333333e+00 3.89077257586064e-01 3.02609327573496e-02
1.41000000000000e+00 3.86109369172480e-01 3.02966956212894e-02
1.41666666666667e+00 3.83142606752216e-01 3.03312679010690e-02
1.42333333333333e+00 3.80177045671914e-01 3.03647416393271e-02
1.43000000000000e+00 3.77212762792222e-01 3.03970995252433e-02
1.43666666666667e+00 3.74249836551159e-01 3.04283235850103e-02
1.44333333333333e+00 3.71288347015852e-01 3.04583952952035e-02
1.45000000000000e+00 3.68328375923263e-01 3.04872956908248e-02
1.45666666666667e+00 3.65370006710524e-01 3.05150054681400e-02
1.46333333333333e+00 3.62413324535481e-01 3.05415050824661e-02
1.47000000000000e+00 3.59458416287997e-01 3.05667748411342e-02
1.47666666666667e+00 3.56505370592561e-01 3.05907949917639e-02
1.48333333333333e+00 3.53554277802728e-01 3.06135458059689e-02
1.49000000000000e+00 3.50605229987878e-01 3.06350076581676e-02
1.49666666666667e+00 3.47658320912878e-01 3.06551610957194e-02
1.50333333333333e+00 3.44713646011854e-01 3.06777965429890e-02
1.51000000000000e+00 3.41770025862227e-01 3.07033399649067e-02
1.51666666666667e+00 3.38827475530019e-01 3.07273606318029e-02
1.52333333333333e+00 3.35886211559236e-01 3.07488354878042e-02
1.53000000000000e+00 3.32946444268372e-01 3.07678223442563e-02
1.53666666666667e+00 3.30008378069981e-01 3.07843761406900e-02
1.54333333333333e+00 3.27072211775012e-01 3.07985490763478e-02
1.55000000000000e+00 3.24138138882469e-01 3.08103907384206e-02
1.55666666666667e+00 3.21206347854753e-01 3.08199482275288e-02
1.56333333333333e+00 3.18277022379143e-01 3.08272662804176e-02
1.57000000000000e+00 3.15350341615765e-01 3.08323873899422e-02
1.57666666666667e+00 3.12426480432476e-01 3.08353519222246e-02
1.58333333333333e+00 3.09505609627035e-01 3.08361982309295e-02
1.59000000000000e+00 3.06587896136962e-01 3.08349627678087e-02
1.59666666666667e+00 3.03673503237630e-01 3.08316801830110e-02
1.60333333333333e+00 3.00762590730192e-01 3.08310379854115e-02
1.61000000000000e+00 2.97853340500960e-01 3.08343686604940e-02
1.61666666666667e+00 2.94945662987295e-01 3.08406012021131e-02
1.62333333333333e+00 2.92039040237616e-01 3.08518944756693e-02
1.63000000000000e+00 2.89132977612206e-01 3.08680144368037e-02
1.63666666666667e+00 2.86227003623987e-01 3.08887280020654e-02
1.64333333333333e+00 2.83320669740093e-01 3.09138034922671e-02
1.65000000000000e+00 2.80413550145433e-01 3.09430110629584e-02
1.65666666666667e+00 2.77505241469628e-01 3.09761231211885e-02
1.66333333333333e+00 2.74595362478660e-01 3.10129147282520e-02
1.67000000000000e+00 2.71683553732634e-01 3.10531639882960e-02
1.67666666666667e+00 2.68769477211005e-01 3.10966524226884e-02
1.68333333333333e+00 2.65852815906654e-01 3.11431653300237e-02
1.69000000000000e+00 2.62933273390188e-01 3.11924921310179e-02
1.69666666666667e+00 2.60010573345947e-01 3.12444266926312e-02
1.70333333333333e+00 2.57084459082136e-01 3.13021934430195e-02
1.71000000000000e+00 2.54152938884684e-01 3.13617449604629e-02
1.71666666666667e+00 2.51216508538711e-01 3.14130942663608e-02
1.72333333333333e+00 2.48276156182066e-01 3.14537343890281e-02
1.73000000000000e+00 2.45332846197772e-01 3.14839165496219e-02
1.73666666666667e+00 2.42387519304831e-01 3.15038915682386e-02
1.74333333333333e+00 2.39441092665261e-01 3.15139096618583e-02
1.75000000000000e+00 2.36494460006891e-01 3.15142202493505e-02
1.75666666666667e+00 2.33548491761150e-01 3.15050717650207e-02
1.76333333333333e+00 2.30604035215132e-01 3.14867114806504e-02
1.77000000000000e+00 2.27661914677185e-01 3.14593853357981e-02
1.77666666666667e+00 2.24722931655333e-01 3.14233377761564e-02
1.78333333333333e+00 2.21787865047837e-01 3.13788115994825e-02
1.79000000000000e+00 2.18857471345302e-01 3.13260478035858e-02
1.79666666666667e+00 2.15932484844653e-01 3.12652853975427e-02
1.80333333333333e+00 2.13013617881658e-01 3.12129614006814e-02
1.81000000000000e+00 2.10090764561331e-01 3.11652363072081e-02
1.81666666666667e+00 2.07165391248955e-01 3.11021666453817e-02
1.82333333333333e+00 2.04238919795759e-01 3.10243265769520e-02
1.83000000000000e+00 2.01312731826338e-01 3.09322615122909e-02
1.83666666666667e+00 1.98388168867711e-01 3.08265101795535e-02
1.84333333333333e+00 1.95466532513234e-01 3.07076043065455e-02
1.85000000000000e+00 1.92549084619356e-01 3.05760683319893e-02
1.85666666666667e+00 1.89637047532914e-01 3.04324191463987e-02
1.86333333333333e+00 1.86731604346792e-01 3.02771658605915e-02
1.87000000000000e+00 1.83833899181936e-01 3.01108095999631e-02
1.87666666666667e+00 1.80945037493792e-01 2.99338433227723e-02
1.88333333333333e+00 1.78066086401420e-01 2.97467516608514e-02
1.89000000000000e+00 1.75198075037567e-01 2.95500107822118e-02
1.89666666666667e+00 1.72341994917967e-01 2.93440882812335e-02
1.90333333333333e+00 1.69498800326970e-01 2.91260450684379e-02
1.91000000000000e+00 1.66671106082112e-01 2.88911869305447e-02
1.91666666666667e+00 1.63860777896925e-01 2.86397381579508e-02
1.92333333333333e+00 1.61069367026739e-01 2.83736836520858e-02
1.93000000000000e+00 1.58298373580077e-01 2.80936509958406e-02
1.93666666666667e+00 1.55549246454231e-01 2.78002626954971e-02
1.94333333333333e+00 1.52823383364913e-01 2.74941352567559e-02
1.95000000000000e+00 1.50122130966462e-01 2.71758783098133e-02
1.95666666666667e+00 1.47446785059192e-01 2.68460937817295e-02
1.96333333333333e+00 1.44798590880553e-01 2.65053751150509e-02
1.97000000000000e+00 1.42178743476786e-01 2.61543065317085e-02
1.97666666666667e+00 1.39588388151814e-01 2.57934623415848e-02
1.98333333333333e+00 1.37028620990528e-01 2.54234062971432e-02
1.99000000000000e+00 1.34500489455463e-01 2.50446909916021e-02
1.99666666666667e+00 1.32004993053319e-01 2.46578572763726e-02
2.00333333333333e+00 1.29543084050965e-01 2.42676051751812e-02
2.01000000000000e+00 1.27115690462448e-01 2.38793907783563e-02
2.01666666666667e+00 1.24722627476270e-01 2.34933797467285e-02
2.02333333333333e+00 1.22363912089297e-01 2.31086574882409e-02
2.03000000000000e+00 1.20039543774025e-01 2.27253931787890e-02
2.03666666666667e+00 1.17749505167392e-01 2.23437478484877e-02
2.04333333333333e+00 1.15493762745301e-01 2.19638745932177e-02
2.05000000000000e+00 1.13272267483011e-01 2.15859187831217e-02
2.05666666666667e+00 1.11084955501508e-01 2.12100182681987e-02
2.06333333333333e+00 1.08931748699994e-01 2.08363035809677e-02
2.07000000000000e+00 1.06812555374604e-01 2.04648981361319e-02
2.07666666666667e+00 1.04727270823502e-01 2.00959184271412e-02
2.08333333333333e+00 1.02675777938508e-01 1.97294742196640e-02
2.09000000000000e+00 1.00657947783377e-01 1.93656687429964e-02
2.09666666666667e+00 9.86736401586915e-02 1.90045988871731e-02
2.10333333333333e+00 9.67227041518844e-02 1.86529013346136e-02
