Energy (eV)          EEDF (eV^-(3/2))     First Anisotropy
1.43333333333333e-03 4.95165872173807e+00 2.67883823689827e-03
4.30000000000000e-03 4.91365887214672e+00 4.42141383215945e-03
7.16666666666667e-03 4.87595063977330e+00 5.83118156255215e-03
1.00333333333333e-02 4.83853178660674e+00 6.89879952554990e-03
1.29000000000000e-02 4.80140009179521e+00 7.78640203979515e-03
1.57666666666667e-02 4.76455335195512e+00 8.55536179220301e-03
1.86333333333333e-02 4.72798938003273e+00 9.23747451245384e-03
2.15000000000000e-02 4.69170600602680e+00 9.85196147367180e-03
2.43666666666667e-02 4.65570107675220e+00 1.04115842130290e-02
2.72333333333333e-02 4.61997245522651e+00 1.09253718856805e-02
3.01000000000000e-02 4.58451802102133e+00 1.14000153544311e-02
3.29666666666667e-02 4.54933567009273e+00 1.18406508953946e-02
3.58333333333333e-02 4.51442331432265e+00 1.22513328406557e-02
3.87000000000000e-02 4.47977888172530e+00 1.26353346425267e-02
4.15666666666667e-02 4.44540031629998e+00 1.29953492663419e-02
4.44333333333333e-02 4.41128557765721e+00 1.33336273333024e-02
4.73000000000000e-02 4.37743264114775e+00 1.36520752703009e-02
5.01666666666667e-02 4.34383949772691e+00 1.39523268950015e-02
5.30333333333333e-02 4.31050415363475e+00 1.42357966874016e-02
5.59000000000000e-02 4.27742463047736e+00 1.45037202254156e-02
5.87666666666667e-02 4.24459896509864e+00 1.47571854461678e-02
6.16333333333333e-02 4.21202520929828e+00 1.49971570899359e-02
6.45000000000000e-02 4.17970142988109e+00 1.52244960993677e-02
6.73666666666667e-02 4.14762570853424e+00 1.54399752462030e-02
7.02333333333333e-02 4.11579614157348e+00 1.56442917757363e-02
7.31000000000000e-02 4.08421083996978e+00 1.58380777694036e-02
7.59666666666667e-02 4.05286792923102e+00 1.60219087565544e-02
7.88333333333333e-02 4.02176554917026e+00 1.61963108557560e-02
8.17000000000000e-02 3.99090185391562e+00 1.63617667713170e-02
8.45666666666667e-02 3.96027501179587e+00 1.65187209036348e-02
8.74333333333333e-02 3.92988320512640e+00 1.66675836628345e-02
9.03000000000000e-02 3.89972463020658e+00 1.68087351605024e-02
9.31666666666667e-02 3.86979749720865e+00 1.69425284240238e-02
9.60333333333333e-02 3.84010002997850e+00 1.70692921442984e-02
9.89000000000000e-02 3.81063046602327e+00 1.71893330528407e-02
1.01766666666667e-01 3.78138705648275e+00 1.73029380841945e-02
1.04633333333333e-01 3.75236806562459e+00 1.74103761599268e-02
1.07500000000000e-01 3.72357177122518e+00 1.75118997431098e-02
1.10366666666667e-01 3.69499646452572e+00 1.76077464403711e-02
1.13233333333333e-01 3.66664044938541e+00 1.76981401768011e-02
1.16100000000000e-01 3.63850204292668e+00 1.77832922216144e-02
1.18966666666667e-01 3.61057957541108e+00 1.78634024015358e-02
1.21833333333333e-01 3.58287138946595e+00 1.79386599044809e-02
1.24700000000000e-01 3.55537584066094e+00 1.80092439931085e-02
1.27566666666667e-01 3.52809129738941e+00 1.80753249282637e-02
1.30433333333333e-01 3.50101614015835e+00 1.81370645348451e-02
1.33300000000000e-01 3.47414876210632e+00 1.81946167068526e-02
1.36166666666667e-01 3.44748756888964e+00 1.82481281312192e-02
1.39033333333333e-01 3.42103097802736e+00 1.82977386918829e-02
1.41900000000000e-01 3.39477741936864e+00 1.83435818317872e-02
1.44766666666667e-01 3.36872533498333e+00 1.83857851351665e-02
1.47633333333333e-01 3.34287317855517e+00 1.84244706188822e-02
1.50500000000000e-01 3.31721941580527e+00 1.84597549940317e-02
1.53366666666667e-01 3.29176252438661e+00 1.84917501451815e-02
1.56233333333333e-01 3.26650099331993e+00 1.85205633415195e-02
1.59100000000000e-01 3.24143332337876e+00 1.85462974266283e-02
1.61966666666667e-01 3.21655802698755e+00 1.85690512208816e-02
1.64833333333333e-01 3.19187362769551e+00 1.85889196745613e-02
1.67700000000000e-01 3.16737866052779e+00 1.86059940053596e-02
1.70566666666667e-01 3.14307167188698e+00 1.86203620422342e-02
1.73433333333333e-01 3.11895121906088e+00 1.86321083358809e-02
1.76300000000000e-01 3.09501587054377e+00 1.86413142576500e-02
1.79166666666667e-01 3.07126420594097e+00 1.86480582979164e-02
1.82033333333333e-01 3.04769481550724e+00 1.86524161448053e-02
1.84900000000000e-01 3.02430630044136e+00 1.86544607542761e-02
1.87766666666667e-01 3.00109727279355e+00 1.86542626125023e-02
1.90633333333333e-01 2.97806635503166e+00 1.86518897907067e-02
1.93500000000000e-01 2.95521218031178e+00 1.86474079934722e-02
1.96366666666667e-01 2.93253339238845e+00 1.86408807921702e-02
1.99233333333333e-01 2.91002864520602e+00 1.86323696616481e-02
2.02100000000000e-01 2.88769660314781e+00 1.86219340119595e-02
2.04966666666667e-01 2.86553594094889e+00 1.86096313981373e-02
2.07833333333333e-01 2.84354534331048e+00 1.85955175429932e-02
2.10700000000000e-01 2.82172350512969e+00 1.85796463561318e-02
2.13566666666667e-01 2.80006913141483e+00 1.85620701241244e-02
2.16433333333333e-01 2.77858093692082e+00 1.85428395226157e-02
2.19300000000000e-01 2.75725764636147e+00 1.85220036255297e-02
2.22166666666667e-01 2.73609799432708e+00 1.84996100787945e-02
2.25033333333333e-01 2.71510072493929e+00 1.84757051041789e-02
2.27900000000000e-01 2.69426459204738e+00 1.84503335009082e-02
2.30766666666667e-01 2.67358835914820e+00 1.84235388054098e-02
2.33633333333333e-01 2.65307079905879e+00 1.83953632887375e-02
2.36500000000000e-01 2.63271069409832e+00 1.83658479523013e-02
2.39366666666667e-01 2.61250683601006e+00 1.83350326756064e-02
2.42233333333333e-01 2.59245802565060e+00 1.83029562087007e-02
2.45100000000000e-01 2.57256307315854e+00 1.82696561633354e-02
2.47966666666667e-01 2.55282079787853e+00 1.82351691502841e-02
2.50833333333333e-01 2.53323002806584e+00 1.81995307679321e-02
2.53700000000000e-01 2.51378960104292e+00 1.81627755899010e-02
2.56566666666667e-01 2.49449836312550e+00 1.81249372932374e-02
2.59433333333333e-01 2.47535516934130e+00 1.80860486440244e-02
2.62300000000000e-01 2.45635888357559e+00 1.80461414822781e-02
2.65166666666667e-01 2.43750837849919e+00 1.80052468420691e-02
2.68033333333333e-01 2.41880253530042e+00 1.79633949348514e-02
2.70900000000000e-01 2.40024024382051e+00 1.79206151322670e-02
2.73766666666667e-01 2.38182040248344e+00 1.78769360790867e-02
2.76633333333333e-01 2.36354191804027e+00 1.78323856748065e-02
2.79500000000000e-01 2.34540370569521e+00 1.77869910548702e-02
2.82366666666667e-01 2.32740468903719e+00 1.77407786971738e-02
2.85233333333333e-01 2.30954379979585e+00 1.76937744023597e-02
2.88100000000000e-01 2.29181997795890e+00 1.76460032738659e-02
2.90966666666667e-01 2.27423217170549e+00 1.75974898186240e-02
2.93833333333333e-01 2.25677933717300e+00 1.75482579264038e-02
2.96700000000000e-01 2.23946043856643e+00 1.74983308490119e-02
2.99566666666667e-01 2.22227444809350e+00 1.74477312957192e-02
3.02433333333333e-01 2.20522034574155e+00 1.73964814119351e-02
3.05300000000000e-01 2.18829711937963e+00 1.73446027578213e-02
3.08166666666667e-01 2.17150376469517e+00 1.72921163989045e-02
3.11033333333333e-01 2.15483928498046e+00 1.72390428843138e-02
3.13900000000000e-01 2.13830269122797e+00 1.71854022250135e-02
3.16766666666667e-01 2.12189300206854e+00 1.71312139800040e-02
3.19633333333333e-01 2.10560924356688e+00 1.70764972343033e-02
3.22500000000000e-01 2.08945044931057e+00 1.70212705769716e-02
3.25366666666667e-01 2.07341566034979e+00 1.69655521832425e-02
3.28233333333333e-01 2.05750392500131e+00 1.69093597923966e-02
3.31100000000000e-01 2.04171429893162e+00 1.68527106857193e-02
3.33966666666667e-01 2.02604584509814e+00 1.67956217648726e-02
3.36833333333333e-01 2.01049763356121e+00 1.67381095297709e-02
3.39700000000000e-01 1.99506874156183e+00 1.66801900565803e-02
3.42566666666667e-01 1.97975825346422e+00 1.66218790726041e-02
3.45433333333333e-01 1.96456526057548e+00 1.65631919342615e-02
3.48300000000000e-01 1.94948886121819e+00 1.65041436052153e-02
3.51166666666667e-01 1.93452816067441e+00 1.64447487280069e-02
3.54033333333333e-01 1.91968227101250e+00 1.63850216022164e-02
3.56900000000000e-01 1.90495031115498e+00 1.63249761627918e-02
3.59766666666667e-01 1.89033140682395e+00 1.62646260486467e-02
3.62633333333333e-01 1.87582469037462e+00 1.62039845810634e-02
3.65500000000000e-01 1.86142930085883e+00 1.61430647422804e-02
3.68366666666667e-01 1.84714438397180e+00 1.60818792412447e-02
3.71233333333333e-01 1.83296909189205e+00 1.60204404923081e-02
3.74100000000000e-01 1.81890258334088e+00 1.59587605941168e-02
3.76966666666667e-01 1.80494402353034e+00 1.58968513926927e-02
3.79833333333333e-01 1.79109258400934e+00 1.58347244604613e-02
3.82700000000000e-01 1.77734744271925e+00 1.57723910754785e-02
3.85566666666667e-01 1.76370778394313e+00 1.57098622820024e-02
3.88433333333333e-01 1.75017279815769e+00 1.56471488698760e-02
3.91300000000000e-01 1.73674168208524e+00 1.55842613541227e-02
3.94166666666667e-01 1.72341363864425e+00 1.55212100331481e-02
3.97033333333333e-01 1.71018787680668e+00 1.54580049685060e-02
3.99900000000000e-01 1.69706361164677e+00 1.53946559648818e-02
4.02766666666667e-01 1.68404006429263e+00 1.53311726260533e-02
4.05633333333333e-01 1.67111646178896e+00 1.52675643350577e-02
4.08500000000000e-01 1.65829203714258e+00 1.52038402345775e-02
4.11366666666667e-01 1.64556602927532e+00 1.51400092807839e-02
4.14233333333333e-01 1.63293768289162e+00 1.50760802239146e-02
4.17100000000000e-01 1.62040624852127e+00 1.50120615890744e-02
4.19966666666667e-01 1.60797098247326e+00 1.49479617280691e-02
4.22833333333333e-01 1.59563114670833e+00 1.48837888004044e-02
4.25700000000000e-01 1.58338600887885e+00 1.48195507545069e-02
4.28566666666667e-01 1.57123484228383e+00 1.47552553776512e-02
4.31433333333333e-01 1.55917692574600e+00 1.46909102773878e-02
4.34300000000000e-01 1.54721154364913e+00 1.46265228631874e-02
4.37166666666667e-01 1.53533798589413e+00 1.45621003945539e-02
4.40033333333333e-01 1.52355554778044e+00 1.44976499628819e-02
4.42900000000000e-01 1.51186353004100e+00 1.44331784735295e-02
4.45766666666667e-01 1.50026123879935e+00 1.43686926922043e-02
4.48633333333333e-01 1.48874798545519e+00 1.43041992272488e-02
4.51500000000000e-01 1.47732308671709e+00 1.42397045121439e-02
4.54366666666667e-01 1.46598586456063e+00 1.41752148502479e-02
4.57233333333333e-01 1.45473564611791e+00 1.41107363975086e-02
4.60100000000000e-01 1.44357176370815e+00 1.40462751453920e-02
4.62966666666667e-01 1.43249355479683e+00 1.39818369640539e-02
4.65833333333333e-01 1.42150036188901e+00 1.39174275854766e-02
4.68700000000000e-01 1.41059153255791e+00 1.38530525868193e-02
4.71566666666667e-01 1.39976641940506e+00 1.37887174320893e-02
4.74433333333333e-01 1.38902437995721e+00 1.37244274556999e-02
4.77300000000000e-01 1.37836477669313e+00 1.36601878462397e-02
4.80166666666667e-01 1.36778697700456e+00 1.35960036867090e-02
4.83033333333333e-01 1.35729035309678e+00 1.35318799384948e-02
4.85900000000000e-01 1.34687428201352e+00 1.34678214255512e-02
4.88766666666667e-01 1.33653814559892e+00 1.34038328732657e-02
4.91633333333333e-01 1.32628133040137e+00 1.33399188928432e-02
4.94500000000000e-01 1.31610322769682e+00 1.32760839658926e-02
4.97366666666667e-01 1.30600323345164e+00 1.32123324819797e-02
5.00233333333333e-01 1.29598074822963e+00 1.31486687234148e-02
5.03100000000000e-01 1.28603517721382e+00 1.30850968502374e-02
5.05966666666667e-01 1.27616593017016e+00 1.30216209365134e-02
5.08833333333333e-01 1.26637242135766e+00 1.29582449555172e-02
5.11700000000000e-01 1.25665406954869e+00 1.28949727651072e-02
5.14566666666667e-01 1.24701029799355e+00 1.28318081428178e-02
5.17433333333333e-01 1.23744053433355e+00 1.27687547714309e-02
5.20300000000000e-01 1.22794421061993e+00 1.27058162247354e-02
5.23166666666667e-01 1.21852076327929e+00 1.26429960014601e-02
5.26033333333333e-01 1.20916963302948e+00 1.25802975112267e-02
5.28900000000000e-01 1.19989026489726e+00 1.25177240606856e-02
5.31766666666667e-01 1.19068210818450e+00 1.24552788863383e-02
5.34633333333333e-01 1.18154461638684e+00 1.23929651408622e-02
5.37500000000000e-01 1.17247724721008e+00 1.23307858796151e-02
5.40366666666667e-01 1.16347946253727e+00 1.22687440923900e-02
5.43233333333333e-01 1.15455072834986e+00 1.22068426901033e-02
5.46100000000000e-01 1.14569051474307e+00 1.21450844916602e-02
5.48966666666667e-01 1.13689829589365e+00 1.20834722546837e-02
5.51833333333333e-01 1.12817354998363e+00 1.20220086625589e-02
5.54700000000000e-01 1.11951575921460e+00 1.19606963116503e-02
5.57566666666667e-01 1.11092440977615e+00 1.18995377410433e-02
5.60433333333333e-01 1.10239899177215e+00 1.18385354199362e-02
5.63300000000000e-01 1.09393899923392e+00 1.17776917352014e-02
5.66166666666667e-01 1.08554393008953e+00 1.17170090201787e-02
5.69033333333333e-01 1.07721328609227e+00 1.16564895424060e-02
5.71900000000000e-01 1.06894657283295e+00 1.15961354915134e-02
5.74766666666667e-01 1.06074329970991e+00 1.15359490071049e-02
5.77633333333333e-01 1.05260297985971e+00 1.14759321668208e-02
5.80500000000000e-01 1.04452513016859e+00 1.14160869745571e-02
5.83366666666667e-01 1.03650927124309e+00 1.13564153874695e-02
5.86233333333333e-01 1.02855492734300e+00 1.12969193043566e-02
5.89100000000000e-01 1.02066162639188e+00 1.12376005541990e-02
5.91966666666667e-01 1.01282889994846e+00 1.11784609223148e-02
5.94833333333333e-01 1.00505628314159e+00 1.11195021390576e-02
5.97700000000000e-01 9.97343314680021e-01 1.10607258686677e-02
6.00566666666667e-01 9.89689536824436e-01 1.10021337346083e-02
6.03433333333333e-01 9.82094495324435e-01 1.09437273085732e-02
6.06300000000000e-01 9.74557739427562e-01 1.08855080996375e-02
6.09166666666667e-01 9.67078821851956e-01 1.08274775788097e-02
6.12033333333333e-01 9.59657298725315e-01 1.07696371683338e-02
6.14900000000000e-01 9.52292729593193e-01 1.07119882311373e-02
6.17766666666667e-01 9.44984677392294e-01 1.06545320946246e-02
6.20633333333333e-01 9.37732708391299e-01 1.05972700402686e-02
6.23500000000000e-01 9.30536392198503e-01 1.05402032933454e-02
6.26366666666667e-01 9.23395301735727e-01 1.04833330459964e-02
6.29233333333333e-01 9.16309013180943e-01 1.04266604471027e-02
6.32100000000000e-01 9.09277105975290e-01 1.03701865922980e-02
6.34966666666667e-01 9.02299162797588e-01 1.03139125463239e-02
6.37833333333333e-01 8.95374769508706e-01 1.02578393331814e-02
6.40700000000000e-01 8.88503515157982e-01 1.02019679264140e-02
6.43566666666667e-01 8.81684991958335e-01 1.01462992707824e-02
6.46433333333333e-01 8.74918795232301e-01 1.00908342726829e-02
6.49300000000000e-01 8.68204523417908e-01 1.00355737906954e-02
6.52166666666667e-01 8.61541778044359e-01 9.98051865659871e-03
6.55033333333333e-01 8.54930163679690e-01 9.92566966605152e-03
6.57900000000000e-01 8.48369287936121e-01 9.87102756939546e-03
6.60766666666667e-01 8.41858761446304e-01 9.81659309203602e-03
6.63633333333333e-01 8.35398197812541e-01 9.76236692537575e-03
6.66500000000000e-01 8.28987213611649e-01 9.70834971786915e-03
6.69366666666667e-01 8.22625428371755e-01 9.65454209478926e-03
6.72233333333333e-01 8.16312464523025e-01 9.60094464940667e-03
6.75100000000000e-01 8.10047947402063e-01 9.54755793428741e-03
6.77966666666667e-01 8.03831505229250e-01 9.49438248046736e-03
6.80833333333333e-01 7.97662769060922e-01 9.44141878887038e-03
6.83700000000000e-01 7.91541372793346e-01 9.38866732184318e-03
6.86566666666667e-01 7.85466953140572e-01 9.33612852175575e-03
6.89433333333333e-01 7.79439149588032e-01 9.28380280265330e-03
6.92300000000000e-01 7.73457604396095e-01 9.23169054202133e-03
6.95166666666667e-01 7.67521962578439e-01 9.17979209883125e-03
6.98033333333333e-01 7.61631871857010e-01 9.12810780541995e-03
7.00900000000000e-01 7.55786982665191e-01 9.07663795947698e-03
7.03766666666667e-01 7.49986948126680e-01 9.02538284155591e-03
7.06633333333333e-01 7.44231424011755e-01 8.97434270717345e-03
7.09500000000000e-01 7.38520068740095e-01 8.92351777901527e-03
7.12366666666667e-01 7.32852543360133e-01 8.87290826392835e-03
7.15233333333333e-01 7.27228511506607e-01 8.82251434523445e-03
7.18100000000000e-01 7.21647639403029e-01 8.77233617514759e-03
7.20966666666667e-01 7.16109595841526e-01 8.72237389126553e-03
7.23833333333333e-01 7.10614052141612e-01 8.67262760909109e-03
7.26700000000000e-01 7.05160682152349e-01 8.62309741465601e-03
7.29566666666667e-01 6.99749162232642e-01 8.57378338052635e-03
7.32433333333333e-01 6.94379171211213e-01 8.52468555852685e-03
7.35300000000000e-01 6.89050390388455e-01 8.47580397256534e-03
7.38166666666667e-01 6.83762503517187e-01 8.42713863416929e-03
7.41033333333333e-01 6.78515196763776e-01 8.37868953540664e-03
7.43900000000000e-01 6.73308158709711e-01 8.33045664190431e-03
7.46766666666667e-01 6.68141080332804e-01 8.28243990793072e-03
7.49633333333333e-01 6.63013654969425e-01 8.23463926950837e-03
7.52500000000000e-01 6.57925578315814e-01 8.18705463762048e-03
7.55366666666667e-01 6.52876548409715e-01 8.13968591285478e-03
7.58233333333333e-01 6.47866265593690e-01 8.09253297870345e-03
7.61100000000000e-01 6.42894432516186e-01 8.04559569495158e-03
7.63966666666667e-01 6.37960754113588e-01 7.99887391189682e-03
7.66833333333333e-01 6.33064937574582e-01 7.95236746382823e-03
7.69700000000000e-01 6.28206692340987e-01 7.90607616259559e-03
7.72566666666667e-01 6.23385730090227e-01 7.85999981141577e-03
7.75433333333333e-01 6.18601764700699e-01 7.81413819852838e-03
7.78300000000000e-01 6.13854512252395e-01 7.76849109093900e-03
7.81166666666667e-01 6.09143691009767e-01 7.72305824782469e-03
7.84033333333333e-01 6.04469021388090e-01 7.67783941436230e-03
7.86900000000000e-01 5.99830225953867e-01 7.63283431563969e-03
7.89766666666667e-01 5.95227029408096e-01 7.58804266967557e-03
7.92633333333333e-01 5.90659158553581e-01 7.54346418141341e-03
7.95500000000000e-01 5.86126342295145e-01 7.49909853679668e-03
7.98366666666667e-01 5.81628311623285e-01 7.45494541541591e-03
8.01233333333333e-01 5.77164799582398e-01 7.41100448466292e-03
8.04100000000000e-01 5.72735541270820e-01 7.36727539396479e-03
8.06966666666667e-01 5.68340273824858e-01 7.32375778706891e-03
8.09833333333333e-01 5.63978736387902e-01 7.28045129635452e-03
8.12700000000000e-01 5.59650670110304e-01 7.23735553722291e-03
8.15566666666667e-01 5.55355818133772e-01 7.19447012002947e-03
8.18433333333333e-01 5.51093925561352e-01 7.15179464454854e-03
8.21300000000000e-01 5.46864739457142e-01 7.10932869451437e-03
8.24166666666667e-01 5.42668008831054e-01 7.06707184921259e-03
8.27033333333333e-01 5.38503484609630e-01 7.02502367809388e-03
8.29900000000000e-01 5.34370919635609e-01 6.98318373546073e-03
8.32766666666667e-01 5.30270068653042e-01 6.94155157172896e-03
8.35633333333333e-01 5.26200688278918e-01 6.90012672818669e-03
8.38500000000000e-01 5.22162537002599e-01 6.85890873182378e-03
8.41366666666667e-01 5.18155375171272e-01 6.81789710627200e-03
8.44233333333333e-01 5.14178964962367e-01 6.77709136670508e-03
8.47100000000000e-01 5.10233070382862e-01 6.73649101480603e-03
8.49966666666667e-01 5.06317457255073e-01 6.69609554939842e-03
8.52833333333333e-01 5.02431893189834e-01 6.65590446148301e-03
8.55700000000000e-01 4.98576147585683e-01 6.61591722933844e-03
8.58566666666667e-01 4.94749991614979e-01 6.57613332885274e-03
8.61433333333333e-01 4.90953198197824e-01 6.53655222869138e-03
8.64300000000000e-01 4.87185542001140e-01 6.49717338553060e-03
8.67166666666667e-01 4.83446799425103e-01 6.45799625409662e-03
8.70033333333333e-01 4.79736748577785e-01 6.41902028246267e-03
8.72900000000000e-01 4.76055169274126e-01 6.38024490740968e-03
8.75766666666667e-01 4.72401843022689e-01 6.34166956418297e-03
8.78633333333333e-01 4.68776553000983e-01 6.30329368191434e-03
8.81500000000000e-01 4.65179084054360e-01 6.26511667910654e-03
8.84366666666667e-01 4.61609222683056e-01 6.22713797311558e-03
8.87233333333333e-01 4.58066757018205e-01 6.18935697569554e-03
8.90100000000000e-01 4.54551476820639e-01 6.15177308860327e-03
8.92966666666667e-01 4.51063173468231e-01 6.11438571281388e-03
8.95833333333333e-01 4.47601639932566e-01 6.07719424418483e-03
8.98700000000000e-01 4.44166670777654e-01 6.04019806917728e-03
9.01566666666667e-01 4.40758062147574e-01 6.00339657381412e-03
9.04433333333333e-01 4.37375611743770e-01 5.96678913945892e-03
