Energy (eV)          EEDF (eV^-(3/2))     First Anisotropy
1.50000000000000e-02 1.80986176163915e-01 1.08511743551215e-04
4.50000000000000e-02 1.79385628406974e-01 1.78993166938078e-04
7.50000000000000e-02 1.77799235063167e-01 2.35786966212985e-04
1.05000000000000e-01 1.76226870958269e-01 2.78627962327916e-04
1.35000000000000e-01 1.74668412024989e-01 3.14105790275685e-04
1.65000000000000e-01 1.73123735293213e-01 3.44719175435653e-04
1.95000000000000e-01 1.71592718880310e-01 3.71764793324464e-04
2.25000000000000e-01 1.70075241981514e-01 3.96027783243763e-04
2.55000000000000e-01 1.68571184860394e-01 4.18030250404672e-04
2.85000000000000e-01 1.67080428839406e-01 4.38142181675123e-04
3.15000000000000e-01 1.65602856290527e-01 4.56638177374945e-04
3.45000000000000e-01 1.64138350625975e-01 4.73729361041950e-04
3.75000000000000e-01 1.62686796289013e-01 4.89582638207866e-04
4.05000000000000e-01 1.61248078744823e-01 5.04332971818821e-04
4.35000000000000e-01 1.59822084471478e-01 5.18091555460031e-04
4.65000000000000e-01 1.58408700950976e-01 5.30951453324554e-04
4.95000000000000e-01 1.57007816660368e-01 5.42991610104491e-04
5.25000000000000e-01 1.55619321062957e-01 5.54279775155486e-04
5.55000000000000e-01 1.54243104599572e-01 5.64874681941396e-04
5.85000000000000e-01 1.52879058679929e-01 5.74827703549173e-04
6.15000000000000e-01 1.51527075674059e-01 5.84184131367302e-04
6.45000000000000e-01 1.50187048903818e-01 5.92984177399245e-04
6.75000000000000e-01 1.48858872634464e-01 6.01263770365440e-04
7.05000000000000e-01 1.47542442066324e-01 6.09055195546485e-04
7.35000000000000e-01 1.46237653326515e-01 6.16387614564446e-04
7.65000000000000e-01 1.44944403460752e-01 6.23287491748792e-04
7.95000000000000e-01 1.43662590425225e-01 6.29778946985417e-04
8.25000000000000e-01 1.42392113078548e-01 6.35884050102514e-04
8.55000000000000e-01 1.41132871173774e-01 6.41623068317992e-04
8.85000000000000e-01 1.39884765350490e-01 6.47014675668568e-04
9.15000000000000e-01 1.38647697126974e-01 6.52076131394421e-04
9.45000000000000e-01 1.37421568892425e-01 6.56823432782444e-04
9.75000000000000e-01 1.36206283899262e-01 6.61271446848172e-04
1.00500000000000e+00 1.35001746255489e-01 6.65434024370918e-04
1.03500000000000e+00 1.33807860917129e-01 6.69324099123062e-04
1.06500000000000e+00 1.32624533680724e-01 6.72953774605978e-04
1.09500000000000e+00 1.31451671175904e-01 6.76334400187670e-04
1.12500000000000e+00 1.30289180858017e-01 6.79476638204266e-04
1.15500000000000e+00 1.29136971000828e-01 6.82390523320820e-04
1.18500000000000e+00 1.27994950689281e-01 6.85085515231384e-04
1.21500000000000e+00 1.26863029812325e-01 6.87570545603485e-04
1.24500000000000e+00 1.25741119055806e-01 6.89854060029214e-04
1.27500000000000e+00 1.24629129895417e-01 6.91944055627594e-04
1.30500000000000e+00 1.23526974589713e-01 6.93848114846284e-04
1.33500000000000e+00 1.22434566173191e-01 6.95573435930069e-04
1.36500000000000e+00 1.21351818449424e-01 6.97126860456513e-04
1.39500000000000e+00 1.20278645984262e-01 6.98514898283223e-04
1.42500000000000e+00 1.19214964099091e-01 6.99743750203623e-04
1.45500000000000e+00 1.18160688864149e-01 7.00819328568669e-04
1.48500000000000e+00 1.17115737091907e-01 7.01747276098033e-04
1.51500000000000e+00 1.16080026330502e-01 7.02532983075348e-04
1.54500000000000e+00 1.15053474857233e-01 7.03181603097800e-04
1.57500000000000e+00 1.14036001672112e-01 7.03698067529324e-04
1.60500000000000e+00 1.13027526491473e-01 7.04087098788480e-04
1.63500000000000e+00 1.12027969741637e-01 7.04353222586611e-04
1.66500000000000e+00 1.11037252552634e-01 7.04500779218410e-04
1.69500000000000e+00 1.10055296751977e-01 7.04533933995229e-04
1.72500000000000e+00 1.09082024858498e-01 7.04456686901613e-04
1.75500000000000e+00 1.08117360076231e-01 7.04272881546348e-04
1.78500000000000e+00 1.07161226288354e-01 7.03986213471735e-04
1.81500000000000e+00 1.06213548051183e-01 7.03600237878095e-04
1.84500000000000e+00 1.05274250588219e-01 7.03118376814353e-04
1.87500000000000e+00 1.04343259784246e-01 7.02543925880603e-04
1.90500000000000e+00 1.03420502179486e-01 7.01880060483636e-04
1.93500000000000e+00 1.02505904963800e-01 7.01129841682320e-04
1.96500000000000e+00 1.01599395970946e-01 7.00296221656599e-04
1.99500000000000e+00 1.00700903672880e-01 6.99382048829918e-04
2.02500000000000e+00 9.98103571741172e-02 6.98390072672537e-04
2.05500000000000e+00 9.89276862061344e-02 6.97322948210624e-04
2.08500000000000e+00 9.80528211218273e-02 6.96183240263217e-04
2.11500000000000e+00 9.71856928900141e-02 6.94973427428033e-04
2.14500000000000e+00 9.63262330899889e-02 6.93695905834336e-04
2.17500000000000e+00 9.54743739061234e-02 6.92352992679999e-04
2.20500000000000e+00 9.46300481225151e-02 6.90946929568327e-04
2.23500000000000e+00 9.37931891176843e-02 6.89479885658755e-04
2.26500000000000e+00 9.29637308593167e-02 6.87953960644375e-04
2.29500000000000e+00 9.21416078990538e-02 6.86371187568244e-04
2.32500000000000e+00 9.13267553673285e-02 6.84733535489548e-04
2.35500000000000e+00 9.05191089682461e-02 6.83042912009477e-04
2.38500000000000e+00 8.97186049745117e-02 6.81301165666142e-04
2.41500000000000e+00 8.89251802224014e-02 6.79510088207027e-04
2.44500000000000e+00 8.81387721067785e-02 6.77671416746913e-04
2.47500000000000e+00 8.73593185761536e-02 6.75786835818354e-04
2.50500000000000e+00 8.65867581277884e-02 6.73857979321766e-04
2.53500000000000e+00 8.58210298028431e-02 6.71886432380970e-04
2.56500000000000e+00 8.50620731815658e-02 6.69873733109946e-04
2.59500000000000e+00 8.43098283785258e-02 6.67821374296529e-04
2.62500000000000e+00 8.35642360378882e-02 6.65730805007596e-04
2.65500000000000e+00 8.28252373287299e-02 6.63603432120457e-04
2.68500000000000e+00 8.20927739403982e-02 6.61440621784714e-04
2.71500000000000e+00 8.13667880779095e-02 6.59243700818616e-04
2.74500000000000e+00 8.06472224573889e-02 6.57013958043600e-04
2.77500000000000e+00 7.99340203015505e-02 6.54752645560429e-04
2.80500000000000e+00 7.92271253352171e-02 6.52460979970108e-04
2.83500000000000e+00 7.85264817808800e-02 6.50140143542684e-04
2.86500000000000e+00 7.78320343542979e-02 6.47791285336726e-04
2.89500000000000e+00 7.71437282601344e-02 6.45415522272027e-04
2.92500000000000e+00 7.64615091876348e-02 6.43013940158035e-04
2.95500000000000e+00 7.57853233063406e-02 6.40587594680403e-04
2.98500000000000e+00 7.51151172618416e-02 6.38137512347671e-04
3.01500000000000e+00 7.44508381715665e-02 6.35664691400081e-04
3.04500000000000e+00 7.37924336206100e-02 6.33170102682684e-04
3.07500000000000e+00 7.31398516575970e-02 6.30654690484278e-04
3.10500000000000e+00 7.24930407905834e-02 6.28119373343919e-04
3.13500000000000e+00 7.18519499829929e-02 6.25565044826531e-04
3.16500000000000e+00 7.12165286495905e-02 6.22992574269289e-04
3.19500000000000e+00 7.05867266524906e-02 6.20402807500016e-04
3.22500000000000e+00 6.99624942972009e-02 6.17796567528832e-04
3.25500000000000e+00 6.93437823287017e-02 6.15174655214547e-04
3.28500000000000e+00 6.87305419275588e-02 6.12537849906768e-04
3.31500000000000e+00 6.81227247060719e-02 6.09886910064911e-04
3.34500000000000e+00 6.75202827044563e-02 6.07222573855130e-04
3.37500000000000e+00 6.69231683870588e-02 6.04545559726140e-04
3.40500000000000e+00 6.63313346386069e-02 6.01856566964973e-04
3.43500000000000e+00 6.57447347604908e-02 5.99156276233429e-04
3.46500000000000e+00 6.51633224670793e-02 5.96445350086026e-04
3.49500000000000e+00 6.45870518820671e-02 5.93724433470515e-04
3.52500000000000e+00 6.40158775348552e-02 5.90994154211353e-04
3.55500000000000e+00 6.34497543569630e-02 5.88255123477015e-04
3.58500000000000e+00 6.28886376784720e-02 5.85507936231970e-04
3.61500000000000e+00 6.23324832245013e-02 5.82753171673600e-04
3.64500000000000e+00 6.17812471117142e-02 5.79991393655029e-04
3.67500000000000e+00 6.12348858448553e-02 5.77223151094305e-04
3.70500000000000e+00 6.06933563133186e-02 5.74448978370338e-04
3.73500000000000e+00 6.01566157877462e-02 5.71669395706345e-04
3.76500000000000e+00 5.96246219166561e-02 5.68884909541296e-04
3.79500000000000e+00 5.90973327231009e-02 5.66096012889631e-04
3.82500000000000e+00 5.85747066013557e-02 5.63303185689762e-04
3.85500000000000e+00 5.80567023136349e-02 5.60506895141954e-04
3.88500000000000e+00 5.75432789868385e-02 5.57707596035948e-04
3.91500000000000e+00 5.70343961093268e-02 5.54905731068558e-04
3.94500000000000e+00 5.65300135277243e-02 5.52101731151625e-04
3.97500000000000e+00 5.60300914437510e-02 5.49296015710968e-04
4.00500000000000e+00 5.55345904110820e-02 5.46488992976365e-04
4.03500000000000e+00 5.50434713322356e-02 5.43681060262974e-04
4.06500000000000e+00 5.45566954554875e-02 5.40872604244612e-04
4.09500000000000e+00 5.40742243718139e-02 5.38064001219071e-04
4.12500000000000e+00 5.35960200118603e-02 5.35255617365729e-04
4.15500000000000e+00 5.31220446429376e-02 5.32447808995864e-04
4.18500000000000e+00 5.26522608660454e-02 5.29640922795852e-04
4.21500000000000e+00 5.21866316129204e-02 5.26835296063407e-04
4.24500000000000e+00 5.17251201431118e-02 5.24031256937335e-04
4.27500000000000e+00 5.12676900410824e-02 5.21229124620805e-04
4.30500000000000e+00 5.08143052133348e-02 5.18429209598393e-04
4.33500000000000e+00 5.03649298855641e-02 5.15631813847198e-04
4.36500000000000e+00 4.99195285998344e-02 5.12837231042182e-04
4.39500000000000e+00 4.94780662117818e-02 5.10045746755981e-04
4.42500000000000e+00 4.90405078878406e-02 5.07257638653273e-04
4.45500000000000e+00 4.86068191024952e-02 5.04473176679832e-04
4.48500000000000e+00 4.81769656355555e-02 5.01692623246688e-04
4.51500000000000e+00 4.77509135694574e-02 4.98916233409343e-04
4.54500000000000e+00 4.73286292865859e-02 4.96144255042226e-04
4.57500000000000e+00 4.69100794666225e-02 4.93376929008610e-04
4.60500000000000e+00 4.64952310839168e-02 4.90614489326012e-04
4.63500000000000e+00 4.60840514048796e-02 4.87857163327430e-04
4.66500000000000e+00 4.56765079854010e-02 4.85105171818354e-04
4.69500000000000e+00 4.52725686682896e-02 4.82358729229681e-04
4.72500000000000e+00 4.48722015807357e-02 4.79618043766832e-04
4.75500000000000e+00 4.44753751317961e-02 4.76883317555022e-04
4.78500000000000e+00 4.40820580099015e-02 4.74154746780843e-04
4.81500000000000e+00 4.36922191803860e-02 4.71432521830330e-04
4.84500000000000e+00 4.33058278830379e-02 4.68716827423556e-04
4.87500000000000e+00 4.29228536296732e-02 4.66007842745859e-04
4.90500000000000e+00 4.25432662017292e-02 4.63305741575823e-04
4.93500000000000e+00 4.21670356478807e-02 4.60610692410101e-04
4.96500000000000e+00 4.17941322816763e-02 4.57922858585132e-04
4.99500000000000e+00 4.14245266791964e-02 4.55242398395970e-04
5.02500000000000e+00 4.10581896767311e-02 4.52569465212196e-04
5.05500000000000e+00 4.06950923684791e-02 4.49904207590969e-04
5.08500000000000e+00 4.03352061042673e-02 4.47246769387351e-04
5.11500000000000e+00 3.99785024872897e-02 4.44597289862045e-04
5.14500000000000e+00 3.96249533718667e-02 4.41955903786538e-04
5.17500000000000e+00 3.92745308612248e-02 4.39322741545701e-04
5.20500000000000e+00 3.89272073052949e-02 4.36697929237923e-04
5.23500000000000e+00 3.85829552985308e-02 4.34081588773033e-04
5.26500000000000e+00 3.82417476777468e-02 4.31473837967763e-04
5.29500000000000e+00 3.79035575199740e-02 4.28874790639013e-04
5.32500000000000e+00 3.75683581403367e-02 4.26284556694993e-04
5.35500000000000e+00 3.72361230899460e-02 4.23703242224188e-04
5.38500000000000e+00 3.69068261538135e-02 4.21130949582292e-04
5.41500000000000e+00 3.65804413487825e-02 4.18567777477077e-04
5.44500000000000e+00 3.62569429214776e-02 4.16013821051371e-04
5.47500000000000e+00 3.59363053462732e-02 4.13469171964138e-04
5.50500000000000e+00 3.56185033232789e-02 4.10933918469668e-04
5.53500000000000e+00 3.53035117763435e-02 4.08408145495001e-04
5.56500000000000e+00 3.49913058510761e-02 4.05891934715493e-04
5.59500000000000e+00 3.46818609128853e-02 4.03385364628804e-04
5.62500000000000e+00 3.43751525450351e-02 4.00888510627175e-04
5.65500000000000e+00 3.40711565467186e-02 3.98401445068037e-04
5.68500000000000e+00 3.37698489311480e-02 3.95924237343102e-04
5.71500000000000e+00 3.34712059236625e-02 3.93456953945833e-04
5.74500000000000e+00 3.31752039598518e-02 3.90999658537496e-04
5.77500000000000e+00 3.28818196836971e-02 3.88552412011655e-04
5.80500000000000e+00 3.25910299457283e-02 3.86115272557334e-04
5.83500000000000e+00 3.23028118011968e-02 3.83688295720724e-04
5.86500000000000e+00 3.20171425082658e-02 3.81271534465530e-04
5.89500000000000e+00 3.17339995262152e-02 3.78865039232014e-04
5.92500000000000e+00 3.14533605136636e-02 3.76468857994756e-04
5.95500000000000e+00 3.11752033268050e-02 3.74083036319095e-04
5.98500000000000e+00 3.08995060176618e-02 3.71707617416411e-04
6.01500000000000e+00 3.06262468323528e-02 3.69342642198170e-04
6.04500000000000e+00 3.03554042093770e-02 3.66988149328769e-04
6.07500000000000e+00 3.00869567779120e-02 3.64644175277316e-04
6.10500000000000e+00 2.98208833561279e-02 3.62310754368194e-04
6.13500000000000e+00 2.95571629495158e-02 3.59987918830643e-04
6.16500000000000e+00 2.92957747492315e-02 3.57675698847159e-04
6.19500000000000e+00 2.90366981304534e-02 3.55374122600943e-04
6.22500000000000e+00 2.87799126507550e-02 3.53083216322341e-04
6.25500000000000e+00 2.85253980484919e-02 3.50803004334189e-04
6.28500000000000e+00 2.82731342412036e-02 3.48533509096318e-04
6.31500000000000e+00 2.80231013240279e-02 3.46274751249041e-04
6.34500000000000e+00 2.77752795681313e-02 3.44026749655710e-04
6.37500000000000e+00 2.75296494191516e-02 3.41789521444422e-04
6.40500000000000e+00 2.72861914956554e-02 3.39563082048767e-04
6.43500000000000e+00 2.70448865876084e-02 3.37347445247817e-04
6.46500000000000e+00 2.68057156548602e-02 3.35142623205190e-04
6.49500000000000e+00 2.65686598256413e-02 3.32948626507314e-04
6.52500000000000e+00 2.63337003950745e-02 3.30765464200900e-04
6.55500000000000e+00 2.61008188236987e-02 3.28593143829615e-04
6.58500000000000e+00 2.58699967360062e-02 3.26431671469985e-04
6.61500000000000e+00 2.56412159189930e-02 3.24281051766549e-04
6.64500000000000e+00 2.54144583207210e-02 3.22141287966305e-04
6.67500000000000e+00 2.51897060488944e-02 3.20012381952410e-04
6.70500000000000e+00 2.49669413694474e-02 3.17894334277185e-04
6.73500000000000e+00 2.47461467051453e-02 3.15787144194398e-04
6.76500000000000e+00 2.45273046341970e-02 3.13690809690936e-04
6.79500000000000e+00 2.43103978888809e-02 3.11605327517796e-04
6.82500000000000e+00 2.40954093541821e-02 3.09530693220434e-04
6.85500000000000e+00 2.38823220664421e-02 3.07466901168461e-04
6.88500000000000e+00 2.36711192120200e-02 3.05413944584760e-04
6.91500000000000e+00 2.34617841259661e-02 3.03371815573976e-04
6.94500000000000e+00 2.32543002907070e-02 3.01340505150428e-04
6.97500000000000e+00 2.30486513347419e-02 2.99320003265475e-04
7.00500000000000e+00 2.28448210313513e-02 2.97310298834248e-04
7.03500000000000e+00 2.26427932973160e-02 2.95311379761869e-04
7.06500000000000e+00 2.24425521916489e-02 2.93323232969157e-04
7.09500000000000e+00 2.22440819143365e-02 2.91345844417781e-04
7.12500000000000e+00 2.20473668050922e-02 2.89379199134877e-04
7.15500000000000e+00 2.18523913421213e-02 2.87423281237186e-04
7.18500000000000e+00 2.16591401408954e-02 2.85478073954674e-04
7.21500000000000e+00 2.14675979529390e-02 2.83543559653686e-04
7.24500000000000e+00 2.12777496646263e-02 2.81619719859622e-04
7.27500000000000e+00 2.10895802959885e-02 2.79706535279166e-04
7.30500000000000e+00 2.09030749995318e-02 2.77803985822008e-04
7.33500000000000e+00 2.07182190590660e-02 2.75912050622156e-04
7.36500000000000e+00 2.05349978885431e-02 2.74030708058817e-04
7.39500000000000e+00 2.03533970309068e-02 2.72159935776817e-04
7.42500000000000e+00 2.01734021569514e-02 2.70299710706673e-04
7.45500000000000e+00 1.99949990641910e-02 2.68450009084165e-04
7.48500000000000e+00 1.98181736757394e-02 2.66610806469543e-04
7.51500000000000e+00 1.96429120391990e-02 2.64782077766374e-04
7.54500000000000e+00 1.94692003255599e-02 2.62963797239956e-04
7.57500000000000e+00 1.92970248281090e-02 2.61155938535395e-04
7.60500000000000e+00 1.91263719613478e-02 2.59358474695278e-04
7.63500000000000e+00 1.89572282599214e-02 2.57571378176982e-04
7.66500000000000e+00 1.87895803775552e-02 2.55794620869651e-04
7.69500000000000e+00 1.86234150860022e-02 2.54028174110846e-04
7.72500000000000e+00 1.84587192739991e-02 2.52272008702792e-04
7.75500000000000e+00 1.82954799462319e-02 2.50526094928330e-04
7.78500000000000e+00 1.81336842223104e-02 2.48790402566544e-04
7.81500000000000e+00 1.79733193357518e-02 2.47064900908063e-04
7.84500000000000e+00 1.78143726329735e-02 2.45349558770047e-04
7.87500000000000e+00 1.76568315722946e-02 2.43644344510837e-04
7.90500000000000e+00 1.75006837229463e-02 2.41949226044351e-04
7.93500000000000e+00 1.73459167640910e-02 2.40264170854180e-04
7.96500000000000e+00 1.71925184838504e-02 2.38589146007350e-04
7.99500000000000e+00 1.70404767783415e-02 2.36924118167828e-04
8.02500000000000e+00 1.68897796507219e-02 2.35269053609767e-04
8.05500000000000e+00 1.67404152102429e-02 2.33623918230432e-04
8.08500000000000e+00 1.65923716713115e-02 2.31988677562914e-04
8.11500000000000e+00 1.64456373525604e-02 2.30363296788578e-04
8.14500000000000e+00 1.63002006759261e-02 2.28747740749166e-04
8.17500000000000e+00 1.61560501657357e-02 2.27141973958734e-04
8.20500000000000e+00 1.60131744478010e-02 2.25545960615359e-04
8.23500000000000e+00 1.58715622485212e-02 2.23959664612523e-04
8.26500000000000e+00 1.57312023939937e-02 2.22383049550295e-04
8.29500000000000e+00 1.55920838091316e-02 2.20816078746323e-04
8.32500000000000e+00 1.54541955167906e-02 2.19258715246547e-04
8.35500000000000e+00 1.53175266369027e-02 2.17710921835682e-04
8.38500000000000e+00 1.51820663856172e-02 2.16172661047529e-04
8.41500000000000e+00 1.50478040744505e-02 2.14643895175029e-04
8.44500000000000e+00 1.49147291094421e-02 2.13124586280109e-04
8.47500000000000e+00 1.47828309903194e-02 2.11614696203366e-04
8.50500000000000e+00 1.46520993096684e-02 2.10114186573499e-04
8.53500000000000e+00 1.45225237521129e-02 2.08623018816537e-04
8.56500000000000e+00 1.43940940935007e-02 2.07141154164900e-04
8.59500000000000e+00 1.42668002000966e-02 2.05668553666286e-04
8.62500000000000e+00 1.41406320277829e-02 2.04205178192328e-04
8.65500000000000e+00 1.40155796212668e-02 2.02750988447077e-04
8.68500000000000e+00 1.38916331132951e-02 2.01305944975325e-04
8.71500000000000e+00 1.37687827238752e-02 1.99870008170722e-04
8.74500000000000e+00 1.36470187595039e-02 1.98443138283733e-04
8.77500000000000e+00 1.35263316124024e-02 1.97025295429461e-04
8.80500000000000e+00 1.34067117597577e-02 1.95616439595243e-04
8.83500000000000e+00 1.32881497629721e-02 1.94216530648092e-04
8.86500000000000e+00 1.31706362669175e-02 1.92825528342010e-04
8.89500000000000e+00 1.30541619991980e-02 1.91443392325130e-04
8.92500000000000e+00 1.29387177694180e-02 1.90070082146701e-04
8.95500000000000e+00 1.28242944684567e-02 1.88705557263907e-04
8.98500000000000e+00 1.27108830677498e-02 1.87349777048576e-04
9.01500000000000e+00 1.25984746185769e-02 1.86002700793688e-04
9.04500000000000e+00 1.24870602513556e-02 1.84664287719772e-04
9.07500000000000e+00 1.23766311749412e-02 1.83334496981184e-04
9.10500000000000e+00 1.22671786759336e-02 1.82013287672219e-04
9.13500000000000e+00 1.21586941179892e-02 1.80700618833073e-04
9.16500000000000e+00 1.20511689411399e-02 1.79396449455695e-04
9.19500000000000e+00 1.19445946611176e-02 1.78100738489520e-04
9.22500000000000e+00 1.18389628686844e-02 1.76813444847055e-04
9.25500000000000e+00 1.17342652289697e-02 1.75534527409343e-04
9.28500000000000e+00 1.16304934808117e-02 1.74263945031292e-04
9.31500000000000e+00 1.15276394361065e-02 1.73001656546918e-04
9.34500000000000e+00 1.14256949791613e-02 1.71747620774443e-04
9.37500000000000e+00 1.13246520660541e-02 1.70501796521276e-04
9.40500000000000e+00 1.12245027239996e-02 1.69264142588906e-04
9.43500000000000e+00 1.11252390507193e-02 1.68034617777644e-04
9.46500000000000e+00 1.10268532138185e-02 1.66813180891281e-04
