Energy (eV)          EEDF (eV^-(3/2))     First Anisotropy
1.94230769230769e-02 2.25124905173239e-01 1.64840236513239e-04
5.82692307692308e-02 2.22145337915322e-01 2.71308875984742e-04
9.71153846153846e-02 2.19205205745473e-01 3.55810503087967e-04
1.35961538461538e-01 2.16303986721257e-01 4.18596011779680e-04
1.74807692307692e-01 2.13441165856369e-01 4.69805122294275e-04
2.13653846153846e-01 2.10616234920338e-01 5.13308748591721e-04
2.52500000000000e-01 2.07828692434310e-01 5.51128540384100e-04
2.91346153846154e-01 2.05078043556059e-01 5.84496232429412e-04
3.30192307692308e-01 2.02363799992604e-01 6.14235891899649e-04
3.69038461538461e-01 1.99685479913632e-01 6.40934965422938e-04
4.07884615384615e-01 1.97042607872602e-01 6.65031986743331e-04
4.46730769230769e-01 1.94434714701377e-01 6.86866029068405e-04
4.85576923076923e-01 1.91861337448735e-01 7.06706624006480e-04
5.24423076923077e-01 1.89322019290652e-01 7.24772880065696e-04
5.63269230769231e-01 1.86816309449137e-01 7.41246241936835e-04
6.02115384615385e-01 1.84343763112401e-01 7.56279317074736e-04
6.40961538461538e-01 1.81903941355789e-01 7.70002166498333e-04
6.79807692307692e-01 1.79496411067507e-01 7.82526904848568e-04
7.18653846153846e-01 1.77120744860581e-01 7.93951136372427e-04
7.57500000000000e-01 1.74776521008427e-01 8.04360571469735e-04
7.96346153846154e-01 1.72463323366056e-01 8.13831054275963e-04
8.35192307692308e-01 1.70180741296228e-01 8.22430155187548e-04
8.74038461538461e-01 1.67928369596569e-01 8.30218439157631e-04
9.12884615384615e-01 1.65705808430080e-01 8.37250488682217e-04
9.51730769230769e-01 1.63512663246640e-01 8.43575736093679e-04
9.90576923076923e-01 1.61348544720639e-01 8.49239148092162e-04
1.02942307692308e+00 1.59213068679254e-01 8.54281794184938e-04
1.06826923076923e+00 1.57105856041953e-01 8.58741325570491e-04
1.10711538461538e+00 1.55026532718400e-01 8.62652370335488e-04
1.14596153846154e+00 1.52974729607697e-01 8.66046877928530e-04
1.18480769230769e+00 1.50950082457103e-01 8.68954409168884e-04
1.22365384615385e+00 1.48952231870362e-01 8.71402383916756e-04
1.26250000000000e+00 1.46980823189464e-01 8.73416304415241e-04
1.30134615384615e+00 1.45035506435807e-01 8.75019932124100e-04
1.34019230769231e+00 1.43115936293379e-01 8.76235456887444e-04
1.37903846153846e+00 1.41221772000642e-01 8.77083645320192e-04
1.41788461538462e+00 1.39352677293373e-01 8.77583957490590e-04
1.45673076923077e+00 1.37508320384441e-01 8.77754665024061e-04
1.49557692307692e+00 1.35688373852236e-01 8.77612949005463e-04
1.53442307692308e+00 1.33892514633564e-01 8.77174986591163e-04
1.57326923076923e+00 1.32120423928117e-01 8.76456035823532e-04
1.61211538461538e+00 1.30371787144472e-01 8.75470497864165e-04
1.65096153846154e+00 1.28646293876791e-01 8.74231986222892e-04
1.68980769230769e+00 1.26943637806213e-01 8.72753383017895e-04
1.72865384615385e+00 1.25263516688709e-01 8.71046889353583e-04
1.76750000000000e+00 1.23605632269884e-01 8.69124077587068e-04
1.80634615384615e+00 1.21969690233937e-01 8.66995926553609e-04
1.84519230769231e+00 1.20355400178737e-01 8.64672864359134e-04
1.88403846153846e+00 1.18762475536242e-01 8.62164807450768e-04
1.92288461538462e+00 1.17190633523243e-01 8.59481186228800e-04
1.96173076923077e+00 1.15639595115624e-01 8.56630979461851e-04
2.00057692307692e+00 1.14109084966235e-01 8.53622740811532e-04
2.03942307692308e+00 1.12598831387737e-01 8.50464622856527e-04
2.07826923076923e+00 1.11108566280626e-01 8.47164404669296e-04
2.11711538461538e+00 1.09638025086986e-01 8.43729507133684e-04
2.15596153846154e+00 1.08186946764342e-01 8.40167016938199e-04
2.19480769230769e+00 1.06755073711535e-01 8.36483704217127e-04
2.23365384615385e+00 1.05342151750070e-01 8.32686038581172e-04
2.27250000000000e+00 1.03947930058755e-01 8.28780208897045e-04
2.31134615384615e+00 1.02572161130231e-01 8.24772132562372e-04
2.35019230769231e+00 1.01214600744944e-01 8.20667472156704e-04
2.38903846153846e+00 9.98750079094835e-02 8.16471650963078e-04
2.42788461538461e+00 9.85531448147223e-02 8.12189859866367e-04
2.46673076923077e+00 9.72487768098774e-02 8.07827072045912e-04
2.50557692307692e+00 9.59616723391730e-02 8.03388052880650e-04
2.54442307692308e+00 9.46916029218977e-02 7.98877368957275e-04
2.58326923076923e+00 9.34383430960042e-02 7.94299400615722e-04
2.62211538461538e+00 9.22016703788757e-02 7.89658346053140e-04
2.66096153846154e+00 9.09813652419498e-02 7.84958232641326e-04
2.69980769230769e+00 8.97772110529170e-02 7.80202924081939e-04
2.73865384615385e+00 8.85889940556593e-02 7.75396126900113e-04
2.77750000000000e+00 8.74165033185522e-02 7.70541400275603e-04
2.81634615384615e+00 8.62595306976588e-02 7.65642158361627e-04
2.85519230769231e+00 8.51178708121221e-02 7.60701678596852e-04
2.89403846153846e+00 8.39913209951202e-02 7.55723109544412e-04
2.93288461538462e+00 8.28796812584611e-02 7.50709472483385e-04
2.97173076923077e+00 8.17827542684058e-02 7.45663669245886e-04
3.01057692307692e+00 8.07003452955554e-02 7.40588486672919e-04
3.04942307692308e+00 7.96322621950319e-02 7.35486600631762e-04
3.08826923076923e+00 7.85783153613287e-02 7.30360582972734e-04
3.12711538461538e+00 7.75383176951525e-02 7.25212902214064e-04
3.16596153846154e+00 7.65120845801589e-02 7.20045929951033e-04
3.20480769230769e+00 7.54994338369154e-02 7.14861944241027e-04
3.24365384615385e+00 7.45001857035389e-02 7.09663132636372e-04
3.28250000000000e+00 7.35141627940808e-02 7.04451597934988e-04
3.32134615384615e+00 7.25411900674510e-02 6.99229358266318e-04
3.36019230769231e+00 7.15810948051353e-02 6.93998351922437e-04
3.39903846153846e+00 7.06337065715854e-02 6.88760441945576e-04
3.43788461538462e+00 6.96988571843384e-02 6.83517415975261e-04
3.47673076923077e+00 6.87763806922832e-02 6.78270991031181e-04
3.51557692307692e+00 6.78661133353864e-02 6.73022815761530e-04
3.55442307692308e+00 6.69678935262112e-02 6.67774472431666e-04
3.59326923076923e+00 6.60815618133062e-02 6.62527481274758e-04
3.63211538461538e+00 6.52069608532328e-02 6.57283300029538e-04
3.67096153846154e+00 6.43439353898335e-02 6.52043327998425e-04
3.70980769230769e+00 6.34923322170755e-02 6.46808907810201e-04
3.74865384615385e+00 6.26520001612533e-02 6.41581326962998e-04
3.78750000000000e+00 6.18227900471234e-02 6.36361821541293e-04
3.82634615384615e+00 6.10045546717025e-02 6.31151575553553e-04
3.86519230769231e+00 6.01971487845474e-02 6.25951724022063e-04
3.90403846153846e+00 5.94004290554513e-02 6.20763355929263e-04
3.94288461538462e+00 5.86142540492564e-02 6.15587513485360e-04
3.98173076923077e+00 5.78384842067001e-02 6.10425195301474e-04
4.02057692307692e+00 5.70729818117137e-02 6.05277357608510e-04
4.05942307692308e+00 5.63176109747447e-02 6.00144915303459e-04
4.09826923076923e+00 5.55722376028186e-02 5.95028744881952e-04
4.13711538461538e+00 5.48367293759646e-02 5.89929683612891e-04
4.17596153846154e+00 5.41109557290395e-02 5.84848532294417e-04
4.21480769230769e+00 5.33947878214705e-02 5.79786056227795e-04
4.25365384615385e+00 5.26880985213248e-02 5.74742986040723e-04
4.29250000000000e+00 5.19907623775496e-02 5.69720020246152e-04
4.33134615384615e+00 5.13026555978982e-02 5.64717824366121e-04
4.37019230769231e+00 5.06236560317136e-02 5.59737033033777e-04
4.40903846153846e+00 4.99536431434098e-02 5.54778252003334e-04
4.44788461538462e+00 4.92924979912542e-02 5.49842057266766e-04
4.48673076923077e+00 4.86401032106912e-02 5.44928997274581e-04
4.52557692307692e+00 4.79963429876000e-02 5.40039593625313e-04
4.56442307692308e+00 4.73611030435298e-02 5.35174341632046e-04
4.60326923076923e+00 4.67342706110766e-02 5.30333712397027e-04
4.64211538461538e+00 4.61157344140272e-02 5.25518151919226e-04
4.68096153846154e+00 4.55053846515874e-02 5.20728083052767e-04
4.71980769230769e+00 4.49031129735857e-02 5.15963906063289e-04
4.75865384615385e+00 4.43088124664434e-02 5.11225999075025e-04
4.79750000000000e+00 4.37223776303032e-02 5.06514719906164e-04
4.83634615384615e+00 4.31437043604410e-02 5.01830405183970e-04
4.87519230769231e+00 4.25726899323681e-02 4.97173371834916e-04
4.91403846153846e+00 4.20092329799585e-02 4.92543918512116e-04
4.95288461538462e+00 4.14532334775848e-02 4.87942324726807e-04
4.99173076923077e+00 4.09045927257119e-02 4.83368852458545e-04
5.03057692307692e+00 4.03632133289158e-02 4.78823746553114e-04
5.06942307692308e+00 3.98289991829719e-02 4.74307235028963e-04
5.10826923076923e+00 3.93018554545179e-02 4.69819530592835e-04
5.14711538461538e+00 3.87816885643371e-02 4.65360829794558e-04
5.18596153846154e+00 3.82684061737654e-02 4.60931314461805e-04
5.22480769230769e+00 3.77619171642778e-02 4.56531152021638e-04
5.26365384615385e+00 3.72621316252607e-02 4.52160495739907e-04
5.30250000000000e+00 3.67689608350990e-02 4.47819486074879e-04
5.34134615384615e+00 3.62823172455278e-02 4.43508249861368e-04
5.38019230769231e+00 3.58021144688183e-02 4.39226901397380e-04
5.41903846153846e+00 3.53282672596757e-02 4.34975543486345e-04
5.45788461538462e+00 3.48606915002014e-02 4.30754266645261e-04
5.49673076923077e+00 3.43993041875176e-02 4.26563150300908e-04
5.53557692307692e+00 3.39440234156293e-02 4.22402263019074e-04
5.57442307692308e+00 3.34947683642261e-02 4.18271662664118e-04
5.61326923076923e+00 3.30514592818341e-02 4.14171397531114e-04
5.65211538461538e+00 3.26140174717452e-02 4.10101505588299e-04
5.69096153846154e+00 3.21823652803584e-02 4.06062015550741e-04
5.72980769230769e+00 3.17564260803162e-02 4.02052947064230e-04
5.76865384615385e+00 3.13361242599252e-02 3.98074310825964e-04
5.80750000000000e+00 3.09213852074722e-02 3.94126109602440e-04
5.84634615384615e+00 3.05121352980551e-02 3.90208337507861e-04
5.88519230769231e+00 3.01083018826068e-02 3.86320980812517e-04
5.92403846153846e+00 2.97098132728757e-02 3.82464018718772e-04
5.96288461538462e+00 2.93165987287695e-02 3.78637422664551e-04
6.00173076923077e+00 2.89285884477662e-02 3.74841157227391e-04
6.04057692307692e+00 2.85457135499026e-02 3.71075180252964e-04
6.07942307692308e+00 2.81679060681207e-02 3.67339442929486e-04
6.11826923076923e+00 2.77950989342761e-02 3.63633890646894e-04
6.15711538461538e+00 2.74272259672968e-02 3.59958462336486e-04
6.19596153846154e+00 2.70642218632192e-02 3.56313091286654e-04
6.23480769230769e+00 2.67060221812192e-02 3.52697705243758e-04
6.27365384615385e+00 2.63525633345070e-02 3.49112226463731e-04
6.31250000000000e+00 2.60037825772934e-02 3.45556572488367e-04
6.35134615384615e+00 2.56596179937080e-02 3.42030655520738e-04
6.39019230769231e+00 2.53200084884282e-02 3.38534383035390e-04
6.42903846153846e+00 2.49848937741915e-02 3.35067658364410e-04
6.46788461538462e+00 2.46542143611462e-02 3.31630380096369e-04
6.50673076923077e+00 2.43279115478161e-02 3.28222442768231e-04
6.54557692307692e+00 2.40059274086499e-02 3.24843736932481e-04
6.58442307692308e+00 2.36882047857333e-02 3.21494149181738e-04
6.62326923076923e+00 2.33746872771492e-02 3.18173562808493e-04
6.66211538461538e+00 2.30653192270139e-02 3.14881857238135e-04
6.70096153846154e+00 2.27600457169841e-02 3.11618908655709e-04
6.73980769230769e+00 2.24588125546607e-02 3.08384590056043e-04
6.77865384615385e+00 2.21615662657841e-02 3.05178771254990e-04
6.81750000000000e+00 2.18682540833836e-02 3.02001319487647e-04
6.85634615384615e+00 2.15788239384533e-02 2.98852098874398e-04
6.89519230769231e+00 2.12932244519715e-02 2.95730970886517e-04
6.93403846153846e+00 2.10114049245007e-02 2.92637794793492e-04
6.97288461538461e+00 2.07333153272277e-02 2.89572427150064e-04
7.01173076923077e+00 2.04589062942728e-02 2.86534722330774e-04
7.05057692307692e+00 2.01881291123426e-02 2.83524532559405e-04
7.08942307692308e+00 1.99209357136388e-02 2.80541707904687e-04
7.12826923076923e+00 1.96572786661609e-02 2.77586096791306e-04
7.16711538461538e+00 1.93971111653228e-02 2.74657545517588e-04
7.20596153846154e+00 1.91403870267279e-02 2.71755898741115e-04
7.24480769230769e+00 1.88870606765274e-02 2.68880999497686e-04
7.28365384615385e+00 1.86370871447489e-02 2.66032689189383e-04
7.32250000000000e+00 1.83904220562518e-02 2.63210808049192e-04
7.36134615384615e+00 1.81470216228834e-02 2.60415194687925e-04
7.40019230769231e+00 1.79068426366935e-02 2.57645686452404e-04
7.43903846153846e+00 1.76698424612633e-02 2.54902119769646e-04
7.47788461538461e+00 1.74359790241674e-02 2.52184329712023e-04
7.51673076923077e+00 1.72052108104383e-02 2.49492150413201e-04
7.55557692307692e+00 1.69774968539546e-02 2.46825415074525e-04
7.59442307692308e+00 1.67527967313902e-02 2.44183955944485e-04
7.63326923076923e+00 1.65310705541240e-02 2.41567604717197e-04
7.67211538461538e+00 1.63122789611881e-02 2.38976192124363e-04
7.71096153846154e+00 1.60963831131314e-02 2.36409548314011e-04
7.74980769230769e+00 1.58833446839911e-02 2.33867502850498e-04
7.78865384615385e+00 1.56731258556045e-02 2.31349884689811e-04
7.82750000000000e+00 1.54656893100609e-02 2.28856522542661e-04
7.86634615384615e+00 1.52609982231030e-02 2.26387244491814e-04
7.90519230769231e+00 1.50590162583671e-02 2.23941878269373e-04
7.94403846153846e+00 1.48597075601455e-02 2.21520251523217e-04
7.98288461538461e+00 1.46630367470453e-02 2.19122191449938e-04
8.02173076923077e+00 1.44689689064420e-02 2.16747525120345e-04
8.06057692307692e+00 1.42774695873042e-02 2.14396079471990e-04
8.09942307692308e+00 1.40885047950398e-02 2.12067681280128e-04
8.13826923076923e+00 1.39020409847410e-02 2.09762157470113e-04
8.17711538461538e+00 1.37180450552519e-02 2.07479334773381e-04
8.21596153846154e+00 1.35364843439640e-02 2.05219040024378e-04
8.25480769230769e+00 1.33573266201234e-02 2.02981100149338e-04
8.29365384615384e+00 1.31805400799892e-02 2.00765342135213e-04
8.33250000000000e+00 1.30060933405292e-02 1.98571593314828e-04
8.37134615384615e+00 1.28339554338692e-02 1.96399681044595e-04
8.41019230769231e+00 1.26640958024097e-02 1.94249432920207e-04
8.44903846153846e+00 1.24964842927791e-02 1.92120676983931e-04
8.48788461538462e+00 1.23310911504995e-02 1.90013241415563e-04
8.52673076923077e+00 1.21678870152864e-02 1.87926954788273e-04
8.56557692307692e+00 1.20068429150623e-02 1.85861646053205e-04
8.60442307692308e+00 1.18479302615755e-02 1.83817144506656e-04
8.64326923076923e+00 1.16911208447546e-02 1.81793280036034e-04
8.68211538461538e+00 1.15363868277189e-02 1.79789882830480e-04
8.72096153846154e+00 1.13837007423678e-02 1.77806783614581e-04
8.75980769230769e+00 1.12330354837973e-02 1.75843813630887e-04
8.79865384615385e+00 1.10843643061842e-02 1.73900804606401e-04
8.83750000000000e+00 1.09376608175179e-02 1.71977588977398e-04
8.87634615384615e+00 1.07928989749300e-02 1.70073999618516e-04
8.91519230769231e+00 1.06500530805589e-02 1.68189870011165e-04
8.95403846153846e+00 1.05090977764942e-02 1.66325034405413e-04
8.99288461538461e+00 1.03700080402902e-02 1.64479327560248e-04
9.03173076923077e+00 1.02327591809851e-02 1.62652584945395e-04
9.07057692307692e+00 1.00973268341035e-02 1.60844642721737e-04
9.10942307692308e+00 9.96368695793602e-03 1.59055337707628e-04
9.14826923076923e+00 9.83181582881872e-03 1.57284507573190e-04
9.18711538461538e+00 9.70169003693547e-03 1.55531990597262e-04
9.22596153846154e+00 9.57328648258485e-03 1.53797625851971e-04
9.26480769230769e+00 9.44658237151672e-03 1.52081253182132e-04
9.30365384615384e+00 9.32155521143956e-03 1.50382713171712e-04
9.34250000000000e+00 9.19818280761339e-03 1.48701847321588e-04
9.38134615384615e+00 9.07644325892187e-03 1.47038497822118e-04
9.42019230769231e+00 8.95631495437205e-03 1.45392507685070e-04
9.45903846153846e+00 8.83777656886566e-03 1.43763720870362e-04
9.49788461538462e+00 8.72080705942485e-03 1.42151982068020e-04
9.53673076923077e+00 8.60538566182400e-03 1.40557136857852e-04
9.57557692307692e+00 8.49149188641479e-03 1.38979031688069e-04
9.61442307692308e+00 8.37910551496992e-03 1.37417513842505e-04
9.65326923076923e+00 8.26820659673405e-03 1.35872431594523e-04
9.69211538461538e+00 8.15877544489263e-03 1.34343634003033e-04
9.73096153846154e+00 8.05079263341408e-03 1.32830971058649e-04
9.76980769230769e+00 7.94423899315270e-03 1.31334293662016e-04
9.80865384615385e+00 7.83909560888722e-03 1.29853453591617e-04
9.84750000000000e+00 7.73534381563273e-03 1.28388303644704e-04
9.88634615384615e+00 7.63296519533681e-03 1.26938697446494e-04
9.92519230769231e+00 7.53194157391925e-03 1.25504489553748e-04
9.96403846153846e+00 7.43225501773281e-03 1.24085535554258e-04
1.00028846153846e+01 7.33388783038858e-03 1.22681691913256e-04
1.00417307692308e+01 7.23682254981235e-03 1.21292815838434e-04
1.00805769230769e+01 7.14104194560519e-03 1.19918765982722e-04
1.01194230769231e+01 7.04652901391576e-03 1.18559401834911e-04
1.01582692307692e+01 6.95326697689001e-03 1.17214583087285e-04
1.01971153846154e+01 6.86123927962630e-03 1.15884171255427e-04
1.02359615384615e+01 6.77042958452994e-03 1.14568028550088e-04
1.02748076923077e+01 6.68082177200586e-03 1.13266018114047e-04
1.03136538461538e+01 6.59239993406679e-03 1.11978004088937e-04
1.03525000000000e+01 6.50514837497811e-03 1.10703851553170e-04
1.03913461538462e+01 6.41905160506304e-03 1.09443426586121e-04
1.04301923076923e+01 6.33409434130223e-03 1.08196596207500e-04
1.04690384615385e+01 6.25026150132954e-03 1.06963228439004e-04
1.05078846153846e+01 6.16753820398874e-03 1.05743192245086e-04
1.05467307692308e+01 6.08590976351376e-03 1.04536357592190e-04
1.05855769230769e+01 6.00536169004472e-03 1.03342595390890e-04
1.06244230769231e+01 5.92587968398664e-03 1.02161777782364e-04
1.06632692307692e+01 5.84744963576170e-03 1.00993777160613e-04
1.07021153846154e+01 5.77005762325131e-03 9.98384676001582e-05
1.07409615384615e+01 5.69368990715668e-03 9.86957239271112e-05
1.07798076923077e+01 5.61833293143808e-03 9.75654219108097e-05
1.08186538461538e+01 5.54397331807970e-03 9.64474383155902e-05
1.08575000000000e+01 5.47059786749482e-03 9.53416508472119e-05
1.08963461538462e+01 5.39819355345042e-03 9.42479382025998e-05
1.09351923076923e+01 5.32674752343999e-03 9.31661800175262e-05
1.09740384615385e+01 5.25624709376284e-03 9.20962569143887e-05
1.10128846153846e+01 5.18667974986639e-03 9.10380504511232e-05
1.10517307692308e+01 5.11803314157511e-03 8.99914431671058e-05
1.10905769230769e+01 5.05029508340401e-03 8.89563185332673e-05
1.11294230769231e+01 4.98345354993241e-03 8.79325611848417e-05
1.11682692307692e+01 4.91749667550782e-03 8.69200561156416e-05
1.12071153846154e+01 4.85241275209696e-03 8.59186898486990e-05
1.12459615384615e+01 4.78819022546678e-03 8.49283496706013e-05
1.12848076923077e+01 4.72481769544444e-03 8.39489237867683e-05
1.13236538461538e+01 4.66228391162187e-03 8.29803013615856e-05
1.13625000000000e+01 4.60057777359160e-03 8.20223724722842e-05
1.14013461538462e+01 4.53968832678122e-03 8.10750281475000e-05
1.14401923076923e+01 4.47960476266644e-03 8.01381603222569e-05
1.14790384615385e+01 4.42031641473128e-03 7.92116618750010e-05
1.15178846153846e+01 4.36181275865964e-03 7.82954265836499e-05
1.15567307692308e+01 4.30408340841737e-03 7.73893491611773e-05
1.15955769230769e+01 4.24711811642341e-03 7.64933252127245e-05
1.16344230769231e+01 4.19090676974991e-03 7.56072514249344e-05
1.16732692307692e+01 4.13543938980569e-03 7.47310249013953e-05
1.17121153846154e+01 4.08070613053076e-03 7.38645441235756e-05
1.17509615384615e+01 4.02669727524811e-03 7.30077083191544e-05
1.17898076923077e+01 3.97340323679827e-03 7.21604175880010e-05
1.18286538461538e+01 3.92081455400935e-03 7.13225729332727e-05
1.18675000000000e+01 3.86892189181470e-03 7.04940762218118e-05
1.19063461538462e+01 3.81771603782885e-03 6.96748302140260e-05
1.19451923076923e+01 3.76718790244930e-03 6.88647385252411e-05
1.19840384615385e+01 3.71732851553499e-03 6.80637056543951e-05
1.20228846153846e+01 3.66812902649313e-03 6.72716369463154e-05
1.20617307692308e+01 3.61958070105711e-03 6.64884386192883e-05
1.21005769230769e+01 3.57167492135919e-03 6.57140177282522e-05
1.21394230769231e+01 3.52440318280470e-03 6.49482823190186e-05
1.21782692307692e+01 3.47775709375388e-03 6.41911408796846e-05
1.22171153846154e+01 3.43172837400479e-03 6.34425031302081e-05
1.22559615384615e+01 3.38630885219470e-03 6.27022795008472e-05
