Energy (eV)          EEDF (eV^-(3/2))     First Anisotropy
8.56250000000000e-02 4.99785723942815e-02 4.65306205154119e-05
2.56875000000000e-01 4.89108091229302e-02 7.62709171144074e-05
4.28125000000000e-01 4.78658579958343e-02 9.92021466141602e-05
5.99375000000000e-01 4.68432316447435e-02 1.15745664611322e-04
7.70625000000000e-01 4.58424531137416e-02 1.28835259126076e-04
9.41875000000000e-01 4.48630556367986e-02 1.39605649687527e-04
1.11312500000000e+00 4.39045824200702e-02 1.48656728050158e-04
1.28437500000000e+00 4.29665864288481e-02 1.56358222374312e-04
1.45562500000000e+00 4.20486301790617e-02 1.62960196098387e-04
1.62687500000000e+00 4.11502855332345e-02 1.68642741507501e-04
1.79812500000000e+00 4.02711335007991e-02 1.73541586742426e-04
1.96937500000000e+00 3.94107640426792e-02 1.77762605571288e-04
2.14062500000000e+00 3.85687758800461e-02 1.81390639521020e-04
2.31187500000000e+00 3.77447763071608e-02 1.84495163004498e-04
2.48312500000000e+00 3.69383810082153e-02 1.87134083710687e-04
2.65437500000000e+00 3.61492138780862e-02 1.89356385103639e-04
2.82562500000000e+00 3.53769068469187e-02 1.91204019734906e-04
2.99687500000000e+00 3.46210997084571e-02 1.92713300782469e-04
3.16812500000000e+00 3.38814399520439e-02 1.93915947488081e-04
3.33937500000000e+00 3.31575825982078e-02 1.94839885727955e-04
3.51062500000000e+00 3.24491900377643e-02 1.95509871457715e-04
3.68187500000000e+00 3.17559318743538e-02 1.95947983506044e-04
3.85312500000000e+00 3.10774847703433e-02 1.96174018311590e-04
4.02437500000000e+00 3.04135322960215e-02 1.96205809915599e-04
4.19562500000000e+00 2.97637647820148e-02 1.96059492179062e-04
4.36687500000000e+00 2.91278791748563e-02 1.95749715772662e-04
4.53812500000000e+00 2.85055788956410e-02 1.95289829352841e-04
4.70937500000000e+00 2.78965737017009e-02 1.94692032078319e-04
4.88062500000000e+00 2.73005795512341e-02 1.93967502969847e-04
5.05187500000000e+00 2.67173184708278e-02 1.93126511392309e-04
5.22312500000000e+00 2.61465184258101e-02 1.92178512020626e-04
5.39437500000000e+00 2.55879131933724e-02 1.91132226954739e-04
5.56562500000000e+00 2.50412422384023e-02 1.89995717115474e-04
5.73687500000000e+00 2.45062505919694e-02 1.88776444640175e-04
5.90812500000000e+00 2.39826887324069e-02 1.87481327674538e-04
6.07937500000000e+00 2.34703124689337e-02 1.86116788703144e-04
6.25062500000000e+00 2.29688828277639e-02 1.84688797359632e-04
6.42187500000000e+00 2.24781659406478e-02 1.83202908496272e-04
6.59312500000000e+00 2.19979329357956e-02 1.81664296162931e-04
6.76437500000000e+00 2.15279598311309e-02 1.80077784040208e-04
6.93562500000000e+00 2.10680274298248e-02 1.78447872785790e-04
7.10687500000000e+00 2.06179212180614e-02 1.76778764682682e-04
7.27812500000000e+00 2.01774312649888e-02 1.75074385919922e-04
7.44937500000000e+00 1.97463521248059e-02 1.73338406788288e-04
7.62062500000000e+00 1.93244827409423e-02 1.71574260033451e-04
7.79187500000000e+00 1.89116263522849e-02 1.69785157575399e-04
7.96312500000000e+00 1.85075904014080e-02 1.67974105774729e-04
8.13437500000000e+00 1.81121864447636e-02 1.66143919402619e-04
8.30562500000000e+00 1.77252300647912e-02 1.64297234451021e-04
8.47687500000000e+00 1.73465407839047e-02 1.62436519902423e-04
8.64812500000000e+00 1.69759419803172e-02 1.60564088563812e-04
8.81937500000000e+00 1.66132608056640e-02 1.58682107056852e-04
8.99062500000000e+00 1.62583281043856e-02 1.56792605045428e-04
9.16187500000000e+00 1.59109783348333e-02 1.54897483772362e-04
9.33312500000000e+00 1.55710494920599e-02 1.52998523968938e-04
9.50437500000000e+00 1.52383830322598e-02 1.51097393193850e-04
9.67562500000000e+00 1.49128237988244e-02 1.49195652652052e-04
9.84687500000000e+00 1.45942199499761e-02 1.47294763538587e-04
1.00181250000000e+01 1.42824228879491e-02 1.45396092947772e-04
1.01893750000000e+01 1.39772871896826e-02 1.43500919383993e-04
1.03606250000000e+01 1.36786705389956e-02 1.41610437906735e-04
1.05318750000000e+01 1.33864336602097e-02 1.39725764939212e-04
1.07031250000000e+01 1.31004402531910e-02 1.37847942767172e-04
1.08743750000000e+01 1.28205569297790e-02 1.35977943751887e-04
1.10456250000000e+01 1.25466531515738e-02 1.34116674279106e-04
1.12168750000000e+01 1.22786011690532e-02 1.32264978463791e-04
1.13881250000000e+01 1.20162759619893e-02 1.30423641628607e-04
1.15593750000000e+01 1.17595551811393e-02 1.28593393572569e-04
1.17306250000000e+01 1.15083190911809e-02 1.26774911644849e-04
1.19018750000000e+01 1.12624505148679e-02 1.24968823637438e-04
1.20731250000000e+01 1.10218347783779e-02 1.23175710509181e-04
1.22443750000000e+01 1.07863596578284e-02 1.21396108952703e-04
1.24156250000000e+01 1.05559153269354e-02 1.19630513814784e-04
1.25868750000000e+01 1.03303943057896e-02 1.17879380379911e-04
1.27581250000000e+01 1.01096914107279e-02 1.16143126525928e-04
1.29293750000000e+01 9.89370370527535e-03 1.14422134760047e-04
1.31006250000000e+01 9.68233045213508e-03 1.12716754142837e-04
1.32718750000000e+01 9.47547306620430e-03 1.11027302107234e-04
1.34431250000000e+01 9.27303506859389e-03 1.09354066179071e-04
1.36143750000000e+01 9.07492204163035e-03 1.07697305605168e-04
1.37856250000000e+01 8.88104158481912e-03 1.06057252894607e-04
1.39568750000000e+01 8.69130327174872e-03 1.04434115278356e-04
1.41281250000000e+01 8.50561860791564e-03 1.02828076092086e-04
1.42993750000000e+01 8.32390098945017e-03 1.01239296086689e-04
1.44706250000000e+01 8.14606566272420e-03 9.96679146706704e-05
1.46418750000000e+01 7.97202968482179e-03 9.81140510883268e-05
1.48131250000000e+01 7.80171188485441e-03 9.65778055373464e-05
1.49843750000000e+01 7.63503282610258e-03 9.50592602292461e-05
1.51556250000000e+01 7.47191476896635e-03 9.35584803958037e-05
1.53268750000000e+01 7.31228163470732e-03 9.20755152444863e-05
1.54981250000000e+01 7.15605896996531e-03 9.06103988656434e-05
1.56693750000000e+01 7.00317391203310e-03 8.91631510940787e-05
1.58406250000000e+01 6.85355515487300e-03 8.77337783274513e-05
1.60118750000000e+01 6.70713291585957e-03 8.63222743037982e-05
1.61831250000000e+01 6.56383890323278e-03 8.49286208403482e-05
1.63543750000000e+01 6.42360628424650e-03 8.35527885356378e-05
1.65256250000000e+01 6.28636965399755e-03 8.21947374368418e-05
1.66968750000000e+01 6.15206500492065e-03 8.08544176741250e-05
1.68681250000000e+01 6.02062969693511e-03 7.95317700636881e-05
1.70393750000000e+01 5.89200242822930e-03 7.82267266811075e-05
1.72106250000000e+01 5.76612320666931e-03 7.69392114064717e-05
1.73818750000000e+01 5.64293332181846e-03 7.56691404427270e-05
1.75531250000000e+01 5.52237531755455e-03 7.44164228085678e-05
1.77243750000000e+01 5.40439296527219e-03 7.31809608071419e-05
1.78956250000000e+01 5.28893123765760e-03 7.19626504717590e-05
1.80668750000000e+01 5.17593628302369e-03 7.07613819897232e-05
1.82381250000000e+01 5.06535540019352e-03 6.95770401053684e-05
1.84093750000000e+01 4.95713701392027e-03 6.84095045032954e-05
1.85806250000000e+01 4.85123065083242e-03 6.72586501727770e-05
1.87518750000000e+01 4.74758691589284e-03 6.61243477542311e-05
1.89231250000000e+01 4.64615746936076e-03 6.50064638686152e-05
1.90943750000000e+01 4.54689500424599e-03 6.39048614305656e-05
1.92656250000000e+01 4.44975322424481e-03 6.28193999460416e-05
1.94368750000000e+01 4.35468682214722e-03 6.17499357952165e-05
1.96081250000000e+01 4.26165145870557e-03 6.06963225013111e-05
1.97793750000000e+01 4.17060374195453e-03 5.96584109860141e-05
1.99506250000000e+01 4.08150120697303e-03 5.86360498121349e-05
2.01218750000000e+01 3.99430229607843e-03 5.76290854140779e-05
2.02931250000000e+01 3.90896633944395e-03 5.66373623166951e-05
2.04643750000000e+01 3.82545353613010e-03 5.56607233430703e-05
2.06356250000000e+01 3.74372493552145e-03 5.46990098117370e-05
2.08068750000000e+01 3.66374241915990e-03 5.37520617238201e-05
2.09781250000000e+01 3.58546868296615e-03 5.28197179405670e-05
2.11493750000000e+01 3.50886721984097e-03 5.19018163517062e-05
2.13206250000000e+01 3.43390230263816e-03 5.09981940350556e-05
2.14918750000000e+01 3.36053896750134e-03 5.01086874077803e-05
2.16631250000000e+01 3.28874299755667e-03 4.92331323696854e-05
2.18343750000000e+01 3.21848090695402e-03 4.83713644389031e-05
2.20056250000000e+01 3.14971992524906e-03 4.75232188803182e-05
2.21768750000000e+01 3.08242798211904e-03 4.66885308270690e-05
2.23481250000000e+01 3.01657369240509e-03 4.58671353954391e-05
2.25193750000000e+01 2.95212634147411e-03 4.50588677934365e-05
2.26906250000000e+01 2.88905587089334e-03 4.42635634233475e-05
2.28618750000000e+01 2.82733286441103e-03 4.34810579785400e-05
2.30331250000000e+01 2.76692853423665e-03 4.27111875347813e-05
2.32043750000000e+01 2.70781470761412e-03 4.19537886363154e-05
2.33756250000000e+01 2.64996381368202e-03 4.12086983769406e-05
2.35468750000000e+01 2.59334887061441e-03 4.04757544763134e-05
2.37181250000000e+01 2.53794347303644e-03 3.97547953516984e-05
2.38893750000000e+01 2.48372177970882e-03 3.90456601853680e-05
2.40606250000000e+01 2.43065850147536e-03 3.83481889878554e-05
2.42318750000000e+01 2.37872888946808e-03 3.76622226572493e-05
2.44031250000000e+01 2.32790872356424e-03 3.69876030347074e-05
2.45743750000000e+01 2.27817430108997e-03 3.63241729563678e-05
2.47456250000000e+01 2.22950242576534e-03 3.56717763018207e-05
2.49168750000000e+01 2.18187039688551e-03 3.50302580392989e-05
2.50881250000000e+01 2.13525599873306e-03 3.43994642677403e-05
2.52593750000000e+01 2.08963749021649e-03 3.37792422558663e-05
2.54306250000000e+01 2.04499359473017e-03 3.31694404784122e-05
2.56018750000000e+01 2.00130349023082e-03 3.25699086496486e-05
2.57731250000000e+01 1.95854679952605e-03 3.19804977543145e-05
2.59443750000000e+01 1.91670358077041e-03 3.14010600760852e-05
2.61156250000000e+01 1.87575431816444e-03 3.08314492236897e-05
2.62868750000000e+01 1.83567991285241e-03 3.02715201547946e-05
2.64581250000000e+01 1.79646167401461e-03 2.97211291977542e-05
2.66293750000000e+01 1.75808131014988e-03 2.91801340713289e-05
2.68006250000000e+01 1.72052092054439e-03 2.86483939024722e-05
2.69718750000000e+01 1.68376298692268e-03 2.81257692422804e-05
2.71431250000000e+01 1.64779036527713e-03 2.76121220801901e-05
2.73143750000000e+01 1.61258627787191e-03 2.71073158565084e-05
2.74856250000000e+01 1.57813430541782e-03 2.66112154733632e-05
2.76568750000000e+01 1.54441837941424e-03 2.61236873041467e-05
2.78281250000000e+01 1.51142277465478e-03 2.56445992015276e-05
2.79993750000000e+01 1.47913210189300e-03 2.51738205041059e-05
2.81706250000000e+01 1.44753130066478e-03 2.47112220417753e-05
2.83418750000000e+01 1.41660563226410e-03 2.42566761398620e-05
2.85131250000000e+01 1.38634067286888e-03 2.38100566221005e-05
2.86843750000000e+01 1.35672230681364e-03 2.33712388125081e-05
2.88556250000000e+01 1.32773672000591e-03 2.29400995362147e-05
2.90268750000000e+01 1.29937039348334e-03 2.25165171193016e-05
2.91981250000000e+01 1.27161009710835e-03 2.21003713877040e-05
2.93693750000000e+01 1.24444288339763e-03 2.16915436652278e-05
2.95406250000000e+01 1.21785608148332e-03 2.12899167707271e-05
2.97118750000000e+01 1.19183729120334e-03 2.08953750144892e-05
2.98831250000000e+01 1.16637437731789e-03 2.05078041938726e-05
3.00543750000000e+01 1.14145546384955e-03 2.01270915882377e-05
3.02256250000000e+01 1.11706892854428e-03 1.97531259532127e-05
3.03968750000000e+01 1.09320339745076e-03 1.93857975143314e-05
3.05681250000000e+01 1.06984773961557e-03 1.90249979600853e-05
3.07393750000000e+01 1.04699106189166e-03 1.86706204344155e-05
3.09106250000000e+01 1.02462270385777e-03 1.83225595286863e-05
3.10818750000000e+01 1.00273223284637e-03 1.79807112731719e-05
3.12531250000000e+01 9.81309439077806e-04 1.76449731280833e-05
3.14243750000000e+01 9.60344330898498e-04 1.73152439741690e-05
3.15956250000000e+01 9.39827130120735e-04 1.69914241029141e-05
3.17668750000000e+01 9.19748267462136e-04 1.66734152063686e-05
3.19381250000000e+01 9.00098378082496e-04 1.63611203666268e-05
3.21093750000000e+01 8.80868297216002e-04 1.60544440449856e-05
3.22806250000000e+01 8.62049055896758e-04 1.57532920708046e-05
3.24518750000000e+01 8.43631876775633e-04 1.54575716300883e-05
3.26231250000000e+01 8.25608170026479e-04 1.51671912538147e-05
3.27943750000000e+01 8.07969529339814e-04 1.48820608060283e-05
3.29656250000000e+01 7.90707728002089e-04 1.46020914717197e-05
3.31368750000000e+01 7.73814715058732e-04 1.43271957445078e-05
3.33081250000000e+01 7.57282611559154e-04 1.40572874141441e-05
3.34793750000000e+01 7.41103706881983e-04 1.37922815538560e-05
3.36506250000000e+01 7.25270455138813e-04 1.35320945075442e-05
3.38218750000000e+01 7.09775471654774e-04 1.32766438768498e-05
3.39931250000000e+01 6.94611529524301e-04 1.30258485081080e-05
3.41643750000000e+01 6.79771556240483e-04 1.27796284791990e-05
3.43356250000000e+01 6.65248630396427e-04 1.25379050863116e-05
3.45068750000000e+01 6.51035978457090e-04 1.23006008306317e-05
3.46781250000000e+01 6.37126971600087e-04 1.20676394049683e-05
3.48493750000000e+01 6.23515122623984e-04 1.18389456803268e-05
3.50206250000000e+01 6.10194082922652e-04 1.16144456924420e-05
3.51918750000000e+01 5.97157639524257e-04 1.13940666282816e-05
3.53631250000000e+01 5.84399712193513e-04 1.11777368125280e-05
3.55343750000000e+01 5.71914350595842e-04 1.09653856940502e-05
3.57056250000000e+01 5.59695731522117e-04 1.07569438323720e-05
3.58768750000000e+01 5.47738156172707e-04 1.05523428841479e-05
3.60481250000000e+01 5.36036047499537e-04 1.03515155896527e-05
3.62193750000000e+01 5.24583947604932e-04 1.01543957592919e-05
3.63906250000000e+01 5.13376515196045e-04 9.96091826014187e-06
3.65618750000000e+01 5.02408523093658e-04 9.77101900252527e-06
3.67331250000000e+01 4.91674855794213e-04 9.58463492662932e-06
3.69043750000000e+01 4.81170507083923e-04 9.40170398917094e-06
3.70756250000000e+01 4.70890577703861e-04 9.22216515011566e-06
3.72468750000000e+01 4.60830273064932e-04 9.04595835945705e-06
3.74181250000000e+01 4.50984901011661e-04 8.87302454405895e-06
3.75893750000000e+01 4.41349869633760e-04 8.70330559456702e-06
3.77606250000000e+01 4.31920685124445e-04 8.53674435239366e-06
3.79318750000000e+01 4.22692949684515e-04 8.37328459678114e-06
3.81031250000000e+01 4.13662359471201e-04 8.21287103194557e-06
3.82743750000000e+01 4.04824702590847e-04 8.05544927430636e-06
3.84456250000000e+01 3.96175857134463e-04 7.90096583980413e-06
3.86168750000000e+01 3.87711789255261e-04 7.74936813131088e-06
3.87881250000000e+01 3.79428551287256e-04 7.60060442613514e-06
3.89593750000000e+01 3.71322279904060e-04 7.45462386362391e-06
3.91306250000000e+01 3.63389194317018e-04 7.31137643286620e-06
3.93018750000000e+01 3.55625594511834e-04 7.17081296049821e-06
3.94731250000000e+01 3.48027859522880e-04 7.03288509861334e-06
3.96443750000000e+01 3.40592445744360e-04 6.89754531278005e-06
3.98156250000000e+01 3.33315885277564e-04 6.76474687016736e-06
3.99868750000000e+01 3.26194784313434e-04 6.63444382778132e-06
4.01581250000000e+01 3.19225821549675e-04 6.50659102081359e-06
4.03293750000000e+01 3.12405746641695e-04 6.38114405110315e-06
4.05006250000000e+01 3.05731378686632e-04 6.25805927571273e-06
4.06718750000000e+01 2.99199604739773e-04 6.13729379562106e-06
4.08431250000000e+01 2.92807378362667e-04 6.01880544453209e-06
4.10143750000000e+01 2.86551718202256e-04 5.90255277780137e-06
4.11856250000000e+01 2.80429706600366e-04 5.78849506148132e-06
4.13568750000000e+01 2.74438488232902e-04 5.67659226148583e-06
4.15281250000000e+01 2.68575268778112e-04 5.56680503287371e-06
4.16993750000000e+01 2.62837313613315e-04 5.45909470925277e-06
4.18706250000000e+01 2.57221946539458e-04 5.35342329230433e-06
4.20418750000000e+01 2.51726548532932e-04 5.24975344142817e-06
4.22131250000000e+01 2.46348556524054e-04 5.14804846350877e-06
4.23843750000000e+01 2.41085462201637e-04 5.04827230280215e-06
4.25556250000000e+01 2.35934810843115e-04 4.95038953094381e-06
4.27268750000000e+01 2.30894200169647e-04 4.85436533707792e-06
4.28981250000000e+01 2.25961279225687e-04 4.76016551810701e-06
4.30693750000000e+01 2.21133747282497e-04 4.66775646906216e-06
4.32406250000000e+01 2.16409352765074e-04 4.57710517359411e-06
4.34118750000000e+01 2.11785892202015e-04 4.48817919458390e-06
4.35831250000000e+01 2.07261209197804e-04 4.40094666487363e-06
4.37543750000000e+01 2.02833193427070e-04 4.31537627811627e-06
4.39256250000000e+01 1.98499779650321e-04 4.23143727974410e-06
4.40968750000000e+01 1.94258946750711e-04 4.14909945805592e-06
4.42681250000000e+01 1.90108716791388e-04 4.06833313542160e-06
4.44393750000000e+01 1.86047154092973e-04 3.98910915960368e-06
4.46106250000000e+01 1.82072364330757e-04 3.91139889519592e-06
4.47818750000000e+01 1.78182493651184e-04 3.83517421517727e-06
4.49531250000000e+01 1.74375727807204e-04 3.76040749258070e-06
4.51243750000000e+01 1.70650291312107e-04 3.68707159227687e-06
4.52956250000000e+01 1.67004446611427e-04 3.61513986287112e-06
4.54668750000000e+01 1.63436493272545e-04 3.54458612871296e-06
4.56381250000000e+01 1.59944767191599e-04 3.47538468201772e-06
4.58093750000000e+01 1.56527639817345e-04 3.40751027509905e-06
4.59806250000000e+01 1.53183517391593e-04 3.34093811271173e-06
4.61518750000000e+01 1.49910840205872e-04 3.27564384450362e-06
4.63231250000000e+01 1.46708081873984e-04 3.21160355757595e-06
4.64943750000000e+01 1.43573748620084e-04 3.14879376915089e-06
4.66656250000000e+01 1.40506378581987e-04 3.08719141934551e-06
4.68368750000000e+01 1.37504541129346e-04 3.02677386405130e-06
4.70081250000000e+01 1.34566836196402e-04 2.96751886791809e-06
4.71793750000000e+01 1.31691893628993e-04 2.90940459744147e-06
4.73506250000000e+01 1.28878372545507e-04 2.85240961415217e-06
4.75218750000000e+01 1.26124960711489e-04 2.79651286790735e-06
4.76931250000000e+01 1.23430373927617e-04 2.74169369028219e-06
4.78643750000000e+01 1.20793355430744e-04 2.68793178806053e-06
4.80356250000000e+01 1.18212675307736e-04 2.63520723682390e-06
4.82068750000000e+01 1.15687129921847e-04 2.58350047463782e-06
4.83781250000000e+01 1.13215541351330e-04 2.53279229583422e-06
4.85493750000000e+01 1.10796756840055e-04 2.48306384488882e-06
4.87206250000000e+01 1.08429648259859e-04 2.43429661039265e-06
4.88918750000000e+01 1.06113111584385e-04 2.38647241911644e-06
4.90631250000000e+01 1.03846066374160e-04 2.33957343016693e-06
4.92343750000000e+01 1.01627455272675e-04 2.29358212923398e-06
4.94056250000000e+01 9.94562435132302e-05 2.24848132292723e-06
4.95768750000000e+01 9.73314184363185e-05 2.20425413320167e-06
4.97481250000000e+01 9.52519890173162e-05 2.16088399187052e-06
4.99193750000000e+01 9.32169854042672e-05 2.11835463520474e-06
5.00906250000000e+01 9.12254584655412e-05 2.07665009861800e-06
5.02618750000000e+01 8.92764793471557e-05 2.03575471143581e-06
5.04331250000000e+01 8.73691390395562e-05 1.99565309174822e-06
5.06043750000000e+01 8.55025479536510e-05 1.95633014134457e-06
5.07756250000000e+01 8.36758355059042e-05 1.91777104072929e-06
5.09468750000000e+01 8.18881497122936e-05 1.87996124421808e-06
5.11181250000000e+01 8.01386567909425e-05 1.84288647511307e-06
5.12893750000000e+01 7.84265407732412e-05 1.80653272095594e-06
5.14606250000000e+01 7.67510031232771e-05 1.77088622885800e-06
5.16318750000000e+01 7.51112623653953e-05 1.73593350090631e-06
5.18031250000000e+01 7.35065537197159e-05 1.70166128964476e-06
5.19743750000000e+01 7.19361287454384e-05 1.66805659362897e-06
5.21456250000000e+01 7.03992549917668e-05 1.63510665305405e-06
5.23168750000000e+01 6.88952156562926e-05 1.60279894545437e-06
5.24881250000000e+01 6.74233092506757e-05 1.57112118147419e-06
5.26593750000000e+01 6.59828492734683e-05 1.54006130070814e-06
5.28306250000000e+01 6.45731638899289e-05 1.50960746761061e-06
5.30018750000000e+01 6.31935956186762e-05 1.47974806747311e-06
5.31731250000000e+01 6.18435010250380e-05 1.45047170246864e-06
5.33443750000000e+01 6.05222504209518e-05 1.42176718776205e-06
5.35156250000000e+01 5.92292275712757e-05 1.39362354768541e-06
5.36868750000000e+01 5.79638294063751e-05 1.36603001197755e-06
5.38581250000000e+01 5.67254657408491e-05 1.33897601208684e-06
5.40293750000000e+01 5.55135589982663e-05 1.31245117753613e-06
