Energy (eV)          EEDF (eV^-(3/2))     First Anisotropy
2.93548387096774e-02 9.29419221425300e-02 6.24646635144443e-05
8.80645161290323e-02 9.19107990649310e-02 1.02920743235507e-04
1.46774193548387e-01 9.08911155459221e-02 1.35269195185649e-04
2.05483870967742e-01 8.98827446779276e-02 1.59483757925772e-04
2.64193548387097e-01 8.88855609489909e-02 1.79382616327342e-04
3.22903225806452e-01 8.78994402507484e-02 1.96418551485296e-04
3.81612903225806e-01 8.69242598431601e-02 2.11347916493177e-04
4.40322580645161e-01 8.59598983548018e-02 2.24630134114898e-04
4.99032258064516e-01 8.50062357570982e-02 2.36571662520645e-04
5.57741935483871e-01 8.40631533517252e-02 2.47390334700265e-04
6.16451612903226e-01 8.31305337609450e-02 2.57248309674962e-04
6.75161290322581e-01 8.22082609058448e-02 2.66270629089222e-04
7.33870967741935e-01 8.12962199984090e-02 2.74556430551323e-04
7.92580645161290e-01 8.03942975224489e-02 2.82186104207475e-04
8.51290322580645e-01 7.95023812202147e-02 2.89226062743315e-04
9.10000000000000e-01 7.86203600815478e-02 2.95732037776161e-04
9.68709677419355e-01 7.77481243258254e-02 3.01751426087726e-04
1.02741935483871e+00 7.68855653922752e-02 3.07325002479471e-04
1.08612903225806e+00 7.60325759258181e-02 3.12488199312197e-04
1.14483870967742e+00 7.51890497555315e-02 3.17272077799459e-04
1.20354838709677e+00 7.43548818931717e-02 3.21704079678294e-04
1.26225806451613e+00 7.35299685152870e-02 3.25808617891230e-04
1.32096774193548e+00 7.27142069566295e-02 3.29607547492454e-04
1.37967741935484e+00 7.19074956780060e-02 3.33120542179409e-04
1.43838709677419e+00 7.11097342732287e-02 3.36365400305211e-04
1.49709677419355e+00 7.03208234500837e-02 3.39358298722587e-04
1.55580645161290e+00 6.95406650230612e-02 3.42114003013540e-04
1.61451612903226e+00 6.87691618855073e-02 3.44646041161465e-04
1.67322580645161e+00 6.80062180133350e-02 3.46966849528030e-04
1.73193548387097e+00 6.72517384478199e-02 3.49087898788429e-04
1.79064516129032e+00 6.65056292879777e-02 3.51019801226712e-04
1.84935483870968e+00 6.57677976659516e-02 3.52772401021022e-04
1.90806451612903e+00 6.50381517485153e-02 3.54354851532077e-04
1.96677419354839e+00 6.43166007250008e-02 3.55775686496820e-04
2.02548387096774e+00 6.36030547847215e-02 3.57042878152261e-04
2.08419354838710e+00 6.28974251171655e-02 3.58163888426002e-04
2.14290322580645e+00 6.21996238970771e-02 3.59145715740396e-04
2.20161290322581e+00 6.15095642767383e-02 3.59994936215443e-04
2.26032258064516e+00 6.08271603655490e-02 3.60717738696600e-04
2.31903225806452e+00 6.01523272290308e-02 3.61319955784416e-04
2.37774193548387e+00 5.94849808749748e-02 3.61807093156470e-04
2.43645161290323e+00 5.88250382457452e-02 3.62184355708746e-04
2.49516129032258e+00 5.81724171996519e-02 3.62456669667197e-04
2.55387096774194e+00 5.75270365090892e-02 3.62628702399414e-04
2.61258064516129e+00 5.68888158476054e-02 3.62704881798181e-04
2.67129032258065e+00 5.62576757822979e-02 3.62689413731092e-04
2.73000000000000e+00 5.56335377567056e-02 3.62586296625701e-04
2.78870967741935e+00 5.50163240883159e-02 3.62399334655048e-04
2.84741935483871e+00 5.44059579564462e-02 3.62132151132229e-04
2.90612903225806e+00 5.38023633947766e-02 3.61788200658620e-04
2.96483870967742e+00 5.32054652755548e-02 3.61370779093115e-04
3.02354838709677e+00 5.26151893066412e-02 3.60883032628808e-04
3.08225806451613e+00 5.20314620201166e-02 3.60327967399992e-04
3.14096774193548e+00 5.14542107649839e-02 3.59708458244695e-04
3.19967741935484e+00 5.08833636925221e-02 3.59027255720967e-04
3.25838709677419e+00 5.03188497529965e-02 3.58286992530770e-04
3.31709677419355e+00 4.97605986849231e-02 3.57490190632151e-04
3.37580645161290e+00 4.92085410079615e-02 3.56639267753695e-04
3.43451612903226e+00 4.86626080092844e-02 3.55736542453606e-04
3.49322580645161e+00 4.81227317400514e-02 3.54784238771768e-04
3.55193548387097e+00 4.75888450052724e-02 3.53784491640383e-04
3.61064516129032e+00 4.70608813569048e-02 3.52739351854901e-04
3.66935483870968e+00 4.65387750811307e-02 3.51650789796230e-04
3.72806451612903e+00 4.60224611946694e-02 3.50520698638131e-04
3.78677419354839e+00 4.55118754365361e-02 3.49350899471324e-04
3.84548387096774e+00 4.50069542559551e-02 3.48143144046888e-04
3.90419354838710e+00 4.45076348085725e-02 3.46899117545488e-04
3.96290322580645e+00 4.40138549472403e-02 3.45620442113790e-04
4.02161290322581e+00 4.35255532155060e-02 3.44308680124113e-04
4.08032258064516e+00 4.30426688362828e-02 3.42965336441781e-04
4.13903225806452e+00 4.25651417079957e-02 3.41591860524338e-04
4.19774193548387e+00 4.20929123958497e-02 3.40189649271560e-04
4.25645161290323e+00 4.16259221255345e-02 3.38760049654448e-04
4.31516129032258e+00 4.11641127725861e-02 3.37304360452336e-04
4.37387096774194e+00 4.07074268585031e-02 3.35823833862669e-04
4.43258064516129e+00 4.02558075424649e-02 3.34319677835558e-04
4.49129032258065e+00 3.98091986152540e-02 3.32793058227819e-04
4.55000000000000e+00 3.93675444892481e-02 3.31245100147526e-04
4.60870967741935e+00 3.89307901945386e-02 3.29676889200284e-04
4.66741935483871e+00 3.84988813710678e-02 3.28089473429169e-04
4.72612903225806e+00 3.80717642627674e-02 3.26483865104218e-04
4.78483870967742e+00 3.76493857081315e-02 3.24861041771925e-04
4.84354838709677e+00 3.72316931363593e-02 3.23221947227531e-04
4.90225806451613e+00 3.68186345598853e-02 3.21567493147485e-04
4.96096774193548e+00 3.64101585687318e-02 3.19898560594473e-04
5.01967741935484e+00 3.60062143216174e-02 3.18216000842059e-04
5.07838709677419e+00 3.56067515421422e-02 3.16520636137758e-04
5.13709677419355e+00 3.52117205116882e-02 3.14813261092169e-04
5.19580645161290e+00 3.48210720639807e-02 3.13094643958564e-04
5.25451612903226e+00 3.44347575766933e-02 3.11365527284175e-04
5.31322580645161e+00 3.40527289676906e-02 3.09626628511612e-04
5.37193548387097e+00 3.36749386882757e-02 3.07878641172686e-04
5.43064516129032e+00 3.33013397179574e-02 3.06122235986854e-04
5.48935483870968e+00 3.29318855565155e-02 3.04358061377397e-04
5.54806451612903e+00 3.25665302203126e-02 3.02586743815062e-04
5.60677419354839e+00 3.22052282365104e-02 3.00808889381295e-04
5.66548387096774e+00 3.18479346354644e-02 2.99025084059323e-04
5.72419354838710e+00 3.14946049470879e-02 2.97235894134912e-04
5.78290322580645e+00 3.11451951946552e-02 2.95441867128756e-04
5.84161290322581e+00 3.07996618899215e-02 2.93643532652536e-04
5.90032258064516e+00 3.04579620259243e-02 2.91841402756030e-04
5.95903225806452e+00 3.01200530734304e-02 2.90035972244212e-04
6.01774193548387e+00 2.97858929750363e-02 2.88227719496119e-04
6.07645161290323e+00 2.94554401404779e-02 2.86417107215531e-04
6.13516129032258e+00 2.91286534398122e-02 2.84604582706751e-04
6.19387096774194e+00 2.88054921999531e-02 2.82790578124991e-04
6.25258064516129e+00 2.84859161990524e-02 2.80975511200099e-04
6.31129032258065e+00 2.81698856619933e-02 2.79159785898937e-04
6.37000000000000e+00 2.78573612539295e-02 2.77343792643915e-04
6.42870967741935e+00 2.75483040769123e-02 2.75527908509847e-04
6.48741935483871e+00 2.72426756645373e-02 2.73712497867190e-04
6.54612903225806e+00 2.69404379776174e-02 2.71897912969794e-04
6.60483870967742e+00 2.66415533980552e-02 2.70084494127211e-04
6.66354838709677e+00 2.63459847255652e-02 2.68272569858368e-04
6.72225806451613e+00 2.60536951725725e-02 2.66462457466156e-04
6.78096774193548e+00 2.57646483600584e-02 2.64654463561571e-04
6.83967741935484e+00 2.54788083117467e-02 2.62848884198551e-04
6.89838709677419e+00 2.51961394509224e-02 2.61046004992603e-04
6.95709677419355e+00 2.49166065955689e-02 2.59246101636413e-04
7.01580645161290e+00 2.46401749543812e-02 2.57449440369378e-04
7.07451612903226e+00 2.43668101212470e-02 2.55656278081900e-04
7.13322580645161e+00 2.40964780721626e-02 2.53866862405549e-04
7.19193548387097e+00 2.38291451605968e-02 2.52081432177570e-04
7.25064516129032e+00 2.35647781136656e-02 2.50300217863212e-04
7.30935483870968e+00 2.33033440268905e-02 2.48523441635066e-04
7.36806451612903e+00 2.30448103612128e-02 2.46751317359075e-04
7.42677419354839e+00 2.27891449389139e-02 2.44984051339127e-04
7.48548387096774e+00 2.25363159385738e-02 2.43221842292855e-04
7.54419354838710e+00 2.22862918921556e-02 2.41464881404869e-04
7.60290322580645e+00 2.20390416807364e-02 2.39713352716082e-04
7.66161290322581e+00 2.17945345309532e-02 2.37967433476655e-04
7.72032258064516e+00 2.15527400102115e-02 2.36227294192968e-04
7.77903225806452e+00 2.13136280238666e-02 2.34493098664416e-04
7.83774193548387e+00 2.10771688111511e-02 2.32765004337405e-04
7.89645161290323e+00 2.08433329417668e-02 2.31043162625705e-04
7.95516129032258e+00 2.06120913113299e-02 2.29327718942858e-04
8.01387096774194e+00 2.03834151386472e-02 2.27618812725507e-04
8.07258064516129e+00 2.01572759618315e-02 2.25916577756100e-04
8.13129032258064e+00 1.99336456350338e-02 2.24221142454536e-04
8.19000000000000e+00 1.97124963241112e-02 2.22532629898554e-04
8.24870967741935e+00 1.94938005039979e-02 2.20851157836008e-04
8.30741935483871e+00 1.92775309549988e-02 2.19176838979863e-04
8.36612903225806e+00 1.90636607596557e-02 2.17509781274260e-04
8.42483870967742e+00 1.88521632986279e-02 2.15850087905077e-04
8.48354838709677e+00 1.86430122481545e-02 2.14197857303160e-04
8.54225806451613e+00 1.84361815765177e-02 2.12553183414535e-04
8.60096774193548e+00 1.82316455410397e-02 2.10916155943772e-04
8.65967741935484e+00 1.80293786841617e-02 2.09286860356429e-04
8.71838709677419e+00 1.78293558309983e-02 2.07665377874893e-04
8.77709677419355e+00 1.76315520859610e-02 2.06051785726398e-04
8.83580645161290e+00 1.74359428298802e-02 2.04446157366064e-04
8.89451612903226e+00 1.72425037162742e-02 2.02848562472711e-04
8.95322580645161e+00 1.70512106689911e-02 2.01259066938674e-04
9.01193548387097e+00 1.68620398789866e-02 1.99677733097891e-04
9.07064516129032e+00 1.66749678015656e-02 1.98104619930685e-04
9.12935483870968e+00 1.64899711528309e-02 1.96539783054149e-04
9.18806451612903e+00 1.63070269074108e-02 1.94983274655796e-04
9.24677419354839e+00 1.61261122955784e-02 1.93435143909413e-04
9.30548387096774e+00 1.59472047998286e-02 1.91895436906402e-04
9.36419354838710e+00 1.57702821526690e-02 1.90364196638171e-04
9.42290322580645e+00 1.55953223336481e-02 1.88841463193395e-04
9.48161290322581e+00 1.54223035667972e-02 1.87327273934644e-04
9.54032258064516e+00 1.52512043173710e-02 1.85821663482079e-04
9.59903225806452e+00 1.50820032897200e-02 1.84324663692486e-04
9.65774193548387e+00 1.49146794244547e-02 1.82836303841474e-04
9.71645161290323e+00 1.47492118959932e-02 1.81356610786348e-04
9.77516129032258e+00 1.45855801094578e-02 1.79885608946759e-04
9.83387096774194e+00 1.44237636986271e-02 1.78423320281069e-04
9.89258064516129e+00 1.42637425232285e-02 1.76969764454849e-04
9.95129032258065e+00 1.41054966665888e-02 1.75524958991286e-04
1.00100000000000e+01 1.39490064326779e-02 1.74088919081969e-04
1.00687096774194e+01 1.37942523447462e-02 1.72661658150107e-04
1.01274193548387e+01 1.36412151406010e-02 1.71243187540078e-04
1.01861290322581e+01 1.34898757726752e-02 1.69833516188001e-04
1.02448387096774e+01 1.33402154047189e-02 1.68432650976527e-04
1.03035483870968e+01 1.31922154108846e-02 1.67040597730908e-04
1.03622580645161e+01 1.30458573690919e-02 1.65657360471481e-04
1.04209677419355e+01 1.29011230630869e-02 1.64282940646133e-04
1.04796774193548e+01 1.27579944787095e-02 1.62917338420526e-04
1.05383870967742e+01 1.26164538016550e-02 1.61560551942590e-04
1.05970967741935e+01 1.24764834165679e-02 1.60212578515712e-04
1.06558064516129e+01 1.23380659008783e-02 1.58873413896715e-04
1.07145161290323e+01 1.22011840266374e-02 1.57543051575914e-04
1.07732258064516e+01 1.20658207570277e-02 1.56221483628220e-04
1.08319354838710e+01 1.19319592454704e-02 1.54908701430745e-04
1.08906451612903e+01 1.17995828298157e-02 1.53604694997760e-04
1.09493548387097e+01 1.16686750340131e-02 1.52309452298620e-04
1.10080645161290e+01 1.15392195647992e-02 1.51022960390956e-04
1.10667741935484e+01 1.14112003096748e-02 1.49745204766935e-04
1.11254838709677e+01 1.12846013360274e-02 1.48476170384454e-04
1.11841935483871e+01 1.11594068857275e-02 1.47215841042659e-04
1.12429032258065e+01 1.10356013766162e-02 1.45964198741793e-04
1.13016129032258e+01 1.09131693994079e-02 1.44721224430284e-04
1.13603225806452e+01 1.07920957168303e-02 1.43486898634760e-04
1.14190322580645e+01 1.06723652585259e-02 1.42261200868341e-04
1.14777419354839e+01 1.05539631224050e-02 1.41044109024011e-04
1.15364516129032e+01 1.04368745717044e-02 1.39835600371924e-04
1.15951612903226e+01 1.03210850331559e-02 1.38635650978166e-04
1.16538709677419e+01 1.02065800961474e-02 1.37444236612181e-04
1.17125806451613e+01 1.00933455079748e-02 1.36261332191431e-04
1.17712903225806e+01 9.98136717504694e-03 1.35086911211928e-04
1.18300000000000e+01 9.87063116013138e-03 1.33920946405132e-04
1.18887096774194e+01 9.76112368153387e-03 1.32763410292006e-04
1.19474193548387e+01 9.65283110861569e-03 1.31614274656398e-04
1.20061290322581e+01 9.54573996288744e-03 1.30473510005329e-04
1.20648387096774e+01 9.43983691539297e-03 1.29341086188777e-04
1.21235483870968e+01 9.33510878590914e-03 1.28216972922360e-04
1.21822580645161e+01 9.23154253871140e-03 1.27101139288211e-04
1.22409677419355e+01 9.12912528356634e-03 1.25993553223132e-04
1.22996774193548e+01 9.02784427324701e-03 1.24894182349133e-04
1.23583870967742e+01 8.92768690194855e-03 1.23802993482620e-04
1.24170967741935e+01 8.82864070451042e-03 1.22719953390419e-04
1.24758064516129e+01 8.73069335246849e-03 1.21645028320930e-04
1.25345161290323e+01 8.63383265493677e-03 1.20578183523791e-04
1.25932258064516e+01 8.53804655627803e-03 1.19519383795994e-04
1.26519354838710e+01 8.44332313534695e-03 1.18468593942517e-04
1.27106451612903e+01 8.34965060175836e-03 1.17425778331807e-04
1.27693548387097e+01 8.25701729668617e-03 1.16390900440312e-04
1.28280645161290e+01 8.16541169064929e-03 1.15363923585547e-04
1.28867741935484e+01 8.07482238207886e-03 1.14344810489287e-04
1.29454838709677e+01 7.98523809658517e-03 1.13333523945239e-04
1.30041935483871e+01 7.89664768347553e-03 1.12330026401491e-04
1.30629032258065e+01 7.80904011646237e-03 1.11334279532817e-04
1.31216129032258e+01 7.72240449158682e-03 1.10346244722488e-04
1.31803225806452e+01 7.63673002650686e-03 1.09365883468741e-04
1.32390322580645e+01 7.55200605720351e-03 1.08393156988769e-04
1.32977419354839e+01 7.46822203862128e-03 1.07428025813070e-04
1.33564516129032e+01 7.38536754269366e-03 1.06470450433415e-04
1.34151612903226e+01 7.30343225704664e-03 1.05520390913912e-04
1.34738709677419e+01 7.22240598431163e-03 1.04577807481087e-04
1.35325806451613e+01 7.14227863904957e-03 1.03642660152017e-04
1.35912903225806e+01 7.06304024831696e-03 1.02714908353307e-04
1.36500000000000e+01 6.98468094981317e-03 1.01794511346661e-04
1.37087096774194e+01 6.90719099121374e-03 1.00881428587916e-04
1.37674193548387e+01 6.83056072725931e-03 9.99756193741294e-05
1.38261290322581e+01 6.75478062026622e-03 9.90770424821446e-05
1.38848387096774e+01 6.67984123836410e-03 9.81856565708941e-05
1.39435483870968e+01 6.60573325484989e-03 9.73014205208284e-05
1.40022580645161e+01 6.53244744543191e-03 9.64242930990996e-05
1.40609677419355e+01 6.45997468868971e-03 9.55542326164878e-05
1.41196774193548e+01 6.38830596439770e-03 9.46911974700658e-05
1.41783870967742e+01 6.31743235240357e-03 9.38351458140469e-05
1.42370967741935e+01 6.24734503200622e-03 9.29860360541015e-05
1.42958064516129e+01 6.17803527937982e-03 9.21438265327064e-05
1.43545161290323e+01 6.10949446797811e-03 9.13084752069771e-05
1.44132258064516e+01 6.04171406695992e-03 9.04799400045293e-05
1.44719354838710e+01 5.97468564058729e-03 8.96581791237247e-05
1.45306451612903e+01 5.90840084578543e-03 8.88431507350746e-05
1.45893548387097e+01 5.84285143250565e-03 8.80348126754854e-05
1.46480645161290e+01 5.77802924222686e-03 8.72331229288518e-05
1.47067741935484e+01 5.71392620694139e-03 8.64380393326669e-05
1.47654838709677e+01 5.65053434857633e-03 8.56495200160132e-05
1.48241935483871e+01 5.58784577671148e-03 8.48675231189182e-05
1.48829032258065e+01 5.52585268889679e-03 8.40920065050665e-05
1.49416129032258e+01 5.46454736924478e-03 8.33229280768470e-05
1.50003225806452e+01 5.40392218787120e-03 8.25602460411900e-05
1.50590322580645e+01 5.34396959873244e-03 8.18039186431718e-05
1.51177419354839e+01 5.28468213990911e-03 8.10539038932982e-05
1.51764516129032e+01 5.22605243226597e-03 8.03101599936072e-05
1.52351612903226e+01 5.16807317853429e-03 7.95726450760287e-05
1.52938709677419e+01 5.11073716277534e-03 7.88413175906422e-05
1.53525806451613e+01 5.05403724835655e-03 7.81161360553749e-05
1.54112903225806e+01 4.99796637819800e-03 7.73970587996737e-05
1.54700000000000e+01 4.94251757351310e-03 7.66840442436468e-05
1.55287096774194e+01 4.88768393329022e-03 7.59770511336115e-05
1.55874193548387e+01 4.83345863237398e-03 7.52760383043517e-05
1.56461290322581e+01 4.77983492168412e-03 7.45809644357650e-05
1.57048387096774e+01 4.72680612701628e-03 7.38917883171272e-05
1.57635483870968e+01 4.67436564854164e-03 7.32084690700831e-05
1.58222580645161e+01 4.62250695898749e-03 7.25309659229206e-05
1.58809677419355e+01 4.57122360383080e-03 7.18592379794068e-05
1.59396774193548e+01 4.52050920015637e-03 7.11932445770735e-05
1.59983870967742e+01 4.47035743586305e-03 7.05329450653226e-05
1.60570967741935e+01 4.42076206918434e-03 6.98782991319569e-05
1.61158064516129e+01 4.37171692698450e-03 6.92292665909297e-05
1.61745161290323e+01 4.32321590492470e-03 6.85858071651253e-05
1.62332258064516e+01 4.27525296638921e-03 6.79478807207376e-05
1.62919354838710e+01 4.22782214202303e-03 6.73154474650631e-05
1.63506451612903e+01 4.18091752811550e-03 6.66884677449206e-05
1.64093548387097e+01 4.13453328674592e-03 6.60669018403168e-05
1.64680645161290e+01 4.08866364476070e-03 6.54507102825583e-05
1.65267741935484e+01 4.04330289305551e-03 6.48398536561739e-05
1.65854838709677e+01 3.99844538613270e-03 6.42342928889379e-05
1.66441935483871e+01 3.95408554058692e-03 6.36339890623035e-05
1.67029032258065e+01 3.91021783522846e-03 6.30389032174160e-05
1.67616129032258e+01 3.86683681012122e-03 6.24489965631487e-05
1.68203225806452e+01 3.82393706615612e-03 6.18642306516506e-05
1.68790322580645e+01 3.78151326361402e-03 6.12845671982688e-05
1.69377419354839e+01 3.73956012227235e-03 6.07099678972622e-05
1.69964516129032e+01 3.69807242048851e-03 6.01403947044723e-05
1.70551612903226e+01 3.65704499455047e-03 5.95758096604457e-05
1.71138709677419e+01 3.61647273826907e-03 5.90161751481047e-05
1.71725806451613e+01 3.57635060163088e-03 5.84614537234367e-05
1.72312903225806e+01 3.53667359088693e-03 5.79116079421934e-05
1.72900000000000e+01 3.49743676769036e-03 5.73666005446404e-05
1.73487096774194e+01 3.45863524870354e-03 5.68263946114483e-05
1.74074193548387e+01 3.42026420431928e-03 5.62909534027778e-05
1.74661290322581e+01 3.38231885873610e-03 5.57602401936253e-05
1.75248387096774e+01 3.34479448913642e-03 5.52342184489149e-05
1.75835483870968e+01 3.30768642530825e-03 5.47128519712432e-05
1.76422580645161e+01 3.27099004843098e-03 5.41961047479828e-05
1.77009677419355e+01 3.23470079113846e-03 5.36839407947699e-05
1.77596774193548e+01 3.19881413673591e-03 5.31763243939132e-05
1.78183870967742e+01 3.16332561863815e-03 5.26732199440912e-05
1.78770967741935e+01 3.12823082000823e-03 5.21745921777166e-05
1.79358064516129e+01 3.09352537261873e-03 5.16804060170809e-05
1.79945161290323e+01 3.05920495690179e-03 5.11906264271940e-05
1.80532258064516e+01 3.02526530121194e-03 5.07052185714077e-05
1.81119354838710e+01 2.99170218147833e-03 5.02241479427214e-05
1.81706451612903e+01 2.95851142012321e-03 4.97473802270750e-05
1.82293548387097e+01 2.92568888610219e-03 4.92748811634746e-05
1.82880645161290e+01 2.89323049420156e-03 4.88066167560714e-05
1.83467741935484e+01 2.86113220453030e-03 4.83425531398216e-05
1.84054838709677e+01 2.82939002218807e-03 4.78826567739002e-05
1.84641935483871e+01 2.79799999625062e-03 4.74268943130728e-05
1.85229032258065e+01 2.76695821979958e-03 4.69752324761203e-05
