Energy (eV)          EEDF (eV^-(3/2))     First Anisotropy
3.26086956521739e-02 4.39386967282840e-02 2.42987397936974e-05
9.78260869565217e-02 4.36098888252393e-02 4.01088328388999e-05
1.63043478260870e-01 4.32835414994819e-02 5.29077062119569e-05
2.28260869565217e-01 4.29596363408481e-02 6.26064968651758e-05
2.93478260869565e-01 4.26381550728086e-02 7.06750645417111e-05
3.58695652173913e-01 4.23190795553994e-02 7.76696378833821e-05
4.23913043478261e-01 4.20023917867523e-02 8.38783084330419e-05
4.89130434782609e-01 4.16880738984020e-02 8.94751892599525e-05
5.54347826086957e-01 4.13761081556607e-02 9.45758488155026e-05
6.19565217391304e-01 4.10664769560986e-02 9.92620340861377e-05
6.84782608695652e-01 4.07591628301059e-02 1.03594306772490e-04
7.50000000000000e-01 4.04541484381997e-02 1.07619145563453e-04
8.15217391304348e-01 4.01514165703055e-02 1.11373229225072e-04
8.80434782608696e-01 3.98509501459422e-02 1.14886164917168e-04
9.45652173913043e-01 3.95527322120119e-02 1.18182303469676e-04
1.01086956521739e+00 3.92567459419970e-02 1.21281990825087e-04
1.07608695652174e+00 3.89629746362012e-02 1.24202457470583e-04
1.14130434782609e+00 3.86714017192512e-02 1.26958466511842e-04
1.20652173913043e+00 3.83820107398331e-02 1.29562796147584e-04
1.27173913043478e+00 3.80947853697496e-02 1.32026606322853e-04
1.33695652173913e+00 3.78097094008408e-02 1.34359720707685e-04
1.40217391304348e+00 3.75267667506914e-02 1.36570848681543e-04
1.46739130434783e+00 3.72459414549318e-02 1.38667761610840e-04
1.53260869565217e+00 3.69672176686638e-02 1.40657433226871e-04
1.59782608695652e+00 3.66905796655513e-02 1.42546154472463e-04
1.66304347826087e+00 3.64160118369638e-02 1.44339627420002e-04
1.72826086956522e+00 3.61434986910776e-02 1.46043043142681e-04
1.79347826086957e+00 3.58730248504765e-02 1.47661145832304e-04
1.85869565217391e+00 3.56045750559460e-02 1.49198287598853e-04
1.92391304347826e+00 3.53381341608564e-02 1.50658474873112e-04
1.98913043478261e+00 3.50736871319268e-02 1.52045406901245e-04
2.05434782608696e+00 3.48112190483745e-02 1.53362509465235e-04
2.11956521739130e+00 3.45507151010736e-02 1.54612963722120e-04
2.18478260869565e+00 3.42921605917268e-02 1.55799731159341e-04
2.25000000000000e+00 3.40355409320300e-02 1.56925575460721e-04
2.31521739130435e+00 3.37808416417434e-02 1.57993080939952e-04
2.38043478260870e+00 3.35280483512445e-02 1.59004669505912e-04
2.44565217391304e+00 3.32771467972911e-02 1.59962615640845e-04
2.51086956521739e+00 3.30281228233786e-02 1.60869058806620e-04
2.57608695652174e+00 3.27809623789376e-02 1.61726015092967e-04
2.64130434782609e+00 3.25356515185466e-02 1.62535387426034e-04
2.70652173913043e+00 3.22921764011449e-02 1.63298974684210e-04
2.77173913043478e+00 3.20505232892494e-02 1.64018480003816e-04
2.83695652173913e+00 3.18106785473330e-02 1.64695517674167e-04
2.90217391304348e+00 3.15726286436306e-02 1.65331620032653e-04
2.96739130434783e+00 3.13363601467629e-02 1.65928243718264e-04
3.03260869565217e+00 3.11018597258628e-02 1.66486774620575e-04
3.09782608695652e+00 3.08691141498195e-02 1.67008532923297e-04
3.16304347826087e+00 3.06381102865391e-02 1.67494777554928e-04
3.22826086956522e+00 3.04088351021997e-02 1.67946710372454e-04
3.29347826086956e+00 3.01812756598235e-02 1.68365479480879e-04
3.35869565217391e+00 2.99554191206515e-02 1.68752182881066e-04
3.42391304347826e+00 2.97312527412866e-02 1.69107871835745e-04
3.48913043478261e+00 2.95087638736952e-02 1.69433553330035e-04
3.55434782608696e+00 2.92879399644925e-02 1.69730192829321e-04
3.61956521739130e+00 2.90687685542347e-02 1.69998716698505e-04
3.68478260869565e+00 2.88512372767179e-02 1.70240014436146e-04
3.75000000000000e+00 2.86353338582788e-02 1.70454940850901e-04
3.81521739130435e+00 2.84210461165403e-02 1.70644317638938e-04
3.88043478260870e+00 2.82083619614296e-02 1.70808935383144e-04
3.94565217391304e+00 2.79972693927700e-02 1.70949555426487e-04
4.01086956521739e+00 2.77877565001866e-02 1.71066911060974e-04
4.07608695652174e+00 2.75798114624325e-02 1.71161709068970e-04
4.14130434782609e+00 2.73734225467242e-02 1.71234631052780e-04
4.20652173913043e+00 2.71685781080793e-02 1.71286334676503e-04
4.27173913043478e+00 2.69652665886587e-02 1.71317454923822e-04
4.33695652173913e+00 2.67634765166500e-02 1.71328604888268e-04
4.40217391304348e+00 2.65631965070291e-02 1.71320376988879e-04
4.46739130434783e+00 2.63644152594935e-02 1.71293344123423e-04
4.53260869565217e+00 2.61671215583046e-02 1.71248060261657e-04
4.59782608695652e+00 2.59713042716538e-02 1.71185061387722e-04
4.66304347826087e+00 2.57769523510370e-02 1.71104866291501e-04
4.72826086956522e+00 2.55840548306298e-02 1.71007977402485e-04
4.79347826086957e+00 2.53926008262696e-02 1.70894881224911e-04
4.85869565217391e+00 2.52025795360516e-02 1.70766049179612e-04
4.92391304347826e+00 2.50139802384964e-02 1.70621938409805e-04
4.98913043478261e+00 2.48267922923570e-02 1.70462992099043e-04
5.05434782608696e+00 2.46410051360183e-02 1.70289640121863e-04
5.11956521739130e+00 2.44566082869012e-02 1.70102299572515e-04
5.18478260869565e+00 2.42735913408716e-02 1.69901375266170e-04
5.25000000000000e+00 2.40919439716534e-02 1.69687260292927e-04
5.31521739130435e+00 2.39116559299068e-02 1.69460336230080e-04
5.38043478260870e+00 2.37327170436760e-02 1.69220973730065e-04
5.44565217391304e+00 2.35551172167789e-02 1.68969533088102e-04
5.51086956521739e+00 2.33788464285870e-02 1.68706364384960e-04
5.57608695652174e+00 2.32038947334588e-02 1.68431807936331e-04
5.64130434782609e+00 2.30302522601796e-02 1.68146194642741e-04
5.70652173913043e+00 2.28579092114048e-02 1.67849846323163e-04
5.77173913043478e+00 2.26868558631066e-02 1.67543076103564e-04
5.83695652173913e+00 2.25170825637353e-02 1.67226188506166e-04
5.90217391304348e+00 2.23485797345532e-02 1.66899479882365e-04
5.96739130434783e+00 2.21813378682071e-02 1.66563238833684e-04
6.03260869565217e+00 2.20153475284909e-02 1.66217746257154e-04
6.09782608695652e+00 2.18505993498118e-02 1.65863275670802e-04
6.16304347826087e+00 2.16870840366640e-02 1.65500093455047e-04
6.22826086956522e+00 2.15247923631026e-02 1.65128459148728e-04
6.29347826086957e+00 2.13637151719686e-02 1.64748625474528e-04
6.35869565217391e+00 2.12038433751447e-02 1.64360838682266e-04
6.42391304347826e+00 2.10451679522625e-02 1.63965338884370e-04
6.48913043478261e+00 2.08876799504563e-02 1.63562360050654e-04
6.55434782608696e+00 2.07313704838572e-02 1.63152130262385e-04
6.61956521739130e+00 2.05762307330924e-02 1.62734871891493e-04
6.68478260869565e+00 2.04222519447876e-02 1.62310801772947e-04
6.75000000000000e+00 2.02694254310731e-02 1.61880131428861e-04
6.81521739130435e+00 2.01177425688713e-02 1.61443067050675e-04
6.88043478260870e+00 1.99671948000822e-02 1.60999809770820e-04
6.94565217391304e+00 1.98177736304226e-02 1.60550555929532e-04
7.01086956521739e+00 1.96694706291752e-02 1.60095497035731e-04
7.07608695652174e+00 1.95222774287119e-02 1.59634819963971e-04
7.14130434782609e+00 1.93761857240229e-02 1.59168707085659e-04
7.20652173913043e+00 1.92311872722475e-02 1.58697336395711e-04
7.27173913043478e+00 1.90872738922091e-02 1.58220881687570e-04
7.33695652173913e+00 1.89444374637598e-02 1.57739512510407e-04
7.40217391304348e+00 1.88026699279087e-02 1.57253394390133e-04
7.46739130434783e+00 1.86619632857757e-02 1.56762689047386e-04
7.53260869565217e+00 1.85223095983388e-02 1.56267554339313e-04
7.59782608695652e+00 1.83837009859862e-02 1.55768144416451e-04
7.66304347826087e+00 1.82461296280723e-02 1.55264609821227e-04
7.72826086956522e+00 1.81095877624758e-02 1.54757097632210e-04
7.79347826086957e+00 1.79740676849888e-02 1.54245751408324e-04
7.85869565217391e+00 1.78395617494060e-02 1.53730711376908e-04
7.92391304347826e+00 1.77060623665652e-02 1.53212114619755e-04
7.98913043478261e+00 1.75735620040962e-02 1.52690095005358e-04
8.05434782608696e+00 1.74420531859961e-02 1.52164783320139e-04
8.11956521739130e+00 1.73115284922071e-02 1.51636307346299e-04
8.18478260869565e+00 1.71819805581986e-02 1.51104791937357e-04
8.25000000000000e+00 1.70534020745512e-02 1.50570359135899e-04
8.31521739130435e+00 1.69257857863915e-02 1.50033128109765e-04
8.38043478260870e+00 1.67991244934449e-02 1.49493215310963e-04
8.44565217391304e+00 1.66734110491636e-02 1.48950734633336e-04
8.51086956521739e+00 1.65486383604798e-02 1.48405797339568e-04
8.57608695652174e+00 1.64247993874051e-02 1.47858512169833e-04
8.64130434782609e+00 1.63018871426340e-02 1.47308985402431e-04
8.70652173913043e+00 1.61798946911494e-02 1.46757320912792e-04
8.77173913043478e+00 1.60588151498313e-02 1.46203620271284e-04
8.83695652173913e+00 1.59386416869327e-02 1.45647982675823e-04
8.90217391304348e+00 1.58193675221043e-02 1.45090505088119e-04
8.96739130434783e+00 1.57009859255985e-02 1.44531282369213e-04
9.03260869565217e+00 1.55834902180287e-02 1.43970407204803e-04
9.09782608695652e+00 1.54668737699921e-02 1.43407970196639e-04
9.16304347826087e+00 1.53511300016965e-02 1.42844059910523e-04
9.22826086956522e+00 1.52362523825881e-02 1.42278762960748e-04
9.29347826086956e+00 1.51222344308612e-02 1.41712163941632e-04
9.35869565217391e+00 1.50090697134624e-02 1.41144345547910e-04
9.42391304347826e+00 1.48967518453545e-02 1.40575388694686e-04
9.48913043478261e+00 1.47852744892816e-02 1.40005372442932e-04
9.55434782608696e+00 1.46746313554118e-02 1.39434374079109e-04
9.61956521739130e+00 1.45648162009818e-02 1.38862469154639e-04
9.68478260869565e+00 1.44558228299454e-02 1.38289731524396e-04
9.75000000000000e+00 1.43476450926233e-02 1.37716233418713e-04
9.81521739130435e+00 1.42402768852473e-02 1.37142045375664e-04
9.88043478260870e+00 1.41337121499455e-02 1.36567236346398e-04
9.94565217391304e+00 1.40279448740682e-02 1.35991873800325e-04
1.00108695652174e+01 1.39229690899607e-02 1.35416023785262e-04
1.00760869565217e+01 1.38187788742116e-02 1.34839750627785e-04
1.01413043478261e+01 1.37153683484690e-02 1.34263116843420e-04
1.02065217391304e+01 1.36127316790577e-02 1.33686184417114e-04
1.02717391304348e+01 1.35108630739397e-02 1.33109013837725e-04
1.03369565217391e+01 1.34097567854364e-02 1.32531663568399e-04
1.04021739130435e+01 1.33094071088812e-02 1.31954191073084e-04
1.04673913043478e+01 1.32098083822970e-02 1.31376652510270e-04
1.05326086956522e+01 1.31109549860775e-02 1.30799102760768e-04
1.05978260869565e+01 1.30128413426687e-02 1.30221595454048e-04
1.06630434782609e+01 1.29154619162561e-02 1.29644182994449e-04
1.07282608695652e+01 1.28188112124515e-02 1.29066916587275e-04
1.07934782608696e+01 1.27228837779829e-02 1.28489846263494e-04
1.08586956521739e+01 1.26276742003871e-02 1.27913020616107e-04
1.09239130434783e+01 1.25331771085660e-02 1.27336487692858e-04
1.09891304347826e+01 1.24393871698802e-02 1.26760294437898e-04
1.10543478260870e+01 1.23462990924693e-02 1.26184486125348e-04
1.11195652173913e+01 1.22539076240736e-02 1.25609107268669e-04
1.11847826086957e+01 1.21622075517378e-02 1.25034201344847e-04
1.12500000000000e+01 1.20711937015168e-02 1.24459810815635e-04
1.13152173913043e+01 1.19808609381834e-02 1.23885977148116e-04
1.13804347826087e+01 1.18912041649391e-02 1.23312740834682e-04
1.14456521739130e+01 1.18022183231269e-02 1.22740141412974e-04
1.15108695652174e+01 1.17138983919449e-02 1.22168217485275e-04
1.15760869565217e+01 1.16262393881639e-02 1.21597006737239e-04
1.16413043478261e+01 1.15392363658457e-02 1.21026545702036e-04
1.17065217391304e+01 1.14528844167993e-02 1.20456870545574e-04
1.17717391304348e+01 1.13671786680839e-02 1.19888016570683e-04
1.18369565217391e+01 1.12821142839688e-02 1.19320017714156e-04
1.19021739130435e+01 1.11976864649109e-02 1.18752907346907e-04
1.19673913043478e+01 1.11138904472833e-02 1.18186718027868e-04
1.20326086956522e+01 1.10307215031071e-02 1.17621481520265e-04
1.20978260869565e+01 1.09481749397838e-02 1.17057228807046e-04
1.21630434782609e+01 1.08662460998317e-02 1.16493990106328e-04
1.22282608695652e+01 1.07849303606226e-02 1.15931794886842e-04
1.22934782608696e+01 1.07042231341209e-02 1.15370671882543e-04
1.23586956521739e+01 1.06241198666246e-02 1.14810648879934e-04
1.24239130434783e+01 1.05446160391462e-02 1.14251753417502e-04
1.24891304347826e+01 1.04657071652327e-02 1.13694012341001e-04
1.25543478260870e+01 1.03873887926497e-02 1.13137451352347e-04
1.26195652173913e+01 1.03096565024806e-02 1.12582095722567e-04
1.26847826086957e+01 1.02325059088767e-02 1.12027970070258e-04
1.27500000000000e+01 1.01559326588103e-02 1.11475098374384e-04
1.28152173913043e+01 1.00799324318285e-02 1.10923503986679e-04
1.28804347826087e+01 1.00045009398097e-02 1.10373209643716e-04
1.29456521739130e+01 9.92963392672217e-03 1.09824237479036e-04
1.30108695652174e+01 9.85532716838313e-03 1.09276609034930e-04
1.30760869565217e+01 9.78157647222095e-03 1.08730345273837e-04
1.31413043478261e+01 9.70837767703833e-03 1.08185466388237e-04
1.32065217391304e+01 9.63572665332561e-03 1.07641992419160e-04
1.32717391304348e+01 9.56361930137308e-03 1.07099942860490e-04
1.33369565217391e+01 9.49205155270506e-03 1.06559336257615e-04
1.34021739130435e+01 9.42101936929160e-03 1.06020190837989e-04
1.34673913043478e+01 9.35051874332066e-03 1.05482524313404e-04
1.35326086956522e+01 9.28054569697196e-03 1.04946353890064e-04
1.35978260869565e+01 9.21109628219225e-03 1.04411696278101e-04
1.36630434782609e+01 9.14216658047315e-03 1.03878567701147e-04
1.37282608695652e+01 9.07375270262979e-03 1.03346983905961e-04
1.37934782608696e+01 9.00585078858132e-03 1.02816960171492e-04
1.38586956521739e+01 8.93845700713316e-03 1.02288511137417e-04
1.39239130434783e+01 8.87156755623917e-03 1.01761651357461e-04
1.39891304347826e+01 8.80517866134293e-03 1.01236394943761e-04
1.40543478260870e+01 8.73928657661820e-03 1.00712755206140e-04
1.41195652173913e+01 8.67388758426999e-03 1.00190745216302e-04
1.41847826086957e+01 8.60897799432478e-03 9.96703776296808e-05
1.42500000000000e+01 8.54455414442235e-03 9.91516646935038e-05
1.43152173913043e+01 8.48061239960897e-03 9.86346182546024e-05
1.43804347826087e+01 8.41714915213248e-03 9.81192497670235e-05
1.44456521739130e+01 8.35416082123882e-03 9.76055702996962e-05
1.45108695652174e+01 8.29164385296993e-03 9.70935905439092e-05
1.45760869565217e+01 8.22959471996315e-03 9.65833208205344e-05
1.46413043478261e+01 8.16800992125224e-03 9.60747709266506e-05
1.47065217391304e+01 8.10688598248378e-03 9.55679506267807e-05
1.47717391304348e+01 8.04621945447152e-03 9.50628693357912e-05
1.48369565217391e+01 7.98600691425928e-03 9.45595357972786e-05
1.49021739130435e+01 7.92624496450598e-03 9.40579585845159e-05
1.49673913043478e+01 7.86693023329397e-03 9.35581459412512e-05
1.50326086956522e+01 7.80805937393874e-03 9.30601057881589e-05
1.50978260869565e+01 7.74962906479994e-03 9.25638457289202e-05
1.51630434782609e+01 7.69163600909432e-03 9.20693730563772e-05
1.52282608695652e+01 7.63407693470959e-03 9.15766947587206e-05
1.52934782608696e+01 7.57694859401972e-03 9.10858175253279e-05
1.53586956521739e+01 7.52024776370175e-03 9.05967476083013e-05
1.54239130434783e+01 7.46397124491714e-03 9.01094912633404e-05
1.54891304347826e+01 7.40811586203477e-03 8.96240544642027e-05
1.55543478260870e+01 7.35267846355517e-03 8.91404426130743e-05
1.56195652173913e+01 7.29765592156256e-03 8.86586609902108e-05
1.56847826086957e+01 7.24304513154837e-03 8.81787146103180e-05
1.57500000000000e+01 7.18884301223612e-03 8.77006082277821e-05
1.58152173913043e+01 7.13504650540742e-03 8.72243463417426e-05
1.58804347826087e+01 7.08165257572954e-03 8.67499332010146e-05
1.59456521739130e+01 7.02865821058423e-03 8.62773728090880e-05
1.60108695652174e+01 6.97606041989768e-03 8.58066689289949e-05
1.60760869565217e+01 6.92385623597175e-03 8.53378250880096e-05
1.61413043478261e+01 6.87204271331658e-03 8.48708444536747e-05
1.62065217391304e+01 6.82061692880033e-03 8.44057302263819e-05
1.62717391304348e+01 6.76957598053055e-03 8.39424853842976e-05
1.63369565217391e+01 6.71891698865006e-03 8.34811124246275e-05
1.64021739130435e+01 6.66863709485260e-03 8.30216137640352e-05
1.64673913043478e+01 6.61873346222155e-03 8.25639916101398e-05
1.65326086956522e+01 6.56920327506988e-03 8.21082479657474e-05
1.65978260869565e+01 6.52004373878112e-03 8.16543846328239e-05
1.66630434782609e+01 6.47125207965199e-03 8.12024032165305e-05
1.67282608695652e+01 6.42282554473573e-03 8.07523051293106e-05
1.67934782608696e+01 6.37476140168681e-03 8.03040915947077e-05
1.68586956521739e+01 6.32705693860671e-03 7.98577635353218e-05
1.69239130434783e+01 6.27970946416944e-03 7.94133219260317e-05
1.69891304347826e+01 6.23271630662913e-03 7.89707675639090e-05
1.70543478260870e+01 6.18607481451498e-03 7.85301008348292e-05
1.71195652173913e+01 6.13978235619801e-03 7.80913220737562e-05
1.71847826086957e+01 6.09383631974260e-03 7.76544314486752e-05
1.72500000000000e+01 6.04823411275908e-03 7.72194289640385e-05
1.73152173913043e+01 6.00297316225745e-03 7.67863144641076e-05
1.73804347826087e+01 5.95805091450222e-03 7.63550876362160e-05
1.74456521739130e+01 5.91346483486844e-03 7.59257480140769e-05
1.75108695652174e+01 5.86921240769855e-03 7.54982949810001e-05
1.75760869565217e+01 5.82529113616052e-03 7.50727277729993e-05
1.76413043478261e+01 5.78169854210693e-03 7.46490453783641e-05
1.77065217391304e+01 5.73843216617839e-03 7.42272468529527e-05
1.77717391304348e+01 5.69548956693063e-03 7.38073311142802e-05
1.78369565217391e+01 5.65286832143538e-03 7.33892967326717e-05
1.79021739130435e+01 5.61056602489592e-03 7.29731422528924e-05
1.79673913043478e+01 5.56858029051146e-03 7.25588660901210e-05
1.80326086956522e+01 5.52690874934238e-03 7.21464665327814e-05
1.80978260869565e+01 5.48554905017654e-03 7.17359417451759e-05
1.81630434782609e+01 5.44449885939680e-03 7.13272897701581e-05
1.82282608695652e+01 5.40375586084924e-03 7.09205085318615e-05
1.82934782608696e+01 5.36331775571248e-03 7.05155958382349e-05
1.83586956521739e+01 5.32318226236798e-03 7.01125492901702e-05
1.84239130434783e+01 5.28334711648649e-03 6.97113665657690e-05
1.84891304347826e+01 5.24381007025086e-03 6.93120452343195e-05
1.85543478260870e+01 5.20456889288256e-03 6.89145825676144e-05
1.86195652173913e+01 5.16562137029672e-03 6.85189758299326e-05
1.86847826086957e+01 5.12696530497719e-03 6.81252221839632e-05
1.87500000000000e+01 5.08859851585256e-03 6.77333186931203e-05
1.88152173913043e+01 5.05051883817305e-03 6.73432623237618e-05
1.88804347826087e+01 5.01272412338842e-03 6.69550499473671e-05
1.89456521739130e+01 4.97521223902680e-03 6.65686783427420e-05
1.90108695652174e+01 4.93798106857428e-03 6.61841441981747e-05
1.90760869565217e+01 4.90102851135554e-03 6.58014441135086e-05
1.91413043478261e+01 4.86435248241531e-03 6.54205745185744e-05
1.92065217391304e+01 4.82795091258936e-03 6.50415319274455e-05
1.92717391304348e+01 4.79182174781846e-03 6.46643127717174e-05
1.93369565217391e+01 4.75596294960521e-03 6.42889132314020e-05
1.94021739130435e+01 4.72037249470695e-03 6.39153294942960e-05
1.94673913043478e+01 4.68504837502163e-03 6.35435576715817e-05
1.95326086956522e+01 4.64998859747446e-03 6.31735937997196e-05
1.95978260869565e+01 4.61519118390546e-03 6.28054338421920e-05
1.96630434782609e+01 4.58065417095789e-03 6.24390736913002e-05
1.97282608695652e+01 4.54637560996751e-03 6.20745091699931e-05
1.97934782608696e+01 4.51235356685255e-03 6.17117360335550e-05
1.98586956521739e+01 4.47858612200463e-03 6.13507498957431e-05
1.99239130434783e+01 4.44507137034778e-03 6.09915464583800e-05
1.99891304347826e+01 4.41180742072589e-03 6.06341213605475e-05
2.00543478260870e+01 4.37879239630411e-03 6.02784700256065e-05
2.01195652173913e+01 4.34602443429256e-03 5.99245878954303e-05
2.01847826086957e+01 4.31350168584124e-03 5.95724703539925e-05
2.02500000000000e+01 4.28122231593571e-03 5.92221127289104e-05
2.03152173913043e+01 4.24918450329349e-03 5.88735102929225e-05
2.03804347826087e+01 4.21738644026139e-03 5.85266582653408e-05
2.04456521739130e+01 4.18582633271350e-03 5.81815518135372e-05
2.05108695652174e+01 4.15450239994996e-03 5.78381860543761e-05
2.05760869565217e+01 4.12341287459646e-03 5.74965560556011e-05
