Energy (eV)          EEDF (eV^-(3/2))     First Anisotropy
5.58974358974359e-03 7.93033558111622e-01 4.71877796079113e-04
1.67692307692308e-02 7.86035446548139e-01 7.78383095827151e-04
2.79487179487179e-02 7.79099089705798e-01 1.02538051790883e-03
3.91282051282051e-02 7.72223942656892e-01 1.21170887694153e-03
5.03076923076923e-02 7.65409465225793e-01 1.36602251339806e-03
6.14871794871795e-02 7.58655122035728e-01 1.49918656260447e-03
7.26666666666667e-02 7.51960382433453e-01 1.61683916897586e-03
8.38461538461538e-02 7.45324720448823e-01 1.72239414819546e-03
9.50256410256410e-02 7.38747614760242e-01 1.81812157742088e-03
1.06205128205128e-01 7.32228548603347e-01 1.90563008834763e-03
1.17384615384615e-01 7.25767009852164e-01 1.98611355950148e-03
1.28564102564103e-01 7.19362490854132e-01 2.06048987362628e-03
1.39743589743590e-01 7.13014488436352e-01 2.12948465035688e-03
1.50923076923077e-01 7.06722503867736e-01 2.19368462840260e-03
1.62102564102564e-01 7.00486042779756e-01 2.25357319359820e-03
1.73282051282051e-01 6.94304615248052e-01 2.30955490908729e-03
1.84461538461538e-01 6.88177735628706e-01 2.36197295736519e-03
1.95641025641026e-01 6.82104922563438e-01 2.41112184375627e-03
2.06820512820513e-01 6.76085698941741e-01 2.45725687616578e-03
2.18000000000000e-01 6.70119591863872e-01 2.50060136579294e-03
2.29179487179487e-01 6.64206132577609e-01 2.54135217858391e-03
2.40358974358974e-01 6.58344856520361e-01 2.57968409863655e-03
2.51538461538462e-01 6.52535303201520e-01 2.61575329491694e-03
2.62717948717949e-01 6.46777016193966e-01 2.64970009467604e-03
2.73897435897436e-01 6.41069543098524e-01 2.68165124613530e-03
2.85076923076923e-01 6.35412435508335e-01 2.71172177441023e-03
2.96256410256410e-01 6.29805248954887e-01 2.74001650883653e-03
3.07435897435897e-01 6.24247542930226e-01 2.76663136738755e-03
3.18615384615385e-01 6.18738880793897e-01 2.79165443696288e-03
3.29794871794872e-01 6.13278829758502e-01 2.81516687690324e-03
3.40974358974359e-01 6.07866960855949e-01 2.83724369879105e-03
3.52153846153846e-01 6.02502848888533e-01 2.85795442504007e-03
3.63333333333333e-01 5.97186072441555e-01 2.87736366534657e-03
3.74512820512821e-01 5.91916213803266e-01 2.89553161640841e-03
3.85692307692308e-01 5.86692858947972e-01 2.91251448718921e-03
3.96871794871795e-01 5.81515597503584e-01 2.92836487801789e-03
4.08051282051282e-01 5.76384022719398e-01 2.94313211325933e-03
4.19230769230769e-01 5.71297731422162e-01 2.95686252790714e-03
4.30410256410256e-01 5.66256324020782e-01 2.96959972907389e-03
4.41589743589744e-01 5.61259404437906e-01 2.98138482852606e-03
4.52769230769231e-01 5.56306580091297e-01 2.99225664146356e-03
4.63948717948718e-01 5.51397461863146e-01 3.00225187216147e-03
4.75128205128205e-01 5.46531664059323e-01 3.01140527284459e-03
4.86307692307692e-01 5.41708804409831e-01 3.01974979371134e-03
4.97487179487180e-01 5.36928504007513e-01 3.02731671847673e-03
5.08666666666667e-01 5.32190387288861e-01 3.03413577932038e-03
5.19846153846154e-01 5.27494082004522e-01 3.04023526690747e-03
5.31025641025641e-01 5.22839219190092e-01 3.04564213020681e-03
5.42205128205128e-01 5.18225433128737e-01 3.05038206206377e-03
5.53384615384615e-01 5.13652361347891e-01 3.05447958370050e-03
5.64564102564103e-01 5.09119644564968e-01 3.05795812220408e-03
5.75743589743590e-01 5.04626926667835e-01 3.06084007478415e-03
5.86923076923077e-01 5.00173854686904e-01 3.06314687421999e-03
5.98102564102564e-01 4.95760078760107e-01 3.06489904291326e-03
6.09282051282051e-01 4.91385252127493e-01 3.06611624857522e-03
6.20461538461539e-01 4.87049031081586e-01 3.06681735580638e-03
6.31641025641026e-01 4.82751074947943e-01 3.06702046762224e-03
6.42820512820513e-01 4.78491046058392e-01 3.06674296869689e-03
6.54000000000000e-01 4.74268609724534e-01 3.06600156536248e-03
6.65179487179487e-01 4.70083434205252e-01 3.06481231840027e-03
6.76358974358974e-01 4.65935190699408e-01 3.06319067884687e-03
6.87538461538462e-01 4.61823553301001e-01 3.06115152149733e-03
6.98717948717949e-01 4.57748198979968e-01 3.05870917060533e-03
7.09897435897436e-01 4.53708807556834e-01 3.05587742821591e-03
7.21076923076923e-01 4.49705061677554e-01 3.05266960056251e-03
7.32256410256410e-01 4.45736646783263e-01 3.04909851883220e-03
7.43435897435898e-01 4.41803251101679e-01 3.04517656344389e-03
7.54615384615385e-01 4.37904565606287e-01 3.04091568695374e-03
7.65794871794872e-01 4.34040283997562e-01 3.03632743055825e-03
7.76974358974359e-01 4.30210102678933e-01 3.03142294445843e-03
7.88153846153846e-01 4.26413720728191e-01 3.02621300241474e-03
7.99333333333333e-01 4.22650839888184e-01 3.02070801991461e-03
8.10512820512821e-01 4.18921164528875e-01 3.01491807142089e-03
8.21692307692308e-01 4.15224401628999e-01 3.00885290202039e-03
8.32871794871795e-01 4.11560260753061e-01 3.00252194206812e-03
8.44051282051282e-01 4.07928454028514e-01 2.99593432095904e-03
8.55230769230769e-01 4.04328696119022e-01 2.98909887684902e-03
8.66410256410256e-01 4.00760704214538e-01 2.98202416993021e-03
8.77589743589744e-01 3.97224197996443e-01 2.97471849511412e-03
8.88769230769231e-01 3.93718899619773e-01 2.96718988984522e-03
8.99948717948718e-01 3.90244533691417e-01 2.95944614561520e-03
9.11128205128205e-01 3.86800827244762e-01 2.95149481500804e-03
9.22307692307692e-01 3.83387509729487e-01 2.94334322217696e-03
9.33487179487180e-01 3.80004312978940e-01 2.93499847290129e-03
9.44666666666667e-01 3.76650971192897e-01 2.92646746024678e-03
9.55846153846154e-01 3.73327220916686e-01 2.91775687304620e-03
9.67025641025641e-01 3.70032801020492e-01 2.90887320392022e-03
9.78205128205128e-01 3.66767452675569e-01 2.89982275411845e-03
9.89384615384615e-01 3.63530919343815e-01 2.89061164160531e-03
1.00056410256410e+00 3.60322946747595e-01 2.88124581158620e-03
1.01174358974359e+00 3.57143282840719e-01 2.87173102746710e-03
1.02292307692308e+00 3.53991677847436e-01 2.86207289899354e-03
1.03410256410256e+00 3.50867884131905e-01 2.85227687996297e-03
1.04528205128205e+00 3.47771656274182e-01 2.84234824908288e-03
1.05646153846154e+00 3.44702751048594e-01 2.83229215570652e-03
1.06764102564103e+00 3.41660927318424e-01 2.82211360491857e-03
1.07882051282051e+00 3.38645946103734e-01 2.81181744905836e-03
1.09000000000000e+00 3.35657570533400e-01 2.80140840584895e-03
1.10117948717949e+00 3.32695565853065e-01 2.79089107433497e-03
1.11235897435897e+00 3.29759699326714e-01 2.78026992682755e-03
1.12353846153846e+00 3.26849740298835e-01 2.76954930036934e-03
1.13471794871795e+00 3.23965460149376e-01 2.75873341349208e-03
1.14589743589744e+00 3.21106632300306e-01 2.74782638093512e-03
1.15707692307692e+00 3.18273032123552e-01 2.73683220557366e-03
1.16825641025641e+00 3.15464436998109e-01 2.72575476447084e-03
1.17943589743590e+00 3.12680626290723e-01 2.71459784643646e-03
1.19061538461538e+00 3.09921381268446e-01 2.70336513815957e-03
1.20179487179487e+00 3.07186485151973e-01 2.69206021589138e-03
1.21297435897436e+00 3.04475723074984e-01 2.68068656009578e-03
1.22415384615385e+00 3.01788882088841e-01 2.66924756829868e-03
1.23533333333333e+00 2.99125751080602e-01 2.65774654727191e-03
1.24651282051282e+00 2.96486120822099e-01 2.64618669988313e-03
1.25769230769231e+00 2.93869783951963e-01 2.63457115878833e-03
1.26887179487179e+00 2.91276534897590e-01 2.62290297340224e-03
1.28005128205128e+00 2.88706169921089e-01 2.61118510193534e-03
1.29123076923077e+00 2.86158487082455e-01 2.59942042432897e-03
1.30241025641026e+00 2.83633286242771e-01 2.58761175358834e-03
1.31358974358974e+00 2.81130368990887e-01 2.57576182832758e-03
1.32476923076923e+00 2.78649538685764e-01 2.56387330045720e-03
1.33594871794872e+00 2.76190600439726e-01 2.55194876555714e-03
1.34712820512821e+00 2.73753361048546e-01 2.53999075070663e-03
1.35830769230769e+00 2.71337629031181e-01 2.52800170694317e-03
1.36948717948718e+00 2.68943214596301e-01 2.51598402077181e-03
1.38066666666667e+00 2.66569929644287e-01 2.50394002424125e-03
1.39184615384615e+00 2.64217587701424e-01 2.49187198789495e-03
1.40302564102564e+00 2.61886003956582e-01 2.47978210930130e-03
1.41420512820513e+00 2.59574995245542e-01 2.46767254054131e-03
1.42538461538462e+00 2.57284379988186e-01 2.45554537687588e-03
1.43656410256410e+00 2.55013978222949e-01 2.44340264966024e-03
1.44774358974359e+00 2.52763611576316e-01 2.43124633664636e-03
1.45892307692308e+00 2.50533103263851e-01 2.41907837099804e-03
1.47010256410256e+00 2.48322278030957e-01 2.40690063466783e-03
1.48128205128205e+00 2.46130962184719e-01 2.39471494774122e-03
1.49246153846154e+00 2.43958983579252e-01 2.38252309339209e-03
1.50364102564103e+00 2.41806171559088e-01 2.37032680735618e-03
1.51482051282051e+00 2.39672356989131e-01 2.35812777130353e-03
1.52600000000000e+00 2.37557372226788e-01 2.34592762210550e-03
1.53717948717949e+00 2.35461051122225e-01 2.33372795994220e-03
1.54835897435897e+00 2.33383228964881e-01 2.32153034210565e-03
1.55953846153846e+00 2.31323742511191e-01 2.30933627659692e-03
1.57071794871795e+00 2.29282429958146e-01 2.29714723089121e-03
1.58189743589744e+00 2.27259130943129e-01 2.28496463960584e-03
1.59307692307692e+00 2.25253686493358e-01 2.27278989851270e-03
1.60425641025641e+00 2.23265939051597e-01 2.26062435506012e-03
1.61543589743590e+00 2.21295732462950e-01 2.24846932996573e-03
1.62661538461538e+00 2.19342911926450e-01 2.23632610785904e-03
1.63779487179487e+00 2.17407324019250e-01 2.22419593131574e-03
1.64897435897436e+00 2.15488816672387e-01 2.21208000879060e-03
1.66015384615385e+00 2.13587239170074e-01 2.19997952155406e-03
1.67133333333333e+00 2.11702442103892e-01 2.18789561811721e-03
1.68251282051282e+00 2.09834277395230e-01 2.17582940545129e-03
1.69369230769231e+00 2.07982598282924e-01 2.16378196870792e-03
1.70487179487180e+00 2.06147259279351e-01 2.15175436255611e-03
1.71605128205128e+00 2.04328116191569e-01 2.13974760563380e-03
1.72723076923077e+00 2.02525026099061e-01 2.12776268774852e-03
1.73841025641026e+00 2.00737847352604e-01 2.11580057617212e-03
1.74958974358974e+00 1.98966439532667e-01 2.10386221045816e-03
1.76076923076923e+00 1.97210663469028e-01 2.09194849431046e-03
1.77194871794872e+00 1.95470381229209e-01 2.08006031362495e-03
1.78312820512821e+00 1.93745456078565e-01 2.06819852847282e-03
1.79430769230769e+00 1.92035752498786e-01 2.05636396794530e-03
1.80548717948718e+00 1.90341136167438e-01 2.04455743670663e-03
1.81666666666667e+00 1.88661473956483e-01 2.03277972072203e-03
1.82784615384615e+00 1.86996633894436e-01 2.02103158244117e-03
1.83902564102564e+00 1.85346485183543e-01 2.00931375327350e-03
1.85020512820513e+00 1.83710898188940e-01 1.99762695011990e-03
1.86138461538462e+00 1.82089744402319e-01 1.98597186795105e-03
1.87256410256410e+00 1.80482896458136e-01 1.97434917502357e-03
1.88374358974359e+00 1.78890228114780e-01 1.96275951885604e-03
1.89492307692308e+00 1.77311614252824e-01 1.95120353145310e-03
1.90610256410256e+00 1.75746930840537e-01 1.93968182483213e-03
1.91728205128205e+00 1.74196054948947e-01 1.92819498405964e-03
1.92846153846154e+00 1.72658864741674e-01 1.91674358242021e-03
1.93964102564103e+00 1.71135239441794e-01 1.90532817454563e-03
1.95082051282051e+00 1.69625059346066e-01 1.89394929197751e-03
1.96200000000000e+00 1.68128205807555e-01 1.88260744862763e-03
1.97317948717949e+00 1.66644561233701e-01 1.87130314555119e-03
1.98435897435897e+00 1.65174009054822e-01 1.86003686679437e-03
1.99553846153846e+00 1.63716433737342e-01 1.84880907512767e-03
2.00671794871795e+00 1.62271720767214e-01 1.83762021724839e-03
2.01789743589744e+00 1.60839756647879e-01 1.82647072832900e-03
2.02907692307692e+00 1.59420428870327e-01 1.81536102802331e-03
2.04025641025641e+00 1.58013625925412e-01 1.80429151429198e-03
2.05143589743590e+00 1.56619237294662e-01 1.79326257670461e-03
2.06261538461538e+00 1.55237153421487e-01 1.78227459034765e-03
2.07379487179487e+00 1.53867265722800e-01 1.77132791186618e-03
2.08497435897436e+00 1.52509466573708e-01 1.76042288422972e-03
2.09615384615385e+00 1.51163649305345e-01 1.74955984089776e-03
2.10733333333333e+00 1.49829708177485e-01 1.73873910211576e-03
2.11851282051282e+00 1.48507538389361e-01 1.72796096919740e-03
2.12969230769231e+00 1.47197036071047e-01 1.71722573676358e-03
2.14087179487180e+00 1.45898098257105e-01 1.70653368710269e-03
2.15205128205128e+00 1.44610622896796e-01 1.69588508649911e-03
2.16323076923077e+00 1.43334508839929e-01 1.68528018960453e-03
2.17441025641026e+00 1.42069655834611e-01 1.67471924325884e-03
2.18558974358974e+00 1.40815964502159e-01 1.66420248305422e-03
2.19676923076923e+00 1.39573336346606e-01 1.65373012803909e-03
2.20794871794872e+00 1.38341673746632e-01 1.64330239198969e-03
2.21912820512821e+00 1.37120879931393e-01 1.63291947818766e-03
2.23030769230769e+00 1.35910858989515e-01 1.62258157601433e-03
2.24148717948718e+00 1.34711515855992e-01 1.61228886496501e-03
2.25266666666667e+00 1.33522756309885e-01 1.60204151815801e-03
2.26384615384615e+00 1.32344486951316e-01 1.59183969914638e-03
2.27502564102564e+00 1.31176615209828e-01 1.58168355701268e-03
2.28620512820513e+00 1.30019049336809e-01 1.57157323675808e-03
2.29738461538462e+00 1.28871698383323e-01 1.56150887446373e-03
2.30856410256410e+00 1.27734472208016e-01 1.55149059413219e-03
2.31974358974359e+00 1.26607281464981e-01 1.54151851137749e-03
2.33092307692308e+00 1.25490037601437e-01 1.53159273665150e-03
2.34210256410256e+00 1.24382652836603e-01 1.52171337228520e-03
2.35328205128205e+00 1.23285040169052e-01 1.51188050794381e-03
2.36446153846154e+00 1.22197113369605e-01 1.50209423021008e-03
2.37564102564103e+00 1.21118786960961e-01 1.49235461809949e-03
2.38682051282051e+00 1.20049976224664e-01 1.48266174013078e-03
2.39800000000000e+00 1.18990597189846e-01 1.47301565772156e-03
2.40917948717949e+00 1.17940566630911e-01 1.46341642815722e-03
2.42035897435897e+00 1.16899802048107e-01 1.45386410184469e-03
2.43153846153846e+00 1.15868221674005e-01 1.44435871949753e-03
2.44271794871795e+00 1.14845744462738e-01 1.43490031538175e-03
2.45389743589744e+00 1.13832290087669e-01 1.42548892015425e-03
2.46507692307692e+00 1.12827778922869e-01 1.41612455822323e-03
2.47625641025641e+00 1.11832132049149e-01 1.40680724371069e-03
2.48743589743590e+00 1.10845271247630e-01 1.39753698891616e-03
2.49861538461538e+00 1.09867118981866e-01 1.38831380033177e-03
2.50979487179487e+00 1.08897598403552e-01 1.37913767602967e-03
2.52097435897436e+00 1.07936633342529e-01 1.37000860865306e-03
2.53215384615385e+00 1.06984148304488e-01 1.36092658803141e-03
2.54333333333333e+00 1.06040068453908e-01 1.35189159873073e-03
2.55451282051282e+00 1.05104319619371e-01 1.34290361630933e-03
2.56569230769231e+00 1.04176828287525e-01 1.33396261513758e-03
2.57687179487180e+00 1.03257521586626e-01 1.32506856470307e-03
2.58805128205128e+00 1.02346327291556e-01 1.31622142718533e-03
2.59923076923077e+00 1.01443173814546e-01 1.30742116021408e-03
2.61041025641026e+00 1.00547990202910e-01 1.29866771928069e-03
2.62158974358974e+00 9.96607061233339e-02 1.28996105546429e-03
2.63276923076923e+00 9.87812518665461e-02 1.28130111195811e-03
2.64394871794872e+00 9.79095583416519e-02 1.27268783129880e-03
2.65512820512821e+00 9.70455570609648e-02 1.26412115193921e-03
2.66630769230769e+00 9.61891801444237e-02 1.25560100599668e-03
2.67748717948718e+00 9.53403603109733e-02 1.24712732179824e-03
2.68866666666667e+00 9.44990308763426e-02 1.23870002610599e-03
2.69984615384615e+00 9.36651257385575e-02 1.23031904200541e-03
2.71102564102564e+00 9.28385793820501e-02 1.22198428568250e-03
2.72220512820513e+00 9.20193268723395e-02 1.21369567311059e-03
2.73338461538462e+00 9.12073038420419e-02 1.20545311686997e-03
2.74456410256410e+00 9.04024464947550e-02 1.19725652405729e-03
2.75574358974359e+00 8.96046915970452e-02 1.18910579863547e-03
2.76692307692308e+00 8.88139764762793e-02 1.18100084348881e-03
2.77810256410256e+00 8.80302390072553e-02 1.17294155846119e-03
2.78928205128205e+00 8.72534176158171e-02 1.16492783736540e-03
2.80046153846154e+00 8.64834512738577e-02 1.15695957417119e-03
2.81164102564103e+00 8.57202794864089e-02 1.14903666005291e-03
2.82282051282051e+00 8.49638422950547e-02 1.14115898144804e-03
2.83400000000000e+00 8.42140802704786e-02 1.13332642222830e-03
2.84517948717949e+00 8.34709345103546e-02 1.12553886559835e-03
2.85635897435897e+00 8.27343466270018e-02 1.11779619227326e-03
2.86753846153846e+00 8.20042587505602e-02 1.11009827861248e-03
2.87871794871795e+00 8.12806135218427e-02 1.10244499869909e-03
2.88989743589744e+00 8.05633540902573e-02 1.09483622615857e-03
2.90107692307692e+00 7.98524241020035e-02 1.08727183240647e-03
2.91225641025641e+00 7.91477677030269e-02 1.07975168398501e-03
2.92343589743590e+00 7.84493295344952e-02 1.07227564805278e-03
2.93461538461538e+00 7.77570547213916e-02 1.06484358975517e-03
2.94579487179487e+00 7.70708888753020e-02 1.05745537049063e-03
2.95697435897436e+00 7.63907780877627e-02 1.05011084983321e-03
2.96815384615385e+00 7.57166689282473e-02 1.04280988721406e-03
2.97933333333333e+00 7.50485084332574e-02 1.03555234029353e-03
2.99051282051282e+00 7.43862441089135e-02 1.02833806248714e-03
3.00169230769231e+00 7.37298239267079e-02 1.02116690805139e-03
3.01287179487180e+00 7.30791963129590e-02 1.01403872964179e-03
3.02405128205128e+00 7.24343101512550e-02 1.00695337670129e-03
3.03523076923077e+00 7.17951147762604e-02 9.99910697238867e-04
3.04641025641026e+00 7.11615599717707e-02 9.92910539385428e-04
3.05758974358974e+00 7.05335959606223e-02 9.85952749880580e-04
3.06876923076923e+00 6.99111734069626e-02 9.79037171773894e-04
3.07994871794872e+00 6.92942434122631e-02 9.72163649138812e-04
3.09112820512821e+00 6.86827575055626e-02 9.65332024803839e-04
3.10230769230769e+00 6.80766676456088e-02 9.58542138854468e-04
3.11348717948718e+00 6.74759262150880e-02 9.51793830279534e-04
3.12466666666667e+00 6.68804860187497e-02 9.45086938411065e-04
3.13584615384615e+00 6.62903002740695e-02 9.38421301517319e-04
3.14702564102564e+00 6.57053226132358e-02 9.31796754666989e-04
3.15820512820513e+00 6.51255070794050e-02 9.25213134099646e-04
3.16938461538462e+00 6.45508081176717e-02 9.18670275117163e-04
3.18056410256410e+00 6.39811805769414e-02 9.12168010691110e-04
3.19174358974359e+00 6.34165797045536e-02 9.05706172986982e-04
3.20292307692308e+00 6.28569611444770e-02 8.99284594697590e-04
3.21410256410256e+00 6.23022809286637e-02 8.92903107734595e-04
3.22528205128205e+00 6.17524954787859e-02 8.86561541243318e-04
3.23646153846154e+00 6.12075616027186e-02 8.80259725656443e-04
3.24764102564103e+00 6.06674364861773e-02 8.73997490733755e-04
3.25882051282051e+00 6.01320776943537e-02 8.67774664267151e-04
3.27000000000000e+00 5.96014431669035e-02 8.61591073492690e-04
3.28117948717949e+00 5.90754912162115e-02 8.55446546325733e-04
3.29235897435897e+00 5.85541805193834e-02 8.49340910143698e-04
3.30353846153846e+00 5.80374701197601e-02 8.43273990541056e-04
3.31471794871795e+00 5.75253194221049e-02 8.37245612683251e-04
3.32589743589744e+00 5.70176881909062e-02 8.31255602491109e-04
3.33707692307692e+00 5.65145365427078e-02 8.25303785470289e-04
3.34825641025641e+00 5.60158249475118e-02 8.19389984939710e-04
3.35943589743590e+00 5.55215142255918e-02 8.13514025638923e-04
3.37061538461538e+00 5.50315655400706e-02 8.07675731978478e-04
3.38179487179487e+00 5.45459403982384e-02 8.01874926881610e-04
3.39297435897436e+00 5.40646006470643e-02 7.96111433039135e-04
3.40415384615385e+00 5.35875084715691e-02 7.90385074007225e-04
3.41533333333333e+00 5.31146263877153e-02 7.84695673118467e-04
3.42651282051282e+00 5.26459172436262e-02 7.79043051834002e-04
3.43769230769231e+00 5.21813442165934e-02 7.73427033092039e-04
3.44887179487180e+00 5.17208708061945e-02 7.67847439680785e-04
3.46005128205128e+00 5.12644608354382e-02 7.62304093160559e-04
3.47123076923077e+00 5.08120784465763e-02 7.56796815027218e-04
3.48241025641026e+00 5.03636880995465e-02 7.51325427730047e-04
3.49358974358974e+00 4.99192545653776e-02 7.45889753658486e-04
3.50476923076923e+00 4.94787429272467e-02 7.40489613609050e-04
3.51594871794872e+00 4.90421185776685e-02 7.35124829894586e-04
3.52712820512821e+00 4.86093472121112e-02 7.29795224830547e-04
