Energy (eV)          EEDF (eV^-(3/2))     First Anisotropy
2.74390243902439e-02 6.73676316156137e-02 3.93759888588302e-05
8.23170731707317e-02 6.68036622727586e-02 6.49671944976131e-05
1.37195121951220e-01 6.62444142061491e-02 8.56217707445444e-05
1.92073170731707e-01 6.56898478994214e-02 1.01226881850388e-04
2.46951219512195e-01 6.51399241538734e-02 1.14170486932940e-04
3.01829268292683e-01 6.45946041043950e-02 1.25357436892623e-04
3.56707317073171e-01 6.40538492111784e-02 1.35256975168703e-04
4.11585365853659e-01 6.35176212584711e-02 1.44153043749415e-04
4.66463414634146e-01 6.29858823474248e-02 1.52234337913343e-04
5.21341463414634e-01 6.24585948980138e-02 1.59634490115681e-04
5.76219512195122e-01 6.19357216447674e-02 1.66452618478621e-04
6.31097560975610e-01 6.14172256342064e-02 1.72764881357638e-04
6.85975609756098e-01 6.09030702229905e-02 1.78631449508293e-04
7.40853658536585e-01 6.03932190728992e-02 1.84100948710088e-04
7.95731707317073e-01 5.98876361507529e-02 1.89213416967340e-04
8.50609756097561e-01 5.93862857250173e-02 1.94002344870988e-04
9.05487804878049e-01 5.88891323638560e-02 1.98496125873030e-04
9.60365853658537e-01 5.83961409308923e-02 2.02719113430659e-04
1.01524390243902e+00 5.79072765844846e-02 2.06692408839951e-04
1.07012195121951e+00 5.74225047732194e-02 2.10434459245257e-04
1.12500000000000e+00 5.69417912374514e-02 2.13961519294019e-04
1.17987804878049e+00 5.64651020074345e-02 2.17288014871339e-04
1.23475609756098e+00 5.59924033893509e-02 2.20426829239298e-04
1.28963414634146e+00 5.55236619757747e-02 2.23389533176856e-04
1.34451219512195e+00 5.50588446389438e-02 2.26186574002427e-04
1.39939024390244e+00 5.45979185284109e-02 2.28827428918003e-04
1.45426829268293e+00 5.41408510687299e-02 2.31320732275264e-04
1.50914634146341e+00 5.36876099571716e-02 2.33674381730749e-04
1.56402439024390e+00 5.32381631614261e-02 2.35895627083893e-04
1.61890243902439e+00 5.27924789201238e-02 2.37991146856895e-04
1.67378048780488e+00 5.23505257321136e-02 2.39967111816747e-04
1.72865853658537e+00 5.19122723628438e-02 2.41829239275128e-04
1.78353658536585e+00 5.14776878392411e-02 2.43582841639014e-04
1.83841463414634e+00 5.10467414475185e-02 2.45232867076337e-04
1.89329268292683e+00 5.06194027310012e-02 2.46783935220120e-04
1.94817073170732e+00 5.01956414879922e-02 2.48240368371202e-04
2.00304878048780e+00 4.97754277696269e-02 2.49606218579330e-04
2.05792682926829e+00 4.93587318797935e-02 2.50885292679222e-04
2.11280487804878e+00 4.89455243668450e-02 2.52081173009642e-04
2.16768292682927e+00 4.85357760277888e-02 2.53197235727723e-04
2.22256097560976e+00 4.81294579041044e-02 2.54236668607134e-04
2.27743902439024e+00 4.77265412796967e-02 2.55202485786243e-04
2.33231707317073e+00 4.73269976788596e-02 2.56097541262126e-04
2.38719512195122e+00 4.69307988642790e-02 2.56924541018876e-04
2.44207317073171e+00 4.65379168350292e-02 2.57686053958684e-04
2.49695121951220e+00 4.61483238245935e-02 2.58384521521838e-04
2.55182926829268e+00 4.57619923004266e-02 2.59022267390741e-04
2.60670731707317e+00 4.53788949573842e-02 2.59601505096162e-04
2.66158536585366e+00 4.49990047204717e-02 2.60124344887107e-04
2.71646341463415e+00 4.46222947413526e-02 2.60592801248248e-04
2.77134146341463e+00 4.42487383964470e-02 2.61008798791222e-04
2.82621951219512e+00 4.38783092850577e-02 2.61374177889928e-04
2.88109756097561e+00 4.35109812275016e-02 2.61690699851810e-04
2.93597560975610e+00 4.31467282632592e-02 2.61960051451670e-04
2.99085365853659e+00 4.27855246503511e-02 2.62183849962376e-04
3.04573170731707e+00 4.24273448598449e-02 2.62363646748579e-04
3.10060975609756e+00 4.20721635777646e-02 2.62500930548057e-04
3.15548780487805e+00 4.17199557020502e-02 2.62597131592740e-04
3.21036585365854e+00 4.13706963407816e-02 2.62653624577209e-04
3.26524390243902e+00 4.10243608104226e-02 2.62671731623046e-04
3.32012195121951e+00 4.06809246340763e-02 2.62652725034866e-04
3.37500000000000e+00 4.03403635397547e-02 2.62597829675001e-04
3.42987804878049e+00 4.00026534596485e-02 2.62508225924274e-04
3.48475609756098e+00 3.96677705254394e-02 2.62385051527115e-04
3.53963414634146e+00 3.93356910696303e-02 2.62229403285352e-04
3.59451219512195e+00 3.90063916228568e-02 2.62042339591691e-04
3.64939024390244e+00 3.86798489122275e-02 2.61824882056039e-04
3.70426829268293e+00 3.83560398596796e-02 2.61578017213946e-04
3.75914634146341e+00 3.80349415803502e-02 2.61302698130829e-04
3.81402439024390e+00 3.77165313809572e-02 2.60999845742469e-04
3.86890243902439e+00 3.74007867590114e-02 2.60670350774205e-04
3.92378048780488e+00 3.70876853987552e-02 2.60315074737196e-04
3.97865853658537e+00 3.67772051720803e-02 2.59934850843402e-04
4.03353658536585e+00 3.64693241361238e-02 2.59530485705525e-04
4.08841463414634e+00 3.61640205317177e-02 2.59102760282601e-04
4.14329268292683e+00 3.58612727818496e-02 2.58652430935923e-04
4.19817073170732e+00 3.55610594901412e-02 2.58180230428223e-04
4.25304878048780e+00 3.52633594393339e-02 2.57686868722325e-04
4.30792682926829e+00 3.49681515904741e-02 2.57173034321269e-04
4.36280487804878e+00 3.46754150793545e-02 2.56639394818671e-04
4.41768292682927e+00 3.43851292171303e-02 2.56086597401609e-04
4.47256097560976e+00 3.40972734881534e-02 2.55515270070626e-04
4.52743902439024e+00 3.38118275485229e-02 2.54926022213060e-04
4.58231707317073e+00 3.35287712246454e-02 2.54319445292585e-04
4.63719512195122e+00 3.32480845118128e-02 2.53696113505779e-04
4.69207317073171e+00 3.29697475727863e-02 2.53056584407769e-04
4.74695121951220e+00 3.26937407363952e-02 2.52401399377708e-04
4.80182926829268e+00 3.24200444967155e-02 2.51731084577559e-04
4.85670731707317e+00 3.21486395099682e-02 2.51046151231112e-04
4.91158536585366e+00 3.18795065948907e-02 2.50347095874762e-04
4.96646341463415e+00 3.16126267307967e-02 2.49634401251681e-04
5.02134146341463e+00 3.13479810562309e-02 2.48908536648232e-04
5.07621951219512e+00 3.10855508676378e-02 2.48169958344428e-04
5.13109756097561e+00 3.08253176180390e-02 2.47419110045285e-04
5.18597560975610e+00 3.05672629157223e-02 2.46656423177300e-04
5.24085365853659e+00 3.03113685234298e-02 2.45882317633235e-04
5.29573170731707e+00 3.00576163555934e-02 2.45097201916034e-04
5.35060975609756e+00 2.98059884785449e-02 2.44301473263868e-04
5.40548780487805e+00 2.95564671087476e-02 2.43495518356275e-04
5.46036585365854e+00 2.93090346115398e-02 2.42679713527463e-04
5.51524390243902e+00 2.90636734998886e-02 2.41854425086429e-04
5.57012195121951e+00 2.88203664331544e-02 2.41020009624793e-04
5.62500000000000e+00 2.85790962158652e-02 2.40176814208442e-04
5.67987804878049e+00 2.83398457969212e-02 2.39325176975438e-04
5.73475609756098e+00 2.81025982671188e-02 2.38465427198789e-04
5.78963414634146e+00 2.78673368592373e-02 2.37597885335978e-04
5.84451219512195e+00 2.76340449464231e-02 2.36722863603346e-04
5.89939024390244e+00 2.74027060410142e-02 2.35840666111624e-04
5.95426829268293e+00 2.71733037933751e-02 2.34951589100221e-04
6.00914634146341e+00 2.69458219907421e-02 2.34055921163291e-04
6.06402439024390e+00 2.67202445560767e-02 2.33153943374000e-04
6.11890243902439e+00 2.64965555472942e-02 2.32245929777053e-04
6.17378048780488e+00 2.62747391550347e-02 2.31332147401920e-04
6.22865853658537e+00 2.60547797026566e-02 2.30412856266227e-04
6.28353658536585e+00 2.58366616447558e-02 2.29488309853770e-04
6.33841463414634e+00 2.56203695660666e-02 2.28558755199625e-04
6.39329268292683e+00 2.54058881803720e-02 2.27624433065796e-04
6.44817073170732e+00 2.51932023294245e-02 2.26685578111267e-04
6.50304878048780e+00 2.49822969818738e-02 2.25742418971998e-04
6.55792682926829e+00 2.47731572325227e-02 2.24795178674689e-04
6.61280487804878e+00 2.45657683003127e-02 2.23844074619510e-04
6.66768292682927e+00 2.43601155282479e-02 2.22889318555421e-04
6.72256097560976e+00 2.41561843820337e-02 2.21931116985059e-04
6.77743902439024e+00 2.39539604490493e-02 2.20969671216361e-04
6.83231707317073e+00 2.37534294373293e-02 2.20005177497092e-04
6.88719512195122e+00 2.35545771745538e-02 2.19037827145299e-04
6.94207317073171e+00 2.33573896070471e-02 2.18067806675955e-04
6.99695121951220e+00 2.31618527987837e-02 2.17095297847698e-04
7.05182926829268e+00 2.29679529306782e-02 2.16120478009805e-04
7.10670731707317e+00 2.27756762987793e-02 2.15143520064445e-04
7.16158536585366e+00 2.25850093141369e-02 2.14164592423145e-04
7.21646341463415e+00 2.23959385015612e-02 2.13183859348766e-04
7.27134146341463e+00 2.22084504986695e-02 2.12201480981995e-04
7.32621951219512e+00 2.20225320549431e-02 2.11217613443189e-04
7.38109756097561e+00 2.18381700307899e-02 2.10232408931443e-04
7.43597560975610e+00 2.16553513966166e-02 2.09246015752010e-04
7.49085365853659e+00 2.14740632321481e-02 2.08258578616495e-04
7.54573170731707e+00 2.12942927247859e-02 2.07270238594811e-04
7.60060975609756e+00 2.11160271694372e-02 2.06281133062520e-04
7.65548780487805e+00 2.09392539673699e-02 2.05291395998246e-04
7.71036585365854e+00 2.07639606253224e-02 2.04301157995576e-04
7.76524390243902e+00 2.05901347546206e-02 2.03310546343732e-04
7.82012195121951e+00 2.04177640703024e-02 2.02319685106197e-04
7.87500000000000e+00 2.02468363902497e-02 2.01328695134787e-04
7.92987804878049e+00 2.00773396345399e-02 2.00337694331853e-04
7.98475609756098e+00 1.99092618239489e-02 1.99346797596661e-04
8.03963414634146e+00 1.97425910797530e-02 1.98356116767895e-04
8.09451219512195e+00 1.95773156226712e-02 1.97365760884525e-04
8.14939024390244e+00 1.94134237720330e-02 1.96375836187779e-04
8.20426829268293e+00 1.92509039449526e-02 1.95386446185827e-04
8.25914634146342e+00 1.90897446555108e-02 1.94397691716954e-04
8.31402439024390e+00 1.89299345139431e-02 1.93409670954364e-04
8.36890243902439e+00 1.87714622260227e-02 1.92422479637014e-04
8.42378048780488e+00 1.86143165916934e-02 1.91436211013364e-04
8.47865853658537e+00 1.84584865048514e-02 1.90450955781962e-04
8.53353658536585e+00 1.83039609523679e-02 1.89466802321802e-04
8.58841463414634e+00 1.81507290133106e-02 1.88483836687550e-04
8.64329268292683e+00 1.79987798581718e-02 1.87502142661994e-04
8.69817073170732e+00 1.78481027481035e-02 1.86521801807265e-04
8.75304878048781e+00 1.76986870341581e-02 1.85542893463284e-04
8.80792682926829e+00 1.75505221567031e-02 1.84565494952193e-04
8.86280487804878e+00 1.74035976441693e-02 1.83589681521528e-04
8.91768292682927e+00 1.72579031128200e-02 1.82615526284691e-04
8.97256097560976e+00 1.71134282658461e-02 1.81643100425585e-04
9.02743902439024e+00 1.69701628926385e-02 1.80672473189250e-04
9.08231707317073e+00 1.68280968680660e-02 1.79703711924747e-04
9.13719512195122e+00 1.66872201517606e-02 1.78736882127139e-04
9.19207317073171e+00 1.65475227874071e-02 1.77772047478569e-04
9.24695121951219e+00 1.64089949020399e-02 1.76809269841556e-04
9.30182926829268e+00 1.62716267054923e-02 1.75848609438712e-04
9.35670731707317e+00 1.61354084892598e-02 1.74890124796687e-04
9.41158536585366e+00 1.60003306262620e-02 1.73933872687763e-04
9.46646341463415e+00 1.58663835700118e-02 1.72979908310204e-04
9.52134146341463e+00 1.57335578539405e-02 1.72028285275368e-04
9.57621951219512e+00 1.56018440907290e-02 1.71079055642327e-04
9.63109756097561e+00 1.54712329716443e-02 1.70132269951824e-04
9.68597560975610e+00 1.53417152658817e-02 1.69187977216740e-04
9.74085365853658e+00 1.52132818200436e-02 1.68246225082867e-04
9.79573170731707e+00 1.50859235570960e-02 1.67307059774486e-04
9.85060975609756e+00 1.49596314761263e-02 1.66370526037929e-04
9.90548780487805e+00 1.48343966515735e-02 1.65436667303220e-04
9.96036585365854e+00 1.47102102325965e-02 1.64505525669398e-04
1.00152439024390e+01 1.45870634424497e-02 1.63577141814359e-04
1.00701219512195e+01 1.44649475782227e-02 1.62651555578821e-04
1.01250000000000e+01 1.43438540085406e-02 1.61728804965125e-04
1.01798780487805e+01 1.42237741764363e-02 1.60808927097495e-04
1.02347560975610e+01 1.41046995942142e-02 1.59891957854771e-04
1.02896341463415e+01 1.39866218475648e-02 1.58977931917921e-04
1.03445121951220e+01 1.38695325903196e-02 1.58066882855566e-04
1.03993902439024e+01 1.37534235484486e-02 1.57158843088956e-04
1.04542682926829e+01 1.36382865149502e-02 1.56253843975014e-04
1.05091463414634e+01 1.35241133537354e-02 1.55351915771580e-04
1.05640243902439e+01 1.34108959946488e-02 1.54453087718095e-04
1.06189024390244e+01 1.32986264372431e-02 1.53557388001159e-04
1.06737804878049e+01 1.31872967459268e-02 1.52664843832926e-04
1.07286585365854e+01 1.30768990536334e-02 1.51775481417006e-04
1.07835365853659e+01 1.29674255570913e-02 1.50889326024602e-04
1.08384146341463e+01 1.28588685203910e-02 1.50006401960770e-04
1.08932926829268e+01 1.27512202703745e-02 1.49126732638479e-04
1.09481707317073e+01 1.26444732001031e-02 1.48250340545167e-04
1.10030487804878e+01 1.25386197643624e-02 1.47377247314740e-04
1.10579268292683e+01 1.24336524830345e-02 1.46507473694516e-04
1.11128048780488e+01 1.23295639367153e-02 1.45641039615243e-04
1.11676829268293e+01 1.22263467699934e-02 1.44777964158402e-04
1.12225609756098e+01 1.21239936871770e-02 1.43918265624287e-04
1.12774390243902e+01 1.20224974554823e-02 1.43061961190715e-04
1.13323170731707e+01 1.19218509017500e-02 1.42209068217929e-04
1.13871951219512e+01 1.18220469120059e-02 1.41359602366445e-04
1.14420731707317e+01 1.17230784335795e-02 1.40513578858281e-04
1.14969512195122e+01 1.16249384711155e-02 1.39671012216268e-04
1.15518292682927e+01 1.15276200895242e-02 1.38831916233169e-04
1.16067073170732e+01 1.14311164100916e-02 1.37996304033082e-04
1.16615853658537e+01 1.13354206133487e-02 1.37164188040954e-04
1.17164634146341e+01 1.12405259352772e-02 1.36335580042390e-04
1.17713414634146e+01 1.11464256701017e-02 1.35510491153497e-04
1.18262195121951e+01 1.10531131665872e-02 1.34688931879143e-04
1.18810975609756e+01 1.09605818307562e-02 1.33870912083204e-04
1.19359756097561e+01 1.08688251222766e-02 1.33056441045249e-04
1.19908536585366e+01 1.07778365571049e-02 1.32245527431214e-04
1.20457317073171e+01 1.06876097039624e-02 1.31438179348595e-04
1.21006097560976e+01 1.05981381869072e-02 1.30634404317510e-04
1.21554878048780e+01 1.05094156818954e-02 1.29834209324454e-04
1.22103658536585e+01 1.04214359192847e-02 1.29037600793772e-04
1.22652439024390e+01 1.03341926804778e-02 1.28244584640027e-04
1.23201219512195e+01 1.02476798003597e-02 1.27455166239844e-04
1.23750000000000e+01 1.01618911640216e-02 1.26669350482921e-04
1.24298780487805e+01 1.00768207091330e-02 1.25887141744296e-04
1.24847560975610e+01 9.99246242274477e-03 1.25108543934058e-04
1.25396341463415e+01 9.90881034359755e-03 1.24333560469970e-04
1.25945121951220e+01 9.82585855900145e-03 1.23562194325942e-04
1.26493902439024e+01 9.74360120708333e-03 1.22794448005051e-04
1.27042682926829e+01 9.66203247374079e-03 1.22030323586752e-04
1.27591463414634e+01 9.58114659483002e-03 1.21269822700318e-04
1.28140243902439e+01 9.50093785319218e-03 1.20512946570850e-04
1.28689024390244e+01 9.42140058078354e-03 1.19759695993099e-04
1.29237804878049e+01 9.34252915577232e-03 1.19010071376338e-04
1.29786585365854e+01 9.26431800461274e-03 1.18264072718566e-04
1.30335365853659e+01 9.18676159921053e-03 1.17521699650237e-04
1.30884146341463e+01 9.10985445894250e-03 1.16782951408862e-04
1.31432926829268e+01 9.03359114788884e-03 1.16047826881664e-04
1.31981707317073e+01 8.95796627679978e-03 1.15316324580543e-04
1.32530487804878e+01 8.88297450039300e-03 1.14588442683662e-04
1.33079268292683e+01 8.80861051926887e-03 1.13864179010818e-04
1.33628048780488e+01 8.73486907727121e-03 1.13143531063996e-04
1.34176829268293e+01 8.66174496335261e-03 1.12426496003110e-04
1.34725609756098e+01 8.58923300899687e-03 1.11713070685552e-04
1.35274390243902e+01 8.51732809003582e-03 1.11003251442382e-04
1.35823170731707e+01 8.44602512465374e-03 1.10297034918313e-04
1.36371951219512e+01 8.37531907306528e-03 1.09594416851016e-04
1.36920731707317e+01 8.30520493870996e-03 1.08895392883598e-04
1.37469512195122e+01 8.23567776583452e-03 1.08199958392222e-04
1.38018292682927e+01 8.16673264118198e-03 1.07508108463355e-04
1.38567073170732e+01 8.09836469162995e-03 1.06819837929816e-04
1.39115853658537e+01 8.03056908583618e-03 1.06135141348402e-04
1.39664634146341e+01 7.96334103193133e-03 1.05454013035068e-04
1.40213414634146e+01 7.89667577912225e-03 1.04776447042891e-04
1.40762195121951e+01 7.83056861543780e-03 1.04102437196396e-04
1.41310975609756e+01 7.76501486929102e-03 1.03431977069879e-04
1.41859756097561e+01 7.70000990727674e-03 1.02765060020900e-04
1.42408536585366e+01 7.63554913569371e-03 1.02101679168964e-04
1.42957317073171e+01 7.57162799839269e-03 1.01441827428197e-04
1.43506097560976e+01 7.50824197825967e-03 1.00785497486363e-04
1.44054878048780e+01 7.44538659511313e-03 1.00132681836781e-04
1.44603658536585e+01 7.38305740714947e-03 9.94833727576605e-05
1.45152439024390e+01 7.32125000888821e-03 9.88375623432540e-05
1.45701219512195e+01 7.25996003258060e-03 9.81952424835471e-05
1.46250000000000e+01 7.19918314620159e-03 9.75564048946531e-05
1.46798780487805e+01 7.13891505482268e-03 9.69210410988265e-05
1.47347560975610e+01 7.07915149864945e-03 9.62891424541533e-05
1.47896341463415e+01 7.01988825435960e-03 9.56607001348841e-05
1.48445121951220e+01 6.96112113318496e-03 9.50357051604180e-05
1.48993902439024e+01 6.90284598221563e-03 9.44141483759581e-05
1.49542682926829e+01 6.84505868252537e-03 9.37960204808178e-05
1.50091463414634e+01 6.78775515044280e-03 9.31813120093931e-05
1.50640243902439e+01 6.73093133571905e-03 9.25700133587824e-05
1.51189024390244e+01 6.67458322276694e-03 9.19621147700926e-05
1.51737804878049e+01 6.61870682886984e-03 9.13576063554238e-05
1.52286585365854e+01 6.56329820538966e-03 9.07564780794572e-05
1.52835365853659e+01 6.50835343601597e-03 9.01587197858114e-05
1.53384146341463e+01 6.45386863794363e-03 8.95643211789382e-05
1.53932926829268e+01 6.39983996016113e-03 8.89732718498735e-05
1.54481707317073e+01 6.34626358459873e-03 8.83855612584239e-05
1.55030487804878e+01 6.29313572445507e-03 8.78011787583227e-05
1.55579268292683e+01 6.24045262531651e-03 8.72201135797140e-05
1.56128048780488e+01 6.18821056352119e-03 8.66423548537121e-05
1.56676829268293e+01 6.13640584725036e-03 8.60678915951972e-05
1.57225609756098e+01 6.08503481492883e-03 8.54967127267895e-05
1.57774390243902e+01 6.03409383628916e-03 8.49288069307702e-05
1.58323170731707e+01 5.98357931112465e-03 8.43641631982870e-05
1.58871951219512e+01 5.93348766905622e-03 8.38027700272095e-05
1.59420731707317e+01 5.88381537022304e-03 8.32446159536436e-05
1.59969512195122e+01 5.83455890377687e-03 8.26896894371811e-05
1.60518292682927e+01 5.78571478887478e-03 8.21379788447870e-05
1.61067073170732e+01 5.73727957320673e-03 8.15894724727927e-05
1.61615853658537e+01 5.68924983396376e-03 8.10441585310655e-05
1.62164634146341e+01 5.64162217639797e-03 8.05020251644893e-05
1.62713414634146e+01 5.59439323476680e-03 7.99630604373971e-05
1.63262195121951e+01 5.54755967092473e-03 7.94272523545699e-05
1.63810975609756e+01 5.50111817524420e-03 7.88945888459237e-05
1.64359756097561e+01 5.45506546523827e-03 7.83650577870364e-05
1.64908536585366e+01 5.40939828645883e-03 7.78386469840867e-05
1.65457317073171e+01 5.36411341114947e-03 7.73153441939115e-05
1.66006097560976e+01 5.31920763912159e-03 7.67951371092027e-05
1.66554878048780e+01 5.27467779643674e-03 7.62780133781173e-05
1.67103658536585e+01 5.23052073626120e-03 7.57639605897170e-05
1.67652439024390e+01 5.18673333757714e-03 7.52529662931212e-05
1.68201219512195e+01 5.14331250601619e-03 7.47450179832098e-05
1.68750000000000e+01 5.10025517259872e-03 7.42401031193474e-05
1.69298780487805e+01 5.05755829454704e-03 7.37382091113092e-05
1.69847560975610e+01 5.01521885405203e-03 7.32393233375937e-05
1.70396341463415e+01 4.97323385906654e-03 7.27434331315975e-05
1.70945121951220e+01 4.93160034209878e-03 7.22505257994961e-05
1.71493902439024e+01 4.89031536098633e-03 7.17605886066543e-05
1.72042682926829e+01 4.84937599771575e-03 7.12736087951137e-05
1.72591463414634e+01 4.80877935917769e-03 7.07895735702386e-05
1.73140243902439e+01 4.76852257601207e-03 7.03084701178075e-05
