Energy (eV)          EEDF (eV^-(3/2))     First Anisotropy
1.21785714285714e-02 1.13523520272421e+00 1.11469813200002e-03
3.65357142857143e-02 1.10758053240084e+00 1.82439690778537e-03
6.08928571428571e-02 1.08059953822940e+00 2.36564673717339e-03
8.52500000000000e-02 1.05427580915457e+00 2.75170591968945e-03
1.09607142857143e-01 1.02859333403977e+00 3.05351799262988e-03
1.33964285714286e-01 1.00353649176975e+00 3.29865735036301e-03
1.58321428571429e-01 9.79090041668697e-01 3.50176698972564e-03
1.82678571428571e-01 9.55239114408527e-01 3.67190860076153e-03
2.07035714285714e-01 9.31969202876441e-01 3.81523365165263e-03
2.31392857142857e-01 9.09266153360105e-01 3.93618696126706e-03
2.55750000000000e-01 8.87116156934161e-01 4.03812809933140e-03
2.80107142857143e-01 8.65505741140528e-01 4.12368419278990e-03
3.04464285714286e-01 8.44421761548882e-01 4.19496484771515e-03
3.28821428571429e-01 8.23851394017602e-01 4.25370043687499e-03
3.53178571428571e-01 8.03782126804532e-01 4.30133507617566e-03
3.77535714285714e-01 7.84201752956219e-01 4.33909139680700e-03
4.01892857142857e-01 7.65098362884941e-01 4.36801705595831e-03
4.26250000000000e-01 7.46460337123841e-01 4.38901899351349e-03
4.50607142857143e-01 7.28276339299774e-01 4.40288923435078e-03
4.74964285714286e-01 7.10535309113814e-01 4.41032468148607e-03
4.99321428571429e-01 6.93226455742202e-01 4.41194256399075e-03
5.23678571428571e-01 6.76339251228760e-01 4.40829268728793e-03
5.48035714285714e-01 6.59863424081089e-01 4.39986725988329e-03
5.72392857142857e-01 6.43788953023693e-01 4.38710888005860e-03
5.96750000000000e-01 6.28106060902270e-01 4.37041709416423e-03
6.21107142857143e-01 6.12805208761161e-01 4.35015384263846e-03
6.45464285714286e-01 5.97877089966550e-01 4.32664801002237e-03
6.69821428571429e-01 5.83312624622676e-01 4.30019926326390e-03
6.94178571428571e-01 5.69102954022714e-01 4.27108132294195e-03
7.18535714285714e-01 5.55239435260414e-01 4.23954475675752e-03
7.42892857142857e-01 5.41713635973441e-01 4.20581938744939e-03
7.67250000000000e-01 5.28517329214304e-01 4.17011637800493e-03
7.91607142857143e-01 5.15642488462343e-01 4.13263005308482e-03
8.15964285714286e-01 5.03081282692651e-01 4.09353948814838e-03
8.40321428571429e-01 4.90826071663175e-01 4.05300990710586e-03
8.64678571428572e-01 4.78869401250428e-01 4.01119392366835e-03
8.89035714285714e-01 4.67203998915513e-01 3.96823263782485e-03
9.13392857142857e-01 4.55822769280829e-01 3.92425661366396e-03
9.37750000000000e-01 4.44718789814284e-01 3.87938675249908e-03
9.62107142857143e-01 4.33885306629737e-01 3.83373507959958e-03
9.86464285714286e-01 4.23315730345231e-01 3.78740544754508e-03
1.01082142857143e+00 4.13003632109630e-01 3.74049417062953e-03
1.03517857142857e+00 4.02942739680528e-01 3.69309060141266e-03
1.05953571428571e+00 3.93126933635798e-01 3.64527766474806e-03
1.08389285714286e+00 3.83550243509446e-01 3.59713230920124e-03
1.10825000000000e+00 3.74206844454301e-01 3.54872595108713e-03
1.13260714285714e+00 3.65091053427201e-01 3.50012488941008e-03
1.15696428571429e+00 3.56197325825883e-01 3.45139064922388e-03
1.18132142857143e+00 3.47520252045875e-01 3.40258030224441e-03
1.20567857142857e+00 3.39054554408040e-01 3.35374678606495e-03
1.23003571428571e+00 3.30795083723757e-01 3.30493920532163e-03
1.25439285714286e+00 3.22736816178673e-01 3.25620305039372e-03
1.27875000000000e+00 3.14874850467928e-01 3.20758045678098e-03
1.30310714285714e+00 3.07204404618141e-01 3.15911043918148e-03
1.32746428571429e+00 2.99720813146399e-01 3.11082908166896e-03
1.35182142857143e+00 2.92419524170565e-01 3.06276971843046e-03
1.37617857142857e+00 2.85296096800637e-01 3.01496312101762e-03
1.40053571428571e+00 2.78346198272908e-01 2.96743767812502e-03
1.42489285714286e+00 2.71565601325496e-01 2.92021951630289e-03
1.44925000000000e+00 2.64950181768358e-01 2.87333265781515e-03
1.47360714285714e+00 2.58495915829459e-01 2.82679916321324e-03
1.49796428571429e+00 2.52198877757156e-01 2.78063924337051e-03
1.52232142857143e+00 2.46055237393586e-01 2.73487136756663e-03
1.54667857142857e+00 2.40061257964425e-01 2.68951238001656e-03
1.57103571428571e+00 2.34213293683266e-01 2.64457761342779e-03
1.59539285714286e+00 2.28507787541869e-01 2.60008095829401e-03
1.61975000000000e+00 2.22941269252634e-01 2.55603496396665e-03
1.64410714285714e+00 2.17510353028887e-01 2.51245092973308e-03
1.66846428571429e+00 2.12211735562804e-01 2.46933897353098e-03
1.69282142857143e+00 2.07042193986826e-01 2.42670809915369e-03
1.71717857142857e+00 2.01998584003673e-01 2.38456627175968e-03
1.74153571428571e+00 1.97077837881139e-01 2.34292049244582e-03
1.76589285714286e+00 1.92276962591824e-01 2.30177683875462e-03
1.79025000000000e+00 1.87593038073145e-01 2.26114053169005e-03
1.81460714285714e+00 1.83023215368591e-01 2.22101599583138e-03
1.83896428571429e+00 1.78564714923131e-01 2.18140690253846e-03
1.86332142857143e+00 1.74214824870126e-01 2.14231621277700e-03
1.88767857142857e+00 1.69970899450826e-01 2.10374622741644e-03
1.91203571428571e+00 1.65830357334363e-01 2.06569863753163e-03
1.93639285714286e+00 1.61790680051848e-01 2.02817454804358e-03
1.96075000000000e+00 1.57849410526257e-01 1.99117452323619e-03
1.98510714285714e+00 1.54004151514627e-01 1.95469862731859e-03
2.00946428571429e+00 1.50252564171581e-01 1.91874645193559e-03
2.03382142857143e+00 1.46592366609445e-01 1.88331714382184e-03
2.05817857142857e+00 1.43021332563445e-01 1.84840943892488e-03
2.08253571428571e+00 1.39537289983131e-01 1.81402169695530e-03
2.10689285714286e+00 1.36138119714373e-01 1.78015191483577e-03
2.13125000000000e+00 1.32821754258103e-01 1.74679775811852e-03
2.15560714285714e+00 1.29586176463883e-01 1.71395658874783e-03
2.17996428571429e+00 1.26429418319691e-01 1.68162548260402e-03
2.20432142857143e+00 1.23349559741453e-01 1.64980124742165e-03
2.22867857142857e+00 1.20344727446403e-01 1.61848044620086e-03
2.25303571428571e+00 1.17413093771439e-01 1.58765942121543e-03
2.27739285714286e+00 1.14552875563827e-01 1.55733430118611e-03
2.30175000000000e+00 1.11762333133722e-01 1.52750102318691e-03
2.32610714285714e+00 1.09039769158006e-01 1.49815535180013e-03
2.35046428571429e+00 1.06383527660880e-01 1.46929289019031e-03
2.37482142857143e+00 1.03791992996131e-01 1.44090909163765e-03
2.39917857142857e+00 1.01263588896626e-01 1.41299927568724e-03
2.42353571428571e+00 9.87967774826027e-02 1.38555864493859e-03
2.44789285714286e+00 9.63900583280707e-02 1.35858228832432e-03
2.47225000000000e+00 9.40419675772321e-02 1.33206519646410e-03
2.49660714285714e+00 9.17510770243739e-02 1.30600227491679e-03
2.52096428571429e+00 8.95159932553153e-02 1.28038835099409e-03
2.54532142857143e+00 8.73353567916361e-02 1.25521818104614e-03
2.56967857142857e+00 8.52078412890493e-02 1.23048646160295e-03
2.59403571428571e+00 8.31321527048110e-02 1.20618784113753e-03
2.61839285714286e+00 8.11070285120214e-02 1.18231692093616e-03
2.64275000000000e+00 7.91312369545365e-02 1.15886826586871e-03
2.66710714285714e+00 7.72035762743980e-02 1.13583641353528e-03
2.69146428571429e+00 7.53228739888419e-02 1.11321587825386e-03
2.71582142857143e+00 7.34879861706470e-02 1.09100115549678e-03
2.74017857142857e+00 7.16977967722692e-02 1.06918672953756e-03
2.76453571428571e+00 6.99512169266411e-02 1.04776708167182e-03
2.78889285714286e+00 6.82471842859579e-02 1.02673668962408e-03
2.81325000000000e+00 6.65846623935428e-02 1.00609003507678e-03
2.83760714285714e+00 6.49626400349890e-02 9.85821609933948e-04
2.86196428571429e+00 6.33801306293829e-02 9.65925918432623e-04
2.88632142857143e+00 6.18361716240803e-02 9.46397479664306e-04
2.91067857142857e+00 6.03298239250068e-02 9.27230832764158e-04
2.93503571428571e+00 5.88601713093421e-02 9.08420542615387e-04
2.95939285714286e+00 5.74263198690764e-02 8.89961198400270e-04
2.98375000000000e+00 5.60273974815913e-02 8.71847418820472e-04
3.00810714285714e+00 5.46625532645841e-02 8.54073856324653e-04
3.03246428571429e+00 5.33309570635055e-02 8.36635197982027e-04
3.05682142857143e+00 5.20317989425382e-02 8.19526166721437e-04
3.08117857142857e+00 5.07642887044816e-02 8.02741524785226e-04
3.10553571428571e+00 4.95276553973223e-02 7.86276077637215e-04
3.12989285714286e+00 4.83211468459675e-02 7.70124672050538e-04
3.15425000000000e+00 4.71440292061088e-02 7.54282199677025e-04
3.17860714285714e+00 4.59955865062478e-02 7.38743599833396e-04
3.20296428571429e+00 4.48751202161706e-02 7.23503859570138e-04
3.22732142857143e+00 4.37819488188154e-02 7.08558014061385e-04
3.25167857142857e+00 4.27154074057230e-02 6.93901148832556e-04
3.27603571428571e+00 4.16748472624159e-02 6.79528402383591e-04
3.30039285714286e+00 4.06596354743420e-02 6.65434964066795e-04
3.32475000000000e+00 3.96691545509783e-02 6.51616076474241e-04
3.34910714285714e+00 3.87028020409806e-02 6.38067037204525e-04
3.37346428571429e+00 3.77599901689030e-02 6.24783198422564e-04
3.39782142857143e+00 3.68401454750857e-02 6.11759966698524e-04
3.42217857142857e+00 3.59427084748249e-02 5.98992804371350e-04
3.44653571428571e+00 3.50671333099268e-02 5.86477231254172e-04
3.47089285714286e+00 3.42128874171031e-02 5.74208822463570e-04
3.49525000000000e+00 3.33794512112985e-02 5.62183209962138e-04
3.51960714285714e+00 3.25663177622462e-02 5.50396083607458e-04
3.54396428571429e+00 3.17729924886553e-02 5.38843190404814e-04
3.56832142857143e+00 3.09989928552998e-02 5.27520334000885e-04
3.59267857142857e+00 3.02438480859074e-02 5.16423375442388e-04
3.61703571428571e+00 2.95070988702908e-02 5.05548234228459e-04
3.64139285714286e+00 2.87882970853007e-02 4.94890886191820e-04
3.66575000000000e+00 2.80870055280757e-02 4.84447364440373e-04
3.69010714285714e+00 2.74027976441763e-02 4.74213759905016e-04
3.71446428571429e+00 2.67352572701590e-02 4.64186220422792e-04
3.73882142857143e+00 2.60839783787729e-02 4.54360950027114e-04
3.76317857142857e+00 2.54485648371259e-02 4.44734209287657e-04
3.78753571428571e+00 2.48286301605033e-02 4.35302315901553e-04
3.81189285714286e+00 2.42237972775498e-02 4.26061642686533e-04
3.83625000000000e+00 2.36336983055943e-02 4.17008618098462e-04
3.86060714285714e+00 2.30579743221142e-02 4.08139726433976e-04
3.88496428571429e+00 2.24962751480488e-02 3.99451506836974e-04
3.90932142857143e+00 2.19482591334577e-02 3.90940552482277e-04
3.93367857142857e+00 2.14135929538412e-02 3.82603510630658e-04
3.95803571428571e+00 2.08919514031863e-02 3.74437082898215e-04
3.98239285714286e+00 2.03830171963681e-02 3.66438023394496e-04
4.00675000000000e+00 1.98864807799289e-02 3.58603138944626e-04
4.03110714285714e+00 1.94020401399516e-02 3.50929289059093e-04
4.05546428571429e+00 1.89294006196696e-02 3.43413384925236e-04
4.07982142857143e+00 1.84682747391578e-02 3.36052388549968e-04
4.10417857142857e+00 1.80183820238016e-02 3.28843312626069e-04
4.12853571428571e+00 1.75794488303054e-02 3.21783220580873e-04
4.15289285714286e+00 1.71512081804156e-02 3.14869224874698e-04
4.17725000000000e+00 1.67333996015708e-02 3.08098487021019e-04
4.20160714285714e+00 1.63257689653712e-02 3.01468217404010e-04
4.22596428571429e+00 1.59280683340621e-02 2.94975674295025e-04
4.25032142857143e+00 1.55400558088497e-02 2.88618162997890e-04
4.27467857142857e+00 1.51614953854548e-02 2.82393035595250e-04
4.29903571428571e+00 1.47921568078233e-02 2.76297690849863e-04
4.32339285714286e+00 1.44318154282073e-02 2.70329572667042e-04
4.34775000000000e+00 1.40802520729787e-02 2.64486169980547e-04
4.37210714285714e+00 1.37372529068145e-02 2.58765016475575e-04
4.39646428571429e+00 1.34026093034849e-02 2.53163689655034e-04
4.42082142857143e+00 1.30761177182480e-02 2.47679810015373e-04
4.44517857142857e+00 1.27575795662188e-02 2.42311040721903e-04
4.46953571428571e+00 1.24468010993638e-02 2.37055087415511e-04
4.49389285714286e+00 1.21435932887614e-02 2.31909696835493e-04
4.51825000000000e+00 1.18477717116137e-02 2.26872656620000e-04
4.54260714285714e+00 1.15591564370453e-02 2.21941794975305e-04
4.56696428571429e+00 1.12775719173514e-02 2.17114979806233e-04
4.59132142857143e+00 1.10028468806472e-02 2.12390117939567e-04
4.61567857142857e+00 1.07348142284533e-02 2.07765154762740e-04
4.64003571428571e+00 1.04733109322637e-02 2.03238073973863e-04
4.66439285714286e+00 1.02181779344701e-02 1.98806896356783e-04
4.68875000000000e+00 9.96926005322692e-03 1.94469679531022e-04
4.71310714285714e+00 9.72640588642041e-03 1.90224517595980e-04
4.73746428571429e+00 9.48946772013807e-03 1.86069540332546e-04
4.76182142857143e+00 9.25830143835618e-03 1.82002912483645e-04
4.78617857142857e+00 9.03276643671055e-03 1.78022833380116e-04
4.81053571428571e+00 8.81272553551828e-03 1.74127536660873e-04
4.83489285714286e+00 8.59804489640808e-03 1.70315289189534e-04
4.85925000000000e+00 8.38859394222131e-03 1.66584390778570e-04
4.88360714285714e+00 8.18424527625613e-03 1.62933173828137e-04
4.90796428571429e+00 7.98487460523294e-03 1.59360002601091e-04
4.93232142857143e+00 7.79036066331480e-03 1.55863272564917e-04
4.95667857142857e+00 7.60058513950850e-03 1.52441410021013e-04
4.98103571428571e+00 7.41543260451970e-03 1.49092871813684e-04
5.00539285714286e+00 7.23479044059959e-03 1.45816144376447e-04
5.02975000000000e+00 7.05854877410826e-03 1.42609743447605e-04
5.05410714285714e+00 6.88660040760157e-03 1.39472213716937e-04
5.07846428571429e+00 6.71884075499756e-03 1.36402128173081e-04
5.10282142857143e+00 6.55516777765440e-03 1.33398087507618e-04
5.12717857142857e+00 6.39548192324965e-03 1.30458719758323e-04
5.15153571428571e+00 6.23968606426624e-03 1.27582680019817e-04
5.17589285714286e+00 6.08768543896040e-03 1.24768649607308e-04
5.20025000000000e+00 5.93938759458791e-03 1.22015335775311e-04
5.22460714285714e+00 5.79470233028901e-03 1.19321471380705e-04
5.24896428571429e+00 5.65354164252418e-03 1.16685814299386e-04
5.27332142857143e+00 5.51581967129561e-03 1.14107146890959e-04
5.29767857142857e+00 5.38145264869156e-03 1.11584275662553e-04
5.32203571428571e+00 5.25035884715209e-03 1.09116030989593e-04
5.34639285714286e+00 5.12245852979526e-03 1.06701266384950e-04
5.37075000000000e+00 4.99767390262184e-03 1.04338858228517e-04
5.39510714285714e+00 4.87592906647990e-03 1.02027705451779e-04
5.41946428571429e+00 4.75714997114380e-03 9.97667290194215e-05
5.44382142857143e+00 4.64126437006904e-03 9.75548714515943e-05
5.46817857142857e+00 4.52820177707496e-03 9.53910965120197e-05
5.49253571428571e+00 4.41789342283378e-03 9.32743889442399e-05
5.51689285714286e+00 4.31027221307171e-03 9.12037538346936e-05
5.54125000000000e+00 4.20527268833348e-03 8.91782163579591e-05
5.56560714285714e+00 4.10283098358184e-03 8.71968214856073e-05
5.58996428571429e+00 4.00288478955119e-03 8.52586335277507e-05
5.61432142857143e+00 3.90537331468141e-03 8.33627357089928e-05
5.63867857142857e+00 3.81023724865267e-03 8.15082298825864e-05
5.66303571428571e+00 3.71741872578968e-03 7.96942362852177e-05
5.68739285714286e+00 3.62686128988938e-03 7.79198929833029e-05
5.71175000000000e+00 3.53850986035040e-03 7.61843556366478e-05
5.73610714285714e+00 3.45231069819308e-03 7.44867972326403e-05
5.76046428571429e+00 3.36821137353555e-03 7.28264076824796e-05
5.78482142857143e+00 3.28616073356731e-03 7.12023934465100e-05
5.80917857142857e+00 3.20610887185297e-03 6.96139772747425e-05
5.83353571428571e+00 3.12800709755198e-03 6.80603979816803e-05
5.85789285714286e+00 3.05180790582223e-03 6.65409099659964e-05
5.88225000000000e+00 2.97746494930843e-03 6.50547829938598e-05
5.90660714285714e+00 2.90493300956147e-03 6.36013019584042e-05
5.93096428571429e+00 2.83416796966736e-03 6.21797665253623e-05
5.95532142857143e+00 2.76512678730195e-03 6.07894908033233e-05
5.97967857142857e+00 2.69776746889168e-03 5.94298031100210e-05
6.00403571428572e+00 2.63204904372385e-03 5.81000457675793e-05
6.02839285714286e+00 2.56793153904244e-03 5.67995746866323e-05
6.05275000000000e+00 2.50537595604786e-03 5.55277591695530e-05
6.07710714285714e+00 2.44434424585730e-03 5.42839816943659e-05
6.10146428571429e+00 2.38479928647027e-03 5.30676376046885e-05
6.12582142857143e+00 2.32670486009819e-03 5.18781348204944e-05
6.15017857142857e+00 2.27002563141406e-03 5.07148936289667e-05
6.17453571428571e+00 2.21472712577588e-03 4.95773464997904e-05
6.19889285714286e+00 2.16077570827061e-03 4.84649377256694e-05
6.22325000000000e+00 2.10813856351209e-03 4.73771232450027e-05
6.24760714285714e+00 2.05678367542034e-03 4.63133704489260e-05
6.27196428571429e+00 2.00667980783679e-03 4.52731579107373e-05
6.29632142857143e+00 1.95779648545043e-03 4.42559751329289e-05
6.32067857142857e+00 1.91010397548974e-03 4.32613223610367e-05
6.34503571428571e+00 1.86357326940533e-03 4.22887104181104e-05
6.36939285714286e+00 1.81817606523630e-03 4.13376603944409e-05
6.39375000000000e+00 1.77388475060543e-03 4.04077034887873e-05
6.41810714285714e+00 1.73067238571051e-03 3.94983808369370e-05
6.44246428571429e+00 1.68851268701107e-03 3.86092432761406e-05
6.46682142857143e+00 1.64738001118042e-03 3.77398511244332e-05
6.49117857142857e+00 1.60724933969533e-03 3.68897740157085e-05
6.51553571428571e+00 1.56809626342817e-03 3.60585907521956e-05
6.53989285714286e+00 1.52989696780882e-03 3.52458890370157e-05
6.56425000000000e+00 1.49262821851151e-03 3.44512653327830e-05
6.58860714285714e+00 1.45626734714762e-03 3.36743247099446e-05
6.61296428571429e+00 1.42079223753733e-03 3.29146806421184e-05
6.63732142857143e+00 1.38618131220745e-03 3.21719548140117e-05
6.66167857142857e+00 1.35241351942047e-03 3.14457769758818e-05
6.68603571428571e+00 1.31946832021371e-03 3.07357848126759e-05
6.71039285714286e+00 1.28732567591380e-03 3.00416237137805e-05
6.73475000000000e+00 1.25596603608912e-03 2.93629466476736e-05
6.75910714285714e+00 1.22537032651488e-03 2.86994140282615e-05
6.78346428571429e+00 1.19551993762018e-03 2.80506935373912e-05
6.80782142857143e+00 1.16639671312774e-03 2.74164599580004e-05
6.83217857142857e+00 1.13798293913623e-03 2.67963950461210e-05
6.85653571428572e+00 1.11026133321782e-03 2.61901874152686e-05
6.88089285714286e+00 1.08321503391202e-03 2.55975323384301e-05
6.90525000000000e+00 1.05682759058546e-03 2.50181316373798e-05
6.92960714285714e+00 1.03108295330814e-03 2.44516935652629e-05
6.95396428571429e+00 1.00596546313116e-03 2.38979326529296e-05
6.97832142857143e+00 9.81459842528600e-04 2.33565695642561e-05
7.00267857142857e+00 9.57551186208253e-04 2.28273309839174e-05
7.02703571428571e+00 9.34224951940467e-04 2.23099495156066e-05
7.05139285714286e+00 9.11466951717650e-04 2.18041635119143e-05
7.07575000000000e+00 8.89263343219438e-04 2.13097169769299e-05
7.10010714285714e+00 8.67600621296524e-04 2.08263594633890e-05
7.12446428571429e+00 8.46465609789112e-04 2.03538459398289e-05
7.14882142857143e+00 8.25845453484893e-04 1.98919366653396e-05
7.17317857142857e+00 8.05727610384740e-04 1.94403970914212e-05
7.19753571428571e+00 7.86099843987775e-04 1.89989977726525e-05
7.22189285714286e+00 7.66950215852471e-04 1.85675142206644e-05
7.24625000000000e+00 7.48267078413162e-04 1.81457268186911e-05
7.27060714285714e+00 7.30039067816070e-04 1.77334207317028e-05
7.29496428571429e+00 7.12255097034324e-04 1.73303857917140e-05
7.31932142857143e+00 6.94904349101574e-04 1.69364163895122e-05
7.34367857142857e+00 6.77976270602326e-04 1.65513113890338e-05
7.36803571428571e+00 6.61460565181940e-04 1.61748740491713e-05
7.39239285714286e+00 6.45347187287120e-04 1.58069118985334e-05
7.41675000000000e+00 6.29626336119874e-04 1.54472366606765e-05
7.44110714285714e+00 6.14288449610970e-04 1.50956641757592e-05
7.46546428571429e+00 5.99324198626065e-04 1.47520143016453e-05
7.48982142857143e+00 5.84724481272597e-04 1.44161108204322e-05
7.51417857142857e+00 5.70480417420915e-04 1.40877813639032e-05
7.53853571428571e+00 5.56583343244660e-04 1.37668573452497e-05
7.56289285714286e+00 5.43024805953655e-04 1.34531738517401e-05
7.58725000000000e+00 5.29796558705270e-04 1.31465695794508e-05
7.61160714285714e+00 5.16890555534659e-04 1.28468867651034e-05
7.63596428571429e+00 5.04298946479107e-04 1.25539711008815e-05
7.66032142857143e+00 4.92014072787932e-04 1.22676716538319e-05
7.68467857142857e+00 4.80028462311243e-04 1.19878408010837e-05
