Energy (eV)          EEDF (eV^-(3/2))     First Anisotropy
3.34146341463415e-02 5.03144807210712e-02 2.94546661153582e-05
1.00243902439024e-01 4.98922417632128e-02 4.85973153034308e-05
1.67073170731707e-01 4.94735462312306e-02 6.40462050866434e-05
2.33902439024390e-01 4.90583643925780e-02 7.57174687244276e-05
3.00731707317073e-01 4.86466667591154e-02 8.53974910638841e-05
3.67560975609756e-01 4.82384240911158e-02 9.37631940124198e-05
4.34390243902439e-01 4.78336073934819e-02 1.01165630224222e-04
5.01219512195122e-01 4.74321879165690e-02 1.07817229635249e-04
5.68048780487805e-01 4.70341371507878e-02 1.13859167844678e-04
6.34878048780488e-01 4.66394268252410e-02 1.19391427004906e-04
7.01707317073171e-01 4.62480289076706e-02 1.24488168043292e-04
7.68536585365854e-01 4.58599156002992e-02 1.29206374939549e-04
8.35365853658537e-01 4.54750593381793e-02 1.33591070259297e-04
9.02195121951220e-01 4.50934327887111e-02 1.37678639024212e-04
9.69024390243903e-01 4.47150088481267e-02 1.41499041130635e-04
1.03585365853659e+00 4.43397606415317e-02 1.45077338045779e-04
1.10268292682927e+00 4.39676615159919e-02 1.48434777385773e-04
1.16951219512195e+00 4.35986850445135e-02 1.51589583638831e-04
1.23634146341463e+00 4.32328050218464e-02 1.54557548116514e-04
1.30317073170732e+00 4.28699954626443e-02 1.57352476333135e-04
1.37000000000000e+00 4.25102305996466e-02 1.59986533353710e-04
1.43682926829268e+00 4.21534848843650e-02 1.62470515514373e-04
1.50365853658537e+00 4.17997329775135e-02 1.64814064917261e-04
1.57048780487805e+00 4.14489497551056e-02 1.67025841667464e-04
1.63731707317073e+00 4.11011103039766e-02 1.69113665107140e-04
1.70414634146341e+00 4.07561899200349e-02 1.71084628614617e-04
1.77097560975610e+00 4.04141641065117e-02 1.72945194597010e-04
1.83780487804878e+00 4.00750085740898e-02 1.74701274638411e-04
1.90463414634146e+00 3.97386992334608e-02 1.76358295758984e-04
1.97146341463415e+00 3.94052121994193e-02 1.77921256402795e-04
2.03829268292683e+00 3.90745237871918e-02 1.79394775263905e-04
2.10512195121951e+00 3.87466105107727e-02 1.80783132229424e-04
2.17195121951220e+00 3.84214490812529e-02 1.82090303657065e-04
2.23878048780488e+00 3.80990164066226e-02 1.83319993709085e-04
2.30560975609756e+00 3.77792895856917e-02 1.84475660655685e-04
2.37243902439024e+00 3.74622459109628e-02 1.85560539805476e-04
2.43926829268293e+00 3.71478628654903e-02 1.86577664627302e-04
2.50609756097561e+00 3.68361181212971e-02 1.87529884589231e-04
2.57292682926829e+00 3.65269895377822e-02 1.88419880947319e-04
2.63975609756098e+00 3.62204551613225e-02 1.89250181454822e-04
2.70658536585366e+00 3.59164932201466e-02 1.90023172616799e-04
2.77341463414634e+00 3.56150821263986e-02 1.90741110596544e-04
2.84024390243902e+00 3.53162004733808e-02 1.91406131868246e-04
2.90707317073171e+00 3.50198270340465e-02 1.92020261947149e-04
2.97390243902439e+00 3.47259407604783e-02 1.92585424055953e-04
3.04073170731707e+00 3.44345207793817e-02 1.93103446187477e-04
3.10756097560976e+00 3.41455463936487e-02 1.93576067468088e-04
3.17439024390244e+00 3.38589970798598e-02 1.94004944731126e-04
3.24121951219512e+00 3.35748524868241e-02 1.94391657877130e-04
3.30804878048780e+00 3.32930924341416e-02 1.94737714772339e-04
3.37487804878049e+00 3.30136969115969e-02 1.95044556289721e-04
3.44170731707317e+00 3.27366460752182e-02 1.95313560236043e-04
3.50853658536585e+00 3.24619202484148e-02 1.95546044927891e-04
3.57536585365854e+00 3.21894999197202e-02 1.95743273191593e-04
3.64219512195122e+00 3.19193657414062e-02 1.95906455487787e-04
3.70902439024390e+00 3.16514985281132e-02 1.96036752802948e-04
3.77585365853659e+00 3.13858792561903e-02 1.96135279828731e-04
3.84268292682927e+00 3.11224890602060e-02 1.96203107281637e-04
3.90951219512195e+00 3.08613092337685e-02 1.96241264030856e-04
3.97634146341463e+00 3.06023212274683e-02 1.96250739715929e-04
4.04317073170732e+00 3.03455066475621e-02 1.96232486674903e-04
4.11000000000000e+00 3.00908472546680e-02 1.96187421747819e-04
4.17682926829268e+00 2.98383249630752e-02 1.96116428417012e-04
4.24365853658537e+00 2.95879218376227e-02 1.96020358239756e-04
4.31048780487805e+00 2.93396200942803e-02 1.95900032168531e-04
4.37731707317073e+00 2.90934020982594e-02 1.95756242368484e-04
4.44414634146341e+00 2.88492503627631e-02 1.95589753461190e-04
4.51097560975610e+00 2.86071475477441e-02 1.95401303699051e-04
4.57780487804878e+00 2.83670764591984e-02 1.95191606485293e-04
4.64463414634146e+00 2.81290200463522e-02 1.94961351287815e-04
4.71146341463415e+00 2.78929614020577e-02 1.94711204483362e-04
4.77829268292683e+00 2.76588837610503e-02 1.94441810682279e-04
4.84512195121951e+00 2.74267704987601e-02 1.94153793559312e-04
4.91195121951220e+00 2.71966051301309e-02 1.93847756644958e-04
4.97878048780488e+00 2.69683713089084e-02 1.93524284453659e-04
5.04560975609756e+00 2.67420528250886e-02 1.93183943079877e-04
5.11243902439024e+00 2.65176336051695e-02 1.92827280748808e-04
5.17926829268293e+00 2.62950977105366e-02 1.92454828821662e-04
5.24609756097561e+00 2.60744293363333e-02 1.92067102366120e-04
5.31292682926829e+00 2.58556128103372e-02 1.91664600704294e-04
5.37975609756098e+00 2.56386325922511e-02 1.91247808281406e-04
5.44658536585366e+00 2.54234732713767e-02 1.90817195059788e-04
5.51341463414634e+00 2.52101195667534e-02 1.90373216882106e-04
5.58024390243903e+00 2.49985563256568e-02 1.89916316260037e-04
5.64707317073171e+00 2.47887685225258e-02 1.89446922692841e-04
5.71390243902439e+00 2.45807412582566e-02 1.88965453382686e-04
5.78073170731707e+00 2.43744597580458e-02 1.88472313514947e-04
5.84756097560976e+00 2.41699093714493e-02 1.87967896515598e-04
5.91439024390244e+00 2.39670755709698e-02 1.87452584709299e-04
5.98121951219512e+00 2.37659439510234e-02 1.86926749621062e-04
6.04804878048781e+00 2.35665002269191e-02 1.86390752270618e-04
6.11487804878049e+00 2.33687302341656e-02 1.85844943752516e-04
6.18170731707317e+00 2.31726199264887e-02 1.85289665421465e-04
6.24853658536585e+00 2.29781553758186e-02 1.84725249061082e-04
6.31536585365854e+00 2.27853227709698e-02 1.84152017424954e-04
6.38219512195122e+00 2.25941084166597e-02 1.83570284454267e-04
6.44902439024390e+00 2.24044987325369e-02 1.82980355492129e-04
6.51585365853659e+00 2.22164802525045e-02 1.82382527764306e-04
6.58268292682927e+00 2.20300396228920e-02 1.81777090499655e-04
6.64951219512195e+00 2.18451636023857e-02 1.81164325038222e-04
6.71634146341463e+00 2.16618390607925e-02 1.80544505284933e-04
6.78317073170732e+00 2.14800529781077e-02 1.79917897868037e-04
6.85000000000000e+00 2.12997924435908e-02 1.79284762296740e-04
6.91682926829268e+00 2.11210446551064e-02 1.78645351366875e-04
6.98365853658537e+00 2.09437969174341e-02 1.77999911236303e-04
7.05048780487805e+00 2.07680366421540e-02 1.77348681490831e-04
7.11731707317073e+00 2.05937513464876e-02 1.76691895530826e-04
7.18414634146342e+00 2.04209286524122e-02 1.76029780687271e-04
7.25097560975610e+00 2.02495562857814e-02 1.75362558338535e-04
7.31780487804878e+00 2.00796220756853e-02 1.74690444257824e-04
7.38463414634146e+00 1.99111139528850e-02 1.74013648656932e-04
7.45146341463415e+00 1.97440199496619e-02 1.73332376222554e-04
7.51829268292683e+00 1.95783281987300e-02 1.72646826450211e-04
7.58512195121951e+00 1.94140269323939e-02 1.71957193729376e-04
7.65195121951220e+00 1.92511044817126e-02 1.71263667430344e-04
7.71878048780488e+00 1.90895492758800e-02 1.70566432205545e-04
7.78560975609756e+00 1.89293498407708e-02 1.69865668010875e-04
7.85243902439024e+00 1.87704947987627e-02 1.69161550121043e-04
7.91926829268293e+00 1.86129728677139e-02 1.68454249421241e-04
7.98609756097561e+00 1.84567728601629e-02 1.67743932469460e-04
8.05292682926829e+00 1.83018836825329e-02 1.67030761561093e-04
8.11975609756098e+00 1.81482943345336e-02 1.66314894993059e-04
8.18658536585366e+00 1.79959939078083e-02 1.65596487069126e-04
8.25341463414634e+00 1.78449715857350e-02 1.64875688100346e-04
8.32024390243902e+00 1.76952166424643e-02 1.64152644662271e-04
8.38707317073171e+00 1.75467184421584e-02 1.63427499592716e-04
8.45390243902439e+00 1.73994664384090e-02 1.62700392230029e-04
8.52073170731707e+00 1.72534501729637e-02 1.61971458408748e-04
8.58756097560976e+00 1.71086592755114e-02 1.61240830451093e-04
8.65439024390244e+00 1.69650834627690e-02 1.60508637399977e-04
8.72121951219512e+00 1.68227125377502e-02 1.59775005053228e-04
8.78804878048781e+00 1.66815363890419e-02 1.59040056000560e-04
8.85487804878049e+00 1.65415449902438e-02 1.58303909835599e-04
8.92170731707317e+00 1.64027283987795e-02 1.57566683142951e-04
8.98853658536585e+00 1.62650767556706e-02 1.56828489481792e-04
9.05536585365854e+00 1.61285802846750e-02 1.56089439594163e-04
9.12219512195122e+00 1.59932292915928e-02 1.55349641428938e-04
9.18902439024390e+00 1.58590141635778e-02 1.54609200168676e-04
9.25585365853659e+00 1.57259253685982e-02 1.53868218419507e-04
9.32268292682927e+00 1.55939534543262e-02 1.53126796192176e-04
9.38951219512195e+00 1.54630890479035e-02 1.52385030880107e-04
9.45634146341463e+00 1.53333228551284e-02 1.51643017446666e-04
9.52317073170732e+00 1.52046456597961e-02 1.50900848441351e-04
9.59000000000000e+00 1.50770483230443e-02 1.50158614018840e-04
9.65682926829268e+00 1.49505217828347e-02 1.49416402109973e-04
9.72365853658537e+00 1.48250570529144e-02 1.48674298398629e-04
9.79048780487805e+00 1.47006452225758e-02 1.47932386296044e-04
9.85731707317073e+00 1.45772774558894e-02 1.47190747110004e-04
9.92414634146341e+00 1.44549449910770e-02 1.46449460055051e-04
9.99097560975610e+00 1.43336391398894e-02 1.45708602123986e-04
1.00578048780488e+01 1.42133512875823e-02 1.44968248774866e-04
1.01246341463415e+01 1.40940728901607e-02 1.44228473406285e-04
1.01914634146341e+01 1.39757954762916e-02 1.43489346696231e-04
1.02582926829268e+01 1.38585106468725e-02 1.42750938445001e-04
1.03251219512195e+01 1.37422100709965e-02 1.42013316633229e-04
1.03919512195122e+01 1.36268854888202e-02 1.41276546758812e-04
1.04587804878049e+01 1.35125287098163e-02 1.40540692606658e-04
1.05256097560976e+01 1.33991316132694e-02 1.39805816925309e-04
1.05924390243902e+01 1.32866861444483e-02 1.39071980803342e-04
1.06592682926829e+01 1.31751843173038e-02 1.38339242713833e-04
1.07260975609756e+01 1.30646182138363e-02 1.37607660522169e-04
1.07929268292683e+01 1.29549799804243e-02 1.36877290543614e-04
1.08597560975610e+01 1.28462618303920e-02 1.36148186618980e-04
1.09265853658537e+01 1.27384560433959e-02 1.35420402051257e-04
1.09934146341463e+01 1.26315549619021e-02 1.34693988695212e-04
1.10602439024390e+01 1.25255509936309e-02 1.33968996063186e-04
1.11270731707317e+01 1.24204366109615e-02 1.33245473193616e-04
1.11939024390244e+01 1.23162043475505e-02 1.32523467770966e-04
1.12607317073171e+01 1.22128468006623e-02 1.31803025261248e-04
1.13275609756098e+01 1.21103566305878e-02 1.31084190715257e-04
1.13943902439024e+01 1.20087265574002e-02 1.30367007917060e-04
1.14612195121951e+01 1.19079493631755e-02 1.29651518548674e-04
1.15280487804878e+01 1.18080178914265e-02 1.28937763930568e-04
1.15948780487805e+01 1.17089250439878e-02 1.28225784197704e-04
1.16617073170732e+01 1.16106637831332e-02 1.27515617758888e-04
1.17285365853659e+01 1.15132271301973e-02 1.26807301908379e-04
1.17953658536585e+01 1.14166081658980e-02 1.26100873363808e-04
1.18621951219512e+01 1.13208000273746e-02 1.25396367757311e-04
1.19290243902439e+01 1.12257959101855e-02 1.24693818860260e-04
1.19958536585366e+01 1.11315890677769e-02 1.23993260193538e-04
1.20626829268293e+01 1.10381728086354e-02 1.23294724262158e-04
1.21295121951220e+01 1.09455404981942e-02 1.22598241804917e-04
1.21963414634146e+01 1.08536855583159e-02 1.21903843349578e-04
1.22631707317073e+01 1.07626014645563e-02 1.21211558473031e-04
1.23300000000000e+01 1.06722817479821e-02 1.20521415075000e-04
1.23968292682927e+01 1.05827199946687e-02 1.19833440880353e-04
1.24636585365854e+01 1.04939098430692e-02 1.19147662723650e-04
1.25304878048780e+01 1.04058449857490e-02 1.18464105846340e-04
1.25973170731707e+01 1.03185191688973e-02 1.17782795348287e-04
1.26641463414634e+01 1.02319261897968e-02 1.17103755495396e-04
1.27309756097561e+01 1.01460598984800e-02 1.16427009039875e-04
1.27978048780488e+01 1.00609141972532e-02 1.15752578622903e-04
1.28646341463415e+01 9.97648303826276e-03 1.15080486104305e-04
1.29314634146341e+01 9.89276042507712e-03 1.14410751905222e-04
1.29982926829268e+01 9.80974041222282e-03 1.13743396363737e-04
1.30651219512195e+01 9.72741710284293e-03 1.13078439085842e-04
1.31319512195122e+01 9.64578465020885e-03 1.12415898518430e-04
1.31987804878049e+01 9.56483725665753e-03 1.11755792422988e-04
1.32656097560976e+01 9.48456917378396e-03 1.11098138292499e-04
1.33324390243902e+01 9.40497470020975e-03 1.10442952949175e-04
1.33992682926829e+01 9.32604818301194e-03 1.09790251933312e-04
1.34660975609756e+01 9.24778401728709e-03 1.09140050760431e-04
1.35329268292683e+01 9.17017664400275e-03 1.08492364318079e-04
1.35997560975610e+01 9.09322055136262e-03 1.07847206273979e-04
1.36665853658537e+01 9.01691027438275e-03 1.07204590291578e-04
1.37334146341463e+01 8.94124039282244e-03 1.06564529446500e-04
1.38002439024390e+01 8.86620553248878e-03 1.05927035653331e-04
1.38670731707317e+01 8.79180036482462e-03 1.05292120841157e-04
1.39339024390244e+01 8.71801960491539e-03 1.04659796388733e-04
1.40007317073171e+01 8.64485801273665e-03 1.04030072569605e-04
1.40675609756098e+01 8.57231039275239e-03 1.03402959689090e-04
1.41343902439024e+01 8.50037159199523e-03 1.02778467537177e-04
1.42012195121951e+01 8.42903650125966e-03 1.02156604851618e-04
1.42680487804878e+01 8.35830005471031e-03 1.01537380417721e-04
1.43348780487805e+01 8.28815722803251e-03 1.00920802538347e-04
1.44017073170732e+01 8.21860303957368e-03 1.00306878684202e-04
1.44685365853659e+01 8.14963254948731e-03 9.96956158768766e-05
1.45353658536585e+01 8.08124085985155e-03 9.90870210261625e-05
1.46021951219512e+01 8.01342311290419e-03 9.84811006003523e-05
1.46690243902439e+01 7.94617449212324e-03 9.78778601268189e-05
1.47358536585366e+01 7.87949022185850e-03 9.72773052135932e-05
1.48026829268293e+01 7.81336556562988e-03 9.66794410560174e-05
1.48695121951220e+01 7.74779582716112e-03 9.60842719528683e-05
1.49363414634146e+01 7.68277635002143e-03 9.54918022948634e-05
1.50031707317073e+01 7.61830251598468e-03 9.49020360871437e-05
1.50700000000000e+01 7.55436974601837e-03 9.43149764804134e-05
1.51368292682927e+01 7.49097349993511e-03 9.37306267275769e-05
1.52036585365854e+01 7.42810927481003e-03 9.31489897213847e-05
1.52704878048780e+01 7.36577260592756e-03 9.25700675402146e-05
1.53373170731707e+01 7.30395906644186e-03 9.19938623740186e-05
1.54041463414634e+01 7.24266426585047e-03 9.14203760763862e-05
1.54709756097561e+01 7.18188385090088e-03 9.08496097246781e-05
1.55378048780488e+01 7.12161350525942e-03 9.02815645163416e-05
1.56046341463415e+01 7.06184894803912e-03 8.97162413347854e-05
1.56714634146341e+01 7.00258593466779e-03 8.91536403234819e-05
1.57382926829268e+01 6.94382025656526e-03 8.85937617536632e-05
1.58051219512195e+01 6.88554773972318e-03 8.80366056035540e-05
1.58719512195122e+01 6.82776424553645e-03 8.74821712803825e-05
1.59387804878049e+01 6.77046567013107e-03 8.69304579216165e-05
1.60056097560976e+01 6.71364794442676e-03 8.63814646603553e-05
1.60724390243902e+01 6.65730703277953e-03 8.58351903630732e-05
1.61392682926829e+01 6.60143893376967e-03 8.52916332328688e-05
1.62060975609756e+01 6.54603967989829e-03 8.47507916165873e-05
1.62729268292683e+01 6.49110533627702e-03 8.42126636129869e-05
1.63397560975610e+01 6.43663200138267e-03 8.36772466881231e-05
1.64065853658537e+01 6.38261580676196e-03 8.31445384569338e-05
1.64734146341463e+01 6.32905291576650e-03 8.26145363037377e-05
1.65402439024390e+01 6.27593952427569e-03 8.20872370093635e-05
1.66070731707317e+01 6.22327186040935e-03 8.15626375081059e-05
1.66739024390244e+01 6.17104618330619e-03 8.10407345199815e-05
1.67407317073171e+01 6.11925878381669e-03 8.05215241894119e-05
1.68075609756098e+01 6.06790598422290e-03 8.00050028183894e-05
1.68743902439024e+01 6.01698413705909e-03 7.94911665099358e-05
1.69412195121951e+01 5.96648962577584e-03 7.89800108180827e-05
1.70080487804878e+01 5.91641886446682e-03 7.84715314580250e-05
1.70748780487805e+01 5.86676829673003e-03 7.79657239604149e-05
1.71417073170732e+01 5.81753439630434e-03 7.74625834424995e-05
1.72085365853659e+01 5.76871366652103e-03 7.69621048541788e-05
1.72753658536585e+01 5.72030264033480e-03 7.64642831948626e-05
1.73421951219512e+01 5.67229787923425e-03 7.59691132974431e-05
1.74090243902439e+01 5.62469597384594e-03 7.54765895021322e-05
1.74758536585366e+01 5.57749354367717e-03 7.49867063177462e-05
1.75426829268293e+01 5.53068723606335e-03 7.44994580993458e-05
1.76095121951220e+01 5.48427372674697e-03 7.40148387319220e-05
1.76763414634146e+01 5.43824971962727e-03 7.35328422710917e-05
1.77431707317073e+01 5.39261194574311e-03 7.30534626307513e-05
1.78100000000000e+01 5.34735716382800e-03 7.25766932763018e-05
1.78768292682927e+01 5.30248216006638e-03 7.21025278454435e-05
1.79436585365854e+01 5.25798374711070e-03 7.16309598454502e-05
1.80104878048780e+01 5.21385876461364e-03 7.11619823557114e-05
1.80773170731707e+01 5.17010407899070e-03 7.06955886293051e-05
1.81441463414634e+01 5.12671658247021e-03 7.02317717994388e-05
1.82109756097561e+01 5.08369319360396e-03 6.97705245911412e-05
1.82778048780488e+01 5.04103085703557e-03 6.93118399042373e-05
1.83446341463415e+01 4.99872654258253e-03 6.88557105286081e-05
1.84114634146341e+01 4.95677724572594e-03 6.84021288647578e-05
1.84782926829268e+01 4.91517998738473e-03 6.79510874888037e-05
1.85451219512195e+01 4.87393181302836e-03 6.75025788762779e-05
1.86119512195122e+01 4.83302979314669e-03 6.70565952191623e-05
1.86787804878049e+01 4.79247102281397e-03 6.66131286212145e-05
1.87456097560976e+01 4.75225262169638e-03 6.61721712701844e-05
1.88124390243902e+01 4.71237173320223e-03 6.57337152650045e-05
1.88792682926829e+01 4.67282552492804e-03 6.52977523550616e-05
1.89460975609756e+01 4.63361118844614e-03 6.48642744668458e-05
1.90129268292683e+01 4.59472593848284e-03 6.44332734463133e-05
1.90797560975610e+01 4.55616701334642e-03 6.40047408059456e-05
1.91465853658537e+01 4.51793167472026e-03 6.35786682352445e-05
1.92134146341463e+01 4.48001720686812e-03 6.31550473509787e-05
1.92802439024390e+01 4.44242091704468e-03 6.27338694517741e-05
1.93470731707317e+01 4.40514013529414e-03 6.23151260130299e-05
1.94139024390244e+01 4.36817221368154e-03 6.18988084447031e-05
1.94807317073171e+01 4.33151452668679e-03 6.14849078532983e-05
1.95475609756098e+01 4.29516447100830e-03 6.10734155216864e-05
1.96143902439024e+01 4.25911946481961e-03 6.06643226741013e-05
1.96812195121951e+01 4.22337694814757e-03 6.02576202453829e-05
1.97480487804878e+01 4.18793438268087e-03 5.98532993461639e-05
1.98148780487805e+01 4.15278925105101e-03 5.94513510348493e-05
1.98817073170732e+01 4.11793905719539e-03 5.90517661663334e-05
1.99485365853659e+01 4.08338132599834e-03 5.86545355525767e-05
2.00153658536585e+01 4.04911360328594e-03 5.82596501042579e-05
2.00821951219512e+01 4.01513345513687e-03 5.78671006878352e-05
2.01490243902439e+01 3.98143846822744e-03 5.74768779101692e-05
2.02158536585366e+01 3.94802624965120e-03 5.70889725524834e-05
2.02826829268293e+01 3.91489442625220e-03 5.67033753574426e-05
2.03495121951220e+01 3.88204064495602e-03 5.63200768201534e-05
2.04163414634146e+01 3.84946257259424e-03 5.59390676089772e-05
2.04831707317073e+01 3.81715789525912e-03 5.55603383590424e-05
2.05500000000000e+01 3.78512431862144e-03 5.51838794694163e-05
2.06168292682927e+01 3.75335956775945e-03 5.48096815112063e-05
2.06836585365854e+01 3.72186138653441e-03 5.44377350272735e-05
2.07504878048780e+01 3.69062753789571e-03 5.40680303354233e-05
2.08173170731707e+01 3.65965580371421e-03 5.37005579242075e-05
2.08841463414634e+01 3.62894398417786e-03 5.33353082585686e-05
2.09509756097561e+01 3.59848989808470e-03 5.29722715889338e-05
2.10178048780488e+01 3.56829138268042e-03 5.26114383351022e-05
2.10846341463415e+01 3.53834629307336e-03 5.22527988976076e-05
