Energy (eV)          EEDF (eV^-(3/2))     First Anisotropy
3.95000000000000e-02 6.23604076007739e-02 4.25817093108368e-05
1.18500000000000e-01 6.16469536544067e-02 7.01481016011644e-05
1.97500000000000e-01 6.09416622032027e-02 9.21636568286918e-05
2.76500000000000e-01 6.02444398616571e-02 1.08623811028304e-04
3.55500000000000e-01 5.95551943125907e-02 1.22134037042528e-04
4.34500000000000e-01 5.88738342949953e-02 1.33686220658656e-04
5.13500000000000e-01 5.82002695919596e-02 1.43797023315875e-04
5.92500000000000e-01 5.75344110187258e-02 1.52780428972492e-04
6.71500000000000e-01 5.68761704108820e-02 1.60845981015845e-04
7.50500000000000e-01 5.62254606126886e-02 1.68142694738998e-04
8.29500000000000e-01 5.55821954655389e-02 1.74781550727139e-04
9.08500000000000e-01 5.49462897965506e-02 1.80848164825873e-04
9.87500000000000e-01 5.43176594072887e-02 1.86410445851251e-04
1.06650000000000e+00 5.36962210626168e-02 1.91523483499176e-04
1.14550000000000e+00 5.30818924796765e-02 1.96232807444270e-04
1.22450000000000e+00 5.24745923169925e-02 2.00576639508294e-04
1.30350000000000e+00 5.18742401637021e-02 2.04587497204898e-04
1.38250000000000e+00 5.12807565289086e-02 2.08293364802077e-04
1.46150000000000e+00 5.06940628311560e-02 2.11718567420374e-04
1.54050000000000e+00 5.01140813880243e-02 2.14884435985538e-04
1.61950000000000e+00 4.95407354058437e-02 2.17809821591793e-04
1.69850000000000e+00 4.89739489695267e-02 2.20511499306440e-04
1.77750000000000e+00 4.84136470325163e-02 2.23004489391052e-04
1.85650000000000e+00 4.78597554068493e-02 2.25302315875868e-04
1.93550000000000e+00 4.73122007533334e-02 2.27417216946500e-04
2.01450000000000e+00 4.67709105718365e-02 2.29360317796147e-04
2.09350000000000e+00 4.62358131916873e-02 2.31141773905540e-04
2.17250000000000e+00 4.57068377621851e-02 2.32770890779537e-04
2.25150000000000e+00 4.51839142432193e-02 2.34256224759859e-04
2.33050000000000e+00 4.46669733959953e-02 2.35605668492755e-04
2.40950000000000e+00 4.41559467738667e-02 2.36826523851720e-04
2.48850000000000e+00 4.36507667132727e-02 2.37925564527006e-04
2.56750000000000e+00 4.31513663247787e-02 2.38909090043893e-04
2.64650000000000e+00 4.26576794842199e-02 2.39782972624573e-04
2.72550000000000e+00 4.21696408239460e-02 2.40552698038561e-04
2.80450000000000e+00 4.16871857241658e-02 2.41223401374377e-04
2.88350000000000e+00 4.12102503043913e-02 2.41799898497491e-04
2.96250000000000e+00 4.07387714149793e-02 2.42286713825770e-04
3.04150000000000e+00 4.02726866287703e-02 2.42688104946402e-04
3.12050000000000e+00 3.98119342328221e-02 2.43008084511477e-04
3.19950000000000e+00 3.93564532202393e-02 2.43250439778995e-04
3.27850000000000e+00 3.89061832820948e-02 2.43418750108444e-04
3.35750000000000e+00 3.84610647994451e-02 2.43516402672686e-04
3.43650000000000e+00 3.80210388354359e-02 2.43546606608862e-04
3.51550000000000e+00 3.75860471274987e-02 2.43512405798400e-04
3.59450000000000e+00 3.71560320796363e-02 2.43416690439255e-04
3.67350000000000e+00 3.67309367547966e-02 2.43262207550594e-04
3.75250000000000e+00 3.63107048673339e-02 2.43051570531244e-04
3.83150000000000e+00 3.58952807755564e-02 2.42787267876970e-04
3.91050000000000e+00 3.54846094743584e-02 2.42471671147826e-04
3.98950000000000e+00 3.50786365879376e-02 2.42107042265358e-04
4.06850000000000e+00 3.46773083625952e-02 2.41695540209403e-04
4.14750000000000e+00 3.42805716596186e-02 2.41239227175591e-04
4.22650000000000e+00 3.38883739482454e-02 2.40740074247447e-04
4.30550000000000e+00 3.35006632987082e-02 2.40199966630565e-04
4.38450000000000e+00 3.31173883753581e-02 2.39620708490811e-04
4.46350000000000e+00 3.27384984298683e-02 2.39004027433884e-04
4.54250000000000e+00 3.23639432945141e-02 2.38351578659253e-04
4.62150000000000e+00 3.19936733755305e-02 2.37664948818011e-04
4.70050000000000e+00 3.16276396465456e-02 2.36945659600949e-04
4.77950000000000e+00 3.12657936420893e-02 2.36195171080340e-04
4.85850000000000e+00 3.09080874511759e-02 2.35414884826606e-04
4.93750000000000e+00 3.05544737109606e-02 2.34606146818830e-04
5.01650000000000e+00 3.02049056004682e-02 2.33770250166137e-04
5.09550000000000e+00 2.98593368343936e-02 2.32908437655297e-04
5.17450000000000e+00 2.95177216569732e-02 2.32021904138520e-04
5.25350000000000e+00 2.91800148359270e-02 2.31111798773961e-04
5.33250000000000e+00 2.88461716564688e-02 2.30179227130290e-04
5.41150000000000e+00 2.85161479153865e-02 2.29225253165753e-04
5.49050000000000e+00 2.81898999151885e-02 2.28250901091070e-04
5.56950000000000e+00 2.78673844583181e-02 2.27257157124706e-04
5.64850000000000e+00 2.75485588414342e-02 2.26244971148383e-04
5.72750000000000e+00 2.72333808497564e-02 2.25215258269882e-04
5.80650000000000e+00 2.69218087514762e-02 2.24168900299698e-04
5.88550000000000e+00 2.66138012922309e-02 2.23106747147556e-04
5.96450000000000e+00 2.63093176896411e-02 2.22029618144165e-04
6.04350000000000e+00 2.60083176279115e-02 2.20938303293287e-04
6.12250000000000e+00 2.57107612524923e-02 2.19833564458745e-04
6.20150000000000e+00 2.54166091648020e-02 2.18716136490597e-04
6.28050000000000e+00 2.51258224170113e-02 2.17586728294424e-04
6.35950000000000e+00 2.48383625068859e-02 2.16446023847299e-04
6.43850000000000e+00 2.45541913726881e-02 2.15294683163798e-04
6.51750000000000e+00 2.42732713881379e-02 2.14133343215167e-04
6.59650000000000e+00 2.39955653574306e-02 2.12962618804448e-04
6.67550000000000e+00 2.37210365103117e-02 2.11783103400216e-04
6.75450000000000e+00 2.34496484972085e-02 2.10595369931445e-04
6.83350000000000e+00 2.31813653844170e-02 2.09399971545697e-04
6.91250000000000e+00 2.29161516493442e-02 2.08197442332787e-04
6.99150000000000e+00 2.26539721758046e-02 2.06988298015921e-04
7.07050000000000e+00 2.23947922493703e-02 2.05773036612073e-04
7.14950000000000e+00 2.21385775527750e-02 2.04552139063375e-04
7.22850000000000e+00 2.18852941613698e-02 2.03326069841106e-04
7.30750000000000e+00 2.16349085386314e-02 2.02095277523691e-04
7.38650000000000e+00 2.13873875317219e-02 2.00860195350194e-04
7.46550000000000e+00 2.11426983670988e-02 1.99621241750593e-04
7.54450000000000e+00 2.09008086461756e-02 1.98378820853965e-04
7.62350000000000e+00 2.06616863410322e-02 1.97133322975817e-04
7.70250000000000e+00 2.04252997901739e-02 1.95885125085618e-04
7.78150000000000e+00 2.01916176943396e-02 1.94634591255465e-04
7.86050000000000e+00 1.99606091123569e-02 1.93382073090907e-04
7.93950000000000e+00 1.97322434570459e-02 1.92127910144743e-04
8.01850000000000e+00 1.95064904911690e-02 1.90872430314686e-04
8.09750000000000e+00 1.92833203234272e-02 1.89615950225613e-04
8.17650000000000e+00 1.90627034045024e-02 1.88358775597164e-04
8.25550000000000e+00 1.88446105231447e-02 1.87101201597386e-04
8.33450000000000e+00 1.86290128023049e-02 1.85843513183114e-04
8.41350000000000e+00 1.84158816953108e-02 1.84585985427608e-04
8.49250000000000e+00 1.82051889820871e-02 1.83328883836089e-04
8.57150000000000e+00 1.79969067654196e-02 1.82072464649724e-04
8.65050000000000e+00 1.77910074672609e-02 1.80816975138575e-04
8.72950000000000e+00 1.75874638250787e-02 1.79562653883998e-04
8.80850000000000e+00 1.73862488882466e-02 1.78309731050936e-04
8.88750000000000e+00 1.71873360144753e-02 1.77058428650575e-04
8.96650000000000e+00 1.69906988662850e-02 1.75808960793775e-04
9.04550000000000e+00 1.67963114075180e-02 1.74561533935641e-04
9.12450000000000e+00 1.66041478998919e-02 1.73316347111656e-04
9.20350000000000e+00 1.64141828995907e-02 1.72073592165674e-04
9.28250000000000e+00 1.62263912538970e-02 1.70833453970160e-04
9.36150000000000e+00 1.60407480978605e-02 1.69596110638968e-04
9.44050000000000e+00 1.58572288510065e-02 1.68361733732969e-04
9.51950000000000e+00 1.56758092140809e-02 1.67130488458830e-04
9.59850000000000e+00 1.54964651658330e-02 1.65902533861172e-04
9.67750000000000e+00 1.53191729598347e-02 1.64678023008429e-04
9.75650000000000e+00 1.51439091213365e-02 1.63457103172639e-04
9.83550000000000e+00 1.49706504441589e-02 1.62239916003360e-04
9.91450000000000e+00 1.47993739876206e-02 1.61026597696001e-04
9.99350000000000e+00 1.46300570734998e-02 1.59817279154735e-04
1.00725000000000e+01 1.44626772830324e-02 1.58612086150218e-04
1.01515000000000e+01 1.42972124539432e-02 1.57411139472332e-04
1.02305000000000e+01 1.41336406775116e-02 1.56214555078091e-04
1.03095000000000e+01 1.39719402956705e-02 1.55022444234916e-04
1.03885000000000e+01 1.38120898981387e-02 1.53834913659467e-04
1.04675000000000e+01 1.36540683195862e-02 1.52652065652145e-04
1.05465000000000e+01 1.34978546368317e-02 1.51473998227480e-04
1.06255000000000e+01 1.33434281660722e-02 1.50300805240496e-04
1.07045000000000e+01 1.31907684601439e-02 1.49132576509247e-04
1.07835000000000e+01 1.30398553058158e-02 1.47969397933629e-04
1.08625000000000e+01 1.28906687211123e-02 1.46811351610594e-04
1.09415000000000e+01 1.27431889526682e-02 1.45658515945922e-04
1.10205000000000e+01 1.25973964731127e-02 1.44510965762641e-04
1.10995000000000e+01 1.24532719784843e-02 1.43368772406227e-04
1.11785000000000e+01 1.23107963856742e-02 1.42232003846678e-04
1.12575000000000e+01 1.21699508299003e-02 1.41100724777594e-04
1.13365000000000e+01 1.20307166622089e-02 1.39974996712347e-04
1.14155000000000e+01 1.18930754470054e-02 1.38854878077429e-04
1.14945000000000e+01 1.17570089596137e-02 1.37740424303079e-04
1.15735000000000e+01 1.16224991838625e-02 1.36631687911298e-04
1.16525000000000e+01 1.14895283097006e-02 1.35528718601330e-04
1.17315000000000e+01 1.13580787308381e-02 1.34431563332658e-04
1.18105000000000e+01 1.12281330424154e-02 1.33340266405628e-04
1.18895000000000e+01 1.10996740386987e-02 1.32254869539786e-04
1.19685000000000e+01 1.09726847108021e-02 1.31175411949983e-04
1.20475000000000e+01 1.08471482444349e-02 1.30101930420309e-04
1.21265000000000e+01 1.07230480176756e-02 1.29034459375939e-04
1.22055000000000e+01 1.06003675987714e-02 1.27973030952983e-04
1.22845000000000e+01 1.04790907439618e-02 1.26917675066340e-04
1.23635000000000e+01 1.03592013953283e-02 1.25868419475666e-04
1.24425000000000e+01 1.02406836786681e-02 1.24825289849512e-04
1.25215000000000e+01 1.01235219013923e-02 1.23788309827666e-04
1.26005000000000e+01 1.00077005504479e-02 1.22757501081775e-04
1.26795000000000e+01 9.89320429026387e-03 1.21732883374272e-04
1.27585000000000e+01 9.78001796072080e-03 1.20714474615699e-04
1.28375000000000e+01 9.66812657514325e-03 1.19702290920438e-04
1.29165000000000e+01 9.55751531831565e-03 1.18696346660914e-04
1.29955000000000e+01 9.44816954452055e-03 1.17696654520331e-04
1.30745000000000e+01 9.34007477559949e-03 1.16703225543941e-04
1.31535000000000e+01 9.23321669903593e-03 1.15716069188930e-04
1.32325000000000e+01 9.12758116606022e-03 1.14735193372948e-04
1.33115000000000e+01 9.02315418977615e-03 1.13760604521314e-04
1.33905000000000e+01 8.91992194330904e-03 1.12792307612944e-04
1.34695000000000e+01 8.81787075797493e-03 1.11830306225055e-04
1.35485000000000e+01 8.71698712147077e-03 1.10874602576635e-04
1.36275000000000e+01 8.61725767608526e-03 1.09925197570755e-04
1.37065000000000e+01 8.51866921693022e-03 1.08982090835751e-04
1.37855000000000e+01 8.42120869019220e-03 1.08045280765280e-04
1.38645000000000e+01 8.32486319140398e-03 1.07114764557330e-04
1.39435000000000e+01 8.22961996373601e-03 1.06190538252157e-04
1.40225000000000e+01 8.13546639630725e-03 1.05272596769214e-04
1.41015000000000e+01 8.04239002251546e-03 1.04360933943123e-04
1.41805000000000e+01 7.95037851838648e-03 1.03455542558648e-04
1.42595000000000e+01 7.85941970094247e-03 1.02556414384751e-04
1.43385000000000e+01 7.76950152658881e-03 1.01663540207754e-04
1.44175000000000e+01 7.68061208951942e-03 1.00776909863604e-04
1.44965000000000e+01 7.59273962014036e-03 9.98965122692777e-05
1.45755000000000e+01 7.50587248351145e-03 9.90223354533742e-05
1.46545000000000e+01 7.41999917780571e-03 9.81543665858763e-05
1.47335000000000e+01 7.33510833278646e-03 9.72925920071287e-05
1.48125000000000e+01 7.25118870830179e-03 9.64369972560477e-05
1.48915000000000e+01 7.16822919279632e-03 9.55875670975896e-05
1.49705000000000e+01 7.08621880183990e-03 9.47442855494843e-05
1.50495000000000e+01 7.00514667667325e-03 9.39071359082623e-05
1.51285000000000e+01 6.92500208277015e-03 9.30761007746016e-05
1.52075000000000e+01 6.84577440841611e-03 9.22511620779961e-05
1.52865000000000e+01 6.76745316330332e-03 9.14323011007728e-05
1.53655000000000e+01 6.69002797714165e-03 9.06194985014730e-05
1.54445000000000e+01 6.61348859828556e-03 8.98127343376191e-05
1.55235000000000e+01 6.53782489237668e-03 8.90119880878787e-05
1.56025000000000e+01 6.46302684100198e-03 8.82172386736379e-05
1.56815000000000e+01 6.38908454036725e-03 8.74284644800035e-05
1.57605000000000e+01 6.31598819998576e-03 8.66456433762593e-05
1.58395000000000e+01 6.24372814138196e-03 8.58687527357704e-05
1.59185000000000e+01 6.17229479680993e-03 8.50977694553563e-05
1.59975000000000e+01 6.10167870798658e-03 8.43326699741662e-05
1.60765000000000e+01 6.03187052483930e-03 8.35734302920390e-05
1.61555000000000e+01 5.96286100426793e-03 8.28200259873802e-05
1.62345000000000e+01 5.89464100892093e-03 8.20724322345641e-05
1.63135000000000e+01 5.82720150598551e-03 8.13306238208726e-05
1.63925000000000e+01 5.76053356599163e-03 8.05945751629911e-05
1.64715000000000e+01 5.69462836162968e-03 7.98642603230439e-05
1.65505000000000e+01 5.62947716658166e-03 7.91396530242179e-05
1.66295000000000e+01 5.56507135436579e-03 7.84207266659728e-05
1.67085000000000e+01 5.50140239719425e-03 7.77074543388261e-05
1.67875000000000e+01 5.43846186484410e-03 7.69998088387550e-05
1.68665000000000e+01 5.37624142354102e-03 7.62977626812088e-05
1.69455000000000e+01 5.31473283485585e-03 7.56012881147449e-05
1.70245000000000e+01 5.25392795461382e-03 7.49103571342985e-05
1.71035000000000e+01 5.19381873181612e-03 7.42249414940892e-05
1.71825000000000e+01 5.13439720757397e-03 7.35450127201783e-05
1.72615000000000e+01 5.07565551405476e-03 7.28705421226922e-05
1.73405000000000e+01 5.01758587344030e-03 7.22015008077146e-05
1.74195000000000e+01 4.96018059689699e-03 7.15378596888440e-05
1.74985000000000e+01 4.90343208355777e-03 7.08795894984501e-05
1.75775000000000e+01 4.84733281951568e-03 7.02266607986112e-05
1.76565000000000e+01 4.79187537682902e-03 6.95790439917490e-05
1.77355000000000e+01 4.73705241253776e-03 6.89367093309931e-05
1.78145000000000e+01 4.68285666769136e-03 6.82996269302349e-05
1.78935000000000e+01 4.62928096638758e-03 6.76677667739131e-05
1.79725000000000e+01 4.57631821482236e-03 6.70410987265316e-05
1.80515000000000e+01 4.52396140035055e-03 6.64195925419039e-05
1.81305000000000e+01 4.47220359055739e-03 6.58032178721532e-05
1.82095000000000e+01 4.42103793234058e-03 6.51919442764457e-05
1.82885000000000e+01 4.37045765100292e-03 6.45857412294875e-05
1.83675000000000e+01 4.32045604935527e-03 6.39845781297815e-05
1.84465000000000e+01 4.27102650682979e-03 6.33884243076463e-05
1.85255000000000e+01 4.22216247860335e-03 6.27972490330106e-05
1.86045000000000e+01 4.17385749473093e-03 6.22110215229843e-05
1.86835000000000e+01 4.12610515928896e-03 6.16297109492176e-05
1.87625000000000e+01 4.07889914952847e-03 6.10532864450436e-05
1.88415000000000e+01 4.03223321503786e-03 6.04817171124142e-05
1.89205000000000e+01 3.98610117691538e-03 5.99149720286317e-05
1.89995000000000e+01 3.94049692695094e-03 5.93530202528981e-05
1.90785000000000e+01 3.89541442681734e-03 5.87958308326613e-05
1.91575000000000e+01 3.85084770727081e-03 5.82433728097732e-05
1.92365000000000e+01 3.80679086736057e-03 5.76956152264744e-05
1.93155000000000e+01 3.76323807364753e-03 5.71525271311959e-05
1.93945000000000e+01 3.72018355943193e-03 5.66140775841876e-05
1.94735000000000e+01 3.67762162398972e-03 5.60802356629742e-05
1.95525000000000e+01 3.63554663181783e-03 5.55509704676574e-05
1.96315000000000e+01 3.59395301188791e-03 5.50262511260484e-05
1.97105000000000e+01 3.55283525690873e-03 5.45060467986400e-05
1.97895000000000e+01 3.51218792259698e-03 5.39903266834378e-05
1.98685000000000e+01 3.47200562695636e-03 5.34790600206340e-05
1.99475000000000e+01 3.43228304956503e-03 5.29722160971308e-05
2.00265000000000e+01 3.39301493087111e-03 5.24697642509319e-05
2.01055000000000e+01 3.35419607149627e-03 5.19716738753938e-05
2.01845000000000e+01 3.31582133154733e-03 5.14779144233326e-05
2.02635000000000e+01 3.27788562993568e-03 5.09884554110096e-05
2.03425000000000e+01 3.24038394370449e-03 5.05032664219865e-05
2.04215000000000e+01 3.20331130736367e-03 5.00223171108454e-05
2.05005000000000e+01 3.16666281223239e-03 4.95455772067978e-05
2.05795000000000e+01 3.13043360578914e-03 4.90730165171718e-05
2.06585000000000e+01 3.09461889102919e-03 4.86046049307767e-05
2.07375000000000e+01 3.05921392582948e-03 4.81403124211606e-05
2.08165000000000e+01 3.02421402232071e-03 4.76801090497552e-05
2.08955000000000e+01 2.98961454626661e-03 4.72239649689131e-05
2.09745000000000e+01 2.95541091645037e-03 4.67718504248361e-05
2.10535000000000e+01 2.92159860406803e-03 4.63237357604016e-05
2.11325000000000e+01 2.88817313212885e-03 4.58795914178976e-05
2.12115000000000e+01 2.85513007486252e-03 4.54393879416487e-05
2.12905000000000e+01 2.82246505713314e-03 4.50030959805480e-05
2.13695000000000e+01 2.79017375385994e-03 4.45706862905034e-05
2.14485000000000e+01 2.75825188944461e-03 4.41421297367883e-05
2.15275000000000e+01 2.72669523720517e-03 4.37173972963028e-05
2.16065000000000e+01 2.69549961881632e-03 4.32964600597502e-05
2.16855000000000e+01 2.66466090375623e-03 4.28792892337297e-05
2.17645000000000e+01 2.63417500875960e-03 4.24658561427481e-05
2.18435000000000e+01 2.60403789727701e-03 4.20561322311513e-05
2.19225000000000e+01 2.57424557894047e-03 4.16500890649717e-05
2.20015000000000e+01 2.54479410903505e-03 4.12476983337112e-05
2.20805000000000e+01 2.51567958797658e-03 4.08489318520426e-05
2.21595000000000e+01 2.48689816079531e-03 4.04537615614356e-05
2.22385000000000e+01 2.45844601662550e-03 4.00621595317226e-05
2.23175000000000e+01 2.43031938820081e-03 3.96740979625886e-05
2.23965000000000e+01 2.40251455135552e-03 3.92895491849964e-05
2.24755000000000e+01 2.37502782453138e-03 3.89084856625471e-05
2.25545000000000e+01 2.34785556829019e-03 3.85308799927739e-05
2.26335000000000e+01 2.32099418483189e-03 3.81567049083780e-05
2.27125000000000e+01 2.29444011751817e-03 3.77859332784040e-05
2.27915000000000e+01 2.26818985040158e-03 3.74185381093528e-05
2.28705000000000e+01 2.24223990775999e-03 3.70544925462444e-05
2.29495000000000e+01 2.21658685363634e-03 3.66937698736186e-05
2.30285000000000e+01 2.19122729138375e-03 3.63363435164817e-05
2.31075000000000e+01 2.16615786321572e-03 3.59821870412027e-05
2.31865000000000e+01 2.14137524976159e-03 3.56312741563586e-05
2.32655000000000e+01 2.11687616962700e-03 3.52835787135286e-05
2.33445000000000e+01 2.09265737895944e-03 3.49390747080395e-05
2.34235000000000e+01 2.06871567101868e-03 3.45977362796611e-05
2.35025000000000e+01 2.04504787575225e-03 3.42595377132583e-05
2.35815000000000e+01 2.02165085937565e-03 3.39244534394000e-05
2.36605000000000e+01 1.99852152395744e-03 3.35924580349188e-05
2.37395000000000e+01 1.97565680700903e-03 3.32635262234320e-05
2.38185000000000e+01 1.95305368107922e-03 3.29376328758187e-05
2.38975000000000e+01 1.93070915335330e-03 3.26147530106581e-05
2.39765000000000e+01 1.90862026525681e-03 3.22948617946283e-05
2.40555000000000e+01 1.88678409206380e-03 3.19779345428653e-05
2.41345000000000e+01 1.86519774250957e-03 3.16639467192879e-05
2.42135000000000e+01 1.84385835840785e-03 3.13528739368819e-05
2.42925000000000e+01 1.82276311427234e-03 3.10446919579520e-05
2.43715000000000e+01 1.80190921694263e-03 3.07393766943424e-05
2.44505000000000e+01 1.78129390521432e-03 3.04369042076160e-05
2.45295000000000e+01 1.76091444947346e-03 3.01372507092071e-05
2.46085000000000e+01 1.74076815133510e-03 2.98403925605432e-05
2.46875000000000e+01 1.72085234328603e-03 2.95463062731312e-05
2.47665000000000e+01 1.70116438833154e-03 2.92549685086202e-05
2.48455000000000e+01 1.68170167964633e-03 2.89663560788299e-05
2.49245000000000e+01 1.66246164022927e-03 2.86804459457545e-05
