Energy (eV)          EEDF (eV^-(3/2))     First Anisotropy
2.16129032258065e-02 1.47196176873750e-01 9.88580812284943e-05
6.48387096774194e-02 1.45562554119746e-01 1.62884520019960e-04
1.08064516129032e-01 1.43947061753336e-01 2.14078991277807e-04
1.51290322580645e-01 1.42349498559024e-01 2.52400289956670e-04
1.94516129032258e-01 1.40769665544979e-01 2.83891237746787e-04
2.37741935483871e-01 1.39207365946297e-01 3.10851082094547e-04
2.80967741935484e-01 1.37662405165090e-01 3.34476873967702e-04
3.24193548387097e-01 1.36134590776747e-01 3.55495728415838e-04
3.67419354838710e-01 1.34623732480732e-01 3.74392670034009e-04
4.10645161290323e-01 1.33129642098417e-01 3.91512460615040e-04
4.53870967741936e-01 1.31652133530923e-01 4.07111748680359e-04
4.97096774193548e-01 1.30191022752465e-01 4.21388437929094e-04
5.40322580645161e-01 1.28746127775502e-01 4.34499435270332e-04
5.83548387096774e-01 1.27317268630086e-01 4.46571975273553e-04
6.26774193548387e-01 1.25904267348727e-01 4.57711171240330e-04
6.70000000000000e-01 1.24506947934323e-01 4.68005231544919e-04
7.13225806451613e-01 1.23125136347442e-01 4.77529172996396e-04
7.56451612903226e-01 1.21758660476067e-01 4.86347532274329e-04
7.99677419354839e-01 1.20407350122182e-01 4.94516389272895e-04
8.42903225806452e-01 1.19071036973049e-01 5.02084906114232e-04
8.86129032258065e-01 1.17749554587319e-01 5.09096517146785e-04
9.29354838709677e-01 1.16442738369062e-01 5.15589863723980e-04
9.72580645161290e-01 1.15150425547836e-01 5.21599536301934e-04
1.01580645161290e+00 1.13872455162360e-01 5.27156672339827e-04
1.05903225806452e+00 1.12608668041031e-01 5.32289444891890e-04
1.10225806451613e+00 1.11358906764783e-01 5.37023459797962e-04
1.14548387096774e+00 1.10123015671275e-01 5.41382084804955e-04
1.18870967741935e+00 1.08900840836193e-01 5.45386732126728e-04
1.23193548387097e+00 1.07692230022464e-01 5.49057088039403e-04
1.27516129032258e+00 1.06497032693107e-01 5.52411306831360e-04
1.31838709677419e+00 1.05315099991017e-01 5.55466185844921e-04
1.36161290322581e+00 1.04146284692751e-01 5.58237306703434e-04
1.40483870967742e+00 1.02990441217953e-01 5.60739156797629e-04
1.44806451612903e+00 1.01847425610084e-01 5.62985243572629e-04
1.49129032258065e+00 1.00717095494033e-01 5.64988185751337e-04
1.53451612903226e+00 9.95993100829210e-02 5.66759792890253e-04
1.57774193548387e+00 9.84939301595473e-02 5.68311143626178e-04
1.62096774193548e+00 9.74008180373515e-02 5.69652646895451e-04
1.66419354838710e+00 9.63198375650990e-02 5.70794095945037e-04
1.70741935483871e+00 9.52508541089966e-02 5.71744724094861e-04
1.75064516129032e+00 9.41937345165503e-02 5.72513246340368e-04
1.79387096774194e+00 9.31483471253693e-02 5.73107900269938e-04
1.83709677419355e+00 9.21145617225043e-02 5.73536483257734e-04
1.88032258064516e+00 9.10922495460568e-02 5.73806381790329e-04
1.92354838709677e+00 9.00812832684624e-02 5.73924605527142e-04
1.96677419354839e+00 8.90815369646218e-02 5.73897811633579e-04
2.01000000000000e+00 8.80928861123148e-02 5.73732326710829e-04
2.05322580645161e+00 8.71152075761289e-02 5.73434173137148e-04
2.09645161290323e+00 8.61483795775688e-02 5.73009086963266e-04
2.13967741935484e+00 8.51922816945086e-02 5.72462534127438e-04
2.18290322580645e+00 8.42467948456949e-02 5.71799731321100e-04
2.22612903225806e+00 8.33118012626545e-02 5.71025659354564e-04
2.26935483870968e+00 8.23871844883621e-02 5.70145075331421e-04
2.31258064516129e+00 8.14728293622689e-02 5.69162529528242e-04
2.35580645161290e+00 8.05686219938510e-02 5.68082374925630e-04
2.39903225806452e+00 7.96744497643430e-02 5.66908778789361e-04
2.44225806451613e+00 7.87902012973612e-02 5.65645733677625e-04
2.48548387096774e+00 7.79157664563730e-02 5.64297064584220e-04
2.52870967741935e+00 7.70510363305930e-02 5.62866441231112e-04
2.57193548387097e+00 7.61959032110698e-02 5.61357384593218e-04
2.61516129032258e+00 7.53502605876890e-02 5.59773272902780e-04
2.65838709677419e+00 7.45140031355755e-02 5.58117352047051e-04
2.70161290322581e+00 7.36870266924318e-02 5.56392740632484e-04
2.74483870967742e+00 7.28692282551576e-02 5.54602434650012e-04
2.78806451612903e+00 7.20605059667350e-02 5.52749316388851e-04
2.83129032258065e+00 7.12607590947174e-02 5.50836158386654e-04
2.87451612903226e+00 7.04698880275543e-02 5.48865627075017e-04
2.91774193548387e+00 6.96877942619121e-02 5.46840290511957e-04
2.96096774193548e+00 6.89143803822463e-02 5.44762621470908e-04
3.00419354838710e+00 6.81495500568830e-02 5.42635000301144e-04
3.04741935483871e+00 6.73932080257619e-02 5.40459721705077e-04
3.09064516129032e+00 6.66452600810128e-02 5.38238996738251e-04
3.13387096774194e+00 6.59056130651933e-02 5.35974956738188e-04
3.17709677419355e+00 6.51741748500117e-02 5.33669657219495e-04
3.22032258064516e+00 6.44508543320197e-02 5.31325079340787e-04
3.26354838709677e+00 6.37355614210503e-02 5.28943135427394e-04
3.30677419354839e+00 6.30282070223773e-02 5.26525670596654e-04
3.35000000000000e+00 6.23287030322797e-02 5.24074464263691e-04
3.39322580645161e+00 6.16369623268802e-02 5.21591235090499e-04
3.43645161290323e+00 6.09528987451219e-02 5.19077642255626e-04
3.47967741935484e+00 6.02764270842437e-02 5.16535286627659e-04
3.52290322580645e+00 5.96074630889947e-02 5.13965715229925e-04
3.56612903225806e+00 5.89459234353824e-02 5.11370422223623e-04
3.60935483870968e+00 5.82917257260890e-02 5.08750849816823e-04
3.65258064516129e+00 5.76447884800414e-02 5.06108392315675e-04
3.69580645161290e+00 5.70050311168903e-02 5.03444396548265e-04
3.73903225806452e+00 5.63723739540685e-02 5.00760163875692e-04
3.78225806451613e+00 5.57467381899611e-02 4.98056952244893e-04
3.82548387096774e+00 5.51280458992171e-02 4.95335976418647e-04
3.86870967741936e+00 5.45162200228974e-02 4.92598411442000e-04
3.91193548387097e+00 5.39111843541143e-02 4.89845393113308e-04
3.95516129032258e+00 5.33128635333354e-02 4.87078018417048e-04
3.99838709677419e+00 5.27211830388674e-02 4.84297348709037e-04
4.04161290322581e+00 5.21360691731088e-02 4.81504410056954e-04
4.08483870967742e+00 5.15574490578627e-02 4.78700193548173e-04
4.12806451612903e+00 5.09852506251426e-02 4.75885658227944e-04
4.17129032258065e+00 5.04194026040052e-02 4.73061731332370e-04
4.21451612903226e+00 4.98598345158898e-02 4.70229308495534e-04
4.25774193548387e+00 4.93064766657270e-02 4.67389256469039e-04
4.30096774193548e+00 4.87592601293263e-02 4.64542413265695e-04
4.34419354838710e+00 4.82181167487510e-02 4.61689588285423e-04
4.38741935483871e+00 4.76829791237202e-02 4.58831564839774e-04
4.43064516129032e+00 4.71537805995220e-02 4.55969099974764e-04
4.47387096774194e+00 4.66304552635953e-02 4.53102925524299e-04
4.51709677419355e+00 4.61129379325542e-02 4.50233749218310e-04
4.56032258064516e+00 4.56011641476114e-02 4.47362254440178e-04
4.60354838709677e+00 4.50950701664555e-02 4.44489102458769e-04
4.64677419354839e+00 4.45945929520028e-02 4.41614932413974e-04
4.69000000000000e+00 4.40996701678769e-02 4.38740361293097e-04
4.73322580645161e+00 4.36102401705597e-02 4.35865986016781e-04
4.77645161290323e+00 4.31262419985960e-02 4.32992383382717e-04
4.81967741935484e+00 4.26476153681374e-02 4.30120110001874e-04
4.86290322580645e+00 4.21743006653549e-02 4.27249704251926e-04
4.90612903225806e+00 4.17062389360755e-02 4.24381686186104e-04
4.94935483870968e+00 4.12433718813968e-02 4.21516557437464e-04
4.99258064516129e+00 4.07856418503497e-02 4.18654803051584e-04
5.03580645161290e+00 4.03329918299483e-02 4.15796891167884e-04
5.07903225806452e+00 3.98853654417531e-02 4.12943273695631e-04
5.12225806451613e+00 3.94427069312676e-02 4.10094387040224e-04
5.16548387096774e+00 3.90049611636586e-02 4.07250651756319e-04
5.20870967741936e+00 3.85720736168202e-02 4.04412474193580e-04
5.25193548387097e+00 3.81439903720856e-02 4.01580246345780e-04
5.29516129032258e+00 3.77206581100264e-02 3.98754345699785e-04
5.33838709677419e+00 3.73020241037489e-02 3.95935136785957e-04
5.38161290322581e+00 3.68880362099668e-02 3.93122971012238e-04
5.42483870967742e+00 3.64786428648814e-02 3.90318186497786e-04
5.46806451612903e+00 3.60737930777022e-02 3.87521109535583e-04
5.51129032258065e+00 3.56734364220640e-02 3.84732054414229e-04
5.55451612903226e+00 3.52775230319920e-02 3.81951323240164e-04
5.59774193548387e+00 3.48860035956355e-02 3.79179207319065e-04
5.64096774193548e+00 3.44988293470168e-02 3.76415986967569e-04
5.68419354838710e+00 3.41159520620812e-02 3.73661931327233e-04
5.72741935483871e+00 3.37373240526373e-02 3.70917299670558e-04
5.77064516129032e+00 3.33628981584225e-02 3.68182341051345e-04
5.81387096774194e+00 3.29926277438713e-02 3.65457294729038e-04
5.85709677419355e+00 3.26264666897202e-02 3.62742390634661e-04
5.90032258064516e+00 3.22643693891889e-02 3.60037849011551e-04
5.94354838709677e+00 3.19062907422525e-02 3.57343881602012e-04
5.98677419354839e+00 3.15521861482137e-02 3.54660691446985e-04
6.03000000000000e+00 3.12020115019705e-02 3.51988472688649e-04
6.07322580645161e+00 3.08557231884791e-02 3.49327411695205e-04
6.11645161290323e+00 3.05132780756062e-02 3.46677686858126e-04
6.15967741935484e+00 3.01746335104833e-02 3.44039468392279e-04
6.20290322580645e+00 2.98397473141529e-02 3.41412919402875e-04
6.24612903225806e+00 2.95085777746897e-02 3.38798195681204e-04
6.28935483870968e+00 2.91810836436416e-02 3.36195445503811e-04
6.33258064516129e+00 2.88572241308530e-02 3.33604810645339e-04
6.37580645161290e+00 2.85369588978427e-02 3.31026426048569e-04
6.41903225806452e+00 2.82202480548218e-02 3.28460420125323e-04
6.46225806451613e+00 2.79070521537245e-02 3.25906915092089e-04
6.50548387096774e+00 2.75973321847853e-02 3.23366026636873e-04
6.54870967741935e+00 2.72910495716436e-02 3.20837864845272e-04
6.59193548387097e+00 2.69881661651358e-02 3.18322533998916e-04
6.63516129032258e+00 2.66886442399571e-02 3.15820132378018e-04
6.67838709677419e+00 2.63924464899293e-02 3.13330753141986e-04
6.72161290322581e+00 2.60995360220219e-02 3.10854484129839e-04
6.76483870967742e+00 2.58098763530977e-02 3.08391407664132e-04
6.80806451612903e+00 2.55234314053387e-02 3.05941601388852e-04
6.85129032258065e+00 2.52401655004862e-02 3.03505138072076e-04
6.89451612903226e+00 2.49600433566710e-02 3.01082085412129e-04
6.93774193548387e+00 2.46830300839895e-02 2.98672506835283e-04
6.98096774193548e+00 2.44090911789561e-02 2.96276461300745e-04
7.02419354838710e+00 2.41381925214158e-02 2.93894003109773e-04
7.06741935483871e+00 2.38703003702658e-02 2.91525182665372e-04
7.11064516129032e+00 2.36053813581118e-02 2.89170046182044e-04
7.15387096774194e+00 2.33434024886246e-02 2.86828635891186e-04
7.19709677419355e+00 2.30843311309467e-02 2.84500990274034e-04
7.24032258064516e+00 2.28281350167337e-02 2.82187143771708e-04
7.28354838709677e+00 2.25747822361094e-02 2.79887127483553e-04
7.32677419354839e+00 2.23242412326476e-02 2.77600968982168e-04
7.37000000000000e+00 2.20764808004922e-02 2.75328692132267e-04
7.41322580645161e+00 2.18314700804472e-02 2.73070317756568e-04
7.45645161290323e+00 2.15891785551395e-02 2.70825863454588e-04
7.49967741935484e+00 2.13495760462177e-02 2.68595343424977e-04
7.54290322580645e+00 2.11126327105705e-02 2.66378769100729e-04
7.58612903225807e+00 2.08783190356652e-02 2.64176148971676e-04
7.62935483870968e+00 2.06466058368228e-02 2.61987488410649e-04
7.67258064516129e+00 2.04174642535608e-02 2.59812790279644e-04
7.71580645161290e+00 2.01908657451005e-02 2.57652054675577e-04
7.75903225806452e+00 1.99667820880029e-02 2.55505279083139e-04
7.80225806451613e+00 1.97451853714848e-02 2.53372458550383e-04
7.84548387096774e+00 1.95260479948136e-02 2.51253585435969e-04
7.88870967741935e+00 1.93093426638498e-02 2.49148649968123e-04
7.93193548387097e+00 1.90950423868233e-02 2.47057640078564e-04
7.97516129032258e+00 1.88831204718013e-02 2.44980541240171e-04
8.01838709677419e+00 1.86735505233448e-02 2.42917337000829e-04
8.06161290322581e+00 1.84663064384369e-02 2.40868008821581e-04
8.10483870967742e+00 1.82613624040207e-02 2.38832535918069e-04
8.14806451612903e+00 1.80586928937671e-02 2.36810895770604e-04
8.19129032258065e+00 1.78582726641479e-02 2.34803063966382e-04
8.23451612903226e+00 1.76600767520441e-02 2.32809014044913e-04
8.27774193548387e+00 1.74640804716195e-02 2.30828717985512e-04
8.32096774193549e+00 1.72702594105347e-02 2.28862146053427e-04
8.36419354838710e+00 1.70785894276226e-02 2.26909266649389e-04
8.40741935483871e+00 1.68890466498659e-02 2.24970046775620e-04
8.45064516129032e+00 1.67016074687450e-02 2.23044451822249e-04
8.49387096774194e+00 1.65162485381973e-02 2.21132445676120e-04
8.53709677419355e+00 1.63329467708259e-02 2.19233990847633e-04
8.58032258064516e+00 1.61516793356828e-02 2.17349048259226e-04
8.62354838709677e+00 1.59724236554102e-02 2.15477577676306e-04
8.66677419354839e+00 1.57951574028051e-02 2.13619537564884e-04
8.71000000000000e+00 1.56198584986662e-02 2.11774884952333e-04
8.75322580645161e+00 1.54465051090297e-02 2.09943575839579e-04
8.79645161290323e+00 1.52750756418557e-02 2.08125565062773e-04
8.83967741935484e+00 1.51055487449373e-02 2.06320806157848e-04
8.88290322580645e+00 1.49379033032273e-02 2.04529251754870e-04
8.92612903225806e+00 1.47721184356424e-02 2.02750853443546e-04
8.96935483870968e+00 1.46081734930322e-02 2.00985561641664e-04
9.01258064516129e+00 1.44460480555953e-02 1.99233325972448e-04
9.05580645161290e+00 1.42857219297948e-02 1.97494095081264e-04
9.09903225806452e+00 1.41271751465608e-02 1.95767816718654e-04
9.14225806451613e+00 1.39703879580979e-02 1.94054437838235e-04
9.18548387096774e+00 1.38153408359519e-02 1.92353904415518e-04
9.22870967741935e+00 1.36620144685654e-02 1.90666161797539e-04
9.27193548387097e+00 1.35103897583743e-02 1.88991154578936e-04
9.31516129032258e+00 1.33604478199309e-02 1.87328826480828e-04
9.35838709677419e+00 1.32121699775408e-02 1.85679120685551e-04
9.40161290322581e+00 1.30655377624610e-02 1.84041979716476e-04
9.44483870967742e+00 1.29205329110785e-02 1.82417345320329e-04
9.48806451612903e+00 1.27771373626249e-02 1.80805158787772e-04
9.53129032258065e+00 1.26353332564734e-02 1.79205360836773e-04
9.57451612903226e+00 1.24951029303708e-02 1.77617891498414e-04
9.61774193548387e+00 1.23564289182274e-02 1.76042690423942e-04
9.66096774193548e+00 1.22192939475090e-02 1.74479696771530e-04
9.70419354838710e+00 1.20836809375214e-02 1.72928849095598e-04
9.74741935483871e+00 1.19495729972732e-02 1.71390085640926e-04
9.79064516129032e+00 1.18169534229588e-02 1.69863344190929e-04
9.83387096774194e+00 1.16858056964261e-02 1.68348562128091e-04
9.87709677419355e+00 1.15561134825803e-02 1.66845676506237e-04
9.92032258064516e+00 1.14278606277516e-02 1.65354623900814e-04
9.96354838709678e+00 1.13010311576739e-02 1.63875340681873e-04
1.00067741935484e+01 1.11756092751141e-02 1.62407762910193e-04
1.00500000000000e+01 1.10515793582886e-02 1.60951826235664e-04
1.00932258064516e+01 1.09289259589091e-02 1.59507466120928e-04
1.01364516129032e+01 1.08076338000122e-02 1.58074617817993e-04
1.01796774193548e+01 1.06876877741828e-02 1.56653216306392e-04
1.02229032258065e+01 1.05690729416717e-02 1.55243196352558e-04
1.02661290322581e+01 1.04517745285354e-02 1.53844492527464e-04
1.03093548387097e+01 1.03357779247955e-02 1.52457039223865e-04
1.03525806451613e+01 1.02210686826192e-02 1.51080770673045e-04
1.03958064516129e+01 1.01076325145197e-02 1.49715621307970e-04
1.04390322580645e+01 9.99545529051311e-03 1.48361524730039e-04
1.04822580645161e+01 9.88452303957742e-03 1.47018414427543e-04
1.05254838709677e+01 9.77482194466455e-03 1.45686224508161e-04
1.05687096774194e+01 9.66633834207176e-03 1.44364888631555e-04
1.06119354838710e+01 9.55905871973985e-03 1.43054340387190e-04
1.06551612903226e+01 9.45296971557011e-03 1.41754513308135e-04
1.06983870967742e+01 9.34805811576004e-03 1.40465340884409e-04
1.07416129032258e+01 9.24431085315755e-03 1.39186756576116e-04
1.07848387096774e+01 9.14171500563297e-03 1.37918693825821e-04
1.08280645161290e+01 9.04025779447035e-03 1.36661086070807e-04
1.08712903225806e+01 8.93992658277537e-03 1.35413866755261e-04
1.09145161290323e+01 8.84070887390144e-03 1.34176969341690e-04
1.09577419354839e+01 8.74259230989315e-03 1.32950327322177e-04
1.10009677419355e+01 8.64556466994703e-03 1.31733874229271e-04
1.10441935483871e+01 8.54961386888942e-03 1.30527543931278e-04
1.10874193548387e+01 8.45472795482426e-03 1.29331269781407e-04
1.11306451612903e+01 8.36089511020776e-03 1.28144985204784e-04
1.11738709677419e+01 8.26810364779030e-03 1.26968624297073e-04
1.12170967741935e+01 8.17634201003054e-03 1.25802120945768e-04
1.12603225806452e+01 8.08559876765589e-03 1.24645409137794e-04
1.13035483870968e+01 7.99586261823892e-03 1.23498422968330e-04
1.13467741935484e+01 7.90712238478963e-03 1.22361096649333e-04
1.13900000000000e+01 7.81936701436331e-03 1.21233364517878e-04
1.14332258064516e+01 7.73258557668367e-03 1.20115161044138e-04
1.14764516129032e+01 7.64676726278163e-03 1.19006420839047e-04
1.15196774193548e+01 7.56190138364912e-03 1.17907078661931e-04
1.15629032258065e+01 7.47797736890761e-03 1.16817069427842e-04
1.16061290322581e+01 7.39498476549147e-03 1.15736328214561e-04
1.16493548387097e+01 7.31291323634607e-03 1.14664790269412e-04
1.16925806451613e+01 7.23175255914019e-03 1.13602391015874e-04
1.17358064516129e+01 7.15149262499285e-03 1.12549066290954e-04
1.17790322580645e+01 7.07212343654750e-03 1.11504751652703e-04
1.18222580645161e+01 6.99363510874434e-03 1.10469382854302e-04
1.18654838709677e+01 6.91601786555378e-03 1.09442896327676e-04
1.19087096774194e+01 6.83926203944329e-03 1.08425228468584e-04
1.19519354838710e+01 6.76335807017321e-03 1.07416315884128e-04
1.19951612903226e+01 6.68829650360603e-03 1.06416095397942e-04
1.20383870967742e+01 6.61406799052885e-03 1.05424504055185e-04
1.20816129032258e+01 6.54066328548885e-03 1.04441479127431e-04
1.21248387096774e+01 6.46807324564157e-03 1.03466958117162e-04
1.21680645161290e+01 6.39628882961252e-03 1.02500878762239e-04
1.22112903225806e+01 6.32530109637086e-03 1.01543179040360e-04
1.22545161290323e+01 6.25510120411572e-03 1.00593797173131e-04
1.22977419354839e+01 6.18568040917496e-03 9.96526716300415e-05
1.23409677419355e+01 6.11703006491607e-03 9.87197411322958e-05
1.23841935483871e+01 6.04914162066922e-03 9.77949448467378e-05
1.24274193548387e+01 5.98200662012772e-03 9.68782218140014e-05
1.24706451612903e+01 5.91561670191225e-03 9.59695113373927e-05
1.25138709677419e+01 5.84996359689777e-03 9.50687533797034e-05
1.25570967741935e+01 5.78503912773221e-03 9.41758879729721e-05
1.26003225806452e+01 5.72083520781801e-03 9.32908554208786e-05
1.26435483870968e+01 5.65734384030484e-03 9.24135963015914e-05
1.26867741935484e+01 5.59455711709359e-03 9.15440514704904e-05
1.27300000000000e+01 5.53246721785141e-03 9.06821620627850e-05
1.27732258064516e+01 5.47106640903751e-03 8.98278694959609e-05
1.28164516129032e+01 5.41034704294006e-03 8.89811154720763e-05
1.28596774193548e+01 5.35030155672369e-03 8.81418419800676e-05
1.29029032258065e+01 5.29092247148744e-03 8.73099912979145e-05
1.29461290322581e+01 5.23220239133320e-03 8.64855059946217e-05
1.29893548387097e+01 5.17413400244457e-03 8.56683289321372e-05
1.30325806451613e+01 5.11671007217586e-03 8.48584032671679e-05
1.30758064516129e+01 5.05992344815123e-03 8.40556726077508e-05
1.31190322580645e+01 5.00376705695044e-03 8.32600805465322e-05
1.31622580645161e+01 4.94823390450905e-03 8.24715709760240e-05
1.32054838709677e+01 4.89331707395491e-03 8.16900884103834e-05
1.32487096774194e+01 4.83900972518118e-03 8.09155775038244e-05
1.32919354838710e+01 4.78530509399440e-03 8.01479832141437e-05
1.33351612903226e+01 4.73219649127196e-03 7.93872508038932e-05
1.33783870967742e+01 4.67967730212896e-03 7.86333258414454e-05
1.34216129032258e+01 4.62774098509426e-03 7.78861542020210e-05
1.34648387096774e+01 4.57638107129565e-03 7.71456820685223e-05
1.35080645161290e+01 4.52559116365434e-03 7.64118559323531e-05
1.35512903225806e+01 4.47536493608803e-03 7.56846225942710e-05
1.35945161290323e+01 4.42569613272302e-03 7.49639291650264e-05
1.36377419354839e+01 4.37657856711500e-03 7.42497230659704e-05
