Energy (eV)          EEDF (eV^-(3/2))     First Anisotropy
1.48888888888889e-02 1.47455828106984e-01 8.23384318875282e-05
4.46666666666667e-02 1.46326508732920e-01 1.35900370404746e-04
7.44444444444445e-02 1.45205838472755e-01 1.79234995409672e-04
1.04222222222222e-01 1.44093751087226e-01 2.12054034416723e-04
1.34000000000000e-01 1.42990180841530e-01 2.39340728988397e-04
1.63777777777778e-01 1.41895062503134e-01 2.62981341287369e-04
1.93555555555556e-01 1.40808331341921e-01 2.83953076828529e-04
2.23333333333333e-01 1.39729923128748e-01 3.02846668675385e-04
2.53111111111111e-01 1.38659774115177e-01 3.20054312062864e-04
2.82888888888889e-01 1.37597821046756e-01 3.35853489919040e-04
3.12666666666667e-01 1.36544001153296e-01 3.50449821877363e-04
3.42444444444444e-01 1.35498252145457e-01 3.64001148763609e-04
3.72222222222222e-01 1.34460512213854e-01 3.76632060504813e-04
4.02000000000000e-01 1.33430720016371e-01 3.88443149246251e-04
4.31777777777778e-01 1.32408814683793e-01 3.99517166228218e-04
4.61555555555556e-01 1.31394735813076e-01 4.09923268654486e-04
4.91333333333333e-01 1.30388423465907e-01 4.19720037183838e-04
5.21111111111111e-01 1.29389818158693e-01 4.28957674292129e-04
5.50888888888889e-01 1.28398860865616e-01 4.37679641602139e-04
5.80666666666667e-01 1.27415493012877e-01 4.45923903795538e-04
6.10444444444444e-01 1.26439656475305e-01 4.53723887847175e-04
6.40222222222222e-01 1.25471293574440e-01 4.61109235315262e-04
6.70000000000000e-01 1.24510347070390e-01 4.68106398653113e-04
6.99777777777778e-01 1.23556760163249e-01 4.74739120083414e-04
7.29555555555556e-01 1.22610476488123e-01 4.81028821052345e-04
7.59333333333333e-01 1.21671440113060e-01 4.86994921442591e-04
7.89111111111111e-01 1.20739595531920e-01 4.92655102995865e-04
8.18888888888889e-01 1.19814887664962e-01 4.98025528878998e-04
8.48666666666667e-01 1.18897261854272e-01 5.03121028873148e-04
8.78444444444444e-01 1.17986663860553e-01 5.07955255279214e-04
9.08222222222222e-01 1.17083039860920e-01 5.12540816305499e-04
9.38000000000000e-01 1.16186336442649e-01 5.16889389619970e-04
9.67777777777778e-01 1.15296500603123e-01 5.21011820066965e-04
9.97555555555556e-01 1.14413479745655e-01 5.24918204284285e-04
1.02733333333333e+00 1.13537221680594e-01 5.28617966431886e-04
1.05711111111111e+00 1.12667674607812e-01 5.32119920828932e-04
1.08688888888889e+00 1.11804787129991e-01 5.35432327190689e-04
1.11666666666667e+00 1.10948508243369e-01 5.38562942797802e-04
1.14644444444444e+00 1.10098787334875e-01 5.41519064415182e-04
1.17622222222222e+00 1.09255574186291e-01 5.44307570792611e-04
1.20600000000000e+00 1.08418818949350e-01 5.46934955055440e-04
1.23577777777778e+00 1.07588472164942e-01 5.49407353354897e-04
1.26555555555556e+00 1.06764484752745e-01 5.51730575115429e-04
1.29533333333333e+00 1.05946808014686e-01 5.53910129982348e-04
1.32511111111111e+00 1.05135393612832e-01 5.55951248152648e-04
1.35488888888889e+00 1.04330193585939e-01 5.57858898501356e-04
1.38466666666667e+00 1.03531160340030e-01 5.59637810183936e-04
1.41444444444444e+00 1.02738246645682e-01 5.61292487240811e-04
1.44422222222222e+00 1.01951405640656e-01 5.62827226675319e-04
1.47400000000000e+00 1.01170590810542e-01 5.64246130307842e-04
1.50377777777778e+00 1.00395756002745e-01 5.65553115411693e-04
1.53355555555556e+00 9.96268554181401e-02 5.66751928328919e-04
1.56333333333333e+00 9.88638436132590e-02 5.67846156763788e-04
1.59311111111111e+00 9.81066754828006e-02 5.68839237696751e-04
1.62288888888889e+00 9.73553062718942e-02 5.69734464499785e-04
1.65266666666667e+00 9.66096915684029e-02 5.70534997931757e-04
1.68244444444444e+00 9.58697873003551e-02 5.71243872000609e-04
1.71222222222222e+00 9.51355497376105e-02 5.71864003503449e-04
1.74200000000000e+00 9.44069354762589e-02 5.72398196875032e-04
1.77177777777778e+00 9.36839014491779e-02 5.72849148543754e-04
1.80155555555556e+00 9.29664049190826e-02 5.73219454316530e-04
1.83133333333333e+00 9.22544034798937e-02 5.73511616080431e-04
1.86111111111111e+00 9.15478550424644e-02 5.73728045111068e-04
1.89088888888889e+00 9.08467178439515e-02 5.73871065032441e-04
1.92066666666667e+00 9.01509504413397e-02 5.73942918420858e-04
1.95044444444444e+00 8.94605117090319e-02 5.73945769251743e-04
1.98022222222222e+00 8.87753608398607e-02 5.73881708769633e-04
2.01000000000000e+00 8.80954573321986e-02 5.73752757511641e-04
2.03977777777778e+00 8.74207609981243e-02 5.73560867097758e-04
2.06955555555556e+00 8.67512319575025e-02 5.73307924816436e-04
2.09933333333333e+00 8.60868306387928e-02 5.72995757787336e-04
2.12911111111111e+00 8.54275177671497e-02 5.72626134308721e-04
2.15888888888889e+00 8.47732543717334e-02 5.72200765029232e-04
2.18866666666667e+00 8.41240017801550e-02 5.71721307409876e-04
2.21844444444444e+00 8.34797216162189e-02 5.71189366667371e-04
2.24822222222222e+00 8.28403758004825e-02 5.70606499804342e-04
2.27800000000000e+00 8.22059265394089e-02 5.69974216363078e-04
2.30777777777778e+00 8.15763363317938e-02 5.69293979053883e-04
2.33755555555556e+00 8.09515679636425e-02 5.68567206898911e-04
2.36733333333333e+00 8.03315845085871e-02 5.67795278080238e-04
2.39711111111111e+00 7.97163493178028e-02 5.66979530374186e-04
2.42688888888889e+00 7.91058260257996e-02 5.66121261486232e-04
2.45666666666667e+00 7.84999785455887e-02 5.65221732326530e-04
2.48644444444444e+00 7.78987710665705e-02 5.64282167239547e-04
2.51622222222222e+00 7.73021680547742e-02 5.63303756993889e-04
2.54600000000000e+00 7.67101342436007e-02 5.62287658925187e-04
2.57577777777778e+00 7.61226346389464e-02 5.61234997004055e-04
2.60555555555556e+00 7.55396345147167e-02 5.60146864152706e-04
2.63533333333333e+00 7.49610994129645e-02 5.59024324337732e-04
2.66511111111111e+00 7.43869951352377e-02 5.57868412556008e-04
2.69488888888889e+00 7.38172877472196e-02 5.56680134758732e-04
2.72466666666667e+00 7.32519435744780e-02 5.55460470399716e-04
2.75444444444444e+00 7.26909292004905e-02 5.54210372311901e-04
2.78422222222222e+00 7.21342114666554e-02 5.52930769049746e-04
2.81400000000000e+00 7.15817574643035e-02 5.51622564727828e-04
2.84377777777778e+00 7.10335345388235e-02 5.50286638810745e-04
2.87355555555556e+00 7.04895102856958e-02 5.48923847912044e-04
2.90333333333333e+00 6.99496525504310e-02 5.47535027414473e-04
2.93311111111111e+00 6.94139294210718e-02 5.46120991231478e-04
2.96288888888889e+00 6.88823092319426e-02 5.44682531527049e-04
2.99266666666667e+00 6.83547605598792e-02 5.43220420780474e-04
3.02244444444444e+00 6.78312522223836e-02 5.41735411487246e-04
3.05222222222222e+00 6.73117532774714e-02 5.40228238066007e-04
3.08200000000000e+00 6.67962330167154e-02 5.38699616545975e-04
3.11177777777778e+00 6.62846609685930e-02 5.37150244220444e-04
3.14155555555556e+00 6.57770068949535e-02 5.35580801097916e-04
3.17133333333333e+00 6.52732407908139e-02 5.33991951205616e-04
3.20111111111111e+00 6.47733328778069e-02 5.32384342241222e-04
3.23088888888889e+00 6.42772536072308e-02 5.30758605194486e-04
3.26066666666667e+00 6.37849736566836e-02 5.29115356069049e-04
3.29044444444444e+00 6.32964639283391e-02 5.27455195500031e-04
3.32022222222222e+00 6.28116955486770e-02 5.25778710349369e-04
3.35000000000000e+00 6.23306398623807e-02 5.24086473322587e-04
3.37977777777778e+00 6.18532684350686e-02 5.22379042560301e-04
3.40955555555556e+00 6.13795530501290e-02 5.20656962841891e-04
3.43933333333333e+00 6.09094657084142e-02 5.18920766664277e-04
3.46911111111111e+00 6.04429786224756e-02 5.17170973844928e-04
3.49888888888889e+00 5.99800642190583e-02 5.15408091102318e-04
3.52866666666667e+00 5.95206951360783e-02 5.13632613521607e-04
3.55844444444444e+00 5.90648442210133e-02 5.11845024138525e-04
3.58822222222222e+00 5.86124845305486e-02 5.10045795300783e-04
3.61800000000000e+00 5.81635893251930e-02 5.08235388257651e-04
3.64777777777778e+00 5.77181320715151e-02 5.06414252730035e-04
3.67755555555556e+00 5.72760864392947e-02 5.04582827929626e-04
3.70733333333333e+00 5.68374263011446e-02 5.02741543470660e-04
3.73711111111111e+00 5.64021257274112e-02 5.00890818957948e-04
3.76688888888889e+00 5.59701589882197e-02 4.99031063556967e-04
3.79666666666667e+00 5.55415005507495e-02 4.97162677260718e-04
3.82644444444444e+00 5.51161250777308e-02 4.95286050467399e-04
3.85622222222222e+00 5.46940074270337e-02 4.93401565158951e-04
3.88600000000000e+00 5.42751226468911e-02 4.91509594487654e-04
3.91577777777778e+00 5.38594459777359e-02 4.89610502347063e-04
3.94555555555556e+00 5.34469528496269e-02 4.87704644248399e-04
3.97533333333333e+00 5.30376188818212e-02 4.85792368103467e-04
4.00511111111111e+00 5.26314198782405e-02 4.83874013816227e-04
4.03488888888889e+00 5.22283318291535e-02 4.81949912859896e-04
4.06466666666667e+00 5.18283309087094e-02 4.80020389384334e-04
4.09444444444444e+00 5.14313934735347e-02 4.78085759802473e-04
4.12422222222222e+00 5.10374960622833e-02 4.76146333821888e-04
4.15400000000000e+00 5.06466153913801e-02 4.74202414041765e-04
4.18377777777778e+00 5.02587283565325e-02 4.72254295536862e-04
4.21355555555556e+00 4.98738120303970e-02 4.70302266620081e-04
4.24333333333333e+00 4.94918436621186e-02 4.68346609522887e-04
4.27311111111111e+00 4.91128006732845e-02 4.66387600000802e-04
4.30288888888889e+00 4.87366606593082e-02 4.64425506926777e-04
4.33266666666667e+00 4.83634013871912e-02 4.62460593267477e-04
4.36244444444444e+00 4.79930007942128e-02 4.60493115686861e-04
4.39222222222222e+00 4.76254369874559e-02 4.58523325456549e-04
4.42200000000000e+00 4.72606882399998e-02 4.56551468070363e-04
4.45177777777778e+00 4.68987329921652e-02 4.54577782847886e-04
4.48155555555556e+00 4.65395498493917e-02 4.52602503603973e-04
4.51133333333333e+00 4.61831175817592e-02 4.50625859245696e-04
4.54111111111111e+00 4.58294151203615e-02 4.48648073397227e-04
4.57088888888889e+00 4.54784215584473e-02 4.46669364014239e-04
4.60066666666667e+00 4.51301161493819e-02 4.44689944250458e-04
4.63044444444444e+00 4.47844783054243e-02 4.42710022082510e-04
4.66022222222222e+00 4.44414875972405e-02 4.40729801118580e-04
4.69000000000000e+00 4.41011237504860e-02 4.38749480234117e-04
4.71977777777778e+00 4.37633666468314e-02 4.36769253198119e-04
4.74955555555556e+00 4.34281963220272e-02 4.34789309265261e-04
4.77933333333333e+00 4.30955929654157e-02 4.32809833703498e-04
4.80911111111111e+00 4.27655369166726e-02 4.30831007440727e-04
4.83888888888889e+00 4.24380086667455e-02 4.28853006702524e-04
4.86866666666667e+00 4.21129888559941e-02 4.26876003785435e-04
4.89844444444444e+00 4.17904582730492e-02 4.24900166704828e-04
4.92822222222222e+00 4.14703978543212e-02 4.22925659916916e-04
4.95800000000000e+00 4.11527886809238e-02 4.20952643977183e-04
4.98777777777778e+00 4.08376119795172e-02 4.18981275190600e-04
5.01755555555556e+00 4.05248491205410e-02 4.17011706138253e-04
5.04733333333333e+00 4.02144816177238e-02 4.15044086146415e-04
5.07711111111111e+00 3.99064911251468e-02 4.13078560955951e-04
5.10688888888889e+00 3.96008594380147e-02 4.11115272383998e-04
5.13666666666667e+00 3.92975684909558e-02 4.09154359016944e-04
5.16644444444444e+00 3.89966003569569e-02 4.07195955881743e-04
5.19622222222222e+00 3.86979372468734e-02 4.05240195093336e-04
5.22600000000000e+00 3.84015615066531e-02 4.03287205535928e-04
5.25577777777778e+00 3.81074556180282e-02 4.01337112537171e-04
5.28555555555556e+00 3.78156021968982e-02 3.99390038338810e-04
5.31533333333333e+00 3.75259839928431e-02 3.97446102515625e-04
5.34511111111111e+00 3.72385838864707e-02 3.95505421667547e-04
5.37488888888889e+00 3.69533848900483e-02 3.93568109104944e-04
5.40466666666667e+00 3.66703701459457e-02 3.91634275471816e-04
5.43444444444444e+00 3.63895229256414e-02 3.89704028440120e-04
5.46422222222222e+00 3.61108266292390e-02 3.87777473292268e-04
5.49400000000000e+00 3.58342647829566e-02 3.85854712624952e-04
5.52377777777778e+00 3.55598210396918e-02 3.83935846046526e-04
5.55355555555556e+00 3.52874791775398e-02 3.82020970599114e-04
5.58333333333333e+00 3.50172230993152e-02 3.80110181134441e-04
5.61311111111111e+00 3.47490368301496e-02 3.78203570027927e-04
5.64288888888889e+00 3.44829045180075e-02 3.76301226886648e-04
5.67266666666667e+00 3.42188104322579e-02 3.74403239111464e-04
5.70244444444444e+00 3.39567389627472e-02 3.72509691613520e-04
5.73222222222222e+00 3.36966746193254e-02 3.70620667339837e-04
5.76200000000000e+00 3.34386020295708e-02 3.68736246998650e-04
5.79177777777778e+00 3.31825059392495e-02 3.66856508779047e-04
5.82155555555556e+00 3.29283712109552e-02 3.64981528730854e-04
5.85133333333333e+00 3.26761828236424e-02 3.63111381102709e-04
5.88111111111111e+00 3.24259258704470e-02 3.61246138077159e-04
5.91088888888889e+00 3.21775855591044e-02 3.59385869500293e-04
5.94066666666667e+00 3.19311472106390e-02 3.57530643389969e-04
5.97044444444444e+00 3.16865962584973e-02 3.55680525673341e-04
6.00022222222222e+00 3.14439182480886e-02 3.53835580662264e-04
6.03000000000000e+00 3.12030988347175e-02 3.51995870799026e-04
6.05977777777778e+00 3.09641237839560e-02 3.50161456397001e-04
6.08955555555556e+00 3.07269789703932e-02 3.48332395983414e-04
6.11933333333333e+00 3.04916503771826e-02 3.46508746604353e-04
6.14911111111111e+00 3.02581240940606e-02 3.44690563579692e-04
6.17888888888889e+00 3.00263863176843e-02 3.42877900253040e-04
6.20866666666667e+00 2.97964233504256e-02 3.41070808452217e-04
6.23844444444444e+00 2.95682215995627e-02 3.39269338246633e-04
6.26822222222222e+00 2.93417675768354e-02 3.37473538378120e-04
6.29800000000000e+00 2.91170478965643e-02 3.35683456025819e-04
6.32777777777778e+00 2.88940492759494e-02 3.33899136566518e-04
6.35755555555556e+00 2.86727585339194e-02 3.32120623884658e-04
6.38733333333333e+00 2.84531625906944e-02 3.30347960648196e-04
6.41711111111111e+00 2.82352484659824e-02 3.28581188082031e-04
6.44688888888889e+00 2.80190032792485e-02 3.26820345736980e-04
6.47666666666667e+00 2.78044142486051e-02 3.25065471907781e-04
6.50644444444444e+00 2.75914686900580e-02 3.23316603408930e-04
6.53622222222222e+00 2.73801540170766e-02 3.21573775965851e-04
6.56600000000000e+00 2.71704577388813e-02 3.19837023997725e-04
6.59577777777778e+00 2.69623674606797e-02 3.18106380396141e-04
6.62555555555556e+00 2.67558708826075e-02 3.16381876806000e-04
6.65533333333333e+00 2.65509557993069e-02 3.14663543875525e-04
6.68511111111111e+00 2.63476100982830e-02 3.12951411046958e-04
6.71488888888889e+00 2.61458217601155e-02 3.11245506343252e-04
6.74466666666667e+00 2.59455788574368e-02 3.09545856748109e-04
6.77444444444444e+00 2.57468695542278e-02 3.07852487998976e-04
6.80422222222222e+00 2.55496821054055e-02 3.06165424942805e-04
6.83400000000000e+00 2.53540048552603e-02 3.04484691335479e-04
6.86377777777778e+00 2.51598262376410e-02 3.02810309637481e-04
6.89355555555556e+00 2.49671347749778e-02 3.01142301268970e-04
6.92333333333333e+00 2.47759190778784e-02 2.99480686836669e-04
6.95311111111111e+00 2.45861678436272e-02 2.97825485940607e-04
6.98288888888889e+00 2.43978698563500e-02 2.96176716977294e-04
7.01266666666667e+00 2.42110139860709e-02 2.94534397485672e-04
7.04244444444444e+00 2.40255891880554e-02 2.92898543956033e-04
7.07222222222222e+00 2.38415845024157e-02 2.91269172154018e-04
7.10200000000000e+00 2.36589890526830e-02 2.89646296935470e-04
7.13177777777778e+00 2.34777920459490e-02 2.88029932057871e-04
7.16155555555556e+00 2.32979827719650e-02 2.86420090412244e-04
7.19133333333333e+00 2.31195506027549e-02 2.84816784229454e-04
7.22111111111111e+00 2.29424849912446e-02 2.83220024901766e-04
7.25088888888889e+00 2.27667754713850e-02 2.81629822801243e-04
7.28066666666667e+00 2.25924116572835e-02 2.80046187595146e-04
7.31044444444444e+00 2.24193832425897e-02 2.78469128069524e-04
7.34022222222222e+00 2.22476800001190e-02 2.76898652424656e-04
7.37000000000000e+00 2.20772917805465e-02 2.75334768104194e-04
7.39977777777778e+00 2.19082085125126e-02 2.73777481621174e-04
7.42955555555556e+00 2.17404202017912e-02 2.72226798769104e-04
7.45933333333333e+00 2.15739169309202e-02 2.70682724809751e-04
7.48911111111111e+00 2.14086888579475e-02 2.69145264308575e-04
7.51888888888889e+00 2.12447262165210e-02 2.67614420967073e-04
7.54866666666667e+00 2.10820193150860e-02 2.66090197910594e-04
7.57844444444444e+00 2.09205585363126e-02 2.64572597525624e-04
7.60822222222222e+00 2.07603343367361e-02 2.63061621729391e-04
7.63800000000000e+00 2.06013372455624e-02 2.61557271812219e-04
7.66777777777778e+00 2.04435578647418e-02 2.60059548276986e-04
7.69755555555556e+00 2.02869868682019e-02 2.58568451031556e-04
7.72733333333333e+00 2.01316150014951e-02 2.57083979559931e-04
7.75711111111111e+00 1.99774330806501e-02 2.55606132770324e-04
7.78688888888889e+00 1.98244319922342e-02 2.54134908840563e-04
7.81666666666667e+00 1.96726026926114e-02 2.52670305480933e-04
7.84644444444444e+00 1.95219362074084e-02 2.51212319784083e-04
7.87622222222222e+00 1.93724236311724e-02 2.49760948471291e-04
7.90600000000000e+00 1.92240561262759e-02 2.48316187746998e-04
7.93577777777778e+00 1.90768249229664e-02 2.46878033150746e-04
7.96555555555556e+00 1.89307213186562e-02 2.45446479732701e-04
7.99533333333333e+00 1.87857366775880e-02 2.44021522209825e-04
8.02511111111111e+00 1.86418624297817e-02 2.42603154825714e-04
8.05488888888889e+00 1.84990900710737e-02 2.41191371207907e-04
8.08466666666667e+00 1.83574111624308e-02 2.39786164608201e-04
8.11444444444444e+00 1.82168173294523e-02 2.38387527764154e-04
8.14422222222222e+00 1.80773002620443e-02 2.36995453124319e-04
8.17400000000000e+00 1.79388517134156e-02 2.35609932713960e-04
8.20377777777778e+00 1.78014635001065e-02 2.34230957998414e-04
8.23355555555556e+00 1.76651275013316e-02 2.32858520043443e-04
8.26333333333333e+00 1.75298356586628e-02 2.31492609657877e-04
8.29311111111111e+00 1.73955799750628e-02 2.30133217264217e-04
8.32288888888889e+00 1.72623525149048e-02 2.28780332766981e-04
8.35266666666667e+00 1.71301454033387e-02 2.27433945772625e-04
8.38244444444445e+00 1.69989508258255e-02 2.26094045461701e-04
8.41222222222222e+00 1.68687610278288e-02 2.24760620794973e-04
8.44200000000000e+00 1.67395683138935e-02 2.23433660389492e-04
8.47177777777778e+00 1.66113650476565e-02 2.22113152392552e-04
8.50155555555556e+00 1.64841436512390e-02 2.20799084628214e-04
8.53133333333333e+00 1.63578966049462e-02 2.19491444727717e-04
8.56111111111111e+00 1.62326164463790e-02 2.18190220010051e-04
8.59088888888889e+00 1.61082957704389e-02 2.16895397360449e-04
8.62066666666667e+00 1.59849272287406e-02 2.15606963431791e-04
8.65044444444444e+00 1.58625035291781e-02 2.14324904526585e-04
8.68022222222222e+00 1.57410174356322e-02 2.13049206785730e-04
8.71000000000000e+00 1.56204617671237e-02 2.11779856074171e-04
8.73977777777778e+00 1.55008293978106e-02 2.10516837864524e-04
8.76955555555556e+00 1.53821132564257e-02 2.09260137371153e-04
8.79933333333333e+00 1.52643063259911e-02 2.08009739669461e-04
8.82911111111111e+00 1.51474016430030e-02 2.06765629585643e-04
8.85888888888889e+00 1.50313922974230e-02 2.05527791584554e-04
8.88866666666667e+00 1.49162714321347e-02 2.04296209954229e-04
8.91844444444444e+00 1.48020322425381e-02 2.03070868696972e-04
8.94822222222222e+00 1.46886679762733e-02 2.01851751702338e-04
8.97800000000000e+00 1.45761719324421e-02 2.00638842641554e-04
9.00777777777778e+00 1.44645374615934e-02 1.99432124860123e-04
9.03755555555556e+00 1.43537579652020e-02 1.98231581500574e-04
9.06733333333333e+00 1.42438268953991e-02 1.97037195611651e-04
9.09711111111111e+00 1.41347377542227e-02 1.95848950046557e-04
9.12688888888889e+00 1.40264840935978e-02 1.94666827359410e-04
9.15666666666667e+00 1.39190595148332e-02 1.93490809974432e-04
9.18644444444444e+00 1.38124576682435e-02 1.92320880085437e-04
9.21622222222222e+00 1.37066722528874e-02 1.91157019814417e-04
9.24600000000000e+00 1.36016970158518e-02 1.89999211114063e-04
9.27577777777778e+00 1.34975257522277e-02 1.88847435668622e-04
9.30555555555556e+00 1.33941523046276e-02 1.87701675006361e-04
9.33533333333333e+00 1.32915705629304e-02 1.86561910599603e-04
9.36511111111111e+00 1.31897744635918e-02 1.85428123770731e-04
9.39488888888889e+00 1.30887579896162e-02 1.84300295596621e-04
