Energy (eV)          EEDF (eV^-(3/2))     First Anisotropy
2.95833333333333e-01 3.31995976992372e-02 4.95750645644810e-05
8.87500000000000e-01 3.13439520007838e-02 7.98431428807492e-05
1.47916666666667e+00 2.95920250629804e-02 1.00184297419642e-04
2.07083333333333e+00 2.79380196601318e-02 1.12767318175455e-04
2.66250000000000e+00 2.63764626040500e-02 1.21091368167652e-04
3.25416666666667e+00 2.49021866286562e-02 1.26584746589183e-04
3.84583333333333e+00 2.35103132729504e-02 1.30035785117000e-04
4.43750000000000e+00 2.21962367564768e-02 1.31946832933513e-04
5.02916666666667e+00 2.09556087353446e-02 1.32666024890523e-04
5.62083333333333e+00 1.97843239045677e-02 1.32448109380489e-04
6.21250000000000e+00 1.86785064223388e-02 1.31486633318111e-04
6.80416666666667e+00 1.76344970833508e-02 1.29932675284282e-04
7.39583333333333e+00 1.66488412051099e-02 1.27906547681984e-04
7.98750000000000e+00 1.57182772015280e-02 1.25505518252932e-04
8.57916666666667e+00 1.48397257894554e-02 1.22809132501042e-04
9.17083333333333e+00 1.40102797958031e-02 1.19883014409577e-04
9.76250000000000e+00 1.32271945410203e-02 1.16781661607552e-04
1.03541666666667e+01 1.24878787584245e-02 1.13550553025610e-04
1.09458333333333e+01 1.17898860089391e-02 1.10227770338713e-04
1.15375000000000e+01 1.11309065989585e-02 1.06845268267172e-04
1.21291666666667e+01 1.05087599372947e-02 1.03429886770173e-04
1.27208333333333e+01 9.92138730306193e-03 1.00004165453002e-04
1.33125000000000e+01 9.36684505019880e-03 9.65870075444371e-05
1.39041666666667e+01 8.84329817390147e-03 9.31942285654346e-05
1.44958333333333e+01 8.34901422653716e-03 8.98390105550465e-05
1.50875000000000e+01 7.88235759723004e-03 8.65322823031297e-05
1.56791666666667e+01 7.44178409816638e-03 8.32830412138974e-05
1.62708333333333e+01 7.02583584592603e-03 8.00986248539371e-05
1.68625000000000e+01 6.63313644643399e-03 7.69849423034230e-05
1.74541666666667e+01 6.26238643940551e-03 7.39466732876914e-05
1.80458333333333e+01 5.91235899169089e-03 7.09874382389779e-05
1.86375000000000e+01 5.58189584451916e-03 6.81099449038622e-05
1.92291666666667e+01 5.26990348002492e-03 6.53161160153394e-05
1.98208333333333e+01 4.97534949766311e-03 6.26071991409072e-05
2.04125000000000e+01 4.69725920319354e-03 5.99838621099582e-05
2.10041666666667e+01 4.43471238281694e-03 5.74462767939800e-05
2.15958333333333e+01 4.18684025424016e-03 5.49941914669514e-05
2.21875000000000e+01 3.95282259586516e-03 5.26269939515503e-05
2.27791666666667e+01 3.73188503221647e-03 5.03437673612958e-05
2.33708333333333e+01 3.52329646847476e-03 4.81433382836245e-05
2.39625000000000e+01 3.32636667436968e-03 4.60243189076407e-05
2.45541666666667e+01 3.14044399985333e-03 4.39851443345926e-05
2.51458333333333e+01 2.96491321640591e-03 4.20241047628199e-05
2.57375000000000e+01 2.79919348364629e-03 4.01393736122964e-05
2.63291666666667e+01 2.64273642705540e-03 3.83290324662874e-05
2.69208333333333e+01 2.49502432153537e-03 3.65910924759664e-05
2.75125000000000e+01 2.35556838013707e-03 3.49235130044987e-05
2.81041666666667e+01 2.22390713644805e-03 3.33242181497029e-05
2.86958333333333e+01 2.09960491612720e-03 3.17911107953372e-05
2.92875000000000e+01 1.98225039673684e-03 3.03220847696126e-05
2.98791666666667e+01 1.87145524650652e-03 2.89150355862219e-05
3.04708333333333e+01 1.76685283817782e-03 2.75678694443397e-05
3.10625000000000e+01 1.66809703700234e-03 2.62785109260092e-05
3.16541666666667e+01 1.57486105524707e-03 2.50449097501108e-05
3.22458333333333e+01 1.48683636992829e-03 2.38650462941760e-05
3.28375000000000e+01 1.40373170283452e-03 2.27369362205699e-05
3.34291666666667e+01 1.32527205657976e-03 2.16586344819342e-05
3.40208333333333e+01 1.25119780389980e-03 2.06282384535207e-05
3.46125000000000e+01 1.18126382928154e-03 1.96438904533552e-05
3.52041666666667e+01 1.11523871779030e-03 1.87037798627077e-05
3.57958333333333e+01 1.05290398872850e-03 1.78061446291393e-05
3.63875000000000e+01 9.94053373270100e-04 1.69492723560975e-05
3.69791666666667e+01 9.38492131848536e-04 1.61315011445864e-05
3.75708333333333e+01 8.86036409291373e-04 1.53512200006785e-05
3.81625000000000e+01 8.36512626913009e-04 1.46068689693381e-05
3.87541666666667e+01 7.89756908087720e-04 1.38969391243255e-05
3.93458333333333e+01 7.45614535602772e-04 1.32199722558204e-05
3.99375000000000e+01 7.03939440075462e-04 1.25745603826656e-05
4.05291666666667e+01 6.64593716565164e-04 1.19593451914976e-05
4.11208333333333e+01 6.27447167940714e-04 1.13730172686453e-05
4.17125000000000e+01 5.92376874360404e-04 1.08143152255814e-05
4.23041666666667e+01 5.59266786494387e-04 1.02820247988626e-05
4.28958333333333e+01 5.28007341271334e-04 9.77497781129382e-06
4.34875000000000e+01 4.98495099577564e-04 9.29205107464646e-06
4.40791666666667e+01 4.70632403948000e-04 8.83216529820678e-06
4.46708333333333e+01 4.44327055218778e-04 8.39428390770006e-06
4.52625000000000e+01 4.19492007636431e-04 7.97741183880634e-06
4.58541666666667e+01 3.96045080799952e-04 7.58059435645941e-06
4.64458333333333e+01 3.73908687564932e-04 7.20291581960767e-06
4.70375000000000e+01 3.53009577466184e-04 6.84349844289588e-06
4.76291666666667e+01 3.33278594312828e-04 6.50150109613929e-06
4.82208333333333e+01 3.14650447220023e-04 6.17611807407423e-06
4.88125000000000e+01 2.97063494689641e-04 5.86657787770936e-06
4.94041666666667e+01 2.80459540622979e-04 5.57214203997537e-06
4.99958333333333e+01 2.64783641643996e-04 5.29210393896591e-06
5.05875000000000e+01 2.49983925395549e-04 5.02578763201434e-06
5.11791666666667e+01 2.36011418881069e-04 4.77254673680979e-06
5.17708333333333e+01 2.22819886326861e-04 4.53176331195132e-06
5.23625000000000e+01 2.10365676272190e-04 4.30284676372472e-06
5.29541666666667e+01 1.98607577116225e-04 4.08523280013187e-06
5.35458333333333e+01 1.87506680678832e-04 3.87838239223118e-06
5.41375000000000e+01 1.77026253521832e-04 3.68178076439773e-06
5.47291666666667e+01 1.67131615389581e-04 3.49493643040049e-06
5.53208333333333e+01 1.57790024394952e-04 3.31738024179241e-06
5.59125000000000e+01 1.48970568732074e-04 3.14866446606541e-06
5.65041666666667e+01 1.40644064382227e-04 2.98836190816147e-06
5.70958333333333e+01 1.32782958497392e-04 2.83606504724060e-06
5.76875000000000e+01 1.25361238273172e-04 2.69138520281393e-06
5.82791666666667e+01 1.18354344866736e-04 2.55395174118351e-06
5.88708333333333e+01 1.11739092093614e-04 2.42341129862512e-06
5.94625000000000e+01 1.05493589741524e-04 2.29942703272894e-06
6.00541666666667e+01 9.95971711309922e-05 2.18167791071255e-06
6.06458333333333e+01 9.40303246982631e-05 2.06985801494738e-06
6.12375000000000e+01 8.87746294616374e-05 1.96367587494089e-06
6.18291666666667e+01 8.38126940626122e-05 1.86285383287915e-06
6.24208333333333e+01 7.91280991924805e-05 1.76712742616204e-06
6.30125000000000e+01 7.47053432854119e-05 1.67624479441873e-06
6.36041666666667e+01 7.05297912206208e-05 1.58996611673239e-06
6.41958333333333e+01 6.65876258739640e-05 1.50806306518229e-06
6.47875000000000e+01 6.28658024171521e-05 1.43031828077213e-06
6.53791666666667e+01 5.93520051498213e-05 1.35652487636623e-06
6.59708333333333e+01 5.60346067298495e-05 1.28648595498469e-06
6.65625000000000e+01 5.29026297148965e-05 1.22001414837878e-06
6.71541666666667e+01 4.99457102359124e-05 1.15693117961560e-06
6.77458333333333e+01 4.71540636891322e-05 1.09706743990363e-06
6.83375000000000e+01 4.45184523722526e-05 1.04026158365108e-06
6.89291666666667e+01 4.20301549151171e-05 9.86360144766486e-07
6.95208333333333e+01 3.96809374092449e-05 9.35217166009433e-07
7.01125000000000e+01 3.74630261728264e-05 8.86693844630496e-07
7.07041666666667e+01 3.53690820261597e-05 8.40658196729246e-07
7.12958333333333e+01 3.33921759968984e-05 7.96984733459615e-07
7.18875000000000e+01 3.15257664010941e-05 7.55554151711354e-07
7.24791666666667e+01 2.97636771955677e-05 7.16253041227880e-07
7.30708333333333e+01 2.81000775336544e-05 6.78973602397621e-07
7.36625000000000e+01 2.65294624783208e-05 6.43613376852581e-07
7.42541666666667e+01 2.50466347853408e-05 6.10074992456095e-07
7.48458333333333e+01 2.36466876992608e-05 5.78265917845627e-07
7.54375000000000e+01 2.23249887230086e-05 5.48098228262775e-07
7.60291666666667e+01 2.10771642881437e-05 5.19488383946866e-07
7.66208333333333e+01 1.98990852774941e-05 4.92357017036789e-07
7.72125000000000e+01 1.87868533668838e-05 4.66628728387195e-07
7.78041666666667e+01 1.77367881249029e-05 4.42231895328715e-07
7.83958333333333e+01 1.67454148300597e-05 4.19098486969828e-07
7.89875000000000e+01 1.58094529770148e-05 3.97163888181849e-07
7.95791666666667e+01 1.49258054208301e-05 3.76366733097399e-07
8.01708333333333e+01 1.40915481249750e-05 3.56648745267535e-07
8.07625000000000e+01 1.33039204890489e-05 3.37954585404122e-07
8.13541666666667e+01 1.25603162134917e-05 3.20231707376854e-07
8.19458333333333e+01 1.18582746724216e-05 3.03430220069256e-07
8.25375000000000e+01 1.11954727741854e-05 2.87502755845790e-07
8.31291666666667e+01 1.05697172738657e-05 2.72404346169447e-07
8.37208333333333e+01 9.97893751342867e-06 2.58092302359282e-07
8.43125000000000e+01 9.42117857218848e-06 2.44526102098291e-07
8.49041666666667e+01 8.89459479765755e-06 2.31667282126031e-07
8.54958333333333e+01 8.39744369629958e-06 2.19479335428475e-07
8.60875000000000e+01 7.92808016948808e-06 2.07927613420414e-07
8.66791666666667e+01 7.48495106961204e-06 1.96979233470014e-07
8.72708333333333e+01 7.06659005907471e-06 1.86602990349048e-07
8.78625000000000e+01 6.67161275972176e-06 1.76769272010602e-07
8.84541666666667e+01 6.29871217171598e-06 1.67449979975442e-07
8.90458333333333e+01 5.94665434732469e-06 1.58618453137954e-07
8.96375000000000e+01 5.61427430905458e-06 1.50249395317488e-07
9.02291666666667e+01 5.30047219456038e-06 1.42318806781100e-07
9.08208333333333e+01 5.00420961608553e-06 1.34803918739390e-07
9.14125000000000e+01 4.72450622548194e-06 1.27683131079573e-07
9.20041666666667e+01 4.46043647008783e-06 1.20935953517277e-07
9.25958333333333e+01 4.21112652915321e-06 1.14542949328828e-07
9.31875000000000e+01 3.97575142322825e-06 1.08485681878114e-07
9.37791666666667e+01 3.75353228418171e-06 1.02746664083587e-07
9.43708333333333e+01 3.54373377716539e-06 9.73093101215562e-08
9.49625000000000e+01 3.34566166810141e-06 9.21578895391789e-08
9.55541666666667e+01 3.15866052635810e-06 8.72774838937977e-08
9.61458333333333e+01 2.98211155530116e-06 8.26539453275391e-08
9.67375000000000e+01 2.81543054528147e-06 7.82738572175860e-08
9.73291666666667e+01 2.65806594039940e-06 7.41244969954708e-08
9.79208333333333e+01 2.50949701288629e-06 7.01938006389748e-08
9.85125000000000e+01 2.36923214049975e-06 6.64703289502531e-08
9.91041666666667e+01 2.23680717967424e-06 6.29432356948009e-08
9.96958333333333e+01 2.11178392923980e-06 5.96022371843084e-08
1.00287500000000e+02 1.99374868081353e-06 5.64375833582149e-08
1.00879166666667e+02 1.88231085010004e-06 5.34400306480658e-08
1.01470833333333e+02 1.77710168278961e-06 5.06008157825220e-08
1.02062500000000e+02 1.67777303637675e-06 4.79116308862967e-08
1.02654166666667e+02 1.58399622818975e-06 4.53646006358614e-08
1.03245833333333e+02 1.49546094498621e-06 4.29522596875444e-08
1.03837500000000e+02 1.41187421899344e-06 4.06675312276989e-08
1.04429166666667e+02 1.33295945820332e-06 3.85037075746467e-08
1.05020833333333e+02 1.25845552881850e-06 3.64544308413680e-08
1.05612500000000e+02 1.18811589353179e-06 3.45136746003961e-08
1.06204166666667e+02 1.12170779550683e-06 3.26757272856240e-08
1.06795833333333e+02 1.05901148627362e-06 3.09351756683856e-08
1.07387500000000e+02 9.99819500542473e-07 2.92868891919687e-08
1.07979166666667e+02 9.43935969513156e-07 2.77260057763549e-08
1.08570833333333e+02 8.91175971162421e-07 2.62479177045857e-08
1.09162500000000e+02 8.41364919960342e-07 2.48482582439847e-08
1.09754166666667e+02 7.94337989010964e-07 2.35228895117588e-08
1.10345833333333e+02 7.49939563329866e-07 2.22678904250840e-08
1.10937500000000e+02 7.08022726257867e-07 2.10795452799242e-08
1.11529166666667e+02 6.68448773184753e-07 1.99543333829778e-08
1.12120833333333e+02 6.31086751490667e-07 1.88889187677789e-08
1.12712500000000e+02 5.95813028336437e-07 1.78801404484542e-08
1.13304166666667e+02 5.62510881455609e-07 1.69250035646810e-08
1.13895833333333e+02 5.31070112021665e-07 1.60206706082589e-08
1.14487500000000e+02 5.01386680921510e-07 1.51644531092316e-08
1.15079166666667e+02 4.73362364401456e-07 1.43538040761216e-08
1.15670833333333e+02 4.46904428300131e-07 1.35863105137729e-08
1.16262500000000e+02 4.21925321954412e-07 1.28596863338091e-08
1.16854166666667e+02 3.98342388420862e-07 1.21717659031523e-08
1.17445833333333e+02 3.76077590346739e-07 1.15204976652408e-08
1.18037500000000e+02 3.55057252376835e-07 1.09039380965311e-08
1.18629166666667e+02 3.35211817300867e-07 1.03202462028297e-08
1.19220833333333e+02 3.16475615377062e-07 9.76767808291897e-09
1.19812500000000e+02 2.98786647555150e-07 9.24458177839274e-09
1.20404166666667e+02 2.82086380271027e-07 8.74939258018038e-09
1.20995833333333e+02 2.66319551335013e-07 8.28062839676594e-09
1.21587500000000e+02 2.51433987503782e-07 7.83688536663018e-09
1.22179166666667e+02 2.37380431797233e-07 7.41683385701959e-09
1.22770833333333e+02 2.24112380155363e-07 7.01921451882858e-09
1.23362500000000e+02 2.11585927916616e-07 6.64283454980153e-09
1.23954166666667e+02 1.99759624502620e-07 6.28656428451900e-09
1.24545833333333e+02 1.88594335966431e-07 5.94933383508129e-09
1.25137500000000e+02 1.78053115797089e-07 5.63012990942477e-09
1.25729166666667e+02 1.68101082634795e-07 5.32799290603935e-09
1.26320833333333e+02 1.58705304606394e-07 5.04201405423060e-09
1.26912500000000e+02 1.49834690601661e-07 4.77133270579842e-09
1.27504166666667e+02 1.41459887368886e-07 4.51513386048683e-09
1.28095833333333e+02 1.33553182184077e-07 4.27264573215067e-09
1.28687500000000e+02 1.26088411355181e-07 4.04313744395067e-09
1.29279166666667e+02 1.19040873626574e-07 3.82591692125309e-09
1.29870833333333e+02 1.12387248275855e-07 3.62032882077541e-09
1.30462500000000e+02 1.06105518116224e-07 3.42575256965011e-09
1.31054166666667e+02 1.00174896625115e-07 3.24160057168093e-09
1.31645833333333e+02 9.45757590231731e-08 3.06731644574528e-09
1.32237500000000e+02 8.92895774774904e-08 2.90237335780800e-09
1.32829166666667e+02 8.42988597793078e-08 2.74627249431655e-09
1.33420833333333e+02 7.95870913473673e-08 2.59854156401263e-09
1.34012500000000e+02 7.51386806987342e-08 2.45873337944552e-09
1.34604166666667e+02 7.09389078452027e-08 2.32642455803420e-09
1.35195833333333e+02 6.69738754894102e-08 2.20121424817528e-09
1.35787500000000e+02 6.32304631363002e-08 2.08272292319215e-09
1.36379166666667e+02 5.96962836679507e-08 1.97059127636636e-09
1.36970833333333e+02 5.63596422753246e-08 1.86447913798608e-09
1.37562500000000e+02 5.32094978412143e-08 1.76406445012591e-09
1.38154166666667e+02 5.02354263973288e-08 1.66904232689043e-09
1.38745833333333e+02 4.74275865655247e-08 1.57912413396665e-09
1.39337500000000e+02 4.47766870600187e-08 1.49403661729290e-09
1.39929166666667e+02 4.22739559359939e-08 1.41352110398236e-09
1.40520833333333e+02 3.99111115085138e-08 1.33733272014458e-09
1.41112500000000e+02 3.76803350043621e-08 1.26523965048412e-09
1.41704166666667e+02 3.55742446842940e-08 1.19702245898374e-09
1.42295833333333e+02 3.35858713713879e-08 1.13247342434660e-09
1.42887500000000e+02 3.17086354365126e-08 1.07139591096540e-09
1.43479166666667e+02 2.99363250218213e-08 1.01360379153014e-09
1.44070833333333e+02 2.82630754479195e-08 9.58920882503989e-10
1.44662500000000e+02 2.66833498462596e-08 9.07180409804553e-10
1.45254166666667e+02 2.51919208338896e-08 8.58224518136472e-10
1.45845833333333e+02 2.37838531846259e-08 8.11903791525309e-10
1.46437500000000e+02 2.24544875304853e-08 7.68076799527175e-10
1.47029166666667e+02 2.11994249407162e-08 7.26609680336168e-10
1.47620833333333e+02 2.00145123396150e-08 6.87375733627673e-10
1.48212500000000e+02 1.88958287906792e-08 6.50255035222723e-10
1.48804166666667e+02 1.78396725196315e-08 6.15134082940165e-10
1.49395833333333e+02 1.68425486435290e-08 5.81905450899335e-10
1.49987500000000e+02 1.59011576283763e-08 5.50467462364312e-10
1.50579166666667e+02 1.50123843688069e-08 5.20723888948483e-10
1.51170833333333e+02 1.41732878621367e-08 4.92583657144639e-10
1.51762500000000e+02 1.33810914950284e-08 4.65960570607167e-10
1.52354166666667e+02 1.26331738538809e-08 4.40773054713399e-10
1.52945833333333e+02 1.19270600355473e-08 4.16943907467725e-10
1.53537500000000e+02 1.12604134732172e-08 3.94400063785722e-10
1.54129166666667e+02 1.06310282032213e-08 3.73072378607288e-10
1.54720833333333e+02 1.00368215529991e-08 3.52895415495665e-10
1.55312500000000e+02 9.47582726229184e-09 3.33807246599633e-10
1.55904166666667e+02 8.94618897554153e-09 3.15749268528261e-10
1.56495833333333e+02 8.44615408881251e-09 2.98666022965563e-10
1.57087500000000e+02 7.97406796103539e-09 2.82505026933919e-10
1.57679166666667e+02 7.52836843776334e-09 2.67216616504803e-10
1.58270833333333e+02 7.10758067335068e-09 2.52753794600983e-10
1.58862500000000e+02 6.71031225951578e-09 2.39072086990448e-10
1.59454166666667e+02 6.33524861699918e-09 2.26129409643877e-10
1.60045833333333e+02 5.98114863842036e-09 2.13885939620706e-10
1.60637500000000e+02 5.64684058879791e-09 2.02303992908861e-10
1.61229166666667e+02 5.33121822755997e-09 1.91347911866803e-10
1.61820833333333e+02 5.03323714200122e-09 1.80983955706169e-10
1.62412500000000e+02 4.75191129743288e-09 1.71180196876279e-10
1.63004166666667e+02 4.48630977379557e-09 1.61906425562403e-10
1.63595833333333e+02 4.23555368025628e-09 1.53134056802053e-10
1.64187500000000e+02 3.99881325204490e-09 1.44836042609717e-10
1.64779166666667e+02 3.77530510426433e-09 1.36986790957304e-10
1.65370833333333e+02 3.56428963551676e-09 1.29562087007120e-10
1.65962500000000e+02 3.36506858479627e-09 1.22539018594520e-10
1.66554166666667e+02 3.17698272052805e-09 1.15895907503069e-10
1.67145833333333e+02 2.99940965571325e-09 1.09612242676432e-10
1.67737500000000e+02 2.83176179197467e-09 1.03668617035622e-10
1.68329166666667e+02 2.67348437484784e-09 9.80466691903062e-11
1.68920833333333e+02 2.52405365521922e-09 9.27290268141721e-11
1.69512500000000e+02 2.38297515917436e-09 8.76992530786717e-11
1.70104166666667e+02 2.24978205149562e-09 8.29417972215532e-11
1.70695833333333e+02 2.12403358850649e-09 7.84419465443109e-11
1.71287500000000e+02 2.00531366209381e-09 7.41857810036761e-11
1.71879166666667e+02 1.89322942256582e-09 7.01601312963093e-11
1.72470833333333e+02 1.78740997671542e-09 6.63525381697744e-11
1.73062500000000e+02 1.68750516256886e-09 6.27512139334437e-11
1.73654166666667e+02 1.59318439049960e-09 5.93450069204798e-11
1.74245833333333e+02 1.50413554764373e-09 5.61233670016093e-11
1.74837500000000e+02 1.42006396681264e-09 5.30763129643777e-11
1.75429166666667e+02 1.34069145127253e-09 5.01944023854080e-11
1.76020833333333e+02 1.26575535280552e-09 4.74687024043134e-11
1.76612500000000e+02 1.19500770401784e-09 4.48907620793057e-11
1.77204166666667e+02 1.12821439767661e-09 4.24525868487737e-11
1.77795833333333e+02 1.06515441089446e-09 4.01466137654199e-11
1.78387500000000e+02 1.00561907494015e-09 3.79656880713273e-11
1.78979166666667e+02 9.49411384637872e-10 3.59030415519976e-11
1.79570833333333e+02 8.96345345515006e-10 3.39522715520124e-11
1.80162500000000e+02 8.46245359325645e-10 3.21073211273936e-11
1.80754166666667e+02 7.98945642899331e-10 3.03624607006573e-11
1.81345833333333e+02 7.54289678762868e-10 2.87122702822347e-11
1.81937500000000e+02 7.12129698039793e-10 2.71516226553595e-11
1.82529166666667e+02 6.72326191402586e-10 2.56756678302444e-11
1.83120833333333e+02 6.34747446768188e-10 2.42798179828682e-11
1.83712500000000e+02 5.99269114142457e-10 2.29597332103183e-11
1.84304166666667e+02 5.65773794078841e-10 2.17113083582359e-11
1.84895833333333e+02 5.34150648646757e-10 2.05306602627485e-11
1.85487500000000e+02 5.04295035235304e-10 1.94141156843769e-11
1.86079166666667e+02 4.76108160234825e-10 1.83582001474690e-11
1.86670833333333e+02 4.49496751664690e-10 1.73596271340005e-11
