Energy (eV)          EEDF (eV^-(3/2))     First Anisotropy
1.74444444444444e-03 3.68244409545350e+00 2.00448086726283e-03
5.23333333333333e-03 3.65421254148364e+00 3.30840186712125e-03
8.72222222222222e-03 3.62619742546289e+00 4.36331934600342e-03
1.22111111111111e-02 3.59839708796399e+00 5.16222944581874e-03
1.57000000000000e-02 3.57080988248973e+00 5.82644895631822e-03
1.91888888888889e-02 3.54343417520699e+00 6.40189939663316e-03
2.26777777777778e-02 3.51626834447916e+00 6.91237135145872e-03
2.61666666666667e-02 3.48931078128769e+00 7.37224665385458e-03
2.96555555555556e-02 3.46255988894771e+00 7.79107369081220e-03
3.31444444444444e-02 3.43601408301426e+00 8.17560814911686e-03
3.66333333333333e-02 3.40967179118765e+00 8.53085615477667e-03
4.01222222222222e-02 3.38353145322344e+00 8.86066063153976e-03
4.36111111111111e-02 3.35759152083837e+00 9.16805496864265e-03
4.71000000000000e-02 3.33185045761881e+00 9.45548830098734e-03
5.05888888888889e-02 3.30630673897944e+00 9.72497542800979e-03
5.40777777777778e-02 3.28095885192069e+00 9.97820018313770e-03
5.75666666666667e-02 3.25580529509547e+00 1.02165888788099e-02
6.10555555555556e-02 3.23084457866662e+00 1.04413638516259e-02
6.45444444444444e-02 3.20607522421879e+00 1.06535833308259e-02
6.80333333333333e-02 3.18149576467052e+00 1.08541717066093e-02
7.15222222222222e-02 3.15710474418807e+00 1.10439428936380e-02
7.50111111111111e-02 3.13290071809882e+00 1.12236186330697e-02
7.85000000000000e-02 3.10888225280571e+00 1.13938430164340e-02
8.19888888888889e-02 3.08504792573039e+00 1.15551941631245e-02
8.54777777777778e-02 3.06139632514342e+00 1.17081936861135e-02
8.89666666666667e-02 3.03792605016771e+00 1.18533144501185e-02
9.24555555555555e-02 3.01463571066599e+00 1.19909870027143e-02
9.59444444444444e-02 2.99152392715849e+00 1.21216049247389e-02
9.94333333333333e-02 2.96858933074110e+00 1.22455293326349e-02
1.02922222222222e-01 2.94583056296119e+00 1.23630926678097e-02
1.06411111111111e-01 2.92324627584850e+00 1.24746019396344e-02
1.09900000000000e-01 2.90083513174417e+00 1.25803414835208e-02
1.13388888888889e-01 2.87859580343209e+00 1.26805754108969e-02
1.16877777777778e-01 2.85652697348949e+00 1.27755496261719e-02
1.20366666666667e-01 2.83462733478776e+00 1.28654935714620e-02
1.23855555555556e-01 2.81289559021928e+00 1.29506218717586e-02
1.27344444444444e-01 2.79133045262063e+00 1.30311356846388e-02
1.30833333333333e-01 2.76993064469564e+00 1.31072239113850e-02
1.34322222222222e-01 2.74869489894125e+00 1.31790642677464e-02
1.37811111111111e-01 2.72762195757166e+00 1.32468242340098e-02
1.41300000000000e-01 2.70671057244382e+00 1.33106618798666e-02
1.44788888888889e-01 2.68595950512013e+00 1.33707266812330e-02
1.48277777777778e-01 2.66536752638046e+00 1.34271601546810e-02
1.51766666666667e-01 2.64493341656898e+00 1.34800964228966e-02
1.55255555555556e-01 2.62465596538032e+00 1.35296628249480e-02
1.58744444444444e-01 2.60453397178790e+00 1.35759803889426e-02
1.62233333333333e-01 2.58456624397233e+00 1.36191642789635e-02
1.65722222222222e-01 2.56475159925178e+00 1.36593242007493e-02
1.69211111111111e-01 2.54508886401141e+00 1.36965647707760e-02
1.72700000000000e-01 2.52557687363389e+00 1.37309858351550e-02
1.76188888888889e-01 2.50621447253488e+00 1.37626828289951e-02
1.79677777777778e-01 2.48700051377789e+00 1.37917470223308e-02
1.83166666666667e-01 2.46793385932644e+00 1.38182657424755e-02
1.86655555555556e-01 2.44901337986884e+00 1.38423226641743e-02
1.90144444444444e-01 2.43023795475124e+00 1.38639980095149e-02
1.93633333333333e-01 2.41160647191099e+00 1.38833687486048e-02
1.97122222222222e-01 2.39311782781140e+00 1.39005087849455e-02
2.00611111111111e-01 2.37477092737602e+00 1.39154891269521e-02
2.04100000000000e-01 2.35656468392381e+00 1.39283780318141e-02
2.07588888888889e-01 2.33849801918735e+00 1.39392411975829e-02
2.11077777777778e-01 2.32056986299884e+00 1.39481418698186e-02
2.14566666666667e-01 2.30277915347930e+00 1.39551409384264e-02
2.18055555555556e-01 2.28512483689070e+00 1.39602971019783e-02
2.21544444444444e-01 2.26760586757347e+00 1.39636669628031e-02
2.25033333333333e-01 2.25022120788439e+00 1.39653051300406e-02
2.28522222222222e-01 2.23296982813558e+00 1.39652643160399e-02
2.32011111111111e-01 2.21585070653325e+00 1.39635954266451e-02
2.35500000000000e-01 2.19886282911721e+00 1.39603476327837e-02
2.38988888888889e-01 2.18200518976763e+00 1.39555684886851e-02
2.42477777777778e-01 2.16527678994313e+00 1.39493039801685e-02
2.45966666666667e-01 2.14867663882584e+00 1.39415985682030e-02
2.49455555555556e-01 2.13220375319401e+00 1.39324952945520e-02
2.52944444444444e-01 2.11585715736377e+00 1.39220358303924e-02
2.56433333333333e-01 2.09963588313120e+00 1.39102605346659e-02
2.59922222222222e-01 2.08353896971528e+00 1.38972085091867e-02
2.63411111111111e-01 2.06756546370084e+00 1.38829176507273e-02
2.66900000000000e-01 2.05171441898206e+00 1.38674246888599e-02
2.70388888888889e-01 2.03598489676153e+00 1.38507652666101e-02
2.73877777777778e-01 2.02037596532800e+00 1.38329739615905e-02
2.77366666666667e-01 2.00488670016931e+00 1.38140843045693e-02
2.80855555555556e-01 1.98951618386107e+00 1.37941288539371e-02
2.84344444444444e-01 1.97426350601235e+00 1.37731392215320e-02
2.87833333333333e-01 1.95912776321164e+00 1.37511461082211e-02
2.91322222222222e-01 1.94410805897354e+00 1.37281793377571e-02
2.94811111111111e-01 1.92920350368561e+00 1.37042678890132e-02
2.98300000000000e-01 1.91441321455560e+00 1.36794399166104e-02
3.01788888888889e-01 1.89973631560522e+00 1.36537228102093e-02
3.05277777777778e-01 1.88517193747909e+00 1.36271432020981e-02
3.08766666666667e-01 1.87071921753356e+00 1.35997269732452e-02
3.12255555555556e-01 1.85637729973847e+00 1.35714993093835e-02
3.15744444444444e-01 1.84214533462641e+00 1.35424847148003e-02
3.19233333333333e-01 1.82802247924236e+00 1.35127070353361e-02
3.22722222222222e-01 1.81400789709392e+00 1.34821894803936e-02
3.26211111111111e-01 1.80010075810165e+00 1.34509546440150e-02
3.29700000000000e-01 1.78630023854995e+00 1.34190245161401e-02
3.33188888888889e-01 1.77260552107710e+00 1.33864205286157e-02
3.36677777777778e-01 1.75901579450936e+00 1.33531635557304e-02
3.40166666666667e-01 1.74553025393137e+00 1.33192739137517e-02
3.43655555555556e-01 1.73214810059866e+00 1.32847714052247e-02
3.47144444444444e-01 1.71886854189036e+00 1.32496753260646e-02
3.50633333333333e-01 1.70569079126218e+00 1.32140044811246e-02
3.54122222222222e-01 1.69261406819995e+00 1.31777771991674e-02
3.57611111111111e-01 1.67963759817333e+00 1.31410113472748e-02
3.61100000000000e-01 1.66676061258994e+00 1.31037243367529e-02
3.64588888888889e-01 1.65398234878291e+00 1.30659331602542e-02
3.68077777777778e-01 1.64130204986568e+00 1.30276543885801e-02
3.71566666666667e-01 1.62871896478797e+00 1.29889041667888e-02
3.75055555555556e-01 1.61623234825746e+00 1.29496982504076e-02
3.78544444444444e-01 1.60384146069564e+00 1.29100520086497e-02
3.82033333333333e-01 1.59154556819393e+00 1.28699804353596e-02
3.85522222222222e-01 1.57934394247034e+00 1.28294981595812e-02
3.89011111111111e-01 1.56723586082624e+00 1.27886194557694e-02
3.92500000000000e-01 1.55522060610363e+00 1.27473582465343e-02
3.95988888888889e-01 1.54329746667101e+00 1.27057281334563e-02
3.99477777777778e-01 1.53146573629535e+00 1.26637423919421e-02
4.02966666666667e-01 1.51972471418682e+00 1.26214139655677e-02
4.06455555555556e-01 1.50807370492823e+00 1.25787554964275e-02
4.09944444444444e-01 1.49651201843380e+00 1.25357793260582e-02
4.13433333333333e-01 1.48503896990829e+00 1.24924975033756e-02
4.16922222222222e-01 1.47365387980649e+00 1.24489217923658e-02
4.20411111111111e-01 1.46235607379292e+00 1.24050636795426e-02
4.23900000000000e-01 1.45114488270193e+00 1.23609343747824e-02
4.27388888888889e-01 1.44001964252262e+00 1.23165448374418e-02
4.30877777777778e-01 1.42897969428522e+00 1.22719057702643e-02
4.34366666666667e-01 1.41802438409692e+00 1.22270276128926e-02
4.37855555555555e-01 1.40715306307800e+00 1.21819205677770e-02
4.41344444444444e-01 1.39636508732335e+00 1.21365945997232e-02
4.44833333333333e-01 1.38565981786440e+00 1.20910594418017e-02
4.48322222222222e-01 1.37503662063123e+00 1.20453246010887e-02
4.51811111111111e-01 1.36449486641506e+00 1.19993993642456e-02
4.55300000000000e-01 1.35403393083095e+00 1.19532927971954e-02
4.58788888888889e-01 1.34365319430216e+00 1.19070137676019e-02
4.62277777777778e-01 1.33335204195895e+00 1.18605709384007e-02
4.65766666666667e-01 1.32312986366716e+00 1.18139727610142e-02
4.69255555555556e-01 1.31298605397023e+00 1.17672274977730e-02
4.72744444444444e-01 1.30292001205334e+00 1.17203432206480e-02
4.76233333333333e-01 1.29293114170783e+00 1.16733278157423e-02
4.79722222222222e-01 1.28301885129588e+00 1.16261889876708e-02
4.83211111111111e-01 1.27318255371550e+00 1.15789342638244e-02
4.86700000000000e-01 1.26342166636572e+00 1.15315709933392e-02
4.90188888888889e-01 1.25373561113073e+00 1.14841063666773e-02
4.93677777777778e-01 1.24412381428934e+00 1.14365474091114e-02
4.97166666666667e-01 1.23458570653770e+00 1.13889009739503e-02
5.00655555555556e-01 1.22512072293652e+00 1.13411737621485e-02
5.04144444444444e-01 1.21572830287765e+00 1.12933723205624e-02
5.07633333333333e-01 1.20640789005084e+00 1.12455030454316e-02
5.11122222222222e-01 1.19715893241082e+00 1.11975721857769e-02
5.14611111111111e-01 1.18798088214457e+00 1.11495858467203e-02
5.18100000000000e-01 1.17887319563893e+00 1.11015499880324e-02
5.21588888888889e-01 1.16983533346467e+00 1.10534704413435e-02
5.25077777777778e-01 1.16086676029522e+00 1.10053529037779e-02
5.28566666666667e-01 1.15196694492467e+00 1.09572029313602e-02
5.32055555555556e-01 1.14313536021961e+00 1.09090259563111e-02
5.35544444444444e-01 1.13437148308790e+00 1.08608272850434e-02
5.39033333333333e-01 1.12567479444769e+00 1.08126121008997e-02
5.42522222222222e-01 1.11704477919671e+00 1.07643854668337e-02
5.46011111111111e-01 1.10848092618172e+00 1.07161523280296e-02
5.49500000000000e-01 1.09998272816826e+00 1.06679175102141e-02
5.52988888888889e-01 1.09154968182495e+00 1.06196857348952e-02
5.56477777777778e-01 1.08318128765030e+00 1.05714616132466e-02
5.59966666666667e-01 1.07487704998681e+00 1.05232496398048e-02
5.63455555555555e-01 1.06663647697696e+00 1.04750542078156e-02
5.66944444444444e-01 1.05845908053404e+00 1.04268796071091e-02
5.70433333333333e-01 1.05034437631330e+00 1.03787300262843e-02
5.73922222222222e-01 1.04229188368321e+00 1.03306095548475e-02
5.77411111111111e-01 1.03430112569702e+00 1.02825221853085e-02
5.80900000000000e-01 1.02637162906451e+00 1.02344718113783e-02
5.84388888888889e-01 1.01850292413664e+00 1.01864622415333e-02
5.87877777777778e-01 1.01069454483940e+00 1.01384971932134e-02
5.91366666666667e-01 1.00294602868482e+00 1.00905802868556e-02
5.94855555555555e-01 9.95256916730566e-01 1.00427150595832e-02
5.98344444444444e-01 9.87626753552832e-01 9.99490496305122e-03
6.01833333333333e-01 9.80055087219305e-01 9.94715336520543e-03
6.05322222222222e-01 9.72541469262432e-01 9.89946355200880e-03
6.08811111111111e-01 9.65085454652852e-01 9.85183872913693e-03
6.12300000000000e-01 9.57686601773029e-01 9.80428202013723e-03
6.15788888888889e-01 9.50344472402339e-01 9.75679647855997e-03
6.19277777777778e-01 9.43058631657171e-01 9.70938508249552e-03
6.22766666666667e-01 9.35828647999339e-01 9.66205072896698e-03
6.26255555555555e-01 9.28654093199056e-01 9.61479624619478e-03
6.29744444444444e-01 9.21534542309567e-01 9.56762439146324e-03
6.33233333333333e-01 9.14469573641973e-01 9.52053785255388e-03
6.36722222222222e-01 9.07458768740274e-01 9.47353924915342e-03
6.40211111111111e-01 9.00501712356572e-01 9.42663113423591e-03
6.43700000000000e-01 8.93597992426478e-01 9.37981599223416e-03
6.47188888888889e-01 8.86747200054679e-01 9.33309624992970e-03
6.50677777777778e-01 8.79948929460599e-01 9.28647427133807e-03
6.54166666666667e-01 8.73202777984683e-01 9.23995235246433e-03
6.57655555555556e-01 8.66508346054377e-01 9.19353273232773e-03
6.61144444444444e-01 8.59865237160462e-01 9.14721759088927e-03
6.64633333333333e-01 8.53273057833555e-01 9.10100905022728e-03
6.68122222222222e-01 8.46731417620825e-01 9.05490917569426e-03
6.71611111111111e-01 8.40239929062860e-01 9.00891997705439e-03
6.75100000000000e-01 8.33798207670710e-01 8.96304340669803e-03
6.78588888888889e-01 8.27405871912000e-01 8.91728136944945e-03
6.82077777777778e-01 8.21062543161522e-01 8.87163571779459e-03
6.85566666666667e-01 8.14767845705791e-01 8.82610824699398e-03
6.89055555555556e-01 8.08521406711740e-01 8.78070070502246e-03
6.92544444444444e-01 8.02322856204634e-01 8.73541479057723e-03
6.96033333333333e-01 7.96171827046152e-01 8.69025215404983e-03
6.99522222222222e-01 7.90067954912657e-01 8.64521439848384e-03
7.03011111111111e-01 7.84010878273605e-01 8.60030308051707e-03
7.06500000000000e-01 7.78000238370138e-01 8.55551970865928e-03
7.09988888888889e-01 7.72035679201744e-01 8.51086575214842e-03
7.13477777777778e-01 7.66116847481278e-01 8.46634263651149e-03
7.16966666666667e-01 7.60243392638085e-01 8.42195173902052e-03
7.20455555555556e-01 7.54414966789172e-01 8.37769439767461e-03
7.23944444444444e-01 7.48631224718597e-01 8.33357190930373e-03
7.27433333333333e-01 7.42891823857021e-01 8.28958553037827e-03
7.30922222222222e-01 7.37196424261426e-01 8.24573647780356e-03
7.34411111111111e-01 7.31544688594975e-01 8.20202592970546e-03
7.37900000000000e-01 7.25936282107035e-01 8.15845502378630e-03
7.41388888888889e-01 7.20370872620414e-01 8.11502486533732e-03
7.44877777777778e-01 7.14848130490344e-01 8.07173652311693e-03
7.48366666666667e-01 7.09367728606440e-01 8.02859102513451e-03
7.51855555555555e-01 7.03929342366118e-01 7.98558936678574e-03
7.55344444444444e-01 6.98532649655364e-01 7.94273250905693e-03
7.58833333333333e-01 6.93177330829658e-01 7.90002137920001e-03
7.62322222222222e-01 6.87863068695047e-01 7.85745687139907e-03
7.65811111111111e-01 6.82589548489351e-01 7.81503984742681e-03
7.69300000000000e-01 6.77356457863526e-01 7.77277113508331e-03
7.72788888888889e-01 6.72163486869486e-01 7.73065153546284e-03
7.76277777777778e-01 6.67010327922640e-01 7.68868181913029e-03
7.79766666666667e-01 6.61896675802904e-01 7.64686272221401e-03
7.83255555555555e-01 6.56822227630172e-01 7.60519495378681e-03
7.86744444444444e-01 6.51786682846376e-01 7.56367919417280e-03
7.90233333333333e-01 6.46789743197679e-01 7.52231609551588e-03
7.93722222222222e-01 6.41831112716819e-01 7.48110628233894e-03
7.97211111111111e-01 6.36910497705575e-01 7.44005035209450e-03
8.00700000000000e-01 6.32027606717371e-01 7.39914887369060e-03
8.04188888888889e-01 6.27182150545687e-01 7.35840239408992e-03
8.07677777777778e-01 6.22373842189799e-01 7.31781143476851e-03
8.11166666666667e-01 6.17602396855021e-01 7.27737648809751e-03
8.14655555555555e-01 6.12867531930054e-01 7.23709802405148e-03
8.18144444444444e-01 6.08168966970243e-01 7.19697648861830e-03
8.21633333333333e-01 6.03506423680966e-01 7.15701230427564e-03
8.25122222222222e-01 5.98879625901160e-01 7.11720587046408e-03
8.28611111111111e-01 5.94288299586953e-01 7.07755756405238e-03
8.32100000000000e-01 5.89732172795443e-01 7.03806773794787e-03
8.35588888888889e-01 5.85210975673675e-01 6.99873672709946e-03
8.39077777777778e-01 5.80724440427285e-01 6.95956484521990e-03
8.42566666666667e-01 5.76272301320112e-01 6.92055238143735e-03
8.46055555555555e-01 5.71854294653269e-01 6.88169960640018e-03
8.49544444444444e-01 5.67470158749522e-01 6.84300677078696e-03
8.53033333333333e-01 5.63119633937790e-01 6.80447410571011e-03
8.56522222222222e-01 5.58802462537768e-01 6.76610182311434e-03
8.60011111111111e-01 5.54518388844668e-01 6.72789011617055e-03
8.63500000000000e-01 5.50267159114065e-01 6.68983915797202e-03
8.66988888888889e-01 5.46048521551455e-01 6.65194910700143e-03
8.70477777777778e-01 5.41862226283509e-01 6.61422010409758e-03
8.73966666666667e-01 5.37708025357192e-01 6.57665226935899e-03
8.77455555555555e-01 5.33585672720406e-01 6.53924570770666e-03
8.80944444444444e-01 5.29494924207418e-01 6.50200050749018e-03
8.84433333333333e-01 5.25435537524395e-01 6.46491674082990e-03
8.87922222222222e-01 5.21407272235059e-01 6.42799446395438e-03
8.91411111111111e-01 5.17409889746441e-01 6.39123371753493e-03
8.94900000000000e-01 5.13443153294754e-01 6.35463452546320e-03
8.98388888888889e-01 5.09506827935490e-01 6.31819689983614e-03
9.01877777777778e-01 5.05600680517053e-01 6.28192083815162e-03
9.05366666666667e-01 5.01724479679482e-01 6.24580632044518e-03
9.08855555555556e-01 4.97877995836543e-01 6.20985331436387e-03
9.12344444444444e-01 4.94061001162128e-01 6.17406177386468e-03
9.15833333333333e-01 4.90273269576764e-01 6.13843163950486e-03
9.19322222222222e-01 4.86514576734223e-01 6.10296283872916e-03
9.22811111111111e-01 4.82784700008234e-01 6.06765528615321e-03
9.26300000000000e-01 4.79083418479295e-01 6.03250888242068e-03
9.29788888888889e-01 4.75410512925309e-01 5.99752351875350e-03
9.33277777777778e-01 4.71765765797371e-01 5.96269907435827e-03
9.36766666666667e-01 4.68148961218183e-01 5.92803541377920e-03
9.40255555555556e-01 4.64559884965471e-01 5.89353239153186e-03
9.43744444444444e-01 4.60998324459306e-01 5.85918985088892e-03
9.47233333333333e-01 4.57464068749504e-01 5.82500762412715e-03
9.50722222222222e-01 4.53956908503138e-01 5.79098553277125e-03
9.54211111111111e-01 4.50476635992138e-01 5.75712338783453e-03
9.57700000000000e-01 4.47023045080987e-01 5.72342098875233e-03
9.61188888888889e-01 4.43595931217866e-01 5.68987812753886e-03
9.64677777777778e-01 4.40195091412409e-01 5.65649458638925e-03
9.68166666666667e-01 4.36820324233877e-01 5.62327013523260e-03
9.71655555555555e-01 4.33471429795800e-01 5.59020453596718e-03
9.75144444444444e-01 4.30148209744145e-01 5.55729754132941e-03
9.78633333333333e-01 4.26850467245565e-01 5.52454889510314e-03
9.82122222222222e-01 4.23578006975739e-01 5.49195833232748e-03
9.85611111111111e-01 4.20330635107807e-01 5.45952557950212e-03
9.89100000000000e-01 4.17108159300889e-01 5.42725035359158e-03
9.92588888888889e-01 4.13910388691722e-01 5.39513236582637e-03
9.96077777777778e-01 4.10737133874203e-01 5.36317131948618e-03
9.99566666666667e-01 4.07588206897382e-01 5.33136690648036e-03
1.00305555555556e+00 4.04463421254164e-01 5.29971881586253e-03
1.00654444444444e+00 4.01362591858542e-01 5.26822672812225e-03
1.01003333333333e+00 3.98285535049375e-01 5.23689031298766e-03
1.01352222222222e+00 3.95232068573577e-01 5.20570923554103e-03
1.01701111111111e+00 3.92202011575309e-01 5.17468315400867e-03
1.02050000000000e+00 3.89195184585268e-01 5.14381170894719e-03
1.02398888888889e+00 3.86211409537483e-01 5.11309455652545e-03
1.02747777777778e+00 3.83250509675987e-01 5.08253134655355e-03
1.03096666666667e+00 3.80312309627635e-01 5.05212170012587e-03
1.03445555555556e+00 3.77396635363781e-01 5.02186524364856e-03
1.03794444444444e+00 3.74503314189975e-01 4.99176159764843e-03
1.04143333333333e+00 3.71632174735718e-01 4.96181037691308e-03
1.04492222222222e+00 3.68783046944341e-01 4.93201119064128e-03
1.04841111111111e+00 3.65955762062916e-01 4.90236364260320e-03
1.05190000000000e+00 3.63150152632265e-01 4.87286732118982e-03
1.05538888888889e+00 3.60366052501865e-01 4.84352182998937e-03
1.05887777777778e+00 3.57603296745077e-01 4.81432676758393e-03
1.06236666666667e+00 3.54861721724763e-01 4.78528170699144e-03
1.06585555555556e+00 3.52141165058313e-01 4.75638622692760e-03
1.06934444444444e+00 3.49441465608027e-01 4.72763990150938e-03
1.07283333333333e+00 3.46762463471555e-01 4.69904230037414e-03
1.07632222222222e+00 3.44103999972457e-01 4.67059298880751e-03
1.07981111111111e+00 3.41465917650790e-01 4.64229152788005e-03
1.08330000000000e+00 3.38848060253777e-01 4.61413746528816e-03
1.08678888888889e+00 3.36250272749056e-01 4.58613036345740e-03
1.09027777777778e+00 3.33672401247597e-01 4.55826978095863e-03
1.09376666666667e+00 3.31114293062895e-01 4.53055525359500e-03
1.09725555555556e+00 3.28575796679020e-01 4.50298632313546e-03
1.10074444444444e+00 3.26056761741639e-01 4.47556252783955e-03
