Energy (eV)          EEDF (eV^-(3/2))     First Anisotropy
5.58928571428571e-02 4.10424914585916e-02 2.90036332717855e-05
1.67678571428571e-01 4.05398283347812e-02 4.77605203878377e-05
2.79464285714286e-01 4.00433215166441e-02 6.26986716218604e-05
3.91250000000000e-01 3.95528956091120e-02 7.38361750189075e-05
5.03035714285714e-01 3.90684761360623e-02 8.29519082089604e-05
6.14821428571429e-01 3.85899895341663e-02 9.07239243771963e-05
7.26607142857143e-01 3.81173631405438e-02 9.75058318548105e-05
8.38392857142857e-01 3.76505251837511e-02 1.03512770952922e-04
9.50178571428571e-01 3.71894047704887e-02 1.08888480406149e-04
1.06196428571429e+00 3.67339318748422e-02 1.13735290175257e-04
1.17375000000000e+00 3.62840373320925e-02 1.18129492627215e-04
1.28553571428571e+00 3.58396528180933e-02 1.22130003704490e-04
1.39732142857143e+00 3.54007108531052e-02 1.25783600807308e-04
1.50910714285714e+00 3.49671447768276e-02 1.29128267425209e-04
1.62089285714286e+00 3.45388887518178e-02 1.32195423953249e-04
1.73267857142857e+00 3.41158777435178e-02 1.35011471070200e-04
1.84446428571429e+00 3.36980475118092e-02 1.37598887238482e-04
1.95625000000000e+00 3.32853346080390e-02 1.39977032319639e-04
2.06803571428571e+00 3.28776763562067e-02 1.42162746920192e-04
2.17982142857143e+00 3.24750108520973e-02 1.44170808613675e-04
2.29160714285714e+00 3.20772769457152e-02 1.46014285119737e-04
2.40339285714286e+00 3.16844142397215e-02 1.47704811457878e-04
2.51517857142857e+00 3.12963630745208e-02 1.49252811343203e-04
2.62696428571429e+00 3.09130645198142e-02 1.50667674030712e-04
2.73875000000000e+00 3.05344603700313e-02 1.51957899651812e-04
2.85053571428571e+00 3.01604931296120e-02 1.53131218062119e-04
2.96232142857143e+00 2.97911060098934e-02 1.54194687469423e-04
3.07410714285714e+00 2.94262429151134e-02 1.55154776973583e-04
3.18589285714286e+00 2.90658484390355e-02 1.56017435909121e-04
3.29767857142857e+00 2.87098678527002e-02 1.56788153311621e-04
3.40946428571429e+00 2.83582470964464e-02 1.57472007501067e-04
3.52125000000000e+00 2.80109327748003e-02 1.58073709786363e-04
3.63303571428571e+00 2.76678721442220e-02 1.58597641690977e-04
3.74482142857143e+00 2.73290131090870e-02 1.59047887320468e-04
3.85660714285714e+00 2.69943042099305e-02 1.59428261650775e-04
3.96839285714286e+00 2.66636946193386e-02 1.59742335161626e-04
4.08017857142857e+00 2.63371341314632e-02 1.59993456042918e-04
4.19196428571429e+00 2.60145731546033e-02 1.60184768832213e-04
4.30375000000000e+00 2.56959627059858e-02 1.60319231880579e-04
4.41553571428571e+00 2.53812544012394e-02 1.60399632462992e-04
4.52732142857143e+00 2.50704004500342e-02 1.60428600320590e-04
4.63910714285714e+00 2.47633536459334e-02 1.60408619837851e-04
4.75089285714286e+00 2.44600673620235e-02 1.60342040859147e-04
4.86267857142857e+00 2.41604955417426e-02 1.60231088881370e-04
4.97446428571429e+00 2.38645926920240e-02 1.60077873437170e-04
5.08625000000000e+00 2.35723138781741e-02 1.59884396485368e-04
5.19803571428571e+00 2.32836147146646e-02 1.59652559662023e-04
5.30982142857143e+00 2.29984513607064e-02 1.59384170925167e-04
5.42160714285714e+00 2.27167805113453e-02 1.59080950655445e-04
5.53339285714286e+00 2.24385593930674e-02 1.58744537129590e-04
5.64517857142857e+00 2.21637457556731e-02 1.58376491914493e-04
5.75696428571429e+00 2.18922978659581e-02 1.57978304113778e-04
5.86875000000000e+00 2.16241745027917e-02 1.57551394955670e-04
5.98053571428571e+00 2.13593349489688e-02 1.57097121703337e-04
6.09232142857143e+00 2.10977389868635e-02 1.56616781303149e-04
6.20410714285714e+00 2.08393468905346e-02 1.56111613789846e-04
6.31589285714286e+00 2.05841194214322e-02 1.55582805351008e-04
6.42767857142857e+00 2.03320178211387e-02 1.55031491494957e-04
6.53946428571429e+00 2.00830038055536e-02 1.54458759385666e-04
6.65125000000000e+00 1.98370395602240e-02 1.53865650603712e-04
6.76303571428571e+00 1.95940877330771e-02 1.53253163443300e-04
6.87482142857143e+00 1.93541114302339e-02 1.52622255088951e-04
6.98660714285714e+00 1.91170742089584e-02 1.51973843675470e-04
7.09839285714286e+00 1.88829400735355e-02 1.51308810137626e-04
7.21017857142857e+00 1.86516734687485e-02 1.50628000223414e-04
7.32196428571429e+00 1.84232392745343e-02 1.49932225853765e-04
7.43375000000000e+00 1.81976028015862e-02 1.49222266910264e-04
7.54553571428571e+00 1.79747297848380e-02 1.48498872674812e-04
7.65732142857143e+00 1.77545863794791e-02 1.47762763213439e-04
7.76910714285714e+00 1.75371391546251e-02 1.47014630701906e-04
7.88089285714286e+00 1.73223550894026e-02 1.46255140608224e-04
7.99267857142857e+00 1.71102015670661e-02 1.45484933052875e-04
8.10446428571429e+00 1.69006463700867e-02 1.44704623632645e-04
8.21625000000000e+00 1.66936576760356e-02 1.43914804646061e-04
8.32803571428571e+00 1.64892040517176e-02 1.43116046042279e-04
8.43982142857143e+00 1.62872544494083e-02 1.42308896345512e-04
8.55160714285714e+00 1.60877782011515e-02 1.41493883550409e-04
8.66339285714286e+00 1.58907450150671e-02 1.40671515912787e-04
8.77517857142857e+00 1.56961249700295e-02 1.39842282913922e-04
8.88696428571428e+00 1.55038885111565e-02 1.39006655772608e-04
8.99875000000000e+00 1.53140064459703e-02 1.38165088323828e-04
9.11053571428571e+00 1.51264499390996e-02 1.37318017669469e-04
9.22232142857143e+00 1.49411905087467e-02 1.36465864820682e-04
9.33410714285714e+00 1.47582000215344e-02 1.35609035326442e-04
9.44589285714286e+00 1.45774506890439e-02 1.34747919821414e-04
9.55767857142857e+00 1.43989150629888e-02 1.33882894736216e-04
9.66946428571429e+00 1.42225660310736e-02 1.33014322619864e-04
9.78125000000000e+00 1.40483768134234e-02 1.32142552792753e-04
9.89303571428571e+00 1.38763209577883e-02 1.31267921807272e-04
1.00048214285714e+01 1.37063723362403e-02 1.30390753940302e-04
1.01166071428571e+01 1.35385051403395e-02 1.29511361520869e-04
1.02283928571429e+01 1.33726938785688e-02 1.28630045449785e-04
1.03401785714286e+01 1.32089133711002e-02 1.27747095773517e-04
1.04519642857143e+01 1.30471387464971e-02 1.26862791812127e-04
1.05637500000000e+01 1.28873454379336e-02 1.25977402925597e-04
1.06755357142857e+01 1.27295091779918e-02 1.25091187999922e-04
1.07873214285714e+01 1.25736059994460e-02 1.24204396380375e-04
1.08991071428571e+01 1.24196122270975e-02 1.23317268800920e-04
1.10108928571429e+01 1.22675044757076e-02 1.22430036797842e-04
1.11226785714286e+01 1.21172596464427e-02 1.21542923319003e-04
1.12344642857143e+01 1.19688549233730e-02 1.20656143017240e-04
1.13462500000000e+01 1.18222677700047e-02 1.19769902788557e-04
1.14580357142857e+01 1.16774759245999e-02 1.18884401269123e-04
1.15698214285714e+01 1.15344574006137e-02 1.17999829615799e-04
1.16816071428571e+01 1.13931904794907e-02 1.17116372286055e-04
1.17933928571429e+01 1.12536537086718e-02 1.16234206478456e-04
1.19051785714286e+01 1.11158258983331e-02 1.15353502633621e-04
1.20169642857143e+01 1.09796861181737e-02 1.14474424657660e-04
1.21287500000000e+01 1.08452136942341e-02 1.13597130364737e-04
1.22405357142857e+01 1.07123882046778e-02 1.12721770997688e-04
1.23523214285714e+01 1.05811894799662e-02 1.11848491889100e-04
1.24641071428571e+01 1.04515975964800e-02 1.10977433123666e-04
1.25758928571429e+01 1.03235928746124e-02 1.10108729013570e-04
1.26876785714286e+01 1.01971558757785e-02 1.09242508516176e-04
1.27994642857143e+01 1.00722673994677e-02 1.08378895406840e-04
1.29112500000000e+01 9.94890848032533e-03 1.07518008647814e-04
1.30230357142857e+01 9.82706038434259e-03 1.06659961938647e-04
1.31348214285714e+01 9.70670460883526e-03 1.05804864281653e-04
1.32466071428571e+01 9.58782287677683e-03 1.04952820549752e-04
1.33583928571429e+01 9.47039713498678e-03 1.04103930999911e-04
1.34701785714286e+01 9.35440955138744e-03 1.03258291625329e-04
1.35819642857143e+01 9.23984251229925e-03 1.02415994290798e-04
1.36937500000000e+01 9.12667861976431e-03 1.01577127043596e-04
1.38055357142857e+01 9.01490068809935e-03 1.00741773696096e-04
1.39173214285714e+01 8.90449174372852e-03 9.99100143132737e-05
1.40291071428571e+01 8.79543502013497e-03 9.90819257031921e-05
1.41408928571429e+01 8.68771395614794e-03 9.82575809689080e-05
1.42526785714286e+01 8.58131219342659e-03 9.74370498081295e-05
1.43644642857143e+01 8.47621357397843e-03 9.66203986203670e-05
1.44762500000000e+01 8.37240213770424e-03 9.58076907712622e-05
1.45880357142857e+01 8.26986211927565e-03 9.49989862077064e-05
1.46998214285714e+01 8.16857794786088e-03 9.41943418808213e-05
1.48116071428571e+01 8.06853424261614e-03 9.33938121721928e-05
1.49233928571429e+01 7.96971581107289e-03 9.25974484831371e-05
1.50351785714286e+01 7.87210764682965e-03 9.18052994915682e-05
1.51469642857143e+01 7.77569492727532e-03 9.10174112375337e-05
1.52587500000000e+01 7.68046301133713e-03 9.02338273496249e-05
1.53705357142857e+01 7.58639743664897e-03 8.94545886916763e-05
1.54823214285714e+01 7.49348391920025e-03 8.86797337316566e-05
1.55941071428571e+01 7.40170834930092e-03 8.79092989139225e-05
1.57058928571429e+01 7.31105679006787e-03 8.71433182839270e-05
1.58176785714286e+01 7.22151547530753e-03 8.63818237097623e-05
1.59294642857143e+01 7.13307080742725e-03 8.56248449509136e-05
1.60412500000000e+01 7.04570935536935e-03 8.48724098533557e-05
1.61530357142857e+01 6.95941785204072e-03 8.41245440262780e-05
1.62648214285714e+01 6.87418319390814e-03 8.33812711651845e-05
1.63766071428571e+01 6.78999243738046e-03 8.26426133783377e-05
1.64883928571429e+01 6.70683279739175e-03 8.19085908445926e-05
1.66001785714286e+01 6.62469164545907e-03 8.11792220054572e-05
1.67119642857143e+01 6.54355650776615e-03 8.04545236206678e-05
1.68237500000000e+01 6.46341506326846e-03 7.97345109371466e-05
1.69355357142857e+01 6.38425514135763e-03 7.90191973938549e-05
1.70473214285714e+01 6.30606472142171e-03 7.83085949058045e-05
1.71591071428571e+01 6.22883192959589e-03 7.76027141513139e-05
1.72708928571429e+01 6.15254503743918e-03 7.69015642605104e-05
1.73826785714286e+01 6.07719246015279e-03 7.62051529825391e-05
1.74944642857143e+01 6.00276275482213e-03 7.55134867306934e-05
1.76062500000000e+01 5.92924461867840e-03 7.48265707293694e-05
1.77180357142857e+01 5.85662688697503e-03 7.41444087449954e-05
1.78298214285714e+01 5.78489853252690e-03 7.34670033364445e-05
1.79416071428571e+01 5.71404866278769e-03 7.27943561085501e-05
1.80533928571429e+01 5.64406651861631e-03 7.21264674288165e-05
1.81651785714286e+01 5.57494147264259e-03 7.14633365735247e-05
1.82769642857143e+01 5.50666302765440e-03 7.08049617645008e-05
1.83887500000000e+01 5.43922081500308e-03 7.01513402973959e-05
1.85005357142857e+01 5.37260459267109e-03 6.95024682966447e-05
1.86123214285714e+01 5.30680424480128e-03 6.88583409368397e-05
1.87241071428571e+01 5.24180977906450e-03 6.82189526670267e-05
1.88358928571429e+01 5.17761132551152e-03 6.75842969532361e-05
1.89476785714286e+01 5.11419913507382e-03 6.69543664065558e-05
1.90594642857143e+01 5.05156357808395e-03 6.63291528131480e-05
1.91712500000000e+01 4.98969514281273e-03 6.57086472465757e-05
1.92830357142857e+01 4.92858443371003e-03 6.50928398448233e-05
1.93948214285714e+01 4.86822217093231e-03 6.44817200064283e-05
1.95066071428571e+01 4.80859918796889e-03 6.38752765893484e-05
1.96183928571429e+01 4.74970643057493e-03 6.32734976770692e-05
1.97301785714286e+01 4.69153495539609e-03 6.26763706911666e-05
1.98419642857143e+01 4.63407592861112e-03 6.20838824158519e-05
1.99537500000000e+01 4.57732062459003e-03 6.14960190965907e-05
2.00655357142857e+01 4.52126042429148e-03 6.09127662372978e-05
2.01773214285714e+01 4.46588681479515e-03 6.03341087744397e-05
2.02891071428571e+01 4.41119138715888e-03 5.97600312536913e-05
2.04008928571429e+01 4.35716583542809e-03 5.91905176175200e-05
2.05126785714286e+01 4.30380195537416e-03 5.86255513043452e-05
2.06244642857143e+01 4.25109164324914e-03 5.80651152686079e-05
2.07362500000000e+01 4.19902689455483e-03 5.75091920675691e-05
2.08480357142857e+01 4.14759980258226e-03 5.69577636769081e-05
2.09598214285714e+01 4.09680255795350e-03 5.64108116455337e-05
2.10716071428571e+01 4.04662744668548e-03 5.58683172527724e-05
2.11833928571429e+01 3.99706684927124e-03 5.53302613154759e-05
2.12951785714286e+01 3.94811323952264e-03 5.47966242755527e-05
2.14069642857143e+01 3.89975918342795e-03 5.42673862163797e-05
2.15187500000000e+01 3.85199733802267e-03 5.37425269393447e-05
2.16305357142857e+01 3.80482045005782e-03 5.32220257962075e-05
2.17423214285714e+01 3.75822135555496e-03 5.27058618269682e-05
2.18541071428571e+01 3.71219297805501e-03 5.21940138999369e-05
2.19658928571429e+01 3.66672832776702e-03 5.16864605365729e-05
2.20776785714286e+01 3.62182050050649e-03 5.11831799888943e-05
2.21894642857143e+01 3.57746267664739e-03 5.06841502528799e-05
2.23012500000000e+01 3.53364812008628e-03 5.01893491360824e-05
2.24130357142857e+01 3.49037017702766e-03 4.96987541052488e-05
2.25248214285714e+01 3.44762227555458e-03 4.92123424092637e-05
2.26366071428571e+01 3.40539792404365e-03 4.87300912041233e-05
2.27483928571429e+01 3.36369071037686e-03 4.82519773938745e-05
2.28601785714286e+01 3.32249430096774e-03 4.77779776991786e-05
2.29719642857143e+01 3.28180243979986e-03 4.73080686682312e-05
2.30837500000000e+01 3.24160894747670e-03 4.68422267365809e-05
2.31955357142857e+01 3.20190772011320e-03 4.63804280886248e-05
2.33073214285714e+01 3.16269272892394e-03 4.59226487673736e-05
2.34191071428571e+01 3.12395801878727e-03 4.54688647860784e-05
2.35308928571429e+01 3.08569770751625e-03 4.50190519837861e-05
2.36426785714286e+01 3.04790598496516e-03 4.45731860861548e-05
2.37544642857143e+01 3.01057711214759e-03 4.41312427143102e-05
2.38662500000000e+01 2.97370542036469e-03 4.36931974378548e-05
2.39780357142857e+01 2.93728531019356e-03 4.32590256489607e-05
2.40898214285714e+01 2.90131125109391e-03 4.28287026604749e-05
2.42016071428571e+01 2.86577778010655e-03 4.24022038057378e-05
2.43133928571429e+01 2.83067950117928e-03 4.19795043073846e-05
2.44251785714286e+01 2.79601108434729e-03 4.15605793313609e-05
2.45369642857143e+01 2.76176726492408e-03 4.11454039940726e-05
2.46487500000000e+01 2.72794284270176e-03 4.07339534094086e-05
2.47605357142857e+01 2.69453268102746e-03 4.03262025742882e-05
2.48723214285714e+01 2.66153170642918e-03 3.99221264564249e-05
2.49841071428571e+01 2.62893490743530e-03 3.95217000836692e-05
2.50958928571429e+01 2.59673733395165e-03 3.91248984248294e-05
2.52076785714286e+01 2.56493409650964e-03 3.87316964376910e-05
2.53194642857143e+01 2.53352036552403e-03 3.83420690747563e-05
2.54312500000000e+01 2.50249137055938e-03 3.79559913250085e-05
2.55430357142857e+01 2.47184239948649e-03 3.75734381098548e-05
2.56548214285714e+01 2.44156879812774e-03 3.71943843617086e-05
2.57666071428571e+01 2.41166596918580e-03 3.68188051040221e-05
2.58783928571429e+01 2.38212937166820e-03 3.64466753430094e-05
2.59901785714286e+01 2.35295452019767e-03 3.60779701103830e-05
2.61019642857143e+01 2.32413698433119e-03 3.57126644679153e-05
2.62137500000000e+01 2.29567238788709e-03 3.53507335445715e-05
2.63255357142857e+01 2.26755640817446e-03 3.49921524418930e-05
2.64373214285714e+01 2.23978477565794e-03 3.46368963044147e-05
2.65491071428571e+01 2.21235327298494e-03 3.42849403914128e-05
2.66608928571429e+01 2.18525773445438e-03 3.39362599785159e-05
2.67726785714286e+01 2.15849404538409e-03 3.35908303957722e-05
2.68844642857143e+01 2.13205814148605e-03 3.32486270312385e-05
2.69962500000000e+01 2.10594600824917e-03 3.29096253640200e-05
2.71080357142857e+01 2.08015368023518e-03 3.25738008782243e-05
2.72198214285714e+01 2.05467724076258e-03 3.22411291261128e-05
2.73316071428571e+01 2.02951282102287e-03 3.19115857924672e-05
2.74433928571429e+01 2.00465659959034e-03 3.15851466051634e-05
2.75551785714286e+01 1.98010480184171e-03 3.12617873691115e-05
2.76669642857143e+01 1.95585369938302e-03 3.09414839690367e-05
2.77787500000000e+01 1.93189960948339e-03 3.06242123988997e-05
2.78905357142857e+01 1.90823889443158e-03 3.03099486836380e-05
2.80023214285714e+01 1.88486796123864e-03 2.99986689358347e-05
2.81141071428571e+01 1.86178326083467e-03 2.96903494134972e-05
2.82258928571429e+01 1.83898128761661e-03 2.93849664387703e-05
2.83376785714286e+01 1.81645857891580e-03 2.90824964282145e-05
2.84494642857143e+01 1.79421171447230e-03 2.87829158949160e-05
2.85612500000000e+01 1.77223731591540e-03 2.84862014747075e-05
2.86730357142857e+01 1.75053204617547e-03 2.81923298549756e-05
2.87848214285714e+01 1.72909260920481e-03 2.79012778255432e-05
2.88966071428571e+01 1.70791574924724e-03 2.76130223305740e-05
2.90083928571429e+01 1.68699825042110e-03 2.73275403946619e-05
2.91201785714286e+01 1.66633693623081e-03 2.70448091498618e-05
2.92319642857143e+01 1.64592866908462e-03 2.67648058372483e-05
2.93437500000000e+01 1.62577034981807e-03 2.64875078302960e-05
2.94555357142857e+01 1.60585891715627e-03 2.62128925701043e-05
2.95673214285714e+01 1.58619134745227e-03 2.59409376111174e-05
2.96791071428571e+01 1.56676465402264e-03 2.56716206677693e-05
2.97908928571429e+01 1.54757588676301e-03 2.54049195472685e-05
2.99026785714286e+01 1.52862213170004e-03 2.51408121737485e-05
3.00144642857143e+01 1.50990051054900e-03 2.48792765893665e-05
3.01262500000000e+01 1.49140818027660e-03 2.46202909751673e-05
3.02380357142857e+01 1.47314233260935e-03 2.43638335921393e-05
3.03498214285714e+01 1.45510019378865e-03 2.41098828223097e-05
3.04616071428571e+01 1.43727902396624e-03 2.38584172106875e-05
3.05733928571429e+01 1.41967611684983e-03 2.36094154041282e-05
3.06851785714286e+01 1.40228879929209e-03 2.33628561729227e-05
3.07969642857143e+01 1.38511443088482e-03 2.31187184115173e-05
3.09087500000000e+01 1.36815040355789e-03 2.28769811571378e-05
3.10205357142857e+01 1.35139414112962e-03 2.26376235361450e-05
3.11323214285714e+01 1.33484309907791e-03 2.24006248009932e-05
3.12441071428571e+01 1.31849476398992e-03 2.21659643679638e-05
3.13558928571429e+01 1.30234665323552e-03 2.19336217615468e-05
3.14676785714286e+01 1.28639631459028e-03 2.17035766337477e-05
3.15794642857143e+01 1.27064132586314e-03 2.14758087644986e-05
3.16912500000000e+01 1.25507929452856e-03 2.12502980782974e-05
3.18030357142857e+01 1.23970785731522e-03 2.10270245953714e-05
3.19148214285714e+01 1.22452467999240e-03 2.08059684649302e-05
3.20266071428571e+01 1.20952745686885e-03 2.05871099991306e-05
3.21383928571429e+01 1.19471391049199e-03 2.03704296224665e-05
3.22501785714286e+01 1.18008179130207e-03 2.01559078890436e-05
3.23619642857143e+01 1.16562887729058e-03 1.99435254827395e-05
3.24737500000000e+01 1.15135297366282e-03 1.97332632320707e-05
3.25855357142857e+01 1.13725191246164e-03 1.95251020657326e-05
3.26973214285714e+01 1.12332355236828e-03 1.93190230425308e-05
3.28091071428571e+01 1.10956577824589e-03 1.91150073819618e-05
3.29208928571429e+01 1.09597650086249e-03 1.89130364181555e-05
3.30326785714286e+01 1.08255365657374e-03 1.87130916153361e-05
3.31444642857143e+01 1.06929520700954e-03 1.85151545677778e-05
3.32562500000000e+01 1.05619913876453e-03 1.83192070131006e-05
3.33680357142857e+01 1.04326346305379e-03 1.81252307917821e-05
3.34798214285714e+01 1.03048621552742e-03 1.79332078741078e-05
3.35916071428571e+01 1.01786545585454e-03 1.77431203877198e-05
3.37033928571429e+01 1.00539926746826e-03 1.75549505756929e-05
3.38151785714286e+01 9.93085757274601e-04 1.73686808103785e-05
3.39269642857143e+01 9.80923055365046e-04 1.71842935931988e-05
3.40387500000000e+01 9.68909314732584e-04 1.70017715665338e-05
3.41505357142857e+01 9.57042710956724e-04 1.68210974768484e-05
3.42623214285714e+01 9.45321442030876e-04 1.66422541989737e-05
3.43741071428571e+01 9.33743727983271e-04 1.64652247609263e-05
3.44858928571429e+01 9.22307810642139e-04 1.62899923057396e-05
3.45976785714286e+01 9.11011953368696e-04 1.61165401038682e-05
3.47094642857143e+01 8.99854440793466e-04 1.59448515528509e-05
3.48212500000000e+01 8.88833578555764e-04 1.57749101879456e-05
3.49330357142857e+01 8.77947693015469e-04 1.56066996485421e-05
3.50448214285714e+01 8.67195131092518e-04 1.54402037000415e-05
3.51566071428571e+01 8.56574259921330e-04 1.52754062562292e-05
3.52683928571429e+01 8.46083466634656e-04 1.51122913445201e-05
