Energy (eV)          EEDF (eV^-(3/2))     First Anisotropy
7.14285714285714e-03 4.91364506470945e-01 2.82627836788984e-04
2.14285714285714e-02 4.87337102274182e-01 4.66354062783776e-04
3.57142857142857e-02 4.83342708162860e-01 6.14727383652654e-04
5.00000000000000e-02 4.79381053575723e-01 7.26893719137216e-04
6.42857142857143e-02 4.75451870174089e-01 8.19984441628660e-04
7.85714285714286e-02 4.71554891803409e-01 9.00489316646229e-04
9.28571428571429e-02 4.67689854499757e-01 9.71773013048414e-04
1.07142857142857e-01 4.63856496462614e-01 1.03587101784032e-03
1.21428571428571e-01 4.60054558046160e-01 1.09413570530642e-03
1.35714285714286e-01 4.56283781693102e-01 1.14752458775170e-03
1.50000000000000e-01 4.52543912019201e-01 1.19674770558140e-03
1.64285714285714e-01 4.48834695699524e-01 1.24235050325814e-03
1.78571428571429e-01 4.45155881486236e-01 1.28476382260087e-03
1.92857142857143e-01 4.41507220172754e-01 1.32433575796479e-03
2.07142857142857e-01 4.37888464635013e-01 1.36135286411981e-03
2.21428571428571e-01 4.34299369752902e-01 1.39605478797613e-03
2.35714285714286e-01 4.30739692400965e-01 1.42864465464823e-03
2.50000000000000e-01 4.27209191478389e-01 1.45929665100087e-03
2.64285714285714e-01 4.23707627843656e-01 1.48816167498104e-03
2.78571428571429e-01 4.20234764315492e-01 1.51537161964934e-03
2.92857142857143e-01 4.16790365645238e-01 1.54104268135985e-03
3.07142857142857e-01 4.13374198536649e-01 1.56527795643275e-03
3.21428571428571e-01 4.09986031592877e-01 1.58816950437491e-03
3.35714285714286e-01 4.06625635303982e-01 1.60979999501128e-03
3.50000000000000e-01 4.03292782061872e-01 1.63024405605486e-03
3.64285714285714e-01 3.99987246113234e-01 1.64956937723679e-03
3.78571428571429e-01 3.96708803555166e-01 1.66783761910961e-03
3.92857142857143e-01 3.93457232311890e-01 1.68510517133456e-03
4.07142857142857e-01 3.90232312144697e-01 1.70142379355691e-03
4.21428571428571e-01 3.87033824611246e-01 1.71684115879050e-03
4.35714285714286e-01 3.83861553052538e-01 1.73140130731924e-03
4.50000000000000e-01 3.80715282600278e-01 1.74514504387820e-03
4.64285714285714e-01 3.77594800139619e-01 1.75811027894386e-03
4.78571428571429e-01 3.74499894302507e-01 1.77033232031704e-03
4.92857142857143e-01 3.71430355447256e-01 1.78184412702329e-03
5.07142857142857e-01 3.68385975663075e-01 1.79267653436894e-03
5.21428571428571e-01 3.65366548736767e-01 1.80285845238771e-03
5.35714285714286e-01 3.62371870139876e-01 1.81241703318806e-03
5.50000000000000e-01 3.59401737031687e-01 1.82137782617737e-03
5.64285714285714e-01 3.56455948228208e-01 1.82976491512411e-03
5.78571428571429e-01 3.53534304194439e-01 1.83760103689794e-03
5.92857142857143e-01 3.50636607026062e-01 1.84490768776520e-03
6.07142857142857e-01 3.47762660450697e-01 1.85170522142616e-03
6.21428571428571e-01 3.44912269799617e-01 1.85801293792643e-03
6.35714285714286e-01 3.42085241995321e-01 1.86384915727595e-03
6.50000000000000e-01 3.39281385551832e-01 1.86923129227277e-03
6.64285714285714e-01 3.36500510548057e-01 1.87417591383546e-03
6.78571428571429e-01 3.33742428619578e-01 1.87869880743544e-03
6.92857142857143e-01 3.31006952942013e-01 1.88281502463644e-03
7.07142857142857e-01 3.28293898230190e-01 1.88653893255572e-03
7.21428571428571e-01 3.25603080713532e-01 1.88988425976460e-03
7.35714285714286e-01 3.22934318124167e-01 1.89286413260917e-03
7.50000000000000e-01 3.20287429695460e-01 1.89549111409901e-03
7.64285714285714e-01 3.17662236138674e-01 1.89777723908998e-03
7.78571428571429e-01 3.15058559634598e-01 1.89973404414375e-03
7.92857142857143e-01 3.12476223818299e-01 1.90137259523200e-03
8.07142857142857e-01 3.09915053776921e-01 1.90270351551915e-03
8.21428571428571e-01 3.07374876027917e-01 1.90373701168348e-03
8.35714285714286e-01 3.04855518507719e-01 1.90448289324798e-03
8.50000000000000e-01 3.02356810569106e-01 1.90495059547240e-03
8.64285714285714e-01 2.99878582960462e-01 1.90514920012413e-03
8.78571428571429e-01 2.97420667817421e-01 1.90508745255846e-03
8.92857142857143e-01 2.94982898648821e-01 1.90477377778079e-03
9.07142857142857e-01 2.92565110333581e-01 1.90421629739222e-03
9.21428571428571e-01 2.90167139101223e-01 1.90342284596343e-03
9.35714285714286e-01 2.87788822521107e-01 1.90240098183190e-03
9.50000000000000e-01 2.85429999499026e-01 1.90115800164504e-03
9.64285714285714e-01 2.83090510258568e-01 1.89970095353805e-03
9.78571428571429e-01 2.80770196332910e-01 1.89803664749036e-03
9.92857142857143e-01 2.78468900551812e-01 1.89617166518514e-03
1.00714285714286e+00 2.76186467037882e-01 1.89411236927301e-03
1.02142857142857e+00 2.73922741197668e-01 1.89186492178026e-03
1.03571428571429e+00 2.71677569674532e-01 1.88943527835972e-03
1.05000000000000e+00 2.69450800411862e-01 1.88682920671456e-03
1.06428571428571e+00 2.67242282557107e-01 1.88405229247605e-03
1.07857142857143e+00 2.65051866535610e-01 1.88110994600917e-03
1.09285714285714e+00 2.62879403958001e-01 1.87800741022992e-03
1.10714285714286e+00 2.60724747691084e-01 1.87474976260307e-03
1.12142857142857e+00 2.58587751787277e-01 1.87134193837839e-03
1.13571428571429e+00 2.56468271477119e-01 1.86778871177993e-03
1.15000000000000e+00 2.54366163214772e-01 1.86409471802022e-03
1.16428571428571e+00 2.52281284594573e-01 1.86026445513328e-03
1.17857142857143e+00 2.50213494413795e-01 1.85630228850284e-03
1.19285714285714e+00 2.48162652591963e-01 1.85221245639832e-03
1.20714285714286e+00 2.46128620231225e-01 1.84799907037707e-03
1.22142857142857e+00 2.44111259554641e-01 1.84366613496556e-03
1.23571428571429e+00 2.42110433898805e-01 1.83921752943453e-03
1.25000000000000e+00 2.40126007752575e-01 1.83465702655467e-03
1.26428571428571e+00 2.38157846683935e-01 1.82998829318174e-03
1.27857142857143e+00 2.36205817393751e-01 1.82521489335993e-03
1.29285714285714e+00 2.34269787644956e-01 1.82034029238764e-03
1.30714285714286e+00 2.32349626314328e-01 1.81536785630382e-03
1.32142857142857e+00 2.30445203338135e-01 1.81030086890468e-03
1.33571428571429e+00 2.28556389704942e-01 1.80514251443803e-03
1.35000000000000e+00 2.26683057488773e-01 1.79989589388685e-03
1.36428571428571e+00 2.24825079784604e-01 1.79456402481154e-03
1.37857142857143e+00 2.22982330754695e-01 1.78914984352744e-03
1.39285714285714e+00 2.21154685566035e-01 1.78365620818396e-03
1.40714285714286e+00 2.19342020435034e-01 1.77808589772581e-03
1.42142857142857e+00 2.17544212579346e-01 1.77244162682685e-03
1.43571428571429e+00 2.15761140210908e-01 1.76672602963774e-03
1.45000000000000e+00 2.13992682564487e-01 1.76094167411830e-03
1.46428571428571e+00 2.12238719840465e-01 1.75509106143640e-03
1.47857142857143e+00 2.10499133244980e-01 1.74917662752480e-03
1.49285714285714e+00 2.08773804934390e-01 1.74320074547381e-03
1.50714285714286e+00 2.07062618054029e-01 1.73716572420078e-03
1.52142857142857e+00 2.05365456695296e-01 1.73107382170096e-03
1.53571428571429e+00 2.03682205888945e-01 1.72492722987987e-03
1.55000000000000e+00 2.02012751629773e-01 1.71872808729718e-03
1.56428571428571e+00 2.00356980825626e-01 1.71247847830606e-03
1.57857142857143e+00 1.98714781332344e-01 1.70618043418227e-03
1.59285714285714e+00 1.97086041904214e-01 1.69983593502465e-03
1.60714285714286e+00 1.95470652227742e-01 1.69344690827467e-03
1.62142857142857e+00 1.93868502883253e-01 1.68701524057217e-03
1.63571428571429e+00 1.92279485338448e-01 1.68054276365098e-03
1.65000000000000e+00 1.90703491969838e-01 1.67403126575935e-03
1.66428571428571e+00 1.89140416017106e-01 1.66748249065352e-03
1.67857142857143e+00 1.87590151613646e-01 1.66089813842558e-03
1.69285714285714e+00 1.86052593742184e-01 1.65427986704161e-03
1.70714285714286e+00 1.84527638264322e-01 1.64762929079893e-03
1.72142857142857e+00 1.83015181886035e-01 1.64094799100217e-03
1.73571428571429e+00 1.81515122151510e-01 1.63423750287457e-03
1.75000000000000e+00 1.80027357461807e-01 1.62749932585417e-03
1.76428571428571e+00 1.78551787033870e-01 1.62073492251446e-03
1.77857142857143e+00 1.77088310927310e-01 1.61394571917590e-03
1.79285714285714e+00 1.75636830004513e-01 1.60713310717090e-03
1.80714285714286e+00 1.74197245956570e-01 1.60029844129381e-03
1.82142857142857e+00 1.72769461272171e-01 1.59344304946283e-03
1.83571428571429e+00 1.71353379231721e-01 1.58656822058791e-03
1.85000000000000e+00 1.69948903923645e-01 1.57967521389769e-03
1.86428571428571e+00 1.68555940207442e-01 1.57276525783387e-03
1.87857142857143e+00 1.67174393737253e-01 1.56583955050518e-03
1.89285714285714e+00 1.65804170925886e-01 1.55889926074146e-03
1.90714285714286e+00 1.64445178967644e-01 1.55194552657045e-03
1.92142857142857e+00 1.63097325810195e-01 1.54497946399808e-03
1.93571428571429e+00 1.61760520148967e-01 1.53800215576861e-03
1.95000000000000e+00 1.60434671441419e-01 1.53101465984623e-03
1.96428571428571e+00 1.59119689873654e-01 1.52401800831314e-03
1.97857142857143e+00 1.57815486381209e-01 1.51701320770687e-03
1.99285714285714e+00 1.56521972616525e-01 1.51000123990947e-03
2.00714285714286e+00 1.55239060969090e-01 1.50298306067143e-03
2.02142857142857e+00 1.53966664539941e-01 1.49595960761728e-03
2.03571428571429e+00 1.52704697136322e-01 1.48893178983403e-03
2.05000000000000e+00 1.51453073284208e-01 1.48190049560883e-03
2.06428571428571e+00 1.50211708198053e-01 1.47486659134984e-03
2.07857142857143e+00 1.48980517799177e-01 1.46783092183588e-03
2.09285714285714e+00 1.47759418686269e-01 1.46079431097429e-03
2.10714285714286e+00 1.46548328153215e-01 1.45375756038465e-03
2.12142857142857e+00 1.45347164165916e-01 1.44672145671788e-03
2.13571428571429e+00 1.44155845357213e-01 1.43968676201162e-03
2.15000000000000e+00 1.42974291037891e-01 1.43265422076729e-03
2.16428571428571e+00 1.41802421169210e-01 1.42562455890592e-03
2.17857142857143e+00 1.40640156379197e-01 1.41859848395183e-03
2.19285714285714e+00 1.39487417935843e-01 1.41157668568387e-03
2.20714285714286e+00 1.38344127762910e-01 1.40455983478592e-03
2.22142857142857e+00 1.37210208418815e-01 1.39754858955402e-03
2.23571428571429e+00 1.36085583091801e-01 1.39054358695947e-03
2.25000000000000e+00 1.34970175609639e-01 1.38354544913696e-03
2.26428571428571e+00 1.33863910414616e-01 1.37655478238220e-03
2.27857142857143e+00 1.32766712578007e-01 1.36957217728514e-03
2.29285714285714e+00 1.31678507775669e-01 1.36259820929439e-03
2.30714285714286e+00 1.30599222302082e-01 1.35563343743714e-03
2.32142857142857e+00 1.29528783051071e-01 1.34867841047745e-03
2.33571428571429e+00 1.28467117511231e-01 1.34173365863304e-03
2.35000000000000e+00 1.27414153774472e-01 1.33479969953429e-03
2.36428571428571e+00 1.26369820513217e-01 1.32787703726819e-03
2.37857142857143e+00 1.25334046993276e-01 1.32096616247268e-03
2.39285714285714e+00 1.24306763051573e-01 1.31406755282895e-03
2.40714285714286e+00 1.23287899108653e-01 1.30718167185172e-03
2.42142857142857e+00 1.22277386151041e-01 1.30030897455316e-03
2.43571428571429e+00 1.21275155726905e-01 1.29344989976254e-03
2.45000000000000e+00 1.20281139953606e-01 1.28660487560851e-03
2.46428571428571e+00 1.19295271496862e-01 1.27977431861079e-03
2.47857142857143e+00 1.18317483582217e-01 1.27295863374499e-03
2.49285714285714e+00 1.17347709974695e-01 1.26615821487431e-03
2.50714285714286e+00 1.16385884989936e-01 1.25937344360908e-03
2.52142857142857e+00 1.15431943478045e-01 1.25260469452405e-03
2.53571428571429e+00 1.14485820819476e-01 1.24585232803394e-03
2.55000000000000e+00 1.13547452931703e-01 1.23911669544432e-03
2.56428571428571e+00 1.12616776250162e-01 1.23239813809181e-03
2.57857142857143e+00 1.11693727738478e-01 1.22569698738563e-03
2.59285714285714e+00 1.10778244869845e-01 1.21901356518827e-03
2.60714285714286e+00 1.09870265636960e-01 1.21234818274263e-03
2.62142857142857e+00 1.08969728537214e-01 1.20570114548388e-03
2.63571428571429e+00 1.08076572568783e-01 1.19907274642787e-03
2.65000000000000e+00 1.07190737236535e-01 1.19246327083066e-03
2.66428571428571e+00 1.06312162534563e-01 1.18587299537634e-03
2.67857142857143e+00 1.05440788955325e-01 1.17930218820083e-03
2.69285714285714e+00 1.04576557472570e-01 1.17275110922890e-03
2.70714285714286e+00 1.03719409550221e-01 1.16622000916631e-03
2.72142857142857e+00 1.02869287128765e-01 1.15970913394305e-03
2.73571428571429e+00 1.02026132621556e-01 1.15321871857485e-03
2.75000000000000e+00 1.01189888920039e-01 1.14674899146655e-03
2.76428571428571e+00 1.00360499377724e-01 1.14030017364657e-03
2.77857142857143e+00 9.95379078183608e-02 1.13387247877672e-03
2.79285714285714e+00 9.87220585202701e-02 1.12746611345176e-03
2.80714285714286e+00 9.79128962242857e-02 1.12108127625376e-03
2.82142857142857e+00 9.71103661212374e-02 1.11471816185911e-03
2.83571428571429e+00 9.63144138484483e-02 1.10837695533692e-03
2.85000000000000e+00 9.55249854943641e-02 1.10205783612733e-03
2.86428571428571e+00 9.47420275838304e-02 1.09576097732093e-03
2.87857142857143e+00 9.39654870854074e-02 1.08948654565787e-03
2.89285714285714e+00 9.31953113969728e-02 1.08323470179523e-03
2.90714285714286e+00 9.24314483528338e-02 1.07700559942015e-03
2.92142857142857e+00 9.16738462121989e-02 1.07079938904966e-03
2.93571428571429e+00 9.09224536558617e-02 1.06461621273266e-03
2.95000000000000e+00 9.01772197903037e-02 1.05845620773111e-03
2.96428571428571e+00 8.94380941341520e-02 1.05231950584242e-03
2.97857142857143e+00 8.87050266247341e-02 1.04620623339044e-03
2.99285714285714e+00 8.79779676048319e-02 1.04011651146474e-03
3.00714285714286e+00 8.72568678290552e-02 1.03405045508935e-03
3.02142857142857e+00 8.65416784532144e-02 1.02800817674149e-03
3.03571428571429e+00 8.58323510311804e-02 1.02198978142631e-03
3.05000000000000e+00 8.51288375185228e-02 1.01599537008608e-03
3.06428571428571e+00 8.44310902600395e-02 1.01002503896378e-03
3.07857142857143e+00 8.37390619956351e-02 1.00407887958738e-03
3.09285714285714e+00 8.30527058481212e-02 9.98156978984741e-04
3.10714285714286e+00 8.23719753289335e-02 9.92259418905087e-04
3.12142857142857e+00 8.16968243283234e-02 9.86386279079672e-04
3.13571428571429e+00 8.10272071123870e-02 9.80537632641388e-04
3.15000000000000e+00 8.03630783262909e-02 9.74713549284285e-04
3.16428571428571e+00 7.97043929827772e-02 9.68914094665989e-04
3.17857142857143e+00 7.90511064674405e-02 9.63139330387486e-04
3.19285714285714e+00 7.84031745274793e-02 9.57389314186320e-04
3.20714285714286e+00 7.77605532768285e-02 9.51664099207396e-04
3.22142857142857e+00 7.71231991870984e-02 9.45963737027003e-04
3.23571428571429e+00 7.64910690847641e-02 9.40288273391335e-04
3.25000000000000e+00 7.58641201540254e-02 9.34637751146660e-04
3.26428571428571e+00 7.52423099262022e-02 9.29012209678563e-04
3.27857142857143e+00 7.46255962844728e-02 9.23411684888131e-04
3.29285714285714e+00 7.40139374534945e-02 9.17836209366234e-04
3.30714285714286e+00 7.34072920040136e-02 9.12285811710934e-04
3.32142857142857e+00 7.28056188444871e-02 9.06760519333443e-04
3.33571428571429e+00 7.22088772184243e-02 9.01260354491799e-04
3.35000000000000e+00 7.16170267069230e-02 8.95785337010384e-04
3.36428571428571e+00 7.10300272188766e-02 8.90335483753834e-04
3.37857142857143e+00 7.04478389952322e-02 8.84910808600534e-04
3.39285714285714e+00 6.98704225994038e-02 8.79511322600203e-04
3.40714285714286e+00 6.92977389214159e-02 8.74137033334843e-04
3.42142857142857e+00 6.87297491701505e-02 8.68787947524054e-04
3.43571428571429e+00 6.81664148708325e-02 8.63464067332276e-04
3.45000000000000e+00 6.76076978672785e-02 8.58165392893958e-04
3.46428571428571e+00 6.70535603128457e-02 8.52891921820218e-04
3.47857142857143e+00 6.65039646742611e-02 8.47643649170480e-04
3.49285714285714e+00 6.59588737227597e-02 8.42420567595241e-04
3.50714285714286e+00 6.54182505378097e-02 8.37222666737780e-04
3.52142857142857e+00 6.48820584999336e-02 8.32049935654643e-04
3.53571428571429e+00 6.43502612883293e-02 8.26902359376226e-04
3.55000000000000e+00 6.38228228828640e-02 8.21779921252679e-04
3.56428571428571e+00 6.32997075557022e-02 8.16682602491655e-04
3.57857142857143e+00 6.27808798747502e-02 8.11610382128589e-04
3.59285714285714e+00 6.22663046954585e-02 8.06563237156044e-04
3.60714285714286e+00 6.17559471641728e-02 8.01541141963913e-04
3.62142857142857e+00 6.12497727114811e-02 7.96544070589217e-04
3.63571428571429e+00 6.07477470499643e-02 7.91571993511474e-04
3.65000000000000e+00 6.02498361759621e-02 7.86624879833348e-04
3.66428571428571e+00 5.97560063618249e-02 7.81702696847408e-04
3.67857142857143e+00 5.92662241590129e-02 7.76805410005682e-04
3.69285714285714e+00 5.87804563905071e-02 7.71932983037066e-04
3.70714285714286e+00 5.82986701538253e-02 7.67085377423396e-04
3.72142857142857e+00 5.78208328148524e-02 7.62262554491555e-04
3.73571428571429e+00 5.73469120057130e-02 7.57464472426821e-04
3.75000000000000e+00 5.68768756263361e-02 7.52691088300842e-04
3.76428571428571e+00 5.64106918372774e-02 7.47942357665468e-04
3.77857142857143e+00 5.59483290625098e-02 7.43218234522006e-04
3.79285714285714e+00 5.54897559823928e-02 7.38518671428008e-04
3.80714285714286e+00 5.50349415363882e-02 7.33843619006927e-04
3.82142857142857e+00 5.45838549173338e-02 7.29193027894375e-04
3.83571428571429e+00 5.41364655694331e-02 7.24566845953786e-04
3.85000000000000e+00 5.36927431896391e-02 7.19965020163248e-04
3.86428571428571e+00 5.32526577210022e-02 7.15387496234752e-04
3.87857142857143e+00 5.28161793551830e-02 7.10834218583434e-04
3.89285714285714e+00 5.23832785259346e-02 7.06305130424825e-04
3.90714285714286e+00 5.19539259115487e-02 7.01800173315862e-04
3.92142857142857e+00 5.15280924295379e-02 6.97319288966370e-04
3.93571428571429e+00 5.11057492347358e-02 6.92862416642414e-04
3.95000000000000e+00 5.06868677205200e-02 6.88429494922525e-04
3.96428571428571e+00 5.02714195126436e-02 6.84020461340914e-04
3.97857142857143e+00 4.98593764714971e-02 6.79635252356900e-04
3.99285714285714e+00 4.94507106860646e-02 6.75273803443540e-04
4.00714285714286e+00 4.90453944761257e-02 6.70936048657995e-04
4.02142857142857e+00 4.86434003873157e-02 6.66621922328177e-04
4.03571428571429e+00 4.82447011893291e-02 6.62331356630467e-04
4.05000000000000e+00 4.78492698770005e-02 6.58064283225114e-04
4.06428571428571e+00 4.74570796645798e-02 6.53820632921727e-04
4.07857142857143e+00 4.70681039877706e-02 6.49600335649215e-04
4.09285714285714e+00 4.66823164981200e-02 6.45403320536666e-04
4.10714285714286e+00 4.62996910650033e-02 6.41229515510956e-04
4.12142857142857e+00 4.59202017710311e-02 6.37078848867952e-04
4.13571428571429e+00 4.55438229103520e-02 6.32951247012335e-04
4.15000000000000e+00 4.51705289896057e-02 6.28846635980757e-04
4.16428571428571e+00 4.48002947226079e-02 6.24764941128392e-04
4.17857142857143e+00 4.44330950321868e-02 6.20706087099496e-04
4.19285714285714e+00 4.40689050449737e-02 6.16669997901238e-04
4.20714285714286e+00 4.37077000931909e-02 6.12656596527022e-04
4.22142857142857e+00 4.33494557103801e-02 6.08665806420358e-04
4.23571428571429e+00 4.29941476297981e-02 6.04697549365432e-04
4.25000000000000e+00 4.26417517852569e-02 6.00751746906373e-04
4.26428571428571e+00 4.22922443061857e-02 5.96828320053450e-04
4.27857142857143e+00 4.19456015192862e-02 5.92927189254371e-04
4.29285714285714e+00 4.16017999436919e-02 5.89048274461649e-04
4.30714285714286e+00 4.12608162925800e-02 5.85191494780017e-04
4.32142857142857e+00 4.09226274691958e-02 5.81356769830839e-04
4.33571428571429e+00 4.05872105653369e-02 5.77544017782703e-04
4.35000000000000e+00 4.02545428620924e-02 5.73753156674435e-04
4.36428571428571e+00 3.99246018252530e-02 5.69984104139729e-04
4.37857142857143e+00 3.95973651068025e-02 5.66236777379111e-04
4.39285714285714e+00 3.92728105404188e-02 5.62511093221600e-04
4.40714285714286e+00 3.89509161429259e-02 5.58806967794530e-04
4.42142857142857e+00 3.86316601105925e-02 5.55124317795695e-04
4.43571428571429e+00 3.83150208177005e-02 5.51463058654286e-04
4.45000000000000e+00 3.80009768171931e-02 5.47823105764500e-04
4.46428571428571e+00 3.76895068364074e-02 5.44204374227361e-04
4.47857142857143e+00 3.73805897784181e-02 5.40606778823563e-04
4.49285714285714e+00 3.70742047178537e-02 5.37030234069960e-04
4.50714285714286e+00 3.67703309022045e-02 5.33474653910192e-04
