Energy (eV)          EEDF (eV^-(3/2))     First Anisotropy
3.95000000000000e-02 3.20523888989540e-01 3.73476969705783e-04
1.18500000000000e-01 3.09641134409601e-01 6.08291891964315e-04
1.97500000000000e-01 2.99127882232764e-01 7.81000612869586e-04
2.76500000000000e-01 2.88971586735927e-01 8.99523023057972e-04
3.55500000000000e-01 2.79160128161171e-01 9.88369946900857e-04
4.34500000000000e-01 2.69681798252977e-01 1.05721918590610e-03
5.13500000000000e-01 2.60525286286478e-01 1.11128091838059e-03
5.92500000000000e-01 2.51679665570095e-01 1.15381786097420e-03
6.71500000000000e-01 2.43134380406445e-01 1.18706723374985e-03
7.50500000000000e-01 2.34879233495970e-01 1.21265895481230e-03
8.29500000000000e-01 2.26904373768244e-01 1.23183299955164e-03
9.08500000000000e-01 2.19200284626449e-01 1.24556364353635e-03
9.87500000000000e-01 2.11757772590987e-01 1.25463567840526e-03
1.06650000000000e+00 2.04567956328674e-01 1.25969379977685e-03
1.14550000000000e+00 1.97622256054422e-01 1.26127604652666e-03
1.22450000000000e+00 1.90912383292776e-01 1.25983727195464e-03
1.30350000000000e+00 1.84430330987066e-01 1.25576612217810e-03
1.38250000000000e+00 1.78168363944392e-01 1.24939763621617e-03
1.46150000000000e+00 1.72119009605029e-01 1.24102280498848e-03
1.54050000000000e+00 1.66275049125232e-01 1.23089596334736e-03
1.61950000000000e+00 1.60629508762816e-01 1.21924060313975e-03
1.69850000000000e+00 1.55175651555217e-01 1.20625401286537e-03
1.77750000000000e+00 1.49906969280107e-01 1.19211102993011e-03
1.85650000000000e+00 1.44817174688973e-01 1.17696711118926e-03
1.93550000000000e+00 1.39900194004385e-01 1.16096087235781e-03
2.01450000000000e+00 1.35150159672014e-01 1.14421620828674e-03
2.09350000000000e+00 1.30561403358728e-01 1.12684407862444e-03
2.17250000000000e+00 1.26128449188435e-01 1.10894402349026e-03
2.25150000000000e+00 1.21846007207583e-01 1.09060545917776e-03
2.33050000000000e+00 1.17708967072526e-01 1.07190879303032e-03
2.40950000000000e+00 1.13712391951229e-01 1.05292638843608e-03
2.48850000000000e+00 1.09851512632024e-01 1.03372340464326e-03
2.56750000000000e+00 1.06121721832386e-01 1.01435853128549e-03
2.64650000000000e+00 1.02518568700959e-01 9.94884633764317e-04
2.72550000000000e+00 9.90377535062362e-02 9.75349322698771e-04
2.80450000000000e+00 9.56751225055900e-02 9.55795458325926e-04
2.88350000000000e+00 9.24266629885064e-02 9.36261598881018e-04
2.96250000000000e+00 8.92884984881186e-02 9.16782400493220e-04
3.04150000000000e+00 8.62568841553239e-02 8.97388974925215e-04
3.12050000000000e+00 8.33282022899625e-02 8.78109210499922e-04
3.19950000000000e+00 8.04989580237272e-02 8.58968060750065e-04
3.27850000000000e+00 7.77657751496503e-02 8.39987804659824e-04
3.35750000000000e+00 7.51253920931926e-02 8.21188281814702e-04
3.43650000000000e+00 7.25746580201266e-02 8.02587105314731e-04
3.51550000000000e+00 7.01105290765676e-02 7.84199854919166e-04
3.59450000000000e+00 6.77300647566683e-02 7.66040252565061e-04
3.67350000000000e+00 6.54304243936404e-02 7.48120322126374e-04
3.75250000000000e+00 6.32088637699168e-02 7.30450535045840e-04
3.83150000000000e+00 6.10627318424094e-02 7.13039943271754e-04
3.91050000000000e+00 5.89894675789535e-02 6.95896300760332e-04
3.98950000000000e+00 5.69865969021654e-02 6.79026174656763e-04
4.06850000000000e+00 5.50517297370647e-02 6.62435047140775e-04
4.14750000000000e+00 5.31825571589387e-02 6.46127408812059e-04
4.22650000000000e+00 5.13768486380459e-02 6.30106844395094e-04
4.30550000000000e+00 4.96324493778695e-02 6.14376111459147e-04
4.38450000000000e+00 4.79472777437460e-02 5.98937212776059e-04
4.46350000000000e+00 4.63193227787985e-02 5.83791462874237e-04
4.54250000000000e+00 4.47466418042132e-02 5.68939549290753e-04
4.62150000000000e+00 4.32273581009920e-02 5.54381588973632e-04
4.70050000000000e+00 4.17596586704179e-02 5.40117180242250e-04
4.77950000000000e+00 4.03417920705590e-02 5.26145450674784e-04
4.85850000000000e+00 3.89720663262291e-02 5.12465101256812e-04
4.93750000000000e+00 3.76488469099126e-02 4.99074447094244e-04
5.01650000000000e+00 3.63705547912420e-02 4.85971454966141e-04
5.09550000000000e+00 3.51356645527025e-02 4.73153777968194e-04
5.17450000000000e+00 3.39427025693131e-02 4.60618787475521e-04
5.25350000000000e+00 3.27902452501141e-02 4.48363602633488e-04
5.33250000000000e+00 3.16769173393605e-02 4.36385117567304e-04
5.41150000000000e+00 3.06013902753955e-02 4.24680026485051e-04
5.49050000000000e+00 2.95623806052454e-02 4.13244846834128e-04
5.56950000000000e+00 2.85586484530430e-02 4.02075940657921e-04
5.64850000000000e+00 2.75889960404535e-02 3.91169534287521e-04
5.72750000000000e+00 2.66522662573360e-02 3.80521736492423e-04
5.80650000000000e+00 2.57473412809354e-02 3.70128555204352e-04
5.88550000000000e+00 2.48731412419569e-02 3.59985912919224e-04
5.96450000000000e+00 2.40286229359315e-02 3.50089660874189e-04
6.04350000000000e+00 2.32127785783339e-02 3.40435592089138e-04
6.12250000000000e+00 2.24246346019690e-02 3.31019453355256e-04
6.20150000000000e+00 2.16632504951900e-02 3.21836956246956e-04
6.28050000000000e+00 2.09277176795622e-02 3.12883787227737e-04
6.35950000000000e+00 2.02171584256345e-02 3.04155616915328e-04
6.43850000000000e+00 1.95307248055228e-02 2.95648108566620e-04
6.51750000000000e+00 1.88675976810570e-02 2.87356925838445e-04
6.59650000000000e+00 1.82269857262831e-02 2.79277739876185e-04
6.67550000000000e+00 1.76081244831544e-02 2.71406235778481e-04
6.75450000000000e+00 1.70102754492851e-02 2.63738118482767e-04
6.83350000000000e+00 1.64327251966767e-02 2.56269118113220e-04
6.91250000000000e+00 1.58747845203671e-02 2.48994994829777e-04
6.99150000000000e+00 1.53357876159856e-02 2.41911543214083e-04
7.07050000000000e+00 1.48150912852313e-02 2.35014596225779e-04
7.14950000000000e+00 1.43120741683297e-02 2.28300028760179e-04
7.22850000000000e+00 1.38261360025478e-02 2.21763760836209e-04
7.30750000000000e+00 1.33566969058866e-02 2.15401760441515e-04
7.38650000000000e+00 1.29031966850932e-02 2.09210046059775e-04
7.46550000000000e+00 1.24650941671680e-02 2.03184688903517e-04
7.54450000000000e+00 1.20418665535706e-02 1.97321814874165e-04
7.62350000000000e+00 1.16330087963505e-02 1.91617606269554e-04
7.70250000000000e+00 1.12380329954612e-02 1.86068303257745e-04
7.78150000000000e+00 1.08564678165373e-02 1.80670205134720e-04
7.86050000000000e+00 1.04878579284394e-02 1.75419671382333e-04
7.93950000000000e+00 1.01317634598959e-02 1.70313122541775e-04
8.01850000000000e+00 9.78775947459432e-03 1.65347040916776e-04
8.09750000000000e+00 9.45543546409394e-03 1.60517971119819e-04
8.17650000000000e+00 9.13439485795610e-03 1.55822520473741e-04
8.25550000000000e+00 8.82425455050685e-03 1.51257359280225e-04
8.33450000000000e+00 8.52464444366755e-03 1.46819220965957e-04
8.41350000000000e+00 8.23520700530765e-03 1.42504902116454e-04
8.49250000000000e+00 7.95559684259286e-03 1.38311262406910e-04
8.57150000000000e+00 7.68548028981925e-03 1.34235224438765e-04
8.65050000000000e+00 7.42453501024185e-03 1.30273773490111e-04
8.72950000000000e+00 7.17244961142220e-03 1.26423957187504e-04
8.80850000000000e+00 6.92892327363605e-03 1.22682885106203e-04
8.88750000000000e+00 6.69366539089783e-03 1.19047728305428e-04
8.96650000000000e+00 6.46639522417330e-03 1.15515718804727e-04
9.04550000000000e+00 6.24684156636677e-03 1.12084149007138e-04
9.12450000000000e+00 6.03474241868298e-03 1.08750371074460e-04
9.20350000000000e+00 5.82984467797746e-03 1.05511796259540e-04
9.28250000000000e+00 5.63190383472232e-03 1.02365894200160e-04
9.36150000000000e+00 5.44068368122699e-03 9.93101921787885e-05
9.44050000000000e+00 5.25595602976575e-03 9.63422743521501e-05
9.51950000000000e+00 5.07750044027573e-03 9.34597809542869e-05
9.59850000000000e+00 4.90510395730027e-03 9.06604074765229e-05
9.67750000000000e+00 4.73856085586399e-03 8.79419038274989e-05
9.75650000000000e+00 4.57767239597608e-03 8.53020734762094e-05
9.83550000000000e+00 4.42224658546896e-03 8.27387725807597e-05
9.91450000000000e+00 4.27209795088928e-03 8.02499091053588e-05
9.99350000000000e+00 4.12704731616792e-03 7.78334419278791e-05
1.00725000000000e+01 3.98692158880471e-03 7.54873799401248e-05
1.01515000000000e+01 3.85155355331291e-03 7.32097811428040e-05
1.02305000000000e+01 3.72078167167684e-03 7.09987517370305e-05
1.03095000000000e+01 3.59444989058461e-03 6.88524452140415e-05
1.03885000000000e+01 3.47240745520578e-03 6.67690614446838e-05
1.04675000000000e+01 3.35450872929198e-03 6.47468457700931e-05
1.05465000000000e+01 3.24061302138555e-03 6.27840880948771e-05
1.06255000000000e+01 3.13058441692894e-03 6.08791219839935e-05
1.07045000000000e+01 3.02429161607454e-03 5.90303237644205e-05
1.07835000000000e+01 2.92160777700132e-03 5.72361116326171e-05
1.08625000000000e+01 2.82241036455138e-03 5.54949447686841e-05
1.09415000000000e+01 2.72658100400568e-03 5.38053224580449e-05
1.10205000000000e+01 2.63400533982459e-03 5.21657832213955e-05
1.10995000000000e+01 2.54457289918463e-03 5.05749039535969e-05
1.11785000000000e+01 2.45817696014847e-03 4.90312990721145e-05
1.12575000000000e+01 2.37471442431108e-03 4.75336196755479e-05
1.13365000000000e+01 2.29408569376977e-03 4.60805527127320e-05
1.14155000000000e+01 2.21619455227166e-03 4.46708201628362e-05
1.14945000000000e+01 2.14094805039637e-03 4.33031782268435e-05
1.15735000000000e+01 2.06825639463721e-03 4.19764165307330e-05
1.16525000000000e+01 1.99803284024839e-03 4.06893573406517e-05
1.17315000000000e+01 1.93019358773036e-03 3.94408547903243e-05
1.18105000000000e+01 1.86465768282979e-03 3.82297941209031e-05
1.18895000000000e+01 1.80134691993489e-03 3.70550909334250e-05
1.19685000000000e+01 1.74018574875071e-03 3.59156904540194e-05
1.20475000000000e+01 1.68110118414310e-03 3.48105668119713e-05
1.21265000000000e+01 1.62402271904376e-03 3.37387223307184e-05
1.22055000000000e+01 1.56888224031242e-03 3.26991868318372e-05
1.22845000000000e+01 1.51561394745574e-03 3.16910169520455e-05
1.23635000000000e+01 1.46415427410596e-03 3.07132954732297e-05
1.24425000000000e+01 1.41444181216560e-03 2.97651306654843e-05
1.25215000000000e+01 1.36641723852764e-03 2.88456556431319e-05
1.26005000000000e+01 1.32002324428381e-03 2.79540277336729e-05
1.26795000000000e+01 1.27520446633644e-03 2.70894278596035e-05
1.27585000000000e+01 1.23190742133233e-03 2.62510599330221e-05
1.28375000000000e+01 1.19008044183973e-03 2.54381502629314e-05
1.29165000000000e+01 1.14967361469233e-03 2.46499469751335e-05
1.29955000000000e+01 1.11063872142664e-03 2.38857194446034e-05
1.30745000000000e+01 1.07292918074172e-03 2.31447577402165e-05
1.31535000000000e+01 1.03649999291252e-03 2.24263720816983e-05
1.32325000000000e+01 1.00130768609068e-03 2.17298923086526e-05
1.33115000000000e+01 9.67310264428428e-04 2.10546673615232e-05
1.33905000000000e+01 9.34467157963926e-04 2.04000647743325e-05
1.34695000000000e+01 9.02739174208141e-04 1.97654701790403e-05
1.35485000000000e+01 8.72088451375470e-04 1.91502868213545e-05
1.36275000000000e+01 8.42478413202340e-04 1.85539350878271e-05
1.37065000000000e+01 8.13873725299851e-04 1.79758520440623e-05
1.37855000000000e+01 7.86240252988381e-04 1.74154909838614e-05
1.38645000000000e+01 7.59545020563826e-04 1.68723209891254e-05
1.39435000000000e+01 7.33756171946883e-04 1.63458265003364e-05
1.40225000000000e+01 7.08842932668401e-04 1.58355068974342e-05
1.41015000000000e+01 6.84775573145451e-04 1.53408760909053e-05
1.41805000000000e+01 6.61525373204282e-04 1.48614621229003e-05
1.42595000000000e+01 6.39064587807825e-04 1.43968067781948e-05
1.43385000000000e+01 6.17366413946858e-04 1.39464652048082e-05
1.44175000000000e+01 5.96404958655318e-04 1.35100055440963e-05
1.44965000000000e+01 5.76155208111580e-04 1.30870085701318e-05
1.45755000000000e+01 5.56592997788848e-04 1.26770673381894e-05
1.46545000000000e+01 5.37694983619033e-04 1.22797868421527e-05
1.47335000000000e+01 5.19438614135697e-04 1.18947836806585e-05
1.48125000000000e+01 5.01802103562833e-04 1.15216857317996e-05
1.48915000000000e+01 4.84764405817359e-04 1.11601318362050e-05
1.49705000000000e+01 4.68305189394314e-04 1.08097714883198e-05
1.50495000000000e+01 4.52404813104764e-04 1.04702645357083e-05
1.51285000000000e+01 4.37044302637492e-04 1.01412808862048e-05
1.52075000000000e+01 4.22205327916482e-04 9.82250022274044e-06
1.52865000000000e+01 4.07870181227188e-04 9.51361172567458e-06
1.53655000000000e+01 3.94021756085483e-04 9.21431380246205e-06
1.54445000000000e+01 3.80643526824066e-04 8.92431382449029e-06
1.55235000000000e+01 3.67719528871978e-04 8.64332787092168e-06
1.56025000000000e+01 3.55234339703687e-04 8.37108047937954e-06
1.56815000000000e+01 3.43173060435004e-04 8.10730440331844e-06
1.57605000000000e+01 3.31521298043880e-04 7.85174037592156e-06
1.58395000000000e+01 3.20265148194857e-04 7.60413688037136e-06
1.59185000000000e+01 3.09391178646680e-04 7.36424992634075e-06
1.59975000000000e+01 2.98886413223277e-04 7.13184283255589e-06
1.60765000000000e+01 2.88738316328963e-04 6.90668601528398e-06
1.61555000000000e+01 2.78934777989404e-04 6.68855678260134e-06
1.62345000000000e+01 2.69464099400491e-04 6.47723913430065e-06
1.63135000000000e+01 2.60314978967864e-04 6.27252356729837e-06
1.63925000000000e+01 2.51476498820444e-04 6.07420688640552e-06
1.64715000000000e+01 2.42938111781865e-04 5.88209202032885e-06
1.65505000000000e+01 2.34689628784270e-04 5.69598784277050e-06
1.66295000000000e+01 2.26721206709445e-04 5.51570899849802e-06
1.67085000000000e+01 2.19023336642783e-04 5.34107573425890e-06
1.67875000000000e+01 2.11586832526061e-04 5.17191373441609e-06
1.68665000000000e+01 2.04402820195491e-04 5.00805396118379e-06
1.69455000000000e+01 1.97462726791963e-04 4.84933249934491e-06
1.70245000000000e+01 1.90758270530836e-04 4.69559040533489e-06
1.71035000000000e+01 1.84281450819086e-04 4.54667356057853e-06
1.71825000000000e+01 1.78024538707995e-04 4.40243252896867e-06
1.72615000000000e+01 1.71980067670013e-04 4.26272241837875e-06
1.73405000000000e+01 1.66140824688759e-04 4.12740274610317e-06
1.74195000000000e+01 1.60499841651556e-04 3.99633730812159e-06
1.74985000000000e+01 1.55050387034208e-04 3.86939405208650e-06
1.75775000000000e+01 1.49785957868106e-04 3.74644495393471e-06
1.76565000000000e+01 1.44700271980077e-04 3.62736589802616e-06
1.77355000000000e+01 1.39787260495709e-04 3.51203656071563e-06
1.78145000000000e+01 1.35041060597216e-04 3.40034029726538e-06
1.78935000000000e+01 1.30456008527191e-04 3.29216403200852e-06
1.79725000000000e+01 1.26026632829907e-04 3.18739815167541e-06
1.80515000000000e+01 1.21747647822092e-04 3.08593640179711e-06
1.81305000000000e+01 1.17613947285391e-04 2.98767578610222e-06
1.82095000000000e+01 1.13620598372996e-04 2.89251646882571e-06
1.82885000000000e+01 1.09762835723150e-04 2.80036167984979e-06
1.83675000000000e+01 1.06036055772529e-04 2.71111762259923e-06
1.84465000000000e+01 1.02435811262697e-04 2.62469338461537e-06
1.85255000000000e+01 9.89578059330768e-05 2.54100085073478e-06
1.86045000000000e+01 9.55978893941223e-05 2.45995461880077e-06
1.86835000000000e+01 9.23520521745533e-05 2.38147191783721e-06
1.87625000000000e+01 8.92164209367556e-05 2.30547252861643e-06
1.88415000000000e+01 8.61872538546312e-05 2.23187870655454e-06
1.89205000000000e+01 8.32609361483848e-05 2.16061510686880e-06
1.89995000000000e+01 8.04339757709186e-05 2.09160871193386e-06
1.90785000000000e+01 7.77029992406856e-05 2.02478876077547e-06
1.91575000000000e+01 7.50647476160314e-05 1.96008668064101e-06
1.92365000000000e+01 7.25160726062184e-05 1.89743602058872e-06
1.93155000000000e+01 7.00539328144930e-05 1.83677238703821e-06
1.93945000000000e+01 6.76753901087118e-05 1.77803338122703e-06
1.94735000000000e+01 6.53776061151960e-05 1.72115853851918e-06
1.95525000000000e+01 6.31578388316301e-05 1.66608926951264e-06
1.96315000000000e+01 6.10134393549629e-05 1.61276880289516e-06
1.97105000000000e+01 5.89418487204062e-05 1.56114212999791e-06
1.97895000000000e+01 5.69405948477588e-05 1.51115595099876e-06
1.98685000000000e+01 5.50072895914127e-05 1.46275862272779e-06
1.99475000000000e+01 5.31396258905194e-05 1.41590010802924e-06
2.00265000000000e+01 5.13353750159177e-05 1.37053192663482e-06
2.01055000000000e+01 4.95923839105362e-05 1.32660710750520e-06
2.01845000000000e+01 4.79085726200971e-05 1.28408014259715e-06
2.02635000000000e+01 4.62819318110553e-05 1.24290694201507e-06
2.03425000000000e+01 4.47105203728116e-05 1.20304479050704e-06
2.04215000000000e+01 4.31924631013370e-05 1.16445230526625e-06
2.05005000000000e+01 4.17259484614458e-05 1.12708939499996e-06
2.05795000000000e+01 4.03092264250459e-05 1.09091722022905e-06
2.06585000000000e+01 3.89406063827869e-05 1.05589815478254e-06
2.07375000000000e+01 3.76184551266149e-05 1.02199574845191e-06
2.08165000000000e+01 3.63411949008241e-05 9.89174690771650e-07
2.08955000000000e+01 3.51073015192830e-05 9.57400775892823e-07
2.09745000000000e+01 3.39153025465847e-05 9.26640868517843e-07
2.10535000000000e+01 3.27637755409538e-05 8.96862870865142e-07
2.11325000000000e+01 3.16513463568115e-05 8.68035690633578e-07
2.12115000000000e+01 3.05766875049736e-05 8.40129209937253e-07
2.12905000000000e+01 2.95385165685254e-05 8.13114255181967e-07
2.13695000000000e+01 2.85355946724812e-05 7.86962567855653e-07
2.14485000000000e+01 2.75667250054049e-05 7.61646776205814e-07
2.15275000000000e+01 2.66307513912252e-05 7.37140367777693e-07
2.16065000000000e+01 2.57265569095420e-05 7.13417662787718e-07
2.16855000000000e+01 2.48530625627778e-05 6.90453788307407e-07
2.17645000000000e+01 2.40092259885835e-05 6.68224653233794e-07
2.18435000000000e+01 2.31940402159614e-05 6.46706924022934e-07
2.19225000000000e+01 2.24065324636220e-05 6.25878001163757e-07
2.20015000000000e+01 2.16457629791403e-05 6.05715996370360e-07
2.20805000000000e+01 2.09108239175255e-05 5.86199710471136e-07
2.21595000000000e+01 2.02008382578679e-05 5.67308611974072e-07
2.22385000000000e+01 1.95149587567676e-05 5.49022816288051e-07
2.23175000000000e+01 1.88523669372983e-05 5.31323065580376e-07
2.23965000000000e+01 1.82122721122988e-05 5.14190709251606e-07
2.24755000000000e+01 1.75939104408260e-05 4.97607685009196e-07
2.25545000000000e+01 1.69965440166452e-05 4.81556500521905e-07
2.26335000000000e+01 1.64194599876680e-05 4.66020215637563e-07
2.27125000000000e+01 1.58619697052887e-05 4.50982425147321e-07
2.27915000000000e+01 1.53234079026024e-05 4.36427242079853e-07
2.28705000000000e+01 1.48031319005261e-05 4.22339281509617e-07
2.29495000000000e+01 1.43005208408737e-05 4.08703644863639e-07
2.30285000000000e+01 1.38149749454704e-05 3.95505904711798e-07
2.31075000000000e+01 1.33459148004231e-05 3.82732090026017e-07
2.31865000000000e+01 1.28927806646911e-05 3.70368671894168e-07
2.32655000000000e+01 1.24550318021334e-05 3.58402549674937e-07
2.33445000000000e+01 1.20321458362350e-05 3.46821037580315e-07
2.34235000000000e+01 1.16236181267422e-05 3.35611851672752e-07
2.35025000000000e+01 1.12289611674625e-05 3.24763097264355e-07
2.35815000000000e+01 1.08477040045122e-05 3.14263256705998e-07
2.36605000000000e+01 1.04793916743147e-05 3.04101177554462e-07
2.37395000000000e+01 1.01235846606818e-05 2.94266061106064e-07
2.38185000000000e+01 9.77985837032793e-06 2.84747451285707e-07
2.38975000000000e+01 9.44780262619268e-06 2.75535223880486e-07
2.39765000000000e+01 9.12702117796624e-06 2.66619576107353e-07
2.40555000000000e+01 8.81713122923418e-06 2.57991016504624e-07
2.41345000000000e+01 8.51776298067709e-06 2.49640355137496e-07
2.42135000000000e+01 8.22855918877990e-06 2.41558694107950e-07
2.42925000000000e+01 7.94917473952436e-06 2.33737418359736e-07
2.43715000000000e+01 7.67927623655603e-06 2.26168186769424e-07
2.44505000000000e+01 7.41854160333411e-06 2.18842923514749e-07
2.45295000000000e+01 7.16665969878964e-06 2.11753809711775e-07
2.46085000000000e+01 6.92332994603312e-06 2.04893275312624e-07
2.46875000000000e+01 6.68826197366874e-06 1.98253991255771e-07
2.47665000000000e+01 6.46117526928699e-06 1.91828861861167e-07
2.48455000000000e+01 6.24179884472233e-06 1.85611017462660e-07
2.49245000000000e+01 6.02987091267628e-06 1.79593807270420e-07
