Energy (eV)          EEDF (eV^-(3/2))     First Anisotropy
2.29545454545455e-02 2.24847640376366e-01 1.78764437303210e-04
6.88636363636364e-02 2.21334896995764e-01 2.93872989640067e-04
1.14772727272727e-01 2.17877032403583e-01 3.84469887486584e-04
1.60681818181818e-01 2.14473189231497e-01 4.51218140823321e-04
2.06590909090909e-01 2.11122523525482e-01 5.05192752810021e-04
2.52500000000000e-01 2.07824204505748e-01 5.50637681515215e-04
2.98409090909091e-01 2.04577414383737e-01 5.89777311001247e-04
3.44318181818182e-01 2.01381348121491e-01 6.23971528560401e-04
3.90227272727273e-01 1.98235213272085e-01 6.54133130314718e-04
4.36136363636364e-01 1.95138229768697e-01 6.80914870057318e-04
4.82045454545454e-01 1.92089629731243e-01 7.04805503800450e-04
5.27954545454545e-01 1.89088657276008e-01 7.26184020236480e-04
5.73863636363636e-01 1.86134568328182e-01 7.45352496501631e-04
6.19772727272727e-01 1.83226630437525e-01 7.62557120688331e-04
6.65681818181818e-01 1.80364122596678e-01 7.78002243125967e-04
7.11590909090909e-01 1.77546335062397e-01 7.91860110275149e-04
7.57500000000000e-01 1.74772569179585e-01 8.04277812297796e-04
8.03409090909091e-01 1.72042137211526e-01 8.15382370620849e-04
8.49318181818182e-01 1.69354362158706e-01 8.25284544026425e-04
8.95227272727273e-01 1.66708577601919e-01 8.34081731484278e-04
9.41136363636364e-01 1.64104127533267e-01 8.41860224753400e-04
9.87045454545454e-01 1.61540366193508e-01 8.48696980662212e-04
1.03295454545455e+00 1.59016657911943e-01 8.54661034822087e-04
1.07886363636364e+00 1.56532376951052e-01 8.59814643338632e-04
1.12477272727273e+00 1.54086907346573e-01 8.64214214043781e-04
1.17068181818182e+00 1.51679642757344e-01 8.67911073384126e-04
1.21659090909091e+00 1.49309986314953e-01 8.70952104502881e-04
1.26250000000000e+00 1.46977350475749e-01 8.73380283492205e-04
1.30840909090909e+00 1.44681156857621e-01 8.75235125888546e-04
1.35431818181818e+00 1.42420836150428e-01 8.76553073958050e-04
1.40022727272727e+00 1.40195827919684e-01 8.77367828655680e-04
1.44613636363636e+00 1.38005580486461e-01 8.77710627255585e-04
1.49204545454545e+00 1.35849550790604e-01 8.77610490002925e-04
1.53795454545455e+00 1.33727204256077e-01 8.77094433215557e-04
1.58386363636364e+00 1.31638014658363e-01 8.76187655613835e-04
1.62977272727273e+00 1.29581463994103e-01 8.74913702008537e-04
1.67568181818182e+00 1.27557042352595e-01 8.73294607714917e-04
1.72159090909091e+00 1.25564247789364e-01 8.71351026447495e-04
1.76750000000000e+00 1.23602586201705e-01 8.69102345195713e-04
1.81340909090909e+00 1.21671571195584e-01 8.66566782150142e-04
1.85931818181818e+00 1.19770723997436e-01 8.63761479937401e-04
1.90522727272727e+00 1.17899573302396e-01 8.60702589638291e-04
1.95113636363636e+00 1.16057655168692e-01 8.57405340574696e-04
1.99704545454545e+00 1.14244512902614e-01 8.53884107967578e-04
2.04295454545455e+00 1.12459696945281e-01 8.50152473093314e-04
2.08886363636364e+00 1.10702764761147e-01 8.46223277912429e-04
2.13477272727273e+00 1.08973280728330e-01 8.42108674815414e-04
2.18068181818182e+00 1.07270816030576e-01 8.37820172029185e-04
2.22659090909091e+00 1.05594948550929e-01 8.33368675140400e-04
2.27250000000000e+00 1.03945262767076e-01 8.28764526023075e-04
2.31840909090909e+00 1.02321349641369e-01 8.24017535177248e-04
2.36431818181818e+00 1.00722806540620e-01 8.19137015679894e-04
2.41022727272727e+00 9.91492371146712e-02 8.14131814660371e-04
2.45613636363636e+00 9.76002512054537e-02 8.09010337953432e-04
2.50204545454545e+00 9.60754647502531e-02 8.03780576383812e-04
2.54795454545455e+00 9.45744996864814e-02 7.98450129264702e-04
2.59386363636364e+00 9.30969838579254e-02 7.93026226203380e-04
2.63977272727273e+00 9.16425509225006e-02 7.87515747375009e-04
2.68568181818182e+00 9.02108402614034e-02 7.81925242399770e-04
2.73159090909091e+00 8.88014968896975e-02 7.76260947934486e-04
2.77750000000000e+00 8.74141713682971e-02 7.70528804751773e-04
2.82340909090909e+00 8.60485197125340e-02 7.64734471091874e-04
2.86931818181818e+00 8.47042033214787e-02 7.58883338373329e-04
2.91522727272727e+00 8.33808888791291e-02 7.52980546025863e-04
2.96113636363636e+00 8.20782482768048e-02 7.47030992020423e-04
3.00704545454545e+00 8.07959585317941e-02 7.41039345426273e-04
3.05295454545455e+00 7.95337017072718e-02 7.35010057550216e-04
3.09886363636364e+00 7.82911648334607e-02 7.28947372413512e-04
3.14477272727273e+00 7.70680398300490e-02 7.22855336620988e-04
3.19068181818182e+00 7.58640234297946e-02 7.16737808666528e-04
3.23659090909091e+00 7.46788171033313e-02 7.10598467708968e-04
3.28250000000000e+00 7.35121269851503e-02 7.04440822368581e-04
3.32840909090909e+00 7.23636637973233e-02 6.98268217014851e-04
3.37431818181818e+00 7.12331427881799e-02 6.92083840216800e-04
3.42022727272727e+00 7.01202836511368e-02 6.85890732821726e-04
3.46613636363636e+00 6.90248104587781e-02 6.79691792981306e-04
3.51204545454545e+00 6.79464515944395e-02 6.73489782995194e-04
3.55795454545455e+00 6.68849396848629e-02 6.67287335285285e-04
3.60386363636364e+00 6.58400115338976e-02 6.61086958064274e-04
3.64977272727273e+00 6.48114080572522e-02 6.54891040721475e-04
3.69568181818182e+00 6.37988742182510e-02 6.48701858943193e-04
3.74159090909091e+00 6.28021589645987e-02 6.42521579579699e-04
3.78750000000000e+00 6.18210151661334e-02 6.36352265675360e-04
3.83340909090909e+00 6.08551995510613e-02 6.30195879668575e-04
3.87931818181818e+00 5.99044726532222e-02 6.24054288407475e-04
3.92522727272727e+00 5.89685987450166e-02 6.17929267988528e-04
3.97113636363636e+00 5.80473457815638e-02 6.11822506308627e-04
4.01704545454545e+00 5.71404853431683e-02 6.05735607134624e-04
4.06295454545455e+00 5.62477925786837e-02 5.99670093579945e-04
4.10886363636364e+00 5.53690461497590e-02 5.93627411422833e-04
4.15477272727273e+00 5.45040281759661e-02 5.87608932277160e-04
4.20068181818182e+00 5.36525241807731e-02 5.81615956623910e-04
4.24659090909091e+00 5.28143230383668e-02 5.75649716707824e-04
4.29250000000000e+00 5.19892169213048e-02 5.69711379623048e-04
4.33840909090909e+00 5.11770012471361e-02 5.63802049008523e-04
4.38431818181818e+00 5.03774746333048e-02 5.57922768229068e-04
4.43022727272727e+00 4.95904388415075e-02 5.52074523465099e-04
4.47613636363636e+00 4.88156987304727e-02 5.46258245040322e-04
4.52204545454545e+00 4.80530622075771e-02 5.40474809989102e-04
4.56795454545454e+00 4.73023401812168e-02 5.34725044193874e-04
4.61386363636364e+00 4.65633465139212e-02 5.29009724433169e-04
4.65977272727273e+00 4.58358979762054e-02 5.23329580346445e-04
4.70568181818182e+00 4.51198142011374e-02 5.17685296319598e-04
4.75159090909091e+00 4.44149176396170e-02 5.12077513292972e-04
4.79750000000000e+00 4.37210335163531e-02 5.06506830747363e-04
4.84340909090909e+00 4.30379897851371e-02 5.00973807609783e-04
4.88931818181818e+00 4.23656170904207e-02 4.95478964365023e-04
4.93522727272727e+00 4.17037487210288e-02 4.90022785117472e-04
4.98113636363636e+00 4.10522205702775e-02 4.84605718272383e-04
5.02704545454545e+00 4.04108710952841e-02 4.79228178222739e-04
5.07295454545454e+00 3.97795412769140e-02 4.73890546712828e-04
5.11886363636364e+00 3.91580745803508e-02 4.68593174148201e-04
5.16477272727273e+00 3.85463169162879e-02 4.63336380855604e-04
5.21068181818182e+00 3.79441166027208e-02 4.58120458295208e-04
5.25659090909091e+00 3.73513243273386e-02 4.52945670225603e-04
5.30250000000000e+00 3.67677931105028e-02 4.47812254025101e-04
5.34840909090909e+00 3.61933782677442e-02 4.42720421161885e-04
5.39431818181818e+00 3.56279373771133e-02 4.37670358640872e-04
5.44022727272727e+00 3.50713302405988e-02 4.32662230422675e-04
5.48613636363636e+00 3.45234188504711e-02 4.27696177749041e-04
5.53204545454545e+00 3.39840673550641e-02 4.22772320282906e-04
5.57795454545454e+00 3.34531420250913e-02 4.17890756999566e-04
5.62386363636364e+00 3.29305112204877e-02 4.13051567044147e-04
5.66977272727273e+00 3.24160453577721e-02 4.08254810557811e-04
5.71568181818182e+00 3.19096168779168e-02 4.03500529473831e-04
5.76159090909091e+00 3.14111002147195e-02 3.98788748283772e-04
5.80750000000000e+00 3.09203717636704e-02 3.94119474936745e-04
5.85340909090909e+00 3.04373098504907e-02 3.89492701061686e-04
5.89931818181818e+00 2.99617947034393e-02 3.84908402981253e-04
5.94522727272727e+00 2.94937084211074e-02 3.80366542709779e-04
5.99113636363636e+00 2.90329349440333e-02 3.75867068078502e-04
6.03704545454545e+00 2.85793600259254e-02 3.71409913521031e-04
6.08295454545455e+00 2.81328712053366e-02 3.66995000664307e-04
6.12886363636364e+00 2.76933577777782e-02 3.62622238897704e-04
6.17477272727273e+00 2.72607107682736e-02 3.58291525921800e-04
6.22068181818182e+00 2.68348229043374e-02 3.54002748277640e-04
6.26659090909091e+00 2.64155885893781e-02 3.49755781856418e-04
6.31250000000000e+00 2.60029038765156e-02 3.45550492520818e-04
6.35840909090909e+00 2.55966664421778e-02 3.41386736184378e-04
6.40431818181818e+00 2.51967755626463e-02 3.37264359533164e-04
6.45022727272727e+00 2.48031320871409e-02 3.33183200738435e-04
6.49613636363636e+00 2.44156384138911e-02 3.29143089468881e-04
6.54204545454545e+00 2.40341984659372e-02 3.25143847438770e-04
6.58795454545455e+00 2.36587176673077e-02 3.21185288802344e-04
6.63386363636364e+00 2.32891029195696e-02 3.17267220533717e-04
6.67977272727273e+00 2.29252625787460e-02 3.13389442793322e-04
6.72568181818182e+00 2.25671064325932e-02 3.09551749281355e-04
6.77159090909091e+00 2.22145456782327e-02 3.05753927578118e-04
6.81750000000000e+00 2.18674929001333e-02 3.01995759577327e-04
6.86340909090909e+00 2.15258620479459e-02 2.98277021483285e-04
6.90931818181818e+00 2.11895684166595e-02 2.94597484330204e-04
6.95522727272727e+00 2.08585286240876e-02 2.90956914496582e-04
7.00113636363636e+00 2.05326605907048e-02 2.87355073654883e-04
7.04704545454545e+00 2.02118835192956e-02 2.83791719156953e-04
7.09295454545455e+00 1.98961178749207e-02 2.80266604297054e-04
7.13886363636364e+00 1.95852853651968e-02 2.76779478565064e-04
7.18477272727273e+00 1.92793089208854e-02 2.73330087890595e-04
7.23068181818182e+00 1.89781126767827e-02 2.69918174878334e-04
7.27659090909091e+00 1.86816219529102e-02 2.66543479034506e-04
7.32250000000000e+00 1.83897632359973e-02 2.63205737070393e-04
7.36840909090909e+00 1.81024641608704e-02 2.59904682853507e-04
7.41431818181818e+00 1.78196534936779e-02 2.56640047783939e-04
7.46022727272727e+00 1.75412611130452e-02 2.53411561168220e-04
7.50613636363636e+00 1.72672179930880e-02 2.50218950136326e-04
7.55204545454545e+00 1.69974561862978e-02 2.47061939913561e-04
7.59795454545455e+00 1.67319088066942e-02 2.43940253994460e-04
7.64386363636364e+00 1.64705100132415e-02 2.40853614309900e-04
7.68977272727273e+00 1.62131949935234e-02 2.37801741388085e-04
7.73568181818182e+00 1.59598999476735e-02 2.34784354509503e-04
7.78159090909091e+00 1.57105620725559e-02 2.31801171855775e-04
7.82750000000000e+00 1.54651195461943e-02 2.28851910722321e-04
7.87340909090909e+00 1.52235115121399e-02 2.25936287445384e-04
7.91931818181818e+00 1.49856780653027e-02 2.23054017675900e-04
7.96522727272727e+00 1.47515602361666e-02 2.20204816652332e-04
8.01113636363636e+00 1.45210999764828e-02 2.17388399102815e-04
8.05704545454545e+00 1.42942401448772e-02 2.14604479436847e-04
8.10295454545454e+00 1.40709244926824e-02 2.11852771858105e-04
8.14886363636364e+00 1.38510976499908e-02 2.09132990472623e-04
8.19477272727273e+00 1.36347051119267e-02 2.06444849392732e-04
8.24068181818182e+00 1.34216932251315e-02 2.03788062836891e-04
8.28659090909091e+00 1.32120091744608e-02 2.01162345225295e-04
8.33250000000000e+00 1.30056009698893e-02 1.98567411328207e-04
8.37840909090909e+00 1.28024174333809e-02 1.96002976182179e-04
8.42431818181818e+00 1.26024081869256e-02 1.93468755289644e-04
8.47022727272727e+00 1.24055236393133e-02 1.90964464818353e-04
8.51613636363636e+00 1.22117149740861e-02 1.88489821499290e-04
8.56204545454545e+00 1.20209341374342e-02 1.86044542761160e-04
8.60795454545454e+00 1.18331338262820e-02 1.83628346801217e-04
8.65386363636363e+00 1.16482674765587e-02 1.81240952652879e-04
8.69977272727273e+00 1.14662892516535e-02 1.78882080250429e-04
8.74568181818182e+00 1.12871540310506e-02 1.76551450490897e-04
8.79159090909091e+00 1.11108173991418e-02 1.74248785293030e-04
8.83750000000000e+00 1.09372356342137e-02 1.71973807699806e-04
8.88340909090909e+00 1.07663656974179e-02 1.69726241791918e-04
8.92931818181818e+00 1.05981652226751e-02 1.67505812833093e-04
8.97522727272727e+00 1.04325925055881e-02 1.65312247415756e-04
9.02113636363636e+00 1.02696064932978e-02 1.63145273360960e-04
9.06704545454545e+00 1.01091667743048e-02 1.61004619811878e-04
9.11295454545455e+00 9.95123356844924e-03 1.58890017275739e-04
9.15886363636364e+00 9.79576771704750e-03 1.56801197663558e-04
9.20477272727273e+00 9.64273067318331e-03 1.54737894327857e-04
9.25068181818182e+00 9.49208449215012e-03 1.52699842098475e-04
9.29659090909091e+00 9.34379182204285e-03 1.50686777316356e-04
9.34250000000000e+00 9.19781589449678e-03 1.48698437903342e-04
9.38840909090909e+00 9.05412051542009e-03 1.46734563277668e-04
9.43431818181818e+00 8.91267005647792e-03 1.44794894459424e-04
9.48022727272727e+00 8.77342944579465e-03 1.42879174176656e-04
9.52613636363636e+00 8.63636415941461e-03 1.40987146770761e-04
9.57204545454545e+00 8.50144021274201e-03 1.39118558260536e-04
9.61795454545454e+00 8.36862415211468e-03 1.37273156364326e-04
9.66386363636364e+00 8.23788304650930e-03 1.35450690520691e-04
9.70977272727273e+00 8.10918447937653e-03 1.33650911907702e-04
9.75568181818182e+00 7.98249654060339e-03 1.31873573460937e-04
9.80159090909091e+00 7.85778781860133e-03 1.30118429890116e-04
9.84750000000000e+00 7.73502739251791e-03 1.28385237725466e-04
9.89340909090909e+00 7.61418482444975e-03 1.26673755237958e-04
9.93931818181818e+00 7.49523015226113e-03 1.24983742515394e-04
9.98522727272727e+00 7.37813388178505e-03 1.23314961480754e-04
1.00311363636364e+01 7.26286697986102e-03 1.21667176011124e-04
1.00770454545455e+01 7.14940086634006e-03 1.20040151802513e-04
1.01229545454545e+01 7.03770740791994e-03 1.18433656256628e-04
1.01688636363636e+01 6.92775891081786e-03 1.16847458734531e-04
1.02147727272727e+01 6.81952811390519e-03 1.15281330469765e-04
1.02606818181818e+01 6.71298818194760e-03 1.13735044574670e-04
1.03065909090909e+01 6.60811269895137e-03 1.12208376045302e-04
1.03525000000000e+01 6.50487566161369e-03 1.10701101511556e-04
1.03984090909091e+01 6.40325147383884e-03 1.09213000011357e-04
1.04443181818182e+01 6.30321493746725e-03 1.07743852476430e-04
1.04902272727273e+01 6.20474124898692e-03 1.06293441201133e-04
1.05361363636364e+01 6.10780599238531e-03 1.04861550648312e-04
1.05820454545455e+01 6.01238513309558e-03 1.03447967178601e-04
1.06279545454545e+01 5.91845501203736e-03 1.02052479050435e-04
1.06738636363636e+01 5.82599233975006e-03 1.00674876419010e-04
1.07197727272727e+01 5.73497419061946e-03 9.93149513349186e-05
1.07656818181818e+01 5.64537799719289e-03 9.79724977424693e-05
1.08115909090909e+01 5.55718154458375e-03 9.66473114770290e-05
1.08575000000000e+01 5.47036296496343e-03 9.53391900532685e-05
1.09034090909091e+01 5.38490073291200e-03 9.40479332944971e-05
1.09493181818182e+01 5.30077365773604e-03 9.27733429041411e-05
1.09952272727273e+01 5.21796088058719e-03 9.15152220233951e-05
1.10411363636364e+01 5.13644186849001e-03 9.02733758869472e-05
1.10870454545455e+01 5.05619640925098e-03 8.90476115948219e-05
1.11329545454545e+01 4.97720460644699e-03 8.78377381066209e-05
1.11788636363636e+01 4.89944687449175e-03 8.66435662350508e-05
1.12247727272727e+01 4.82290393378043e-03 8.54649086392800e-05
1.12706818181818e+01 4.74755680590899e-03 8.43015798181519e-05
1.13165909090909e+01 4.67338680896860e-03 8.31533961027147e-05
1.13625000000000e+01 4.60037555291355e-03 8.20201754769681e-05
1.14084090909091e+01 4.52850493562250e-03 8.09017380901564e-05
1.14543181818182e+01 4.45775713652565e-03 7.97979058995418e-05
1.15002272727273e+01 4.38811461409280e-03 7.87085023018980e-05
1.15461363636364e+01 4.31956010084105e-03 7.76333526677989e-05
1.15920454545455e+01 4.25207659905333e-03 7.65722841494045e-05
1.16379545454545e+01 4.18564737656400e-03 7.55251256711542e-05
1.16838636363636e+01 4.12025596260985e-03 7.44917079199812e-05
1.17297727272727e+01 4.05588614374690e-03 7.34718633354776e-05
1.17756818181818e+01 3.99252195983004e-03 7.24654261000196e-05
1.18215909090909e+01 3.93014770005582e-03 7.14722321284211e-05
1.18675000000000e+01 3.86874789906700e-03 7.04921189163174e-05
1.19134090909091e+01 3.80830733361809e-03 6.95249259576938e-05
1.19593181818182e+01 3.74881101728332e-03 6.85704944469961e-05
1.20052272727273e+01 3.69024419827607e-03 6.76286669720218e-05
1.20511363636364e+01 3.63259235527342e-03 6.66992879497721e-05
1.20970454545455e+01 3.57584119381574e-03 6.57822034645764e-05
1.21429545454545e+01 3.51997664276242e-03 6.48772612567968e-05
1.21888636363636e+01 3.46498485080278e-03 6.39843107112115e-05
1.22347727272727e+01 3.41085218302221e-03 6.31032028454211e-05
1.22806818181818e+01 3.35756521752121e-03 6.22337902982933e-05
1.23265909090909e+01 3.30511074208753e-03 6.13759273180953e-05
1.23725000000000e+01 3.25347575092020e-03 6.05294696343290e-05
1.24184090909091e+01 3.20264744180827e-03 5.96942747983979e-05
1.24643181818182e+01 3.15261321173248e-03 5.88702019351088e-05
1.25102272727273e+01 3.10336065497867e-03 5.80571114866291e-05
1.25561363636364e+01 3.05487755964431e-03 5.72548655684266e-05
1.26020454545455e+01 3.00715190461058e-03 5.64633278329710e-05
1.26479545454545e+01 2.96017185656181e-03 5.56823634575122e-05
1.26938636363636e+01 2.91392576705131e-03 5.49118391316583e-05
1.27397727272727e+01 2.86840216961358e-03 5.41516230450228e-05
1.27856818181818e+01 2.82358977692102e-03 5.34015848749465e-05
1.28315909090909e+01 2.77947747798536e-03 5.26615957740271e-05
1.28775000000000e+01 2.73605433540274e-03 5.19315282618384e-05
1.29234090909091e+01 2.69330958296772e-03 5.12112565031550e-05
1.29693181818182e+01 2.65123262201491e-03 5.05006561005832e-05
1.30152272727273e+01 2.60981301979152e-03 4.97996038810086e-05
1.30611363636364e+01 2.56904050653324e-03 4.91079781865558e-05
1.31070454545455e+01 2.52890497291790e-03 4.84256587598467e-05
1.31529545454545e+01 2.48939646755896e-03 4.77525267315735e-05
1.31988636363636e+01 2.45050519453794e-03 4.70884646079597e-05
1.32447727272727e+01 2.41222151097585e-03 4.64333562583170e-05
1.32906818181818e+01 2.37453592464220e-03 4.57870869027044e-05
1.33365909090909e+01 2.33743909160141e-03 4.51495430994757e-05
1.33825000000000e+01 2.30092181389605e-03 4.45206126538202e-05
1.34284090909091e+01 2.26497503753000e-03 4.39001848452019e-05
1.34743181818182e+01 2.22958984942324e-03 4.32881502542503e-05
1.35202272727273e+01 2.19475747601146e-03 4.26844005845756e-05
1.35661363636364e+01 2.16046928079773e-03 4.20888289008215e-05
1.36120454545455e+01 2.12671676221111e-03 4.15013295320782e-05
1.36579545454545e+01 2.09349155149874e-03 4.09217980597343e-05
1.37038636363636e+01 2.06078541065074e-03 4.03501313052701e-05
1.37497727272727e+01 2.02859023035786e-03 3.97862273181616e-05
1.37956818181818e+01 1.99689802800074e-03 3.92299853639097e-05
1.38415909090909e+01 1.96570094567061e-03 3.86813059120064e-05
1.38875000000000e+01 1.93499124822101e-03 3.81400905587096e-05
1.39334090909091e+01 1.90476132156363e-03 3.76062422131138e-05
1.39793181818182e+01 1.87500367013187e-03 3.70796649525873e-05
1.40252272727273e+01 1.84571091567838e-03 3.65602638740489e-05
1.40711363636364e+01 1.81687579522448e-03 3.60479452888865e-05
1.41170454545455e+01 1.78849115925934e-03 3.55426166416578e-05
1.41629545454545e+01 1.76054996996725e-03 3.50441864985188e-05
1.42088636363636e+01 1.73304529948261e-03 3.45525645356400e-05
1.42547727272727e+01 1.70597032817235e-03 3.40676615277413e-05
1.43006818181818e+01 1.67931834294495e-03 3.35893893367464e-05
1.43465909090909e+01 1.65308273558598e-03 3.31176609004240e-05
1.43925000000000e+01 1.62725700111958e-03 3.26523901671963e-05
1.44384090909091e+01 1.60183473636914e-03 3.21934922484770e-05
1.44843181818182e+01 1.57680963784326e-03 3.17408832979079e-05
