Energy (eV)          EEDF (eV^-(3/2))     First Anisotropy
1.20937500000000e-02 9.41341359535628e-01 8.67580159216170e-04
3.62812500000000e-02 9.21233102897531e-01 1.42210094603086e-03
6.04687500000000e-02 9.01554384365429e-01 1.84966858487030e-03
8.46562500000000e-02 8.82296028455733e-01 2.15813683566034e-03
1.08843750000000e-01 8.63449055684694e-01 2.40220669826640e-03
1.33031250000000e-01 8.45004678381795e-01 2.60303511167096e-03
1.57218750000000e-01 8.26954296592403e-01 2.77180705434800e-03
1.81406250000000e-01 8.09289494067922e-01 2.91541607589623e-03
2.05593750000000e-01 7.92002034341598e-01 3.03852456895497e-03
2.29781250000000e-01 7.75083856888153e-01 3.14449031312568e-03
2.53968750000000e-01 7.58527073365447e-01 3.23584392047930e-03
2.78156250000000e-01 7.42323963936427e-01 3.31455937130796e-03
3.02343750000000e-01 7.26466973669644e-01 3.38221850307545e-03
3.26531250000000e-01 7.10948709016657e-01 3.44011663669348e-03
3.50718750000000e-01 6.95761934364686e-01 3.48933343463430e-03
3.74906250000000e-01 6.80899568662903e-01 3.53078217010650e-03
3.99093750000000e-01 6.66354682120790e-01 3.56524502763133e-03
4.23281250000000e-01 6.52120492977029e-01 3.59339904805635e-03
4.47468750000000e-01 6.38190364337406e-01 3.61583562051807e-03
4.71656250000000e-01 6.24557801080263e-01 3.63307540888211e-03
4.95843750000000e-01 6.11216446828058e-01 3.64557997569079e-03
5.20031250000000e-01 5.98160080983612e-01 3.65376097013374e-03
5.44218750000000e-01 5.85382615829663e-01 3.65798748776647e-03
5.68406250000000e-01 5.72878093690386e-01 3.65859203663586e-03
5.92593750000000e-01 5.60640684153539e-01 3.65587542619485e-03
6.16781250000000e-01 5.48664681351950e-01 3.65011081296728e-03
6.40968750000000e-01 5.36944501303074e-01 3.64154707847348e-03
6.65156250000000e-01 5.25474679305386e-01 3.63041167280800e-03
6.89343750000000e-01 5.14249867390377e-01 3.61691302646755e-03
7.13531250000000e-01 5.03264831828995e-01 3.60124261021275e-03
7.37718750000000e-01 4.92514450691341e-01 3.58357670563692e-03
7.61906250000000e-01 4.81993711458496e-01 3.56407793613566e-03
7.86093750000000e-01 4.71697708685363e-01 3.54289659802376e-03
8.10281250000000e-01 4.61621641713434e-01 3.52017182384788e-03
8.34468750000000e-01 4.51760812432410e-01 3.49603260393051e-03
8.58656250000000e-01 4.42110623089644e-01 3.47059868744708e-03
8.82843750000000e-01 4.32666574146374e-01 3.44398138057986e-03
9.07031250000000e-01 4.23424262179745e-01 3.41628425628640e-03
9.31218750000000e-01 4.14379377829651e-01 3.38760378780156e-03
9.55406250000000e-01 4.05527703789438e-01 3.35802991603075e-03
9.79593750000000e-01 3.96865112839518e-01 3.32764655939226e-03
1.00378125000000e+00 3.88387565923002e-01 3.29653207335519e-03
1.02796875000000e+00 3.80091110262422e-01 3.26475966583760e-03
1.05215625000000e+00 3.71971877516701e-01 3.23239777373175e-03
1.07634375000000e+00 3.64026081977480e-01 3.19951040507629e-03
1.10053125000000e+00 3.56250018803976e-01 3.16615745076907e-03
1.12471875000000e+00 3.48640062295549e-01 3.13239496918843e-03
1.14890625000000e+00 3.41192664201167e-01 3.09827544664567e-03
1.17309375000000e+00 3.33904352064982e-01 3.06384803621482e-03
1.19728125000000e+00 3.26771727607249e-01 3.02915877716481e-03
1.22146875000000e+00 3.19791465139830e-01 2.99425079694450e-03
1.24565625000000e+00 3.12960310015542e-01 2.95916449743674e-03
1.26984375000000e+00 3.06275077110635e-01 2.92393772699403e-03
1.29403125000000e+00 2.99732649339678e-01 2.88860593959428e-03
1.31821875000000e+00 2.93329976202177e-01 2.85320234230375e-03
1.34240625000000e+00 2.87064072360232e-01 2.81775803210232e-03
1.36659375000000e+00 2.80932016246586e-01 2.78230212301225e-03
1.39078125000000e+00 2.74930948702397e-01 2.74686186437056e-03
1.41496875000000e+00 2.69058071644117e-01 2.71146275099828e-03
1.43915625000000e+00 2.63310646758843e-01 2.67612862594270e-03
1.46334375000000e+00 2.57685994227546e-01 2.64088177639979e-03
1.48753125000000e+00 2.52181491475557e-01 2.60574302336540e-03
1.51171875000000e+00 2.46794571949764e-01 2.57073180551001e-03
1.53590625000000e+00 2.41522723921913e-01 2.53586625772510e-03
1.56009375000000e+00 2.36363489317482e-01 2.50116328474707e-03
1.58428125000000e+00 2.31314462569568e-01 2.46663863022769e-03
1.60846875000000e+00 2.26373289497256e-01 2.43230694158669e-03
1.63265625000000e+00 2.21537666207951e-01 2.39818183095250e-03
1.65684375000000e+00 2.16805338023153e-01 2.36427593247037e-03
1.68103125000000e+00 2.12174098427180e-01 2.33060095623306e-03
1.70521875000000e+00 2.07641788038351e-01 2.29716773906795e-03
1.72940625000000e+00 2.03206293602144e-01 2.26398629239517e-03
1.75359375000000e+00 1.98865547005855e-01 2.23106584735357e-03
1.77778125000000e+00 1.94617524314320e-01 2.19841489737556e-03
1.80196875000000e+00 1.90460244826218e-01 2.16604123837775e-03
1.82615625000000e+00 1.86391770150545e-01 2.13395200672090e-03
1.85034375000000e+00 1.82410203302811e-01 2.10215371508168e-03
1.87453125000000e+00 1.78513687820543e-01 2.07065228636692e-03
1.89871875000000e+00 1.74700406897684e-01 2.03945308579195e-03
1.92290625000000e+00 1.70968582537479e-01 2.00856095123595e-03
1.94709375000000e+00 1.67316474723462e-01 1.97798022197816e-03
1.97128125000000e+00 1.63742380608145e-01 1.94771476591204e-03
1.99546875000000e+00 1.60244633719042e-01 1.91776800532785e-03
2.01965625000000e+00 1.56821603181654e-01 1.88814294134698e-03
2.04384375000000e+00 1.53471692959050e-01 1.85884217708615e-03
2.06803125000000e+00 1.50193341107690e-01 1.82986793962458e-03
2.09221875000000e+00 1.46985019049147e-01 1.80122210084179e-03
2.11640625000000e+00 1.43845230857388e-01 1.77290619718941e-03
2.14059375000000e+00 1.40772512561276e-01 1.74492144845669e-03
2.16478125000000e+00 1.37765431461968e-01 1.71726877558455e-03
2.18896875000000e+00 1.34822585464906e-01 1.68994881758064e-03
2.21315625000000e+00 1.31942602426066e-01 1.66296194758377e-03
2.23734375000000e+00 1.29124139512177e-01 1.63630828812356e-03
2.26153125000000e+00 1.26365882574606e-01 1.60998772561797e-03
2.28571875000000e+00 1.23666545536617e-01 1.58399992414897e-03
2.30990625000000e+00 1.21024869793720e-01 1.55834433855410e-03
2.33409375000000e+00 1.18439623626827e-01 1.53302022686978e-03
2.35828125000000e+00 1.15909601627949e-01 1.50802666215934e-03
2.38246875000000e+00 1.13433624138153e-01 1.48336254375759e-03
2.40665625000000e+00 1.11010536697533e-01 1.45902660796161e-03
2.43084375000000e+00 1.08639209506922e-01 1.43501743819562e-03
2.45503125000000e+00 1.06318536901112e-01 1.41133347467636e-03
2.47921875000000e+00 1.04047436833318e-01 1.38797302360397e-03
2.50340625000000e+00 1.01824850370661e-01 1.36493426590181e-03
2.52759375000000e+00 9.96497412004229e-02 1.34221526552763e-03
2.55178125000000e+00 9.75210951468528e-02 1.31981397737690e-03
2.57596875000000e+00 9.54379196982917e-02 1.29772825479827e-03
2.60015625000000e+00 9.33992435444006e-02 1.27595585674004e-03
2.62434375000000e+00 9.14041161232731e-02 1.25449445454549e-03
2.64853125000000e+00 8.94516071782217e-02 1.23334163841369e-03
2.67271875000000e+00 8.75408063240332e-02 1.21249492354214e-03
2.69690625000000e+00 8.56708226224879e-02 1.19195175596626e-03
2.72109375000000e+00 8.38407841669470e-02 1.17170951810990e-03
2.74528125000000e+00 8.20498376758141e-02 1.15176553406082e-03
2.76946875000000e+00 8.02971480946800e-02 1.13211707458408e-03
2.79365625000000e+00 7.85818982069668e-02 1.11276136188540e-03
2.81784375000000e+00 7.69032882528889e-02 1.09369557413636e-03
2.84203125000000e+00 7.52605355565539e-02 1.07491684977250e-03
2.86621875000000e+00 7.36528741610283e-02 1.05642229157496e-03
2.89040625000000e+00 7.20795544711995e-02 1.03820897054549e-03
2.91459375000000e+00 7.05398429042661e-02 1.02027392958459e-03
2.93878125000000e+00 6.90330215476946e-02 1.00261418698175e-03
2.96296875000000e+00 6.75583878244822e-02 9.85226739726382e-04
2.98715625000000e+00 6.61152541655708e-02 9.68108566647918e-04
3.01134375000000e+00 6.47029476892572e-02 9.51256631392629e-04
3.03553125000000e+00 6.33208098874532e-02 9.34667885244763e-04
3.05971875000000e+00 6.19681963186463e-02 9.18339269799166e-04
3.08390625000000e+00 6.06444763074198e-02 9.02267719492058e-04
3.10809375000000e+00 5.93490326503913e-02 8.86450163996462e-04
3.13228125000000e+00 5.80812613284331e-02 8.70883530488534e-04
3.15646875000000e+00 5.68405712250390e-02 8.55564745790565e-04
3.18065625000000e+00 5.56263838507086e-02 8.40490738396300e-04
3.20484375000000e+00 5.44381330732175e-02 8.25658440383963e-04
3.22903125000000e+00 5.32752648536507e-02 8.11064789222021e-04
3.25321875000000e+00 5.21372369880737e-02 7.96706729472641e-04
3.27740625000000e+00 5.10235188547220e-02 7.82581214397428e-04
3.30159375000000e+00 4.99335911665917e-02 7.68685207469969e-04
3.32578125000000e+00 4.88669457293139e-02 7.55015683799311e-04
3.34996875000000e+00 4.78230852042020e-02 7.41569631468505e-04
3.37415625000000e+00 4.68015228763609e-02 7.28344052792157e-04
3.39834375000000e+00 4.58017824277483e-02 7.15335965496519e-04
3.42253125000000e+00 4.48233977150854e-02 7.02542403825767e-04
3.44671875000000e+00 4.38659125525106e-02 6.89960419577860e-04
3.47090625000000e+00 4.29288804988763e-02 6.77587083073140e-04
3.49509375000000e+00 4.20118646495895e-02 6.65419484058821e-04
3.51928125000000e+00 4.11144374328985e-02 6.53454732552302e-04
3.54346875000000e+00 4.02361804105317e-02 6.41689959626114e-04
3.56765625000000e+00 3.93766840825949e-02 6.30122318137222e-04
3.59184375000000e+00 3.85355476966357e-02 6.18748983403280e-04
3.61603125000000e+00 3.77123790607871e-02 6.07567153828225e-04
3.64021875000000e+00 3.69067943609028e-02 5.96574051479727e-04
3.66440625000000e+00 3.61184179815979e-02 5.85766922620621e-04
3.68859375000000e+00 3.53468823311129e-02 5.75143038196517e-04
3.71278125000000e+00 3.45918276699191e-02 5.64699694281719e-04
3.73696875000000e+00 3.38529019429846e-02 5.54434212485322e-04
3.76115625000000e+00 3.31297606156238e-02 5.44343940319533e-04
3.78534375000000e+00 3.24220665128530e-02 5.34426251531896e-04
3.80953125000000e+00 3.17294896621780e-02 5.24678546403186e-04
3.83371875000000e+00 3.10517071397392e-02 5.15098252012718e-04
3.85790625000000e+00 3.03884029197444e-02 5.05682822472556e-04
3.88209375000000e+00 2.97392677271169e-02 4.96429739132195e-04
3.90628125000000e+00 2.91039988932915e-02 4.87336510755171e-04
3.93046875000000e+00 2.84823002150911e-02 4.78400673668974e-04
3.95465625000000e+00 2.78738818166176e-02 4.69619791889628e-04
3.97884375000000e+00 2.72784600140934e-02 4.60991457222168e-04
4.00303125000000e+00 2.66957571835894e-02 4.52513289338311e-04
4.02721875000000e+00 2.61255016315793e-02 4.44182935832420e-04
4.05140625000000e+00 2.55674274682580e-02 4.35998072256915e-04
4.07559375000000e+00 2.50212744835675e-02 4.27956402138183e-04
4.09978125000000e+00 2.44867880258694e-02 4.20055656974041e-04
4.12396875000000e+00 2.39637188832106e-02 4.12293596213718e-04
4.14815625000000e+00 2.34518231671242e-02 4.04668007221289e-04
4.17234375000000e+00 2.29508621989133e-02 3.97176705223476e-04
4.19653125000000e+00 2.24606023983636e-02 3.89817533242654e-04
4.22071875000000e+00 2.19808151748331e-02 3.82588362015909e-04
4.24490625000000e+00 2.15112768206685e-02 3.75487089900920e-04
4.26909375000000e+00 2.10517684068988e-02 3.68511642769437e-04
4.29328125000000e+00 2.06020756811556e-02 3.61659973889049e-04
4.31746875000000e+00 2.01619889677757e-02 3.54930063793933e-04
4.34165625000000e+00 1.97313030700365e-02 3.48319920145275e-04
4.36584375000000e+00 1.93098171744800e-02 3.41827577581974e-04
4.39003125000000e+00 1.88973347572809e-02 3.35451097562216e-04
4.41421875000000e+00 1.84936634926142e-02 3.29188568196521e-04
4.43840625000000e+00 1.80986151629809e-02 3.23038104072794e-04
4.46259375000000e+00 1.77120055714489e-02 3.16997846073933e-04
4.48678125000000e+00 1.73336544557681e-02 3.11065961188448e-04
4.51096875000000e+00 1.69633854043211e-02 3.05240642314626e-04
4.53515625000000e+00 1.66010257738683e-02 2.99520108058693e-04
4.55934375000000e+00 1.62464066090509e-02 2.93902602527358e-04
4.58353125000000e+00 1.58993625636128e-02 2.88386395115217e-04
4.60771875000000e+00 1.55597318233056e-02 2.82969780287412e-04
4.63190625000000e+00 1.52273560304405e-02 2.77651077357902e-04
4.65609375000000e+00 1.49020802100516e-02 2.72428630263711e-04
4.68028125000000e+00 1.45837526976368e-02 2.67300807335521e-04
4.70446875000000e+00 1.42722250684417e-02 2.62266001064940e-04
4.72865625000000e+00 1.39673520682550e-02 2.57322627868742e-04
4.75284375000000e+00 1.36689915456810e-02 2.52469127850386e-04
4.77703125000000e+00 1.33770043858601e-02 2.47703964559131e-04
4.80121875000000e+00 1.30912544456040e-02 2.43025624746987e-04
4.82540625000000e+00 1.28116084899174e-02 2.38432618123751e-04
4.84959375000000e+00 1.25379361298748e-02 2.33923477110446e-04
4.87378125000000e+00 1.22701097618254e-02 2.29496756591315e-04
4.89796875000000e+00 1.20080045078955e-02 2.25151033664655e-04
4.92215625000000e+00 1.17514981577629e-02 2.20884907392670e-04
4.94634375000000e+00 1.15004711116740e-02 2.16696998550560e-04
4.97053125000000e+00 1.12548063246795e-02 2.12585949375056e-04
4.99471875000000e+00 1.10143892520597e-02 2.08550423312549e-04
5.01890625000000e+00 1.07791077959169e-02 2.04589104767024e-04
5.04309375000000e+00 1.05488522529081e-02 2.00700698847940e-04
5.06728125000000e+00 1.03235152630941e-02 1.96883931118206e-04
5.09146875000000e+00 1.01029917598814e-02 1.93137547342438e-04
5.11565625000000e+00 9.88717892103349e-03 1.89460313235614e-04
5.13984375000000e+00 9.67597612072847e-03 1.85851014212243e-04
5.16403125000000e+00 9.46928488264084e-03 1.82308455136217e-04
5.18821875000000e+00 9.26700883402547e-03 1.78831460071430e-04
5.21240625000000e+00 9.06905366078248e-03 1.75418872033284e-04
5.23659375000000e+00 8.87532706348190e-03 1.72069552741210e-04
5.26078125000000e+00 8.68573871432776e-03 1.68782382372279e-04
5.28496875000000e+00 8.50020021504145e-03 1.65556259315990e-04
5.30915625000000e+00 8.31862505564477e-03 1.62390099930368e-04
5.33334375000000e+00 8.14092857412341e-03 1.59282838299404e-04
5.35753125000000e+00 7.96702791695210e-03 1.56233425991951e-04
5.38171875000000e+00 7.79684200046291e-03 1.53240831822137e-04
5.40590625000000e+00 7.63029147303891e-03 1.50304041611351e-04
5.43009375000000e+00 7.46729867811526e-03 1.47422057951895e-04
5.45428125000000e+00 7.30778761797081e-03 1.44593899972334e-04
5.47846875000000e+00 7.15168391829299e-03 1.41818603104626e-04
5.50265625000000e+00 6.99891479349981e-03 1.39095218853051e-04
5.52684375000000e+00 6.84940901280247e-03 1.36422814565026e-04
5.55103125000000e+00 6.70309686699302e-03 1.33800473203812e-04
5.57521875000000e+00 6.55991013594145e-03 1.31227293123182e-04
5.59940625000000e+00 6.41978205678706e-03 1.28702387844094e-04
5.62359375000000e+00 6.28264729280934e-03 1.26224885833360e-04
5.64778125000000e+00 6.14844190296378e-03 1.23793930284392e-04
5.67196875000000e+00 6.01710331206843e-03 1.21408678900021e-04
5.69615625000000e+00 5.88857028162736e-03 1.19068303677444e-04
5.72034375000000e+00 5.76278288127730e-03 1.16771990695290e-04
5.74453125000000e+00 5.63968246084428e-03 1.14518939902849e-04
5.76871875000000e+00 5.51921162299714e-03 1.12308364911479e-04
5.79290625000000e+00 5.40131419648519e-03 1.10139492788198e-04
5.81709375000000e+00 5.28593520994757e-03 1.08011563851492e-04
5.84128125000000e+00 5.17302086628207e-03 1.05923831469329e-04
5.86546875000000e+00 5.06251851756146e-03 1.03875561859409e-04
5.88965625000000e+00 4.95437664048564e-03 1.01866033891652e-04
5.91384375000000e+00 4.84854481235816e-03 9.98945388929243e-05
5.93803125000000e+00 4.74497368757595e-03 9.79603804540184e-05
5.96221875000000e+00 4.64361497462115e-03 9.60628742388841e-05
5.98640625000000e+00 4.54442141354459e-03 9.42013477961097e-05
6.01059375000000e+00 4.44734675393011e-03 9.23751403726612e-05
6.03478125000000e+00 4.35234573332966e-03 9.05836027298779e-05
6.05896875000000e+00 4.25937405615900e-03 8.88260969617104e-05
6.08315625000000e+00 4.16838837304431e-03 8.71019963152119e-05
6.10734375000000e+00 4.07934626060989e-03 8.54106850132756e-05
6.13153125000000e+00 3.99220620169766e-03 8.37515580795984e-05
6.15571875000000e+00 3.90692756600918e-03 8.21240211658853e-05
6.17990625000000e+00 3.82347059116121e-03 8.05274903812761e-05
6.20409375000000e+00 3.74179636414594e-03 7.89613921239770e-05
6.22828125000000e+00 3.66186680318719e-03 7.74251629151040e-05
6.25246875000000e+00 3.58364463998432e-03 7.59182492347176e-05
6.27665625000000e+00 3.50709340233526e-03 7.44401073600381e-05
6.30084375000000e+00 3.43217739713092e-03 7.29902032058344e-05
6.32503125000000e+00 3.35886169371267e-03 7.15680121669707e-05
6.34921875000000e+00 3.28711210758551e-03 7.01730189630937e-05
6.37340625000000e+00 3.21689518447900e-03 6.88047174854491e-05
6.39759375000000e+00 3.14817818474874e-03 6.74626106458211e-05
6.42178125000000e+00 3.08092906811107e-03 6.61462102275665e-05
6.44596875000000e+00 3.01511647870381e-03 6.48550367387340e-05
6.47015625000000e+00 2.95070973046612e-03 6.35886192672569e-05
6.49434375000000e+00 2.88767879283072e-03 6.23464953381945e-05
6.51853125000000e+00 2.82599427672171e-03 6.11282107730096e-05
6.54271875000000e+00 2.76562742085144e-03 5.99333195508638e-05
6.56690625000000e+00 2.70655007831023e-03 5.87613836719181e-05
6.59109375000000e+00 2.64873470344240e-03 5.76119730226112e-05
6.61528125000000e+00 2.59215433900276e-03 5.64846652429044e-05
6.63946875000000e+00 2.53678260358736e-03 5.53790455954745e-05
6.66365625000000e+00 2.48259367933285e-03 5.42947068368316e-05
6.68784375000000e+00 2.42956229987848e-03 5.32312490903491e-05
6.71203125000000e+00 2.37766373858531e-03 5.21882797211789e-05
6.73621875000000e+00 2.32687379700707e-03 5.11654132130394e-05
6.76040625000000e+00 2.27716879360729e-03 5.01622710468569e-05
6.78459375000000e+00 2.22852555271742e-03 4.91784815812344e-05
6.80878125000000e+00 2.18092139373089e-03 4.82136799347327e-05
6.83296875000000e+00 2.13433412052790e-03 4.72675078699459e-05
6.85715625000000e+00 2.08874201112619e-03 4.63396136793491e-05
6.88134375000000e+00 2.04412380755287e-03 4.54296520728942e-05
6.90553125000000e+00 2.00045870593254e-03 4.45372840673404e-05
6.92971875000000e+00 1.95772634678724e-03 4.36621768772996e-05
6.95390625000000e+00 1.91590680554350e-03 4.28040038079714e-05
6.97809375000000e+00 1.87498058324228e-03 4.19624441495493e-05
7.00228125000000e+00 1.83492859744724e-03 4.11371830732822e-05
7.02646875000000e+00 1.79573217334732e-03 4.03279115291654e-05
7.05065625000000e+00 1.75737303504935e-03 3.95343261452435e-05
7.07484375000000e+00 1.71983329705661e-03 3.87561291285099e-05
7.09903125000000e+00 1.68309545592951e-03 3.79930281673743e-05
7.12321875000000e+00 1.64714238212433e-03 3.72447363356846e-05
7.14740625000000e+00 1.61195731200634e-03 3.65109719982799e-05
7.17159375000000e+00 1.57752384003350e-03 3.57914587180596e-05
7.19578125000000e+00 1.54382591110716e-03 3.50859251645429e-05
7.21996875000000e+00 1.51084781308614e-03 3.43941050239022e-05
7.24415625000000e+00 1.47857416946069e-03 3.37157369104558e-05
7.26834375000000e+00 1.44698993218302e-03 3.30505642795885e-05
7.29253125000000e+00 1.41608037465088e-03 3.23983353420927e-05
7.31671875000000e+00 1.38583108484113e-03 3.17588029799063e-05
7.34090625000000e+00 1.35622795858987e-03 3.11317246632250e-05
7.36509375000000e+00 1.32725719301621e-03 3.05168623689782e-05
7.38928125000000e+00 1.29890528008646e-03 2.99139825006417e-05
7.41346875000000e+00 1.27115900031583e-03 2.93228558093712e-05
7.43765625000000e+00 1.24400541660466e-03 2.87432573164414e-05
7.46184375000000e+00 1.21743186820629e-03 2.81749662369702e-05
7.48603125000000e+00 1.19142596482380e-03 2.76177659049076e-05
7.51021875000000e+00 1.16597558083292e-03 2.70714436992728e-05
7.53440625000000e+00 1.14106884962820e-03 2.65357909716230e-05
7.55859375000000e+00 1.11669415809009e-03 2.60106029747356e-05
7.58278125000000e+00 1.09284014117015e-03 2.54956787924858e-05
7.60696875000000e+00 1.06949567659190e-03 2.49908212709007e-05
7.63115625000000e+00 1.04664987966496e-03 2.44958369503747e-05
