Energy (eV)          EEDF (eV^-(3/2))     First Anisotropy
9.93333333333333e-03 1.38939261824718e+00 1.31609250328868e-03
2.98000000000000e-02 1.35779821319149e+00 2.15578063332708e-03
4.96666666666667e-02 1.32692225629585e+00 2.79998633690344e-03
6.95333333333333e-02 1.29674841012673e+00 3.26233698958733e-03
8.94000000000000e-02 1.26726070888344e+00 3.62616922344424e-03
1.09266666666667e-01 1.23844354985704e+00 3.92378833073054e-03
1.29133333333333e-01 1.21028168507161e+00 4.17230830363484e-03
1.49000000000000e-01 1.18276021325394e+00 4.38229683895440e-03
1.68866666666667e-01 1.15586457223599e+00 4.56091365583759e-03
1.88733333333333e-01 1.12958053062799e+00 4.71332309010091e-03
2.08600000000000e-01 1.10389418083282e+00 4.84342262479635e-03
2.28466666666667e-01 1.07879193162731e+00 4.95425611688451e-03
2.48333333333333e-01 1.05426050061164e+00 5.04826522979907e-03
2.68200000000000e-01 1.03028690754047e+00 5.12745103305771e-03
2.88066666666667e-01 1.00685846742137e+00 5.19348255179443e-03
3.07933333333333e-01 9.83962783543910e-01 5.24777228038682e-03
3.27800000000000e-01 9.61587741180027e-01 5.29153033611737e-03
3.47666666666667e-01 9.39721501152345e-01 5.32580433507750e-03
3.67533333333333e-01 9.18352493372788e-01 5.35150934968513e-03
3.87400000000000e-01 8.97469410918570e-01 5.36945087073242e-03
4.07266666666667e-01 8.77061204034465e-01 5.38034273770360e-03
4.27133333333333e-01 8.57117074130894e-01 5.38482129945892e-03
4.47000000000000e-01 8.37626468226372e-01 5.38345676769111e-03
4.66866666666667e-01 8.18579073352661e-01 5.37676245654715e-03
4.86733333333333e-01 7.99964810972577e-01 5.36520233825289e-03
5.06600000000000e-01 7.81773831773497e-01 5.34919730111184e-03
5.26466666666667e-01 7.63996510447458e-01 5.32913040316452e-03
5.46333333333333e-01 7.46623440495044e-01 5.30535127827780e-03
5.66200000000000e-01 7.29645429352172e-01 5.27817987633693e-03
5.86066666666667e-01 7.13053493519489e-01 5.24790968123156e-03
6.05933333333333e-01 6.96838853722938e-01 5.21481046080740e-03
6.25800000000000e-01 6.80992930355253e-01 5.17913064642795e-03
6.45666666666667e-01 6.65507338930995e-01 5.14109942196548e-03
6.65533333333333e-01 6.50373885577496e-01 5.10092853424872e-03
6.85400000000000e-01 6.35584562772589e-01 5.05881388385018e-03
7.05266666666667e-01 6.21131545103326e-01 5.01493694562091e-03
7.25133333333333e-01 6.07007185063499e-01 4.96946601283553e-03
7.45000000000000e-01 5.93204009069631e-01 4.92255730408263e-03
7.64866666666667e-01 5.79714713502949e-01 4.87435596640253e-03
7.84733333333333e-01 5.66532160791769e-01 4.82499696071209e-03
8.04600000000000e-01 5.53649375688472e-01 4.77460585766736e-03
8.24466666666667e-01 5.41059541575741e-01 4.72329956841941e-03
8.44333333333333e-01 5.28755996813852e-01 4.67118699322130e-03
8.64200000000000e-01 5.16732231262195e-01 4.61836960941981e-03
8.84066666666667e-01 5.04981882832069e-01 4.56494201773972e-03
9.03933333333333e-01 4.93498734080505e-01 4.51099242899509e-03
9.23800000000000e-01 4.82276708960735e-01 4.45660310848116e-03
9.43666666666667e-01 4.71309869605062e-01 4.40185079331071e-03
9.63533333333333e-01 4.60592413148204e-01 4.34680706510029e-03
9.83400000000000e-01 4.50118668692018e-01 4.29153869231093e-03
1.00326666666667e+00 4.39883094303053e-01 4.23610795496394e-03
1.02313333333333e+00 4.29880274049678e-01 4.18057293770514e-03
1.04300000000000e+00 4.20104915139591e-01 4.12498778405276e-03
1.06286666666667e+00 4.10551845254562e-01 4.06940297743681e-03
1.08273333333333e+00 4.01216009515570e-01 4.01386556042873e-03
1.10260000000000e+00 3.92092468079581e-01 3.95841931976739e-03
1.12246666666667e+00 3.83176393512098e-01 3.90310503980800e-03
1.14233333333333e+00 3.74463067996121e-01 3.84796066269265e-03
1.16220000000000e+00 3.65947881075479e-01 3.79302143684194e-03
1.18206666666667e+00 3.57626327203437e-01 3.73832012693368e-03
1.20193333333333e+00 3.49494003149114e-01 3.68388714105955e-03
1.22180000000000e+00 3.41546605879826e-01 3.62975064897987e-03
1.24166666666667e+00 3.33779930273849e-01 3.57593675782981e-03
1.26153333333333e+00 3.26189866709339e-01 3.52246961385289e-03
1.28140000000000e+00 3.18772399078225e-01 3.46937149726654e-03
1.30126666666667e+00 3.11523602652063e-01 3.41666297055285e-03
1.32113333333333e+00 3.04439641839817e-01 3.36436296036968e-03
1.34100000000000e+00 2.97516768326009e-01 3.31248883410756e-03
1.36086666666667e+00 2.90751319079364e-01 3.26105652596840e-03
1.38073333333333e+00 2.84139714266975e-01 3.21008060325252e-03
1.40060000000000e+00 2.77678455509655e-01 3.15957432843292e-03
1.42046666666667e+00 2.71364124023765e-01 3.10954976703462e-03
1.44033333333333e+00 2.65193378680334e-01 3.06001784148842e-03
1.46020000000000e+00 2.59162954370812e-01 3.01098838164450e-03
1.48006666666667e+00 2.53269660273134e-01 2.96247021759040e-03
1.49993333333333e+00 2.47510378045297e-01 2.91447122352817e-03
1.51980000000000e+00 2.41882060294989e-01 2.86699835898517e-03
1.53966666666667e+00 2.36381728961563e-01 2.82005774905812e-03
1.55953333333333e+00 2.31006473634392e-01 2.77365472022604e-03
1.57940000000000e+00 2.25753450120170e-01 2.72779383402279e-03
1.59926666666667e+00 2.20619878933013e-01 2.68247895670184e-03
1.61913333333333e+00 2.15603043728684e-01 2.63771328848916e-03
1.63900000000000e+00 2.10700289963648e-01 2.59349939111023e-03
1.65886666666667e+00 2.05909023486062e-01 2.54983924849169e-03
1.67873333333333e+00 2.01226709077634e-01 2.50673429064882e-03
1.69860000000000e+00 1.96650869198823e-01 2.46418541617582e-03
1.71846666666667e+00 1.92179082673965e-01 2.42219304530725e-03
1.73833333333333e+00 1.87808983333157e-01 2.38075713939610e-03
1.75820000000000e+00 1.83538258838296e-01 2.33987721925766e-03
1.77806666666667e+00 1.79364649456025e-01 2.29955241168271e-03
1.79793333333333e+00 1.75285946792625e-01 2.25978146527734e-03
1.81780000000000e+00 1.71299992695859e-01 2.22056276538046e-03
1.83766666666667e+00 1.67404678109870e-01 2.18189437493716e-03
1.85753333333333e+00 1.63597941896557e-01 2.14377404732675e-03
1.87740000000000e+00 1.59877769808494e-01 2.10619923843978e-03
1.89726666666667e+00 1.56242193420292e-01 2.06916714267299e-03
1.91713333333333e+00 1.52689289030427e-01 2.03267470325733e-03
1.93700000000000e+00 1.49217176700763e-01 1.99671862197447e-03
1.95686666666667e+00 1.45824019259269e-01 1.96129539091550e-03
1.97673333333333e+00 1.42508021276699e-01 1.92640130072940e-03
1.99660000000000e+00 1.39267428168513e-01 1.89203244837389e-03
2.01646666666667e+00 1.36100525264177e-01 1.85818476518308e-03
2.03633333333333e+00 1.33005636853508e-01 1.82485402338340e-03
2.05620000000000e+00 1.29981125347029e-01 1.79203584220549e-03
2.07606666666667e+00 1.27025390407407e-01 1.75972571272558e-03
2.09593333333333e+00 1.24136868060638e-01 1.72791900293695e-03
2.11580000000000e+00 1.21314029911121e-01 1.69661096249411e-03
2.13566666666667e+00 1.18555382331077e-01 1.66579674472648e-03
2.15553333333333e+00 1.15859465632103e-01 1.63547141050490e-03
2.17540000000000e+00 1.13224853331466e-01 1.60562993184435e-03
2.19526666666667e+00 1.10650151395629e-01 1.57626721143318e-03
2.21513333333333e+00 1.08133997468020e-01 1.54737808549480e-03
2.23500000000000e+00 1.05675060183263e-01 1.51895732643817e-03
2.25486666666667e+00 1.03272038461191e-01 1.49099966019905e-03
2.27473333333333e+00 1.00923660786973e-01 1.46349976826479e-03
2.29460000000000e+00 9.86286845701987e-02 1.43645228953128e-03
2.31446666666667e+00 9.63858954860081e-02 1.40985183571360e-03
2.33433333333333e+00 9.41941068039839e-02 1.38369299267479e-03
2.35420000000000e+00 9.20521587891972e-02 1.35797032162264e-03
2.37406666666667e+00 8.99589180873122e-02 1.33267837281397e-03
2.39393333333333e+00 8.79132770989008e-02 1.30781168630588e-03
2.41380000000000e+00 8.59141534197433e-02 1.28336479260486e-03
2.43366666666667e+00 8.39604892669672e-02 1.25933222486040e-03
2.45353333333333e+00 8.20512508956821e-02 1.23570851913870e-03
2.47340000000000e+00 8.01854280759939e-02 1.21248821461903e-03
2.49326666666667e+00 7.83620335574375e-02 1.18966586444802e-03
2.51313333333333e+00 7.65801025250435e-02 1.16723603562024e-03
2.53300000000000e+00 7.48386921106853e-02 1.14519330880209e-03
2.55286666666667e+00 7.31368808932494e-02 1.12353228799715e-03
2.57273333333333e+00 7.14737683914452e-02 1.10224760010513e-03
2.59260000000000e+00 6.98484746072549e-02 1.08133389444107e-03
2.61246666666667e+00 6.82601395594565e-02 1.06078585134400e-03
2.63233333333333e+00 6.67079228106737e-02 1.04059818147468e-03
2.65220000000000e+00 6.51910030408418e-02 1.02076562508775e-03
2.67206666666667e+00 6.37085776118553e-02 1.00128295970022e-03
2.69193333333333e+00 6.22598621265299e-02 9.82144999179180e-04
2.71180000000000e+00 6.08440900301294e-02 9.63346592815461e-04
2.73166666666667e+00 5.94605122040596e-02 9.44882632155072e-04
2.75153333333333e+00 5.81083965545750e-02 9.26748049920053e-04
2.77140000000000e+00 5.67870276405349e-02 9.08937818924969e-04
2.79126666666667e+00 5.54957062942069e-02 8.91446958162315e-04
2.81113333333333e+00 5.42337492376971e-02 8.74270531593237e-04
2.83100000000000e+00 5.30004887352246e-02 8.57403646941583e-04
2.85086666666667e+00 5.17952722392234e-02 8.40841461114123e-04
2.87073333333333e+00 5.06174620326173e-02 8.24579178892076e-04
2.89060000000000e+00 4.94664349040087e-02 8.08612051632199e-04
2.91046666666667e+00 4.83415818173915e-02 7.92935382093434e-04
2.93033333333333e+00 4.72423075785182e-02 7.77544523055325e-04
2.95020000000000e+00 4.61680305315048e-02 7.62434875951015e-04
2.97006666666667e+00 4.51181822505782e-02 7.47601895164097e-04
2.98993333333333e+00 4.40922072289042e-02 7.33041086595867e-04
3.00980000000000e+00 4.30895625952057e-02 7.18748006251148e-04
3.02966666666667e+00 4.21097178260738e-02 7.04718264061981e-04
3.04953333333333e+00 4.11521544557380e-02 6.90947522422187e-04
3.06940000000000e+00 4.02163658113840e-02 6.77431494743659e-04
3.08926666666667e+00 3.93018567446578e-02 6.64165948857310e-04
3.10913333333333e+00 3.84081433609607e-02 6.51146705530372e-04
3.12900000000000e+00 3.75347527722409e-02 6.38369637007922e-04
3.14886666666667e+00 3.66812228464092e-02 6.25830670036075e-04
3.16873333333333e+00 3.58471019548392e-02 6.13525784374927e-04
3.18860000000000e+00 3.50319487414856e-02 6.01451011337541e-04
3.20846666666667e+00 3.42353318890168e-02 5.89602436475495e-04
3.22833333333333e+00 3.34568298832893e-02 5.77976198098199e-04
3.24820000000000e+00 3.26960307977221e-02 5.66568485819529e-04
3.26806666666667e+00 3.19525320750281e-02 5.55375542941560e-04
3.28793333333333e+00 3.12259403075196e-02 5.44393664989035e-04
3.30780000000000e+00 3.05158710357332e-02 5.33619198272041e-04
3.32766666666667e+00 2.98219485447212e-02 5.23048541999957e-04
3.34753333333333e+00 2.91438056591190e-02 5.12678146838267e-04
3.36740000000000e+00 2.84810835550832e-02 5.02504513494141e-04
3.38726666666667e+00 2.78334315701716e-02 4.92524194589186e-04
3.40713333333333e+00 2.72005070121770e-02 4.82733793244463e-04
3.42700000000000e+00 2.65819749835019e-02 4.73129961694489e-04
3.44686666666667e+00 2.59775082037209e-02 4.63709402944391e-04
3.46673333333333e+00 2.53867868312523e-02 4.54468869387789e-04
3.48660000000000e+00 2.48094982993513e-02 4.45405161453637e-04
3.50646666666667e+00 2.42453371505076e-02 4.36515129070692e-04
3.52633333333333e+00 2.36940048700905e-02 4.27795670321905e-04
3.54620000000000e+00 2.31552097331944e-02 4.19243730127563e-04
3.56606666666667e+00 2.26286666500827e-02 4.10856301537574e-04
3.58593333333333e+00 2.21140970109995e-02 4.02630424425179e-04
3.60580000000000e+00 2.16112285431520e-02 3.94563184209018e-04
3.62566666666667e+00 2.11197951664637e-02 3.86651712991622e-04
3.64553333333333e+00 2.06395368488010e-02 3.78893188294514e-04
3.66540000000000e+00 2.01701994724241e-02 3.71284831821128e-04
3.68526666666667e+00 1.97115346993614e-02 3.63823910457979e-04
3.70513333333333e+00 1.92632998363502e-02 3.56507735052610e-04
3.72500000000000e+00 1.88252577101310e-02 3.49333659218717e-04
3.74486666666667e+00 1.83971765418021e-02 3.42299080214740e-04
3.76473333333333e+00 1.79788298208197e-02 3.35401437765589e-04
3.78460000000000e+00 1.75699961885531e-02 3.28638212910855e-04
3.80446666666667e+00 1.71704593210189e-02 3.22006928774013e-04
3.82433333333333e+00 1.67800078113327e-02 3.15505149428429e-04
3.84420000000000e+00 1.63984350609786e-02 3.09130478789101e-04
3.86406666666667e+00 1.60255391703648e-02 3.02880561284320e-04
3.88393333333333e+00 1.56611228291581e-02 2.96753080766090e-04
3.90380000000000e+00 1.53049932147582e-02 2.90745759445454e-04
3.92366666666667e+00 1.49569618901529e-02 2.84856358477260e-04
3.94353333333333e+00 1.46168447016057e-02 2.79082676914812e-04
3.96340000000000e+00 1.42844616838587e-02 2.73422550688575e-04
3.98326666666667e+00 1.39596369648008e-02 2.67873853113547e-04
4.00313333333333e+00 1.36421986700136e-02 2.62434493887715e-04
4.02300000000000e+00 1.33319788342586e-02 2.57102418113684e-04
4.04286666666667e+00 1.30288133125036e-02 2.51875606737196e-04
4.06273333333333e+00 1.27325416908669e-02 2.46752075588734e-04
4.08260000000000e+00 1.24430072039722e-02 2.41729874447415e-04
4.10246666666667e+00 1.21600566519099e-02 2.36807087418316e-04
4.12233333333333e+00 1.18835403171491e-02 2.31981832016404e-04
4.14220000000000e+00 1.16133118873732e-02 2.27252258271881e-04
4.16206666666667e+00 1.13492283779792e-02 2.22616549053159e-04
4.18193333333333e+00 1.10911500545571e-02 2.18072919192169e-04
4.20180000000000e+00 1.08389403608438e-02 2.13619614630200e-04
4.22166666666667e+00 1.05924658463904e-02 2.09254912692676e-04
4.24153333333333e+00 1.03515960942366e-02 2.04977121254777e-04
4.26140000000000e+00 1.01162036536419e-02 2.00784577926708e-04
4.28126666666667e+00 9.88616397257897e-03 1.96675650285781e-04
4.30113333333333e+00 9.66135533025143e-03 1.92648735081203e-04
4.32100000000000e+00 9.44165877428917e-03 1.88702257457649e-04
4.34086666666667e+00 9.22695805774293e-03 1.84834671149575e-04
4.36073333333333e+00 9.01713957612280e-03 1.81044457723946e-04
4.38060000000000e+00 8.81209230876042e-03 1.77330125840919e-04
4.40046666666667e+00 8.61170776000577e-03 1.73690211414804e-04
4.42033333333333e+00 8.41587990048229e-03 1.70123276893485e-04
4.44020000000000e+00 8.22450511234034e-03 1.66627910554962e-04
4.46006666666667e+00 8.03748213437581e-03 1.63202726638910e-04
4.47993333333333e+00 7.85471200721906e-03 1.59846364661511e-04
4.49980000000000e+00 7.67609802222185e-03 1.56557488746590e-04
4.51966666666667e+00 7.50154567023619e-03 1.53334787731297e-04
4.53953333333333e+00 7.33096259047327e-03 1.50176974515028e-04
4.55940000000000e+00 7.16425852278319e-03 1.47082785423898e-04
4.57926666666667e+00 7.00134525984981e-03 1.44050980293701e-04
4.59913333333333e+00 6.84213659947367e-03 1.41080341851609e-04
4.61900000000000e+00 6.68654830001961e-03 1.38169675112683e-04
4.63886666666667e+00 6.53449803579989e-03 1.35317807442933e-04
4.65873333333333e+00 6.38590535255139e-03 1.32523587972512e-04
4.67860000000000e+00 6.24069162584129e-03 1.29785887022955e-04
4.69846666666667e+00 6.09878001942570e-03 1.27103596152873e-04
4.71833333333333e+00 5.96009544370713e-03 1.24475627601320e-04
4.73820000000000e+00 5.82456451690200e-03 1.21900913744514e-04
4.75806666666667e+00 5.69211552617650e-03 1.19378407126407e-04
4.77793333333333e+00 5.56267838888437e-03 1.16907079930948e-04
4.79780000000000e+00 5.43618461631333e-03 1.14485923467026e-04
4.81766666666667e+00 5.31256727741275e-03 1.12113948185911e-04
4.83753333333333e+00 5.19176096262559e-03 1.09790183181173e-04
4.85740000000000e+00 5.07370175004260e-03 1.07513675700599e-04
4.87726666666667e+00 4.95832717154899e-03 1.05283491152313e-04
4.89713333333333e+00 4.84557617907674e-03 1.03098712631085e-04
4.91700000000000e+00 4.73538911300681e-03 1.00958440456054e-04
4.93686666666667e+00 4.62770767057356e-03 9.88617921670782e-05
4.95673333333333e+00 4.52247487437516e-03 9.68079020762692e-05
4.97660000000000e+00 4.41963504287480e-03 9.47959208303193e-05
4.99646666666667e+00 4.31913376091219e-03 9.28250153985083e-05
5.01633333333333e+00 4.22091785032090e-03 9.08943686482820e-05
5.03620000000000e+00 4.12493534238922e-03 8.90031789310494e-05
5.05606666666667e+00 4.03113545033830e-03 8.71506600631012e-05
5.07593333333333e+00 3.93946854190521e-03 8.53360409240930e-05
5.09580000000000e+00 3.84988611363349e-03 8.35585650652066e-05
5.11566666666667e+00 3.76234076518673e-03 8.18174906840902e-05
5.13553333333333e+00 3.67678617376571e-03 8.01120902451488e-05
5.15540000000000e+00 3.59317707010724e-03 7.84416501089962e-05
5.17526666666667e+00 3.51146921451075e-03 7.68054705024021e-05
5.19513333333333e+00 3.43161937296668e-03 7.52028651593328e-05
5.21500000000000e+00 3.35358529475025e-03 7.36331609706528e-05
5.23486666666667e+00 3.27732569004679e-03 7.20956979499451e-05
5.25473333333333e+00 3.20280020767687e-03 7.05898288942851e-05
5.27460000000000e+00 3.12996941417904e-03 6.91149190531945e-05
5.29446666666667e+00 3.05879477292734e-03 6.76703460911005e-05
5.31433333333333e+00 2.98923862334620e-03 6.62554997668522e-05
5.33420000000000e+00 2.92126416138340e-03 6.48697816209744e-05
5.35406666666667e+00 2.85483542002017e-03 6.35126049354377e-05
5.37393333333333e+00 2.78991724987617e-03 6.21833944309735e-05
5.39380000000000e+00 2.72647530098033e-03 6.08815859716990e-05
5.41366666666667e+00 2.66447600458070e-03 5.96066265227979e-05
5.43353333333333e+00 2.60388655504643e-03 5.83579738647224e-05
5.45340000000000e+00 2.54467489285033e-03 5.71350963143056e-05
5.47326666666667e+00 2.48680968759179e-03 5.59374726808663e-05
5.49313333333333e+00 2.43026032110899e-03 5.47645919964345e-05
5.51300000000000e+00 2.37499687159261e-03 5.36159532525025e-05
5.53286666666667e+00 2.32099009774104e-03 5.24910653550036e-05
5.55273333333333e+00 2.26821142300167e-03 5.13894468697327e-05
5.57260000000000e+00 2.21663292074083e-03 5.03106257739206e-05
5.59246666666667e+00 2.16622729945559e-03 4.92541394104836e-05
5.61233333333333e+00 2.11696788806870e-03 4.82195342478385e-05
5.63220000000000e+00 2.06882862208454e-03 4.72063656455268e-05
5.65206666666667e+00 2.02178402978703e-03 4.62141978080783e-05
5.67193333333333e+00 1.97580921851780e-03 4.52426035584628e-05
5.69180000000000e+00 1.93087986175255e-03 4.42911641170149e-05
5.71166666666667e+00 1.88697218621941e-03 4.33594690552110e-05
5.73153333333333e+00 1.84406295909447e-03 4.24471160820310e-05
5.75140000000000e+00 1.80212947593742e-03 4.15537108354801e-05
5.77126666666667e+00 1.76114954866903e-03 4.06788668365312e-05
5.79113333333333e+00 1.72110149362258e-03 3.98222052877011e-05
5.81100000000000e+00 1.68196412028181e-03 3.89833548764977e-05
5.83086666666667e+00 1.64371672006006e-03 3.81619517297428e-05
5.85073333333333e+00 1.60633905515053e-03 3.73576392237068e-05
5.87060000000000e+00 1.56981134801304e-03 3.65700677988365e-05
5.89046666666667e+00 1.53411427090157e-03 3.57988949146407e-05
5.91033333333333e+00 1.49922893545971e-03 3.50437848707588e-05
5.93020000000000e+00 1.46513688290666e-03 3.43044086323565e-05
5.95006666666667e+00 1.43182007426308e-03 3.35804437857303e-05
5.96993333333333e+00 1.39926088064206e-03 3.28715743697106e-05
5.98980000000000e+00 1.36744207408774e-03 3.21774907111439e-05
6.00966666666667e+00 1.33634681845305e-03 3.14978893813448e-05
6.02953333333333e+00 1.30595866033951e-03 3.08324730372686e-05
6.04940000000000e+00 1.27626152054526e-03 3.01809502665238e-05
6.06926666666667e+00 1.24723968555107e-03 2.95430355447804e-05
6.08913333333333e+00 1.21887779906573e-03 2.89184490861713e-05
6.10900000000000e+00 1.19116085404285e-03 2.83069166973091e-05
6.12886666666667e+00 1.16407418473469e-03 2.77081697357388e-05
6.14873333333333e+00 1.13760345880251e-03 2.71219449690546e-05
6.16860000000000e+00 1.11173466986446e-03 2.65479844374217e-05
6.18846666666667e+00 1.08645413007927e-03 2.59860354131420e-05
6.20833333333333e+00 1.06174846278388e-03 2.54358502680007e-05
6.22820000000000e+00 1.03760459553700e-03 2.48971863438200e-05
6.24806666666667e+00 1.01400975319742e-03 2.43698059131899e-05
6.26793333333333e+00 9.90951451053587e-04 2.38534760545849e-05
