Energy (eV)          EEDF (eV^-(3/2))     First Anisotropy
2.16666666666667e-02 9.30798914967227e-02 5.38227936492633e-05
6.50000000000000e-02 9.23165857366900e-02 8.88108764181799e-05
1.08333333333333e-01 9.15595394982054e-02 1.17066092434482e-04
1.51666666666667e-01 9.08087014512532e-02 1.38425993788822e-04
1.95000000000000e-01 9.00640206860378e-02 1.56153066628361e-04
2.38333333333333e-01 8.93254467057833e-02 1.71483224604352e-04
2.81666666666667e-01 8.85929294353917e-02 1.85057240470451e-04
3.25000000000000e-01 8.78664192059351e-02 1.97262758289516e-04
3.68333333333333e-01 8.71458667542213e-02 2.08357328709800e-04
4.11666666666667e-01 8.64312232254641e-02 2.18523305174243e-04
4.55000000000000e-01 8.57224401630250e-02 2.27895912629102e-04
4.98333333333333e-01 8.50194695063625e-02 2.36579028711805e-04
5.41666666666667e-01 8.43222635921358e-02 2.44654705965585e-04
5.85000000000000e-01 8.36307751461806e-02 2.52189239198194e-04
6.28333333333333e-01 8.29449572809844e-02 2.59237202963247e-04
6.71666666666667e-01 8.22647634958721e-02 2.65844237531432e-04
7.15000000000000e-01 8.15901476702393e-02 2.72049028998244e-04
7.58333333333333e-01 8.09210640608548e-02 2.77884751942422e-04
8.01666666666667e-01 8.02574673014699e-02 2.83380145061413e-04
8.45000000000000e-01 7.95993123968693e-02 2.88560327959367e-04
8.88333333333333e-01 7.89465547201157e-02 2.93447431055011e-04
9.31666666666667e-01 7.82991500117750e-02 2.98061089867301e-04
9.75000000000000e-01 7.76570543745500e-02 3.02418837479981e-04
1.01833333333333e+00 7.70202242705202e-02 3.06536419185728e-04
1.06166666666667e+00 7.63886165200996e-02 3.10428048432618e-04
1.10500000000000e+00 7.57621882987833e-02 3.14106617906321e-04
1.14833333333333e+00 7.51408971260289e-02 3.17583870796906e-04
1.19166666666667e+00 7.45247008808493e-02 3.20870546656135e-04
1.23500000000000e+00 7.39135577818106e-02 3.23976505252143e-04
1.27833333333333e+00 7.33074263854879e-02 3.26910825416601e-04
1.32166666666667e+00 7.27062655980837e-02 3.29681894741522e-04
1.36500000000000e+00 7.21100346576961e-02 3.32297486460099e-04
1.40833333333333e+00 7.15186931325909e-02 3.34764820316145e-04
1.45166666666667e+00 7.09322009312191e-02 3.37090620424997e-04
1.49500000000000e+00 7.03505182863209e-02 3.39281165646357e-04
1.53833333333333e+00 6.97736057530796e-02 3.41342328604942e-04
1.58166666666667e+00 6.92014242178281e-02 3.43279614774338e-04
1.62500000000000e+00 6.86339348836706e-02 3.45098196943344e-04
1.66833333333333e+00 6.80710992685608e-02 3.46802941011603e-04
1.71166666666667e+00 6.75128792129199e-02 3.48398433435767e-04
1.75500000000000e+00 6.69592368665326e-02 3.49889005695701e-04
1.79833333333333e+00 6.64101346865805e-02 3.51278751745030e-04
1.84166666666667e+00 6.58655354443439e-02 3.52571547938516e-04
1.88500000000000e+00 6.53254022131845e-02 3.53771070959521e-04
1.92833333333333e+00 6.47896983665546e-02 3.54880809820125e-04
1.97166666666667e+00 6.42583875839204e-02 3.55904080755683e-04
2.01500000000000e+00 6.37314338396817e-02 3.56844040730641e-04
2.05833333333333e+00 6.32088014011727e-02 3.57703695774503e-04
2.10166666666667e+00 6.26904548339171e-02 3.58485912402801e-04
2.14500000000000e+00 6.21763589913647e-02 3.59193428044265e-04
2.18833333333333e+00 6.16664790128952e-02 3.59828856852911e-04
2.23166666666667e+00 6.11607803284951e-02 3.60394698666494e-04
2.27500000000000e+00 6.06592286492134e-02 3.60893347234324e-04
2.31833333333333e+00 6.01617899651762e-02 3.61327094254852e-04
2.36166666666667e+00 5.96684305497605e-02 3.61698136546378e-04
2.40500000000000e+00 5.91791169506873e-02 3.62008582667423e-04
2.44833333333333e+00 5.86938159880532e-02 3.62260455685035e-04
2.49166666666667e+00 5.82124947580641e-02 3.62455699019689e-04
2.53500000000000e+00 5.77351206246966e-02 3.62596181866559e-04
2.57833333333333e+00 5.72616612177521e-02 3.62683701042734e-04
2.62166666666667e+00 5.67920844362022e-02 3.62719985829893e-04
2.66500000000000e+00 5.63263584403614e-02 3.62706702484388e-04
2.70833333333333e+00 5.58644516499665e-02 3.62645455407961e-04
2.75166666666667e+00 5.54063327471793e-02 3.62537791219584e-04
2.79500000000000e+00 5.49519706692205e-02 3.62385202561332e-04
2.83833333333333e+00 5.45013346064773e-02 3.62189128767548e-04
2.88166666666667e+00 5.40543940052019e-02 3.61950959334252e-04
2.92500000000000e+00 5.36111185605634e-02 3.61672037172338e-04
2.96833333333333e+00 5.31714782147870e-02 3.61353658902149e-04
3.01166666666667e+00 5.27354431595794e-02 3.60997077845093e-04
3.05500000000000e+00 5.23029838295638e-02 3.60603506836974e-04
3.09833333333333e+00 5.18740709004504e-02 3.60174118241384e-04
3.14166666666667e+00 5.14486752912188e-02 3.59710046557288e-04
3.18500000000000e+00 5.10267681579028e-02 3.59212390877463e-04
3.22833333333333e+00 5.06083208917937e-02 3.58682214690354e-04
3.27166666666667e+00 5.01933051214050e-02 3.58120548175102e-04
3.31500000000000e+00 4.97816927065776e-02 3.57528390370266e-04
3.35833333333333e+00 4.93734557367183e-02 3.56906708816363e-04
3.40166666666667e+00 4.89685665325666e-02 3.56256441593602e-04
3.44500000000000e+00 4.85669976405977e-02 3.55578499251439e-04
3.48833333333333e+00 4.81687218312942e-02 3.54873764331498e-04
3.53166666666667e+00 4.77737121007362e-02 3.54143093191147e-04
3.57500000000000e+00 4.73819416652786e-02 3.53387317733441e-04
3.61833333333333e+00 4.69933839598570e-02 3.52607244840957e-04
3.66166666666667e+00 4.66080126394178e-02 3.51803658019263e-04
3.70500000000000e+00 4.62258015738502e-02 3.50977318958695e-04
3.74833333333333e+00 4.58467248463258e-02 3.50128966902510e-04
3.79166666666667e+00 4.54707567545848e-02 3.49259320137578e-04
3.83500000000000e+00 4.50978718061036e-02 3.48369077413045e-04
3.87833333333333e+00 4.47280447164696e-02 3.47458917261064e-04
3.92166666666667e+00 4.43612504105356e-02 3.46529499356670e-04
3.96500000000000e+00 4.39974640178076e-02 3.45581465813719e-04
4.00833333333333e+00 4.36366608708547e-02 3.44615440472388e-04
4.05166666666667e+00 4.32788165063433e-02 3.43632030146095e-04
4.09500000000000e+00 4.29239066606314e-02 3.42631825811340e-04
4.13833333333333e+00 4.25719072682121e-02 3.41615401872990e-04
4.18166666666667e+00 4.22227944626398e-02 3.40583317313031e-04
4.22500000000000e+00 4.18765445723167e-02 3.39536116787962e-04
4.26833333333333e+00 4.15331341189708e-02 3.38474329880648e-04
4.31166666666667e+00 4.11925398184821e-02 3.37398472163015e-04
4.35500000000000e+00 4.08547385768511e-02 3.36309046212312e-04
4.39833333333333e+00 4.05197074887094e-02 3.35206540856427e-04
4.44166666666667e+00 4.01874238380561e-02 3.34091432160667e-04
4.48500000000000e+00 3.98578650943961e-02 3.32964184372384e-04
4.52833333333333e+00 3.95310089112837e-02 3.31825249165120e-04
4.57166666666667e+00 3.92068331269765e-02 3.30675066558052e-04
4.61500000000000e+00 3.88853157607341e-02 3.29514065796944e-04
4.65833333333333e+00 3.85664350113937e-02 3.28342664601365e-04
4.70166666666667e+00 3.82501692579491e-02 3.27161270024066e-04
4.74500000000000e+00 3.79364970560002e-02 3.25970279275006e-04
4.78833333333333e+00 3.76253971363605e-02 3.24770078974954e-04
4.83166666666667e+00 3.73168484055674e-02 3.23561045960953e-04
4.87500000000000e+00 3.70108299424739e-02 3.22343548059230e-04
4.91833333333333e+00 3.67073209968881e-02 3.21117943347781e-04
4.96166666666667e+00 3.64063009900199e-02 3.19884580913171e-04
5.00500000000000e+00 3.61077495112080e-02 3.18643801577343e-04
5.04833333333333e+00 3.58116463165899e-02 3.17395937171207e-04
5.09166666666667e+00 3.55179713294915e-02 3.16141311247326e-04
5.13500000000000e+00 3.52267046372806e-02 3.14880239764902e-04
5.17833333333333e+00 3.49378264900688e-02 3.13613030375875e-04
5.22166666666667e+00 3.46513173010464e-02 3.12339983097521e-04
5.26500000000000e+00 3.43671576434592e-02 3.11061390959287e-04
5.30833333333333e+00 3.40853282493376e-02 3.09777539302618e-04
5.35166666666667e+00 3.38058100097856e-02 3.08488706416933e-04
5.39500000000000e+00 3.35285839720702e-02 3.07195164151570e-04
5.43833333333333e+00 3.32536313383817e-02 3.05897177230176e-04
5.48166666666667e+00 3.29809334660766e-02 3.04595003853089e-04
5.52500000000000e+00 3.27104718648774e-02 3.03288896277239e-04
5.56833333333333e+00 3.24422281956605e-02 3.01979100145777e-04
5.61166666666667e+00 3.21761842706598e-02 3.00665855059483e-04
5.65500000000000e+00 3.19123220507686e-02 2.99349395127183e-04
5.69833333333333e+00 3.16506236443570e-02 2.98029948311024e-04
5.74166666666667e+00 3.13910713074373e-02 2.96707736969313e-04
5.78500000000000e+00 3.11336474410653e-02 2.95382978379673e-04
5.82833333333333e+00 3.08783345901847e-02 2.94055884100146e-04
5.87166666666667e+00 3.06251154437588e-02 2.92726660485636e-04
5.91500000000000e+00 3.03739728322656e-02 2.91395509185843e-04
5.95833333333333e+00 3.01248897265692e-02 2.90062626522320e-04
6.00166666666667e+00 2.98778492380202e-02 2.88728203980331e-04
6.04500000000000e+00 2.96328346160408e-02 2.87392428683318e-04
6.08833333333333e+00 2.93898292470224e-02 2.86055482786027e-04
6.13166666666667e+00 2.91488166543970e-02 2.84717543943479e-04
6.17500000000000e+00 2.89097804963084e-02 2.83378785763527e-04
6.21833333333333e+00 2.86727045645356e-02 2.82039377215980e-04
6.26166666666667e+00 2.84375727845378e-02 2.80699483080217e-04
6.30500000000000e+00 2.82043692132076e-02 2.79359264377338e-04
6.34833333333333e+00 2.79730780378192e-02 2.78018877795118e-04
6.39166666666667e+00 2.77436835760500e-02 2.76678476115628e-04
6.43500000000000e+00 2.75161702738114e-02 2.75338208628267e-04
6.47833333333333e+00 2.72905227042224e-02 2.73998220570360e-04
6.52166666666667e+00 2.70667255676087e-02 2.72658653536122e-04
6.56500000000000e+00 2.68447636894085e-02 2.71319645871717e-04
6.60833333333333e+00 2.66246220191700e-02 2.69981332131280e-04
6.65166666666667e+00 2.64062856305309e-02 2.68643843468278e-04
6.69500000000000e+00 2.61897397191955e-02 2.67307308013721e-04
6.73833333333333e+00 2.59749696019561e-02 2.65971850347406e-04
6.78166666666667e+00 2.57619607166537e-02 2.64637591872697e-04
6.82500000000000e+00 2.55506986202241e-02 2.63304651178881e-04
6.86833333333333e+00 2.53411689877420e-02 2.61973143527258e-04
6.91166666666667e+00 2.51333576123658e-02 2.60643181210363e-04
6.95500000000000e+00 2.49272504034482e-02 2.59314873899366e-04
6.99833333333333e+00 2.47228333856043e-02 2.57988328144731e-04
7.04166666666667e+00 2.45200926986397e-02 2.56663647720713e-04
7.08500000000000e+00 2.43190145957254e-02 2.55340933958626e-04
7.12833333333333e+00 2.41195854424872e-02 2.54020285261776e-04
7.17166666666667e+00 2.39217917169202e-02 2.52701797436057e-04
7.21500000000000e+00 2.37256200076241e-02 2.51385564009825e-04
7.25833333333333e+00 2.35310570129144e-02 2.50071675762763e-04
7.30166666666667e+00 2.33380895407242e-02 2.48760221043298e-04
7.34500000000000e+00 2.31467045068972e-02 2.47451286075825e-04
7.38833333333333e+00 2.29568889343204e-02 2.46144954503210e-04
7.43166666666667e+00 2.27686299528145e-02 2.44841307691679e-04
7.47500000000000e+00 2.25819147974825e-02 2.43540425026027e-04
7.51833333333333e+00 2.23967308078631e-02 2.42242383465396e-04
7.56166666666667e+00 2.22130654278103e-02 2.40947257836304e-04
7.60500000000000e+00 2.20309062038966e-02 2.39655121116465e-04
7.64833333333333e+00 2.18502407845853e-02 2.38366044003482e-04
7.69166666666667e+00 2.16710569201020e-02 2.37080095196624e-04
7.73500000000000e+00 2.14933424608881e-02 2.35797341669818e-04
7.77833333333333e+00 2.13170853567939e-02 2.34517848252876e-04
7.82166666666667e+00 2.11422736569409e-02 2.33241677902616e-04
7.86500000000000e+00 2.09688955082252e-02 2.31968891965498e-04
7.90833333333333e+00 2.07969391545295e-02 2.30699549771122e-04
7.95166666666667e+00 2.06263929365783e-02 2.29433708893157e-04
7.99500000000000e+00 2.04572452904888e-02 2.28171425402129e-04
8.03833333333333e+00 2.02894847470016e-02 2.26912753470857e-04
8.08166666666667e+00 2.01230999313291e-02 2.25657745625622e-04
8.12500000000000e+00 1.99580795617523e-02 2.24406452989633e-04
8.16833333333333e+00 1.97944124488700e-02 2.23158924900038e-04
8.21166666666667e+00 1.96320874954412e-02 2.21915209149825e-04
8.25500000000000e+00 1.94710936950259e-02 2.20675352222327e-04
8.29833333333333e+00 1.93114201312521e-02 2.19439398919474e-04
8.34166666666667e+00 1.91530559776534e-02 2.18207392594899e-04
8.38500000000000e+00 1.89959904963516e-02 2.16979375379902e-04
8.42833333333333e+00 1.88402130373422e-02 2.15755387822617e-04
8.47166666666667e+00 1.86857130383261e-02 2.14535469112660e-04
8.51500000000000e+00 1.85324800234342e-02 2.13319657298952e-04
8.55833333333333e+00 1.83805036025294e-02 2.12107988939517e-04
8.60166666666667e+00 1.82297734710348e-02 2.10900499318010e-04
8.64500000000000e+00 1.80802794086969e-02 2.09697222653793e-04
8.68833333333333e+00 1.79320112789052e-02 2.08498191762025e-04
8.73166666666667e+00 1.77849590285163e-02 2.07303438262455e-04
8.77500000000000e+00 1.76391126866556e-02 2.06112992782043e-04
8.81833333333333e+00 1.74944623640526e-02 2.04926884625041e-04
8.86166666666667e+00 1.73509982528626e-02 2.03745141974434e-04
8.90500000000000e+00 1.72087106255046e-02 2.02567792087393e-04
8.94833333333333e+00 1.70675898340132e-02 2.01394860975064e-04
8.99166666666667e+00 1.69276263098569e-02 2.00226373596912e-04
9.03500000000000e+00 1.67888105628121e-02 1.99062354049361e-04
9.07833333333333e+00 1.66511331803300e-02 1.97902825255014e-04
9.12166666666667e+00 1.65145848273534e-02 1.96747809150185e-04
9.16500000000000e+00 1.63791562452242e-02 1.95597326866997e-04
9.20833333333333e+00 1.62448382510662e-02 1.94451398431725e-04
9.25166666666667e+00 1.61116217375994e-02 1.93310042945830e-04
9.29500000000000e+00 1.59794976720812e-02 1.92173278761802e-04
9.33833333333333e+00 1.58484570957034e-02 1.91041123190338e-04
9.38166666666667e+00 1.57184911234058e-02 1.89913592675136e-04
9.42500000000000e+00 1.55895909428486e-02 1.88790702962727e-04
9.46833333333333e+00 1.54617478138243e-02 1.87672468818225e-04
9.51166666666667e+00 1.53349530680702e-02 1.86558904194148e-04
9.55500000000000e+00 1.52091981082715e-02 1.85450022394458e-04
9.59833333333333e+00 1.50844744074875e-02 1.84345835798673e-04
9.64166666666667e+00 1.49607735089629e-02 1.83246356024937e-04
9.68500000000000e+00 1.48380870251611e-02 1.82151594088453e-04
9.72833333333333e+00 1.47164066372044e-02 1.81061560133717e-04
9.77166666666667e+00 1.45957240946842e-02 1.79976263592084e-04
9.81500000000000e+00 1.44760312147237e-02 1.78895713334852e-04
9.85833333333333e+00 1.43573198814308e-02 1.77819917413316e-04
9.90166666666667e+00 1.42395820457090e-02 1.76748883211045e-04
9.94500000000000e+00 1.41228097243472e-02 1.75682617591846e-04
9.98833333333333e+00 1.40069949994862e-02 1.74621126647411e-04
1.00316666666667e+01 1.38921300184295e-02 1.73564415718665e-04
1.00750000000000e+01 1.37782069930956e-02 1.72512490168491e-04
1.01183333333333e+01 1.36652181978180e-02 1.71465354004227e-04
1.01616666666667e+01 1.35531559725166e-02 1.70423010519278e-04
1.02050000000000e+01 1.34420127188019e-02 1.69385463692038e-04
1.02483333333333e+01 1.33317808995309e-02 1.68352715693973e-04
1.02916666666667e+01 1.32224530415191e-02 1.67324768153061e-04
1.03350000000000e+01 1.31140217317811e-02 1.66301623381112e-04
1.03783333333333e+01 1.30064796170967e-02 1.65283281957753e-04
1.04216666666667e+01 1.28998194066171e-02 1.64269743954841e-04
1.04650000000000e+01 1.27940338682373e-02 1.63261010126064e-04
1.05083333333333e+01 1.26891158281715e-02 1.62257079564333e-04
1.05516666666667e+01 1.25850581734581e-02 1.61257950888473e-04
1.05950000000000e+01 1.24818538484589e-02 1.60263623396358e-04
1.06383333333333e+01 1.23794958544435e-02 1.59274094793315e-04
1.06816666666667e+01 1.22779772519978e-02 1.58289362342362e-04
1.07250000000000e+01 1.21772911576443e-02 1.57309423982087e-04
1.07683333333333e+01 1.20774307434364e-02 1.56334276123758e-04
1.08116666666667e+01 1.19783892392730e-02 1.55363914766321e-04
1.08550000000000e+01 1.18801599296369e-02 1.54398336580178e-04
1.08983333333333e+01 1.17827361531969e-02 1.53437536770770e-04
1.09416666666667e+01 1.16861113050348e-02 1.52481510159506e-04
1.09850000000000e+01 1.15902788334949e-02 1.51530252234566e-04
1.10283333333333e+01 1.14952322397960e-02 1.50583757078826e-04
1.10716666666667e+01 1.14009650801722e-02 1.49642018417840e-04
1.11150000000000e+01 1.13074709628314e-02 1.48705030638730e-04
1.11583333333333e+01 1.12147435475752e-02 1.47772786780373e-04
1.12016666666667e+01 1.11227765478586e-02 1.46845279549532e-04
1.12450000000000e+01 1.10315637278522e-02 1.45922502308887e-04
1.12883333333333e+01 1.09410989020706e-02 1.45004447127487e-04
1.13316666666667e+01 1.08513759373539e-02 1.44091105766051e-04
1.13750000000000e+01 1.07623887500298e-02 1.43182470635150e-04
1.14183333333333e+01 1.06741313055504e-02 1.42278532903998e-04
1.14616666666667e+01 1.05865976203985e-02 1.41379283455925e-04
1.15050000000000e+01 1.04997817593463e-02 1.40484713817697e-04
1.15483333333333e+01 1.04136778351000e-02 1.39594814324771e-04
1.15916666666667e+01 1.03282800101345e-02 1.38709575047913e-04
1.16350000000000e+01 1.02435824940440e-02 1.37828986694587e-04
1.16783333333333e+01 1.01595795431956e-02 1.36953038828850e-04
1.17216666666667e+01 1.00762654624941e-02 1.36081720770078e-04
1.17650000000000e+01 9.99363460282233e-03 1.35215022467318e-04
1.18083333333333e+01 9.91168136070228e-03 1.34352932772124e-04
1.18516666666667e+01 9.83040017999369e-03 1.33495440310259e-04
1.18950000000000e+01 9.74978554942064e-03 1.32642534329853e-04
1.19383333333333e+01 9.66983200223972e-03 1.31794203025525e-04
1.19816666666667e+01 9.59053411787553e-03 1.30950434383933e-04
1.20250000000000e+01 9.51188651952981e-03 1.30111217006609e-04
1.20683333333333e+01 9.43388387385715e-03 1.29276538483698e-04
1.21116666666667e+01 9.35652089253947e-03 1.28446386214220e-04
1.21550000000000e+01 9.27979232997487e-03 1.27620748204363e-04
1.21983333333333e+01 9.20369298296064e-03 1.26799611489324e-04
1.22416666666667e+01 9.12821769220923e-03 1.25982962929067e-04
1.22850000000000e+01 9.05336134011380e-03 1.25170789982851e-04
1.23283333333333e+01 8.97911885043855e-03 1.24363079177665e-04
1.23716666666667e+01 8.90548518977831e-03 1.23559816880249e-04
1.24150000000000e+01 8.83245536539820e-03 1.22760990048648e-04
1.24583333333333e+01 8.76002442493095e-03 1.21966584745744e-04
1.25016666666667e+01 8.68818745778252e-03 1.21176586888331e-04
1.25450000000000e+01 8.61693959304304e-03 1.20390982976383e-04
1.25883333333333e+01 8.54627599919104e-03 1.19609758650295e-04
1.26316666666667e+01 8.47619188544725e-03 1.18832899417736e-04
1.26750000000000e+01 8.40668249975419e-03 1.18060391361322e-04
1.27183333333333e+01 8.33774312848730e-03 1.17292219738248e-04
1.27616666666667e+01 8.26936909775874e-03 1.16528369685567e-04
1.28050000000000e+01 8.20155577146343e-03 1.15768826906980e-04
1.28483333333333e+01 8.13429855099666e-03 1.15013576313516e-04
1.28916666666667e+01 8.06759287651014e-03 1.14262602707947e-04
1.29350000000000e+01 8.00143422502186e-03 1.13515891451332e-04
1.29783333333333e+01 7.93581811014021e-03 1.12773427143467e-04
1.30216666666667e+01 7.87074008327403e-03 1.12035194287101e-04
1.30650000000000e+01 7.80619573180414e-03 1.11301177934862e-04
1.31083333333333e+01 7.74218067881377e-03 1.10571362408265e-04
1.31516666666667e+01 7.67869058425441e-03 1.09845731942342e-04
1.31950000000000e+01 7.61572114317679e-03 1.09124271313567e-04
1.32383333333333e+01 7.55326808546752e-03 1.08406964596223e-04
1.32816666666667e+01 7.49132717697247e-03 1.07693795788076e-04
1.33250000000000e+01 7.42989421778508e-03 1.06984749419887e-04
1.33683333333333e+01 7.36896504198911e-03 1.06279809347979e-04
1.34116666666667e+01 7.30853551874112e-03 1.05578959361546e-04
1.34550000000000e+01 7.24860155061418e-03 1.04882183774318e-04
1.34983333333333e+01 7.18915907334653e-03 1.04189466252242e-04
1.35416666666667e+01 7.13020405688481e-03 1.03500790402975e-04
1.35850000000000e+01 7.07173250378117e-03 1.02816140350258e-04
1.36283333333333e+01 7.01374044894772e-03 1.02135499595627e-04
1.36716666666667e+01 6.95622396066204e-03 1.01458851590660e-04
