Energy (eV)          EEDF (eV^-(3/2))     First Anisotropy
1.50000000000000e-01 4.33376972527434e-02 5.07189704786795e-05
4.50000000000000e-01 4.18656971430613e-02 8.26068012023171e-05
7.50000000000000e-01 4.04436947134656e-02 1.06059457626404e-04
1.05000000000000e+00 3.90699917521165e-02 1.22153118948025e-04
1.35000000000000e+00 3.77429477283198e-02 1.34216545915272e-04
1.65000000000000e+00 3.64609778333395e-02 1.43564086574886e-04
1.95000000000000e+00 3.52225510877568e-02 1.50903350702640e-04
2.25000000000000e+00 3.40261885131129e-02 1.56677463876643e-04
2.55000000000000e+00 3.28704613656542e-02 1.61190277393619e-04
2.85000000000000e+00 3.17539894300704e-02 1.64663162827796e-04
3.15000000000000e+00 3.06754393711855e-02 1.67264531631116e-04
3.45000000000000e+00 2.96335231416367e-02 1.69126708745670e-04
3.75000000000000e+00 2.86269964436366e-02 1.70356283698685e-04
4.05000000000000e+00 2.76546572429835e-02 1.71040818180465e-04
4.35000000000000e+00 2.67153443335442e-02 1.71253387618091e-04
4.65000000000000e+00 2.58079359504959e-02 1.71055768957436e-04
4.95000000000000e+00 2.49313484306693e-02 1.70500746640185e-04
5.25000000000000e+00 2.40845349183957e-02 1.69633823943857e-04
5.55000000000000e+00 2.32664841153098e-02 1.68494521295576e-04
5.85000000000000e+00 2.24762190726173e-02 1.67117380276091e-04
6.15000000000000e+00 2.17127960243837e-02 1.65532753171835e-04
6.45000000000000e+00 2.09753032604516e-02 1.63767433156785e-04
6.75000000000000e+00 2.02628600376399e-02 1.61845163947066e-04
7.05000000000000e+00 1.95746155279256e-02 1.59787056864963e-04
7.35000000000000e+00 1.89097478023510e-02 1.57611935763243e-04
7.65000000000000e+00 1.82674628494433e-02 1.55336625021258e-04
7.95000000000000e+00 1.76469936269750e-02 1.52976192092077e-04
8.25000000000000e+00 1.70475991459310e-02 1.50544153378286e-04
8.55000000000000e+00 1.64685635855904e-02 1.48052650229887e-04
8.85000000000000e+00 1.59091954386650e-02 1.45512600380687e-04
9.15000000000000e+00 1.53688266854736e-02 1.42933829026498e-04
9.45000000000000e+00 1.48468119961662e-02 1.40325182900126e-04
9.75000000000000e+00 1.43425279600459e-02 1.37694630044651e-04
1.00500000000000e+01 1.38553723410667e-02 1.35049347478218e-04
1.03500000000000e+01 1.33847633586194e-02 1.32395798544566e-04
1.06500000000000e+01 1.29301389927459e-02 1.29739801427665e-04
1.09500000000000e+01 1.24909563129530e-02 1.27086590056789e-04
1.12500000000000e+01 1.20666908298227e-02 1.24440868425647e-04
1.15500000000000e+01 1.16568358686465e-02 1.21806859185148e-04
1.18500000000000e+01 1.12609019643342e-02 1.19188347235586e-04
1.21500000000000e+01 1.08784162768751e-02 1.16588718934354e-04
1.24500000000000e+01 1.05089220266538e-02 1.14010997444748e-04
1.27500000000000e+01 1.01519779489459e-02 1.11457874676319e-04
1.30500000000000e+01 9.80715776694178e-03 1.08931740204611e-04
1.33500000000000e+01 9.47404968267028e-03 1.06434707505524e-04
1.36500000000000e+01 9.15225588521296e-03 1.03968637795355e-04
1.39500000000000e+01 8.84139207562254e-03 1.01535161730059e-04
1.42500000000000e+01 8.54108700797783e-03 9.91356991854507e-05
1.45500000000000e+01 8.25098204602708e-03 9.67714773129153e-05
1.48500000000000e+01 7.97073073489031e-03 9.44435470418504e-05
1.51500000000000e+01 7.69999838730912e-03 9.21527981800644e-05
1.54500000000000e+01 7.43846168394986e-03 8.98999732460423e-05
1.57500000000000e+01 7.18580828728281e-03 8.76856801519940e-05
1.60500000000000e+01 6.94173646857631e-03 8.55104038435750e-05
1.63500000000000e+01 6.70595474756031e-03 8.33745169908018e-05
1.66500000000000e+01 6.47818154432900e-03 8.12782898147374e-05
1.69500000000000e+01 6.25814484306694e-03 7.92218991258108e-05
1.72500000000000e+01 6.04558186719696e-03 7.72054366419479e-05
1.75500000000000e+01 5.84023876556188e-03 7.52289166479247e-05
1.78500000000000e+01 5.64187030926539e-03 7.32922830513639e-05
1.81500000000000e+01 5.45023959880995e-03 7.13954158854934e-05
1.84500000000000e+01 5.26511778118201e-03 6.95381373040479e-05
1.87500000000000e+01 5.08628377654661e-03 6.77202171095053e-05
1.90500000000000e+01 4.91352401422508e-03 6.59413778520873e-05
1.93500000000000e+01 4.74663217764041e-03 6.42012995335917e-05
1.96500000000000e+01 4.58540895792583e-03 6.24996239471237e-05
1.99500000000000e+01 4.42966181590219e-03 6.08359586810685e-05
2.02500000000000e+01 4.27920475214009e-03 5.92098808132275e-05
2.05500000000000e+01 4.13385808483187e-03 5.76209403188379e-05
2.08500000000000e+01 3.99344823520854e-03 5.60686632142138e-05
2.11500000000000e+01 3.85780752024505e-03 5.45525544559452e-05
2.14500000000000e+01 3.72677395240659e-03 5.30721006139743e-05
2.17500000000000e+01 3.60019104619663e-03 5.16267723353887e-05
2.20500000000000e+01 3.47790763127570e-03 5.02160266144264e-05
2.23500000000000e+01 3.35977767192778e-03 4.88393088829663e-05
2.26500000000000e+01 3.24566009265863e-03 4.74960549346688e-05
2.29500000000000e+01 3.13541860971784e-03 4.61856926949116e-05
2.32500000000000e+01 3.02892156834334e-03 4.49076438477335e-05
2.35500000000000e+01 2.92604178553404e-03 4.36613253301583e-05
2.38500000000000e+01 2.82665639816288e-03 4.24461507034832e-05
2.41500000000000e+01 2.73064671624875e-03 4.12615314104051e-05
2.44500000000000e+01 2.63789808121221e-03 4.01068779262065e-05
2.47500000000000e+01 2.54829972894567e-03 3.89816008116145e-05
2.50500000000000e+01 2.46174465753446e-03 3.78851116743945e-05
2.53500000000000e+01 2.37812949947092e-03 3.68168240462310e-05
2.56500000000000e+01 2.29735439820880e-03 3.57761541809768e-05
2.59500000000000e+01 2.21932288891061e-03 3.47625217799172e-05
2.62500000000000e+01 2.14394178324543e-03 3.37753506492928e-05
2.65500000000000e+01 2.07112105809978e-03 3.28140692949618e-05
2.68500000000000e+01 2.00077374806838e-03 3.18781114587341e-05
2.71500000000000e+01 1.93281584159660e-03 3.09669166005908e-05
2.74500000000000e+01 1.86716618065059e-03 3.00799303307202e-05
2.77500000000000e+01 1.80374636379503e-03 2.92166047950139e-05
2.80500000000000e+01 1.74248065256310e-03 2.83763990174293e-05
2.83500000000000e+01 1.68329588100656e-03 2.75587792023828e-05
2.86500000000000e+01 1.62612136831805e-03 2.67632190001199e-05
2.89500000000000e+01 1.57088883442130e-03 2.59891997378149e-05
2.92500000000000e+01 1.51753231842832e-03 2.52362106189547e-05
2.95500000000000e+01 1.46598809986627e-03 2.45037488933963e-05
2.98500000000000e+01 1.41619462257998e-03 2.37913200003200e-05
3.01500000000000e+01 1.36809242121912e-03 2.30984376861488e-05
3.04500000000000e+01 1.32162405022229e-03 2.24246240993700e-05
3.07500000000000e+01 1.27673401521330e-03 2.17694098640576e-05
3.10500000000000e+01 1.23336870672754e-03 2.11323341337753e-05
3.13500000000000e+01 1.19147633618943e-03 2.05129446274247e-05
3.16500000000000e+01 1.15100687406446e-03 1.99107976485005e-05
3.19500000000000e+01 1.11191199011191e-03 1.93254580891103e-05
3.22500000000000e+01 1.07414499566698e-03 1.87564994200285e-05
3.25500000000000e+01 1.03766078788329e-03 1.82035036679667e-05
3.28500000000000e+01 1.00241579586934e-03 1.76660613811613e-05
3.31500000000000e+01 9.68367928654326e-04 1.71437715843055e-05
3.34500000000000e+01 9.35476524921500e-04 1.66362417237807e-05
3.37500000000000e+01 9.03702304448780e-04 1.61430876040788e-05
3.40500000000000e+01 8.73007321198751e-04 1.56639333162455e-05
3.43500000000000e+01 8.43354918002000e-04 1.51984111591149e-05
3.46500000000000e+01 8.14709682779666e-04 1.47461615540543e-05
3.49500000000000e+01 7.87037406252926e-04 1.43068329538894e-05
3.52500000000000e+01 7.60305041088919e-04 1.38800817466300e-05
3.55500000000000e+01 7.34480662434301e-04 1.34655721545734e-05
3.58500000000000e+01 7.09533429789319e-04 1.30629761293245e-05
3.61500000000000e+01 6.85433550176858e-04 1.26719732432298e-05
3.64500000000000e+01 6.62152242562489e-04 1.22922505776886e-05
3.67500000000000e+01 6.39661703483005e-04 1.19235026087705e-05
3.70500000000000e+01 6.17935073842427e-04 1.15654310905377e-05
3.73500000000000e+01 5.96946406835798e-04 1.12177449364406e-05
3.76500000000000e+01 5.76670636962481e-04 1.08801600991271e-05
3.79500000000000e+01 5.57083550091939e-04 1.05523994489832e-05
3.82500000000000e+01 5.38161754546260e-04 1.02341926516947e-05
3.85500000000000e+01 5.19882653164882e-04 9.92527604510040e-06
3.88500000000000e+01 5.02224416318169e-04 9.62539251558416e-06
3.91500000000000e+01 4.85165955837597e-04 9.33429137423566e-06
3.94500000000000e+01 4.68686899831423e-04 9.05172823298930e-06
3.97500000000000e+01 4.52767568355768e-04 8.77746488093460e-06
4.00500000000000e+01 4.37388949912038e-04 8.51126916097569e-06
4.03500000000000e+01 4.22532678742643e-04 8.25291484700156e-06
4.06500000000000e+01 4.08181012897875e-04 8.00218152171618e-06
4.09500000000000e+01 3.94316813047767e-04 7.75885445526250e-06
4.12500000000000e+01 3.80923522013626e-04 7.52272448476473e-06
4.15500000000000e+01 3.67985144994788e-04 7.29358789489966e-06
4.18500000000000e+01 3.55486230466995e-04 7.07124629959791e-06
4.21500000000000e+01 3.43411851729567e-04 6.85550652496723e-06
4.24500000000000e+01 3.31747589079345e-04 6.64618049351895e-06
4.27500000000000e+01 3.20479512590108e-04 6.44308510977133e-06
4.30500000000000e+01 3.09594165476900e-04 6.24604214729479e-06
4.33500000000000e+01 2.99078548025402e-04 6.05487813725722e-06
4.36500000000000e+01 2.88920102067158e-04 5.86942425851982e-06
4.39500000000000e+01 2.79106695982111e-04 5.68951622932874e-06
4.42500000000000e+01 2.69626610210538e-04 5.51499420064051e-06
4.45500000000000e+01 2.60468523257089e-04 5.34570265111354e-06
4.48500000000000e+01 2.51621498170201e-04 5.18149028379466e-06
4.51500000000000e+01 2.43074969480764e-04 5.02220992452280e-06
4.54500000000000e+01 2.34818730584411e-04 4.86771842206857e-06
4.57500000000000e+01 2.26842921552389e-04 4.71787655002407e-06
4.60500000000000e+01 2.19138017356437e-04 4.57254891045332e-06
4.63500000000000e+01 2.11694816493623e-04 4.43160383931073e-06
4.66500000000000e+01 2.04504429997537e-04 4.29491331363130e-06
4.69500000000000e+01 1.97558270822741e-04 4.16235286049317e-06
4.72500000000000e+01 1.90848043589772e-04 4.03380146775080e-06
4.75500000000000e+01 1.84365734678474e-04 3.90914149653446e-06
4.78500000000000e+01 1.78103602657812e-04 3.78825859550874e-06
4.81500000000000e+01 1.72054169040747e-04 3.67104161688176e-06
4.84500000000000e+01 1.66210209353132e-04 3.55738253415416e-06
4.87500000000000e+01 1.60564744505955e-04 3.44717636159477e-06
4.90500000000000e+01 1.55111032460635e-04 3.34032107542942e-06
4.93500000000000e+01 1.49842560177411e-04 3.23671753672692e-06
4.96500000000000e+01 1.44753035837211e-04 3.13626941596502e-06
4.99500000000000e+01 1.39836381327710e-04 3.03888311925859e-06
5.02500000000000e+01 1.35086724984611e-04 2.94446771623032e-06
5.05500000000000e+01 1.30498394579464e-04 2.85293486950434e-06
5.08500000000000e+01 1.26065910545669e-04 2.76419876580103e-06
5.11500000000000e+01 1.21783979434561e-04 2.67817604861169e-06
5.14500000000000e+01 1.17647487593760e-04 2.59478575243044e-06
5.17500000000000e+01 1.13651495060244e-04 2.51394923852033e-06
5.20500000000000e+01 1.09791229660852e-04 2.43559013219026e-06
5.23500000000000e+01 1.06062081313160e-04 2.35963426155859e-06
5.26500000000000e+01 1.02459596519945e-04 2.28600959777920e-06
5.29500000000000e+01 9.89794730506316e-05 2.21464619670553e-06
5.32500000000000e+01 9.56175548034063e-05 2.14547614196774e-06
5.35500000000000e+01 9.23698268418299e-05 2.07843348943796e-06
5.38500000000000e+01 8.92324106000428e-05 2.01345421305859e-06
5.41500000000000e+01 8.62015592508269e-05 1.95047615200848e-06
5.44500000000000e+01 8.32736532309961e-05 1.88943895918181e-06
5.47500000000000e+01 8.04451959187695e-05 1.83028405095442e-06
5.50500000000000e+01 7.77128094579669e-05 1.77295455821249e-06
5.53500000000000e+01 7.50732307240385e-05 1.71739527861860e-06
5.56500000000000e+01 7.25233074271122e-05 1.66355263008989e-06
5.59500000000000e+01 7.00599943474030e-05 1.61137460546398e-06
5.62500000000000e+01 6.76803496984913e-05 1.56081072832765e-06
5.65500000000000e+01 6.53815316141239e-05 1.51181200998389e-06
5.68500000000000e+01 6.31607947543446e-05 1.46433090753314e-06
5.71500000000000e+01 6.10154870269003e-05 1.41832128304472e-06
5.74500000000000e+01 5.89430464200066e-05 1.37373836379458e-06
5.77500000000000e+01 5.69409979426915e-05 1.33053870354591e-06
5.80500000000000e+01 5.50069506690630e-05 1.28868014484936e-06
5.83500000000000e+01 5.31385948829704e-05 1.24812178234002e-06
5.86500000000000e+01 5.13336993196490e-05 1.20882392700838e-06
5.89500000000000e+01 4.95901085010555e-05 1.17074807142309e-06
5.92500000000000e+01 4.79057401617101e-05 1.13385685588338e-06
5.95500000000000e+01 4.62785827619722e-05 1.09811403547957e-06
5.98500000000000e+01 4.47066930857804e-05 1.06348444804028e-06
6.01500000000000e+01 4.31881939199857e-05 1.02993398294529e-06
6.04500000000000e+01 4.17212718125096e-05 9.97429550783556e-07
6.07500000000000e+01 4.03041749066474e-05 9.65939053835864e-07
6.10500000000000e+01 3.89352108489311e-05 9.35431357362349e-07
6.13500000000000e+01 3.76127447680537e-05 9.05876261675153e-07
6.16500000000000e+01 3.63351973224407e-05 8.77244474976978e-07
6.19500000000000e+01 3.51010428141382e-05 8.49507586946792e-07
6.22500000000000e+01 3.39088073667630e-05 8.22638043053968e-07
6.25500000000000e+01 3.27570671653411e-05 7.96609119582731e-07
6.28500000000000e+01 3.16444467559315e-05 7.71394899349193e-07
6.31500000000000e+01 3.05696174030040e-05 7.46970248093354e-07
6.34500000000000e+01 2.95312955026108e-05 7.23310791529049e-07
6.37500000000000e+01 2.85282410494552e-05 7.00392893035056e-07
6.40500000000000e+01 2.75592561560285e-05 6.78193631970922e-07
6.43500000000000e+01 2.66231836220445e-05 6.56690782601454e-07
6.46500000000000e+01 2.57189055524655e-05 6.35862793614124e-07
6.49500000000000e+01 2.48453420224670e-05 6.15688768214022e-07
6.52500000000000e+01 2.40014497877493e-05 5.96148444781288e-07
6.55500000000000e+01 2.31862210386528e-05 5.77222178076279e-07
6.58500000000000e+01 2.23986821965924e-05 5.58890920978097e-07
6.61500000000000e+01 2.16378927513708e-05 5.41136206742380e-07
6.64500000000000e+01 2.09029441379838e-05 5.23940131764607e-07
6.67500000000000e+01 2.01929586515762e-05 5.07285338835511e-07
6.70500000000000e+01 1.95070883992516e-05 4.91155000875399e-07
6.73500000000000e+01 1.88445142874847e-05 4.75532805134620e-07
6.76500000000000e+01 1.82044450439277e-05 4.60402937847604e-07
6.79500000000000e+01 1.75861162724411e-05 4.45750069328287e-07
6.82500000000000e+01 1.69887895402216e-05 4.31559339494949e-07
6.85500000000000e+01 1.64117514959361e-05 4.17816343812829e-07
6.88500000000000e+01 1.58543130178096e-05 4.04507119643168e-07
6.91500000000000e+01 1.53158083906479e-05 3.91618132987537e-07
6.94500000000000e+01 1.47955945108146e-05 3.79136265616675e-07
6.97500000000000e+01 1.42930501182110e-05 3.67048802573245e-07
7.00500000000000e+01 1.38075750543426e-05 3.55343420038257e-07
7.03500000000000e+01 1.33385895455859e-05 3.44008173551068e-07
7.06500000000000e+01 1.28855335107996e-05 3.33031486573197e-07
7.09500000000000e+01 1.24478658924539e-05 3.22402139386437e-07
7.12500000000000e+01 1.20250640104773e-05 3.12109258315932e-07
7.15500000000000e+01 1.16166229380522e-05 3.02142305269149e-07
7.18500000000000e+01 1.12220548986104e-05 2.92491067581947e-07
7.21500000000000e+01 1.08408886833113e-05 2.83145648163137e-07
7.24500000000000e+01 1.04726690883058e-05 2.74096455929117e-07
7.27500000000000e+01 1.01169563711133e-05 2.65334196520430e-07
7.30500000000000e+01 9.77332572546386e-06 2.56849863292322e-07
7.33500000000000e+01 9.44136677397798e-06 2.48634728571516e-07
7.36500000000000e+01 9.12068307807725e-06 2.40680335171667e-07
7.39500000000000e+01 8.81089166454183e-06 2.32978488160181e-07
7.42500000000000e+01 8.51162256814853e-06 2.25521246869232e-07
7.45500000000000e+01 8.22251838984364e-06 2.18300917143988e-07
7.48500000000000e+01 7.94323386992283e-06 2.11310043821324e-07
7.51500000000000e+01 7.67343547570819e-06 2.04541403432396e-07
7.54500000000000e+01 7.41280100323032e-06 1.97987997122673e-07
7.57500000000000e+01 7.16101919243949e-06 1.91643043783161e-07
7.60500000000000e+01 6.91778935548655e-06 1.85499973386779e-07
7.63500000000000e+01 6.68282101762953e-06 1.79552420523947e-07
7.66500000000000e+01 6.45583357033713e-06 1.73794218131650e-07
7.69500000000000e+01 6.23655593617491e-06 1.68219391410370e-07
7.72500000000000e+01 6.02472624507378e-06 1.62822151923471e-07
7.75500000000000e+01 5.82009152159440e-06 1.57596891873714e-07
7.78500000000000e+01 5.62240738281383e-06 1.52538178551780e-07
7.81500000000000e+01 5.43143774647371e-06 1.47640748951785e-07
7.84500000000000e+01 5.24695454904148e-06 1.42899504548917e-07
7.87500000000000e+01 5.06873747334781e-06 1.38309506234474e-07
7.90500000000000e+01 4.89657368547509e-06 1.33865969403700e-07
7.93500000000000e+01 4.73025758058271e-06 1.29564259191937e-07
7.96500000000000e+01 4.56959053736556e-06 1.25399885854755e-07
7.99500000000000e+01 4.41438068085260e-06 1.21368500287831e-07
8.02500000000000e+01 4.26444265326212e-06 1.17465889682481e-07
8.05500000000000e+01 4.11959739264012e-06 1.13687973312818e-07
8.08500000000000e+01 3.97967191901739e-06 1.10030798450706e-07
8.11500000000000e+01 3.84449912782996e-06 1.06490536404699e-07
8.14500000000000e+01 3.71391759035621e-06 1.03063478679318e-07
8.17500000000000e+01 3.58777136093223e-06 9.97460332511117e-08
8.20500000000000e+01 3.46590979071534e-06 9.65347209580274e-08
8.23500000000000e+01 3.34818734777324e-06 9.34261719987430e-08
8.26500000000000e+01 3.23446344328398e-06 9.04171225386903e-08
8.29500000000000e+01 3.12460226363921e-06 8.75044114196028e-08
8.32500000000000e+01 3.01847260825020e-06 8.46849769695017e-08
8.35500000000000e+01 2.91594773286280e-06 8.19558539101319e-08
8.38500000000000e+01 2.81690519819451e-06 7.93141703589401e-08
8.41500000000000e+01 2.72122672371254e-06 7.67571449227713e-08
8.44500000000000e+01 2.62879804637854e-06 7.42820838805467e-08
8.47500000000000e+01 2.53950878419113e-06 7.18863784522544e-08
8.50500000000000e+01 2.45325230436330e-06 6.95675021516697e-08
8.53500000000000e+01 2.36992559597734e-06 6.73230082202990e-08
8.56500000000000e+01 2.28942914696506e-06 6.51505271401022e-08
8.59500000000000e+01 2.21166682526656e-06 6.30477642226336e-08
8.62500000000000e+01 2.13654576402548e-06 6.10124972722992e-08
8.65500000000000e+01 2.06397625068371e-06 5.90425743214982e-08
8.68500000000000e+01 1.99387161984309e-06 5.71359114354884e-08
8.71500000000000e+01 1.92614814976616e-06 5.52904905848677e-08
8.74500000000000e+01 1.86072496239229e-06 5.35043575836313e-08
8.77500000000000e+01 1.79752392674994e-06 5.17756200908270e-08
8.80500000000000e+01 1.73646956564950e-06 5.01024456738810e-08
8.83500000000000e+01 1.67748896554545e-06 4.84830599317272e-08
8.86500000000000e+01 1.62051168946012e-06 4.69157446759356e-08
8.89500000000000e+01 1.56546969286502e-06 4.53988361680719e-08
8.92500000000000e+01 1.51229724241937e-06 4.39307234115877e-08
8.95500000000000e+01 1.46093083746875e-06 4.25098464965855e-08
8.98500000000000e+01 1.41130913421005e-06 4.11346949958465e-08
9.01500000000000e+01 1.36337287243233e-06 3.98038064105670e-08
9.04500000000000e+01 1.31706480474583e-06 3.85157646642864e-08
9.07500000000000e+01 1.27232962821496e-06 3.72691986435428e-08
9.10500000000000e+01 1.22911391831324e-06 3.60627807838269e-08
9.13500000000000e+01 1.18736606512167e-06 3.48952256994539e-08
9.16500000000000e+01 1.14703621169412e-06 3.37652888560121e-08
9.19500000000000e+01 1.10807619451611e-06 3.26717652840875e-08
9.22500000000000e+01 1.07043948598611e-06 3.16134883330026e-08
9.25500000000000e+01 1.03408113885037e-06 3.05893284633408e-08
9.28500000000000e+01 9.98957732525163e-07 2.95981920770751e-08
9.31500000000000e+01 9.65027321242157e-07 2.86390203841432e-08
9.34500000000000e+01 9.32249383955147e-07 2.77107883043522e-08
9.37500000000000e+01 9.00584775948191e-07 2.68125034035308e-08
9.40500000000000e+01 8.69995682087439e-07 2.59432048628759e-08
9.43500000000000e+01 8.40445571660798e-07 2.51019624804716e-08
9.46500000000000e+01 8.11899154751499e-07 2.42878757039955e-08
