Energy (eV)          EEDF (eV^-(3/2))     First Anisotropy
2.88983050847458e-03 1.14614803881073e+00 5.53354670804386e-04
8.66949152542373e-03 1.13946070805166e+00 9.14153367879860e-04
1.44491525423729e-02 1.13281239530641e+00 1.20786612873495e-03
2.02288135593220e-02 1.12620287285868e+00 1.43166070160778e-03
2.60084745762712e-02 1.11963191443342e+00 1.61885422708428e-03
3.17881355932203e-02 1.11309929501776e+00 1.78202437401551e-03
3.75677966101695e-02 1.10660479091548e+00 1.92767073043289e-03
4.33474576271186e-02 1.10014817973653e+00 2.05971269317814e-03
4.91271186440678e-02 1.09372924038975e+00 2.18074606509555e-03
5.49067796610170e-02 1.08734775306222e+00 2.29260296823502e-03
6.06864406779661e-02 1.08100349924908e+00 2.39663776475956e-03
6.64661016949153e-02 1.07469626170662e+00 2.49388762017416e-03
7.22457627118644e-02 1.06842582445878e+00 2.58516925114734e-03
7.80254237288136e-02 1.06219197278964e+00 2.67114049804977e-03
8.38050847457627e-02 1.05599449323630e+00 2.75234125693811e-03
8.95847457627119e-02 1.04983317357448e+00 2.82922167776486e-03
9.53644067796610e-02 1.04370780283254e+00 2.90216218441447e-03
1.01144067796610e-01 1.03761817126224e+00 2.97148804949503e-03
1.06923728813559e-01 1.03156407035542e+00 3.03748024393107e-03
1.12703389830508e-01 1.02554529278704e+00 3.10038365929035e-03
1.18483050847458e-01 1.01956163245907e+00 3.16041344686487e-03
1.24262711864407e-01 1.01361288447598e+00 3.21775998780920e-03
1.30042372881356e-01 1.00769884513773e+00 3.27259282742479e-03
1.35822033898305e-01 1.00181931193280e+00 3.32506383367373e-03
1.41601694915254e-01 9.95974083531229e-01 3.37530975875977e-03
1.47381355932203e-01 9.90162959777758e-01 3.42345433681916e-03
1.53161016949153e-01 9.84385741684942e-01 3.46961001697276e-03
1.58940677966102e-01 9.78642231426358e-01 3.51387940675723e-03
1.64720338983051e-01 9.72932232329823e-01 3.55635648331295e-03
1.70500000000000e-01 9.67255548870659e-01 3.59712762159277e-03
1.76279661016949e-01 9.61611986633388e-01 3.63627244959460e-03
1.82059322033898e-01 9.56001352401318e-01 3.67386460258366e-03
1.87838983050847e-01 9.50423454052189e-01 3.70997237303308e-03
1.93618644067797e-01 9.44878100584706e-01 3.74465924867953e-03
1.99398305084746e-01 9.39365102111999e-01 3.77798439813175e-03
2.05177966101695e-01 9.33884269855121e-01 3.81000309009650e-03
2.10957627118644e-01 9.28435416136582e-01 3.84076706069019e-03
2.16737288135593e-01 9.23018354373923e-01 3.87032483654324e-03
2.22516949152542e-01 9.17632899073324e-01 3.89872202008571e-03
2.28296610169492e-01 9.12278865823255e-01 3.92600154233397e-03
2.34076271186441e-01 9.06956071288157e-01 3.95220388762991e-03
2.39855932203390e-01 9.01664333202171e-01 3.97736729408191e-03
2.45635593220339e-01 8.96403470362885e-01 4.00152793287071e-03
2.51415254237288e-01 8.91173302625140e-01 4.02472006910996e-03
2.57194915254237e-01 8.85973650894855e-01 4.04697620655228e-03
2.62974576271186e-01 8.80804337122895e-01 4.06832721809975e-03
2.68754237288136e-01 8.75665184298978e-01 4.08880246380547e-03
2.74533898305085e-01 8.70556016445605e-01 4.10842989781418e-03
2.80313559322034e-01 8.65476658612044e-01 4.12723616549984e-03
2.86093220338983e-01 8.60426936868331e-01 4.14524669188968e-03
2.91872881355932e-01 8.55406678299319e-01 4.16248576232161e-03
2.97652542372881e-01 8.50415710998756e-01 4.17897659616506e-03
3.03432203389831e-01 8.45453864063396e-01 4.19474141432881e-03
3.09211864406780e-01 8.40520967587149e-01 4.20980150119268e-03
3.14991525423729e-01 8.35616852655261e-01 4.22417726152413e-03
3.20771186440678e-01 8.30741351338534e-01 4.23788827287457e-03
3.26550847457627e-01 8.25894296687570e-01 4.25095333389238e-03
3.32330508474576e-01 8.21075522727059e-01 4.26339050894016e-03
3.38110169491525e-01 8.16284864450093e-01 4.27521716936219e-03
3.43889830508475e-01 8.11522157812514e-01 4.28645003171093e-03
3.49669491525424e-01 8.06787239727296e-01 4.29710519320022e-03
3.55449152542373e-01 8.02079948058968e-01 4.30719816463747e-03
3.61228813559322e-01 7.97400121618058e-01 4.31674390105591e-03
3.67008474576271e-01 7.92747600155571e-01 4.32575683023542e-03
3.72788135593220e-01 7.88122224357505e-01 4.33425087929664e-03
3.78567796610170e-01 7.83523835839395e-01 4.34223949952631e-03
3.84347457627119e-01 7.78952277140886e-01 4.34973568957763e-03
3.90127118644068e-01 7.74407391720345e-01 4.35675201717758e-03
3.95906779661017e-01 7.69889023949499e-01 4.36330063945723e-03
4.01686440677966e-01 7.65397019108107e-01 4.36939332201454e-03
4.07466101694915e-01 7.60931223378660e-01 4.37504145680615e-03
4.13245762711864e-01 7.56491483841115e-01 4.38025607895591e-03
4.19025423728814e-01 7.52077648467659e-01 4.38504788256244e-03
4.24805084745763e-01 7.47689566117503e-01 4.38942723557717e-03
4.30584745762712e-01 7.43327086531705e-01 4.39340419382213e-03
4.36364406779661e-01 7.38990060328027e-01 4.39698851420934e-03
4.42144067796610e-01 7.34678338995821e-01 4.40018966721512e-03
4.47923728813559e-01 7.30391774890937e-01 4.40301684866351e-03
4.53703389830509e-01 7.26130221230676e-01 4.40547899086551e-03
4.59483050847458e-01 7.21893532088756e-01 4.40758477315874e-03
4.65262711864407e-01 7.17681562390320e-01 4.40934263188530e-03
4.71042372881356e-01 7.13494167906968e-01 4.41076076984540e-03
4.76822033898305e-01 7.09331205251815e-01 4.41184716526420e-03
4.82601694915254e-01 7.05192531874586e-01 4.41260958029865e-03
4.88381355932203e-01 7.01078006056729e-01 4.41305556911484e-03
4.94161016949153e-01 6.96987486906567e-01 4.41319248556405e-03
4.99940677966102e-01 6.92920834354470e-01 4.41302749048153e-03
5.05720338983051e-01 6.88877909148062e-01 4.41256755863123e-03
5.11500000000000e-01 6.84858572847449e-01 4.41181948733007e-03
5.17279661016949e-01 6.80862687812940e-01 4.41078989666986e-03
5.23059322033898e-01 6.76890117223133e-01 4.40948523959799e-03
5.28838983050848e-01 6.72940725047248e-01 4.40791181174141e-03
5.34618644067797e-01 6.69014376048194e-01 4.40607575068602e-03
5.40398305084746e-01 6.65110935777937e-01 4.40398304326993e-03
5.46177966101695e-01 6.61230270572896e-01 4.40163953056937e-03
5.51957627118644e-01 6.57372247549362e-01 4.39905091266504e-03
5.57737288135593e-01 6.53536734598957e-01 4.39622275320040e-03
5.63516949152542e-01 6.49723600384099e-01 4.39316048374393e-03
5.69296610169492e-01 6.45932714333512e-01 4.38986940796517e-03
5.75076271186441e-01 6.42163946637755e-01 4.38635470563535e-03
5.80855932203390e-01 6.38417168244772e-01 4.38262143646233e-03
5.86635593220339e-01 6.34692250855479e-01 4.37867454376550e-03
5.92415254237288e-01 6.30989066919364e-01 4.37451885800230e-03
5.98194915254237e-01 6.27307489630127e-01 4.37015910015319e-03
6.03974576271187e-01 6.23647392921331e-01 4.36559988497036e-03
6.09754237288136e-01 6.20008651462090e-01 4.36084572409858e-03
6.15533898305085e-01 6.16391140652775e-01 4.35590102907466e-03
6.21313559322034e-01 6.12794736620746e-01 4.35077011421129e-03
6.27093220338983e-01 6.09219316216114e-01 4.34545719936964e-03
6.32872881355932e-01 6.05664757007521e-01 4.33996641262726e-03
6.38652542372881e-01 6.02130937277950e-01 4.33430179284679e-03
6.44432203389831e-01 5.98617736020555e-01 4.32846729214872e-03
6.50211864406780e-01 5.95125032934517e-01 4.32246677829344e-03
6.55991525423729e-01 5.91652708420929e-01 4.31630403697676e-03
6.61771186440678e-01 5.88200643578694e-01 4.30998277404299e-03
6.67550847457627e-01 5.84768720200460e-01 4.30350661761870e-03
6.73330508474576e-01 5.81356820768567e-01 4.29687912017148e-03
6.79110169491525e-01 5.77964828451026e-01 4.29010376049624e-03
6.84889830508475e-01 5.74592627097519e-01 4.28318394563320e-03
6.90669491525424e-01 5.71240101235416e-01 4.27612301272001e-03
6.96449152542373e-01 5.67907136065830e-01 4.26892423077965e-03
7.02228813559322e-01 5.64593617459679e-01 4.26159080245030e-03
7.08008474576271e-01 5.61299431953780e-01 4.25412586565630e-03
7.13788135593220e-01 5.58024466746965e-01 4.24653249522312e-03
7.19567796610170e-01 5.54768609696216e-01 4.23881370444029e-03
7.25347457627119e-01 5.51531749312828e-01 4.23097244657351e-03
7.31127118644068e-01 5.48313774758588e-01 4.22301161632795e-03
7.36906779661017e-01 5.45114575841982e-01 4.21493405126454e-03
7.42686440677966e-01 5.41934043014420e-01 4.20674253317168e-03
7.48466101694915e-01 5.38772067366487e-01 4.19843978939370e-03
7.54245762711864e-01 5.35628540624211e-01 4.19002849411899e-03
7.60025423728814e-01 5.32503355145358e-01 4.18151126962671e-03
7.65805084745763e-01 5.29396403915744e-01 4.17289068749631e-03
7.71584745762712e-01 5.26307580545573e-01 4.16416926978126e-03
7.77364406779661e-01 5.23236779265789e-01 4.15534949014540e-03
7.83144067796610e-01 5.20183894924462e-01 4.14643377496675e-03
7.88923728813559e-01 5.17148822983180e-01 4.13742450440887e-03
7.94703389830509e-01 5.14131459513472e-01 4.12832401346045e-03
8.00483050847458e-01 5.11131701193251e-01 4.11913459294380e-03
8.06262711864407e-01 5.08149445303275e-01 4.10985849049554e-03
8.12042372881356e-01 5.05184589723627e-01 4.10049791151816e-03
8.17822033898305e-01 5.02237032930222e-01 4.09105502010544e-03
8.23601694915254e-01 4.99306673991327e-01 4.08153193994124e-03
8.29381355932204e-01 4.96393412564109e-01 4.07193075517224e-03
8.35161016949153e-01 4.93497148891195e-01 4.06225351125870e-03
8.40940677966102e-01 4.90617783797258e-01 4.05250221579982e-03
8.46720338983051e-01 4.87755218685621e-01 4.04267883933678e-03
8.52500000000000e-01 4.84909355534881e-01 4.03278531724034e-03
8.58279661016949e-01 4.82080096892339e-01 4.02282354713778e-03
8.64059322033898e-01 4.79267345880361e-01 4.01279539188493e-03
8.69838983050848e-01 4.76471006183301e-01 4.00270268253773e-03
8.75618644067797e-01 4.73690982047479e-01 3.99254721566214e-03
8.81398305084746e-01 4.70927178277901e-01 3.98233075515396e-03
8.87177966101695e-01 4.68179500234999e-01 3.97205503290468e-03
8.92957627118644e-01 4.65447853831389e-01 3.96172174944893e-03
8.98737288135593e-01 4.62732145528652e-01 3.95133257459615e-03
9.04516949152542e-01 4.60032282334129e-01 3.94088914804646e-03
9.10296610169492e-01 4.57348171797737e-01 3.93039307999049e-03
9.16076271186441e-01 4.54679722008803e-01 3.91984595169412e-03
9.21855932203390e-01 4.52026841592920e-01 3.90924931606887e-03
9.27635593220339e-01 4.49389439708812e-01 3.89860469822851e-03
9.33415254237288e-01 4.46767426045230e-01 3.88791359603159e-03
9.39194915254237e-01 4.44160710817852e-01 3.87717748060990e-03
9.44974576271187e-01 4.41569204766218e-01 3.86639779688526e-03
9.50754237288136e-01 4.38992819150663e-01 3.85557596407421e-03
9.56533898305085e-01 4.36431465749289e-01 3.84471337617915e-03
9.62313559322034e-01 4.33885056854934e-01 3.83381140246828e-03
9.68093220338983e-01 4.31353505272176e-01 3.82287138794502e-03
9.73872881355932e-01 4.28836724314344e-01 3.81189465380605e-03
9.79652542372881e-01 4.26334627800551e-01 3.80088249788747e-03
9.85432203389831e-01 4.23847130052741e-01 3.78983619510205e-03
9.91211864406780e-01 4.21374145892756e-01 3.77875699786625e-03
9.96991525423729e-01 4.18915590639422e-01 3.76764613651660e-03
1.00277118644068e+00 4.16471380105644e-01 3.75650482235590e-03
1.00855084745763e+00 4.14041430588459e-01 3.74533423922474e-03
1.01433050847458e+00 4.11625658889828e-01 3.73413555097792e-03
1.02011016949153e+00 4.09223982287603e-01 3.72290990722827e-03
1.02588983050847e+00 4.06836318542291e-01 3.71165843384970e-03
1.03166949152542e+00 4.04462585894216e-01 3.70038223693965e-03
1.03744915254237e+00 4.02102703060760e-01 3.68908240317506e-03
1.04322881355932e+00 3.99756589233558e-01 3.67776000017562e-03
1.04900847457627e+00 3.97424164075732e-01 3.66641608500665e-03
1.05478813559322e+00 3.95105347697735e-01 3.65505167987553e-03
1.06056779661017e+00 3.92800060719212e-01 3.64366778895198e-03
1.06634745762712e+00 3.90508224201298e-01 3.63226541532482e-03
1.07212711864407e+00 3.88229759665705e-01 3.62084553625028e-03
1.07790677966102e+00 3.85964589092036e-01 3.60940911185685e-03
1.08368644067797e+00 3.83712634915114e-01 3.59795708544714e-03
1.08946610169492e+00 3.81473820022311e-01 3.58649038377993e-03
1.09524576271186e+00 3.79248067750941e-01 3.57500991735973e-03
1.10102542372881e+00 3.77035301885611e-01 3.56351658072707e-03
1.10680508474576e+00 3.74835446655621e-01 3.55201126022936e-03
1.11258474576271e+00 3.72648426713228e-01 3.54049481167226e-03
1.11836440677966e+00 3.70474167188808e-01 3.52896807572473e-03
1.12414406779661e+00 3.68312593630211e-01 3.51743189345324e-03
1.12992372881356e+00 3.66163632019687e-01 3.50588708356608e-03
1.13570338983051e+00 3.64027208771353e-01 3.49433445037279e-03
1.14148305084746e+00 3.61903250728666e-01 3.48277478402668e-03
1.14726271186441e+00 3.59791685161921e-01 3.47120886075630e-03
1.15304237288136e+00 3.57692439765771e-01 3.45963744310346e-03
1.15882203389831e+00 3.55605442656745e-01 3.44806128015750e-03
1.16460169491525e+00 3.53530622370786e-01 3.43648111467294e-03
1.17038135593220e+00 3.51467907843651e-01 3.42489766249611e-03
1.17616101694915e+00 3.49417228460226e-01 3.41331162669886e-03
1.18194067796610e+00 3.47378514000063e-01 3.40172371183565e-03
1.18772033898305e+00 3.45351694652423e-01 3.39013460299888e-03
1.19350000000000e+00 3.43336701013885e-01 3.37854497311176e-03
1.19927966101695e+00 3.41333464085966e-01 3.36695548312554e-03
1.20505932203390e+00 3.39341915272762e-01 3.35536678221044e-03
1.21083898305085e+00 3.37361986378609e-01 3.34377950795371e-03
1.21661864406780e+00 3.35393609605737e-01 3.33219428655043e-03
1.22239830508475e+00 3.33436717551951e-01 3.32061173933539e-03
1.22817796610170e+00 3.31491243192911e-01 3.30903246382405e-03
1.23395762711864e+00 3.29557119926334e-01 3.29745704670072e-03
1.23973728813559e+00 3.27634281522950e-01 3.28588607692357e-03
1.24551694915254e+00 3.25722662139911e-01 3.27432012642670e-03
1.25129661016949e+00 3.23822196318539e-01 3.26275975681385e-03
1.25707627118644e+00 3.21932818982072e-01 3.25120551951926e-03
1.26285593220339e+00 3.20054465433456e-01 3.23965795596854e-03
1.26863559322034e+00 3.18187071353118e-01 3.22811759774393e-03
1.27441525423729e+00 3.16330572796767e-01 3.21658496674116e-03
1.28019491525424e+00 3.14484906193205e-01 3.20506058117310e-03
1.28597457627119e+00 3.12650008328267e-01 3.19354493808123e-03
1.29175423728814e+00 3.10825816384527e-01 3.18203852528901e-03
1.29753389830508e+00 3.09012267897046e-01 3.17054183346381e-03
1.30331355932203e+00 3.07209300765341e-01 3.15905533831756e-03
1.30909322033898e+00 3.05416853251262e-01 3.14757950676153e-03
1.31487288135593e+00 3.03634863976873e-01 3.13611479703916e-03
1.32065254237288e+00 3.01863271922358e-01 3.12466165886070e-03
1.32643220338983e+00 3.00102016423933e-01 3.11322053354320e-03
1.33221186440678e+00 2.98351037171761e-01 3.10179185414007e-03
1.33799152542373e+00 2.96610274207893e-01 3.09037605096686e-03
1.34377118644068e+00 2.94879667911686e-01 3.07897353545614e-03
1.34955084745763e+00 2.93159159035543e-01 3.06758471117055e-03
1.35533050847458e+00 2.91448688664898e-01 3.05620998491817e-03
1.36111016949153e+00 2.89748198228923e-01 3.04484975032203e-03
1.36688983050847e+00 2.88057629498535e-01 3.03350439348577e-03
1.37266949152542e+00 2.86376924584382e-01 3.02217429310360e-03
1.37844915254237e+00 2.84706025934887e-01 3.01085982057449e-03
1.38422881355932e+00 2.83044876334262e-01 2.99956134012178e-03
1.39000847457627e+00 2.81393418900552e-01 2.98827921392716e-03
1.39578813559322e+00 2.79751597072243e-01 2.97701378708570e-03
1.40156779661017e+00 2.78119354640845e-01 2.96576539785181e-03
1.40734745762712e+00 2.76496635714255e-01 2.95453438798263e-03
1.41312711864407e+00 2.74883384726483e-01 2.94332108742823e-03
1.41890677966102e+00 2.73279546435741e-01 2.93212581959690e-03
1.42468644067797e+00 2.71685065922559e-01 2.92094890145703e-03
1.43046610169492e+00 2.70099888587893e-01 2.90979064362961e-03
1.43624576271186e+00 2.68523960151272e-01 2.89865135048657e-03
1.44202542372881e+00 2.66957226648930e-01 2.88753132025111e-03
1.44780508474576e+00 2.65399634431960e-01 2.87643084973390e-03
1.45358474576271e+00 2.63851130154110e-01 2.86535022042172e-03
1.45936440677966e+00 2.62311660801221e-01 2.85428970793724e-03
1.46514406779661e+00 2.60781173657976e-01 2.84324959158971e-03
1.47092372881356e+00 2.59259616316634e-01 2.83223014021963e-03
1.47670338983051e+00 2.57746936675232e-01 2.82123161705684e-03
1.48248305084746e+00 2.56243082935802e-01 2.81025427980591e-03
1.48826271186441e+00 2.54748003602592e-01 2.79929838072610e-03
1.49404237288136e+00 2.53261647480317e-01 2.78836416671540e-03
1.49982203389831e+00 2.51783963672392e-01 2.77745187939430e-03
1.50560169491525e+00 2.50314901579199e-01 2.76656175948011e-03
1.51138135593220e+00 2.48854410886947e-01 2.75569403391589e-03
1.51716101694915e+00 2.47402441594302e-01 2.74484892461067e-03
1.52294067796610e+00 2.45958943982173e-01 2.73402665726542e-03
1.52872033898305e+00 2.44523868621560e-01 2.72322744827708e-03
1.53450000000000e+00 2.43097166371863e-01 2.71245150922533e-03
1.54027966101695e+00 2.41678788379197e-01 2.70169904694393e-03
1.54605932203390e+00 2.40268686074719e-01 2.69097026358953e-03
1.55183898305085e+00 2.38866811172971e-01 2.68026535671472e-03
1.55761864406780e+00 2.37473115670222e-01 2.66958451933856e-03
1.56339830508475e+00 2.36087551842823e-01 2.65892794398974e-03
1.56917796610170e+00 2.34710072237040e-01 2.64829581078879e-03
1.57495762711864e+00 2.33340629693171e-01 2.63768829553152e-03
1.58073728813559e+00 2.31979177318049e-01 2.62710557785234e-03
1.58651694915254e+00 2.30625668492113e-01 2.61654782909940e-03
1.59229661016949e+00 2.29280056867807e-01 2.60601521648198e-03
1.59807627118644e+00 2.27942296367993e-01 2.59550790313001e-03
1.60385593220339e+00 2.26612341184379e-01 2.58502604815426e-03
1.60963559322034e+00 2.25290145775945e-01 2.57456980670981e-03
1.61541525423729e+00 2.23975664867389e-01 2.56413933005542e-03
1.62119491525424e+00 2.22668853447570e-01 2.55373476929382e-03
1.62697457627119e+00 2.21369666760209e-01 2.54335626432965e-03
1.63275423728814e+00 2.20078060325765e-01 2.53300395135112e-03
1.63853389830509e+00 2.18793989916377e-01 2.52267797038639e-03
1.64431355932203e+00 2.17517411562238e-01 2.51237845407003e-03
1.65009322033898e+00 2.16248281550088e-01 2.50210553147975e-03
1.65587288135593e+00 2.14986556421711e-01 2.49185932818714e-03
1.66165254237288e+00 2.13732192972460e-01 2.48163996630981e-03
1.66743220338983e+00 2.12485148249769e-01 2.47144756456650e-03
1.67321186440678e+00 2.11245379551683e-01 2.46128223832729e-03
1.67899152542373e+00 2.10012844425399e-01 2.45114410307687e-03
1.68477118644068e+00 2.08787500658737e-01 2.44103326417761e-03
1.69055084745763e+00 2.07569306300020e-01 2.43094982379865e-03
1.69633050847458e+00 2.06358219635205e-01 2.42089388791532e-03
1.70211016949153e+00 2.05154199193630e-01 2.41086555589548e-03
1.70788983050847e+00 2.03957203746602e-01 2.40086492405204e-03
1.71366949152542e+00 2.02767192305977e-01 2.39089208568528e-03
1.71944915254237e+00 2.01584124122765e-01 2.38094713112812e-03
1.72522881355932e+00 2.00407958685731e-01 2.37103014779524e-03
1.73100847457627e+00 1.99238655720006e-01 2.36114122341543e-03
1.73678813559322e+00 1.98076175179201e-01 2.35128043645984e-03
1.74256779661017e+00 1.96920477263666e-01 2.34144786261592e-03
1.74834745762712e+00 1.95771522399391e-01 2.33164358132750e-03
1.75412711864407e+00 1.94629271243268e-01 2.32186766605819e-03
1.75990677966102e+00 1.93493684681737e-01 2.31212018760732e-03
1.76568644067797e+00 1.92364723829454e-01 2.30240121415141e-03
1.77146610169492e+00 1.91242350027952e-01 2.29271081128157e-03
1.77724576271186e+00 1.90126524844325e-01 2.28304904204332e-03
1.78302542372881e+00 1.89017210069909e-01 2.27341596697806e-03
1.78880508474576e+00 1.87914367718971e-01 2.26381164711949e-03
1.79458474576271e+00 1.86817960021469e-01 2.25423613511100e-03
1.80036440677966e+00 1.85727949439677e-01 2.24468948120891e-03
1.80614406779661e+00 1.84644298648885e-01 2.23517173934721e-03
1.81192372881356e+00 1.83566970542160e-01 2.22568295810239e-03
1.81770338983051e+00 1.82495928229074e-01 2.21622318376749e-03
1.82348305084746e+00 1.81431135034440e-01 2.20679246038706e-03
