Energy (eV)          EEDF (eV^-(3/2))     First Anisotropy
5.58125000000000e-04 2.65566449893168e+02 0.00000000000000e+00
1.67437500000000e-03 2.54342017953440e+02 0.00000000000000e+00
2.79062500000000e-03 2.43591997869650e+02 0.00000000000000e+00
3.90687500000000e-03 2.33296338149640e+02 0.00000000000000e+00
5.02312500000000e-03 2.23435834797643e+02 0.00000000000000e+00
6.13937500000000e-03 2.13992095494006e+02 0.00000000000000e+00
7.25562500000000e-03 2.04947505288882e+02 0.00000000000000e+00
8.37187500000000e-03 1.96285193745920e+02 0.00000000000000e+00
9.48812500000000e-03 1.87989003474653e+02 0.00000000000000e+00
1.06043750000000e-02 1.80043459992906e+02 0.00000000000000e+00
1.17206250000000e-02 1.72433742862984e+02 0.00000000000000e+00
1.28368750000000e-02 1.65145658047837e+02 0.00000000000000e+00
1.39531250000000e-02 1.58165611435601e+02 0.00000000000000e+00
1.50693750000000e-02 1.51480583483164e+02 0.00000000000000e+00
1.61856250000000e-02 1.45078104931443e+02 0.00000000000000e+00
1.73018750000000e-02 1.38946233547074e+02 0.00000000000000e+00
1.84181250000000e-02 1.33073531847146e+02 0.00000000000000e+00
1.95343750000000e-02 1.27449045765417e+02 0.00000000000000e+00
2.06506250000000e-02 1.22062284220224e+02 0.00000000000000e+00
2.17668750000000e-02 1.16903199545976e+02 0.00000000000000e+00
2.28831250000000e-02 1.11962168751730e+02 0.00000000000000e+00
2.39993750000000e-02 1.07229975571890e+02 0.00000000000000e+00
2.51156250000000e-02 1.02697793275556e+02 0.00000000000000e+00
2.62318750000000e-02 9.83571682024494e+01 0.00000000000000e+00
2.73481250000000e-02 9.42000039947062e+01 0.00000000000000e+00
2.84643750000000e-02 9.02185464951367e+01 0.00000000000000e+00
2.95806250000000e-02 8.64053692837694e+01 0.00000000000000e+00
3.06968750000000e-02 8.27533598257096e+01 0.00000000000000e+00
3.18131250000000e-02 7.92557062044724e+01 0.00000000000000e+00
3.29293750000000e-02 7.59058844160443e+01 0.00000000000000e+00
3.40456250000000e-02 7.26976461999748e+01 0.00000000000000e+00
3.51618750000000e-02 6.96250073847981e+01 0.00000000000000e+00
3.62781250000000e-02 6.66822367260477e+01 0.00000000000000e+00
3.73943750000000e-02 6.38638452160441e+01 0.00000000000000e+00
3.85106250000000e-02 6.11645758455135e+01 0.00000000000000e+00
3.96268750000000e-02 5.85793937979439e+01 0.00000000000000e+00
4.07431250000000e-02 5.61034770583844e+01 0.00000000000000e+00
4.18593750000000e-02 5.37322074191752e+01 0.00000000000000e+00
4.29756250000000e-02 5.14611618658277e+01 0.00000000000000e+00
4.40918750000000e-02 4.92861043269896e+01 0.00000000000000e+00
4.52081250000000e-02 4.72029777731066e+01 0.00000000000000e+00
4.63243750000000e-02 4.52078966490409e+01 0.00000000000000e+00
4.74406250000000e-02 4.32971396265337e+01 0.00000000000000e+00
4.85568750000000e-02 4.14671426629916e+01 0.00000000000000e+00
4.96731250000000e-02 3.97144923536501e+01 0.00000000000000e+00
5.07893750000000e-02 3.80359195647156e+01 0.00000000000000e+00
5.19056250000000e-02 3.64282933356076e+01 0.00000000000000e+00
5.30218750000000e-02 3.48886150389302e+01 0.00000000000000e+00
5.41381250000000e-02 3.34140127872769e+01 0.00000000000000e+00
5.52543750000000e-02 3.20017360764384e+01 0.00000000000000e+00
5.63706250000000e-02 3.06491506550202e+01 0.00000000000000e+00
5.74868750000000e-02 2.93537336109007e+01 0.00000000000000e+00
5.86031250000000e-02 2.81130686653657e+01 0.00000000000000e+00
5.97193750000000e-02 2.69248416661405e+01 0.00000000000000e+00
6.08356250000000e-02 2.57868362709135e+01 0.00000000000000e+00
6.19518750000000e-02 2.46969298133005e+01 0.00000000000000e+00
6.30681250000000e-02 2.36530893435376e+01 0.00000000000000e+00
6.41843750000000e-02 2.26533678365182e+01 0.00000000000000e+00
6.53006250000000e-02 2.16959005601020e+01 0.00000000000000e+00
6.64168750000000e-02 2.07789015969195e+01 0.00000000000000e+00
6.75331250000000e-02 1.99006605131875e+01 0.00000000000000e+00
6.86493750000000e-02 1.90595391683192e+01 0.00000000000000e+00
6.97656250000000e-02 1.82539686593805e+01 0.00000000000000e+00
7.08818750000000e-02 1.74824463946906e+01 0.00000000000000e+00
7.19981250000000e-02 1.67435332911108e+01 0.00000000000000e+00
7.31143750000000e-02 1.60358510897923e+01 0.00000000000000e+00
7.42306250000000e-02 1.53580797853768e+01 0.00000000000000e+00
7.53468750000000e-02 1.47089551638544e+01 0.00000000000000e+00
7.64631250000000e-02 1.40872664444861e+01 0.00000000000000e+00
7.75793750000000e-02 1.34918540213933e+01 0.00000000000000e+00
7.86956250000000e-02 1.29216073006013e+01 0.00000000000000e+00
7.98118750000000e-02 1.23754626285017e+01 0.00000000000000e+00
8.09281250000000e-02 1.18524013078710e+01 0.00000000000000e+00
8.20443750000000e-02 1.13514476977440e+01 0.00000000000000e+00
8.31606250000000e-02 1.08716673935978e+01 0.00000000000000e+00
8.42768750000000e-02 1.04121654844524e+01 0.00000000000000e+00
8.53931250000000e-02 9.97208488363673e+00 0.00000000000000e+00
8.65093750000000e-02 9.55060473010585e+00 0.00000000000000e+00
8.76256250000000e-02 9.14693885732902e+00 0.00000000000000e+00
8.87418750000000e-02 8.76033432689118e+00 0.00000000000000e+00
8.98581250000000e-02 8.39007002407335e+00 0.00000000000000e+00
9.09743750000000e-02 8.03545531279226e+00 0.00000000000000e+00
9.20906250000000e-02 7.69582874739031e+00 0.00000000000000e+00
9.32068750000000e-02 7.37055683887296e+00 0.00000000000000e+00
9.43231250000000e-02 7.05903287329242e+00 0.00000000000000e+00
9.54393750000000e-02 6.76067578007343e+00 0.00000000000000e+00
9.65556250000000e-02 6.47492904817049e+00 0.00000000000000e+00
9.76718750000000e-02 6.20125968803471e+00 0.00000000000000e+00
9.87881250000000e-02 5.93915723745423e+00 0.00000000000000e+00
9.99043750000000e-02 5.68813280941372e+00 0.00000000000000e+00
1.01020625000000e-01 5.44771818019715e+00 0.00000000000000e+00
1.02136875000000e-01 5.21746491603268e+00 0.00000000000000e+00
1.03253125000000e-01 4.99694353665093e+00 0.00000000000000e+00
1.04369375000000e-01 4.78574271419616e+00 0.00000000000000e+00
1.05485625000000e-01 4.58346850599637e+00 0.00000000000000e+00
1.06601875000000e-01 4.38974361976106e+00 0.00000000000000e+00
1.07718125000000e-01 4.20420670983623e+00 0.00000000000000e+00
1.08834375000000e-01 4.02651170320376e+00 0.00000000000000e+00
1.09950625000000e-01 3.85632715396823e+00 0.00000000000000e+00
1.11066875000000e-01 3.69333562512686e+00 0.00000000000000e+00
1.12183125000000e-01 3.53723309646969e+00 0.00000000000000e+00
1.13299375000000e-01 3.38772839750539e+00 0.00000000000000e+00
1.14415625000000e-01 3.24454266435499e+00 0.00000000000000e+00
1.15531875000000e-01 3.10740881960064e+00 0.00000000000000e+00
1.16648125000000e-01 2.97607107411899e+00 0.00000000000000e+00
1.17764375000000e-01 2.85028444997013e+00 0.00000000000000e+00
1.18880625000000e-01 2.72981432345211e+00 0.00000000000000e+00
1.19996875000000e-01 2.61443598746869e+00 0.00000000000000e+00
1.21113125000000e-01 2.50393423239406e+00 0.00000000000000e+00
1.22229375000000e-01 2.39810294465277e+00 0.00000000000000e+00
1.23345625000000e-01 2.29674472226603e+00 0.00000000000000e+00
1.24461875000000e-01 2.19967050664735e+00 0.00000000000000e+00
1.25578125000000e-01 2.10669922996072e+00 0.00000000000000e+00
1.26694375000000e-01 2.01765747738355e+00 0.00000000000000e+00
1.27810625000000e-01 1.93237916364439e+00 0.00000000000000e+00
1.28926875000000e-01 1.85070522323207e+00 0.00000000000000e+00
1.30043125000000e-01 1.77248331369856e+00 0.00000000000000e+00
1.31159375000000e-01 1.69756753150195e+00 0.00000000000000e+00
1.32275625000000e-01 1.62581813985963e+00 0.00000000000000e+00
1.33391875000000e-01 1.55710130810404e+00 0.00000000000000e+00
1.34508125000000e-01 1.49128886205479e+00 0.00000000000000e+00
1.35624375000000e-01 1.42825804494159e+00 0.00000000000000e+00
1.36740625000000e-01 1.36789128843198e+00 0.00000000000000e+00
1.37856875000000e-01 1.31007599333677e+00 0.00000000000000e+00
1.38973125000000e-01 1.25470431958430e+00 0.00000000000000e+00
1.40089375000000e-01 1.20167298507149e+00 0.00000000000000e+00
1.41205625000000e-01 1.15088307301680e+00 0.00000000000000e+00
1.42321875000000e-01 1.10223984745549e+00 0.00000000000000e+00
1.43438125000000e-01 1.05565257653327e+00 0.00000000000000e+00
1.44554375000000e-01 1.01103436326849e+00 0.00000000000000e+00
1.45670625000000e-01 9.68301983467488e-01 0.00000000000000e+00
1.46786875000000e-01 9.27375730490456e-01 0.00000000000000e+00
1.47903125000000e-01 8.88179266578549e-01 0.00000000000000e+00
1.49019375000000e-01 8.50639480464738e-01 0.00000000000000e+00
1.50135625000000e-01 8.14686351002912e-01 0.00000000000000e+00
1.51251875000000e-01 7.80252816560814e-01 0.00000000000000e+00
1.52368125000000e-01 7.47274649933232e-01 0.00000000000000e+00
1.53484375000000e-01 7.15690338542098e-01 0.00000000000000e+00
1.54600625000000e-01 6.85440969700055e-01 0.00000000000000e+00
1.55716875000000e-01 6.56470120723468e-01 0.00000000000000e+00
1.56833125000000e-01 6.28723753689930e-01 0.00000000000000e+00
1.57949375000000e-01 6.02150114643939e-01 0.00000000000000e+00
1.59065625000000e-01 5.76699637062744e-01 0.00000000000000e+00
1.60181875000000e-01 5.52324849402315e-01 0.00000000000000e+00
1.61298125000000e-01 5.28980286550968e-01 0.00000000000000e+00
1.62414375000000e-01 5.06622405025494e-01 0.00000000000000e+00
1.63530625000000e-01 4.85209501751604e-01 0.00000000000000e+00
1.64646875000000e-01 4.64701636277204e-01 0.00000000000000e+00
1.65763125000000e-01 4.45060556273406e-01 0.00000000000000e+00
1.66879375000000e-01 4.26249626184306e-01 0.00000000000000e+00
1.67995625000000e-01 4.08233758892458e-01 0.00000000000000e+00
1.69111875000000e-01 3.90979350272568e-01 0.00000000000000e+00
1.70228125000000e-01 3.74454216511353e-01 0.00000000000000e+00
1.71344375000000e-01 3.58627534076622e-01 0.00000000000000e+00
1.72460625000000e-01 3.43469782223642e-01 0.00000000000000e+00
1.73576875000000e-01 3.28952687931516e-01 0.00000000000000e+00
1.74693125000000e-01 3.15049173166887e-01 0.00000000000000e+00
1.75809375000000e-01 3.01733304376595e-01 0.00000000000000e+00
1.76925625000000e-01 2.88980244115073e-01 0.00000000000000e+00
1.78041875000000e-01 2.76766204716264e-01 0.00000000000000e+00
1.79158125000000e-01 2.65068403923634e-01 0.00000000000000e+00
1.80274375000000e-01 2.53865022395540e-01 0.00000000000000e+00
1.81390625000000e-01 2.43135163006661e-01 0.00000000000000e+00
1.82506875000000e-01 2.32858811869602e-01 0.00000000000000e+00
1.83623125000000e-01 2.23016801003964e-01 0.00000000000000e+00
1.84739375000000e-01 2.13590772583231e-01 0.00000000000000e+00
1.85855625000000e-01 2.04563144692810e-01 0.00000000000000e+00
1.86971875000000e-01 1.95917078535335e-01 0.00000000000000e+00
1.88088125000000e-01 1.87636447022070e-01 0.00000000000000e+00
1.89204375000000e-01 1.79705804691836e-01 0.00000000000000e+00
1.90320625000000e-01 1.72110358901338e-01 0.00000000000000e+00
1.91436875000000e-01 1.64835942233162e-01 0.00000000000000e+00
1.92553125000000e-01 1.57868986069979e-01 0.00000000000000e+00
1.93669375000000e-01 1.51196495285657e-01 0.00000000000000e+00
1.94785625000000e-01 1.44806024006085e-01 0.00000000000000e+00
1.95901875000000e-01 1.38685652394485e-01 0.00000000000000e+00
1.97018125000000e-01 1.32823964417914e-01 0.00000000000000e+00
1.98134375000000e-01 1.27210026553495e-01 0.00000000000000e+00
1.99250625000000e-01 1.21833367394645e-01 0.00000000000000e+00
2.00366875000000e-01 1.16683958119265e-01 0.00000000000000e+00
2.01483125000000e-01 1.11752193783464e-01 0.00000000000000e+00
2.02599375000000e-01 1.07028875405924e-01 0.00000000000000e+00
2.03715625000000e-01 1.02505192809484e-01 0.00000000000000e+00
2.04831875000000e-01 9.81727081879433e-02 0.00000000000000e+00
2.05948125000000e-01 9.40233403674292e-02 0.00000000000000e+00
2.07064375000000e-01 9.00493497329753e-02 0.00000000000000e+00
2.08180625000000e-01 8.62433237921923e-02 0.00000000000000e+00
2.09296875000000e-01 8.25981633491043e-02 0.00000000000000e+00
2.10413125000000e-01 7.91070692623626e-02 0.00000000000000e+00
2.11529375000000e-01 7.57635297631360e-02 0.00000000000000e+00
2.12645625000000e-01 7.25613083090238e-02 0.00000000000000e+00
2.13761875000000e-01 6.94944319513351e-02 0.00000000000000e+00
2.14878125000000e-01 6.65571801940367e-02 0.00000000000000e+00
2.15994375000000e-01 6.37440743235885e-02 0.00000000000000e+00
2.17110625000000e-01 6.10498671897646e-02 0.00000000000000e+00
2.18226875000000e-01 5.84695334183980e-02 0.00000000000000e+00
2.19343125000000e-01 5.59982600377928e-02 0.00000000000000e+00
2.20459375000000e-01 5.36314375013219e-02 0.00000000000000e+00
2.21575625000000e-01 5.13646510894621e-02 0.00000000000000e+00
2.22691875000000e-01 4.91936726752318e-02 0.00000000000000e+00
2.23808125000000e-01 4.71144528376702e-02 0.00000000000000e+00
2.24924375000000e-01 4.51231133086485e-02 0.00000000000000e+00
2.26040625000000e-01 4.32159397389240e-02 0.00000000000000e+00
2.27156875000000e-01 4.13893747699442e-02 0.00000000000000e+00
2.28273125000000e-01 3.96400113984781e-02 0.00000000000000e+00
2.29389375000000e-01 3.79645866216983e-02 0.00000000000000e+00
2.30505625000000e-01 3.63599753508589e-02 0.00000000000000e+00
2.31621875000000e-01 3.48231845822197e-02 0.00000000000000e+00
2.32738125000000e-01 3.33513478143405e-02 0.00000000000000e+00
2.33854375000000e-01 3.19417197013351e-02 0.00000000000000e+00
2.34970625000000e-01 3.05916709321103e-02 0.00000000000000e+00
2.36086875000000e-01 2.92986833260390e-02 0.00000000000000e+00
2.37203125000000e-01 2.80603451359204e-02 0.00000000000000e+00
2.38319375000000e-01 2.68743465494639e-02 0.00000000000000e+00
2.39435625000000e-01 2.57384753809084e-02 0.00000000000000e+00
2.40551875000000e-01 2.46506129447395e-02 0.00000000000000e+00
2.41668125000000e-01 2.36087301038074e-02 0.00000000000000e+00
2.42784375000000e-01 2.26108834844760e-02 0.00000000000000e+00
2.43900625000000e-01 2.16552118517421e-02 0.00000000000000e+00
2.45016875000000e-01 2.07399326375637e-02 0.00000000000000e+00
2.46133125000000e-01 1.98633386159218e-02 0.00000000000000e+00
2.47249375000000e-01 1.90237947184153e-02 0.00000000000000e+00
2.48365625000000e-01 1.82197349844458e-02 0.00000000000000e+00
2.49481875000000e-01 1.74496596403082e-02 0.00000000000000e+00
2.50598125000000e-01 1.67121323017346e-02 0.00000000000000e+00
2.51714375000000e-01 1.60057772946766e-02 0.00000000000000e+00
2.52830625000000e-01 1.53292770893273e-02 0.00000000000000e+00
2.53946875000000e-01 1.46813698425960e-02 0.00000000000000e+00
2.55063125000000e-01 1.40608470444543e-02 0.00000000000000e+00
2.56179375000000e-01 1.34665512637600e-02 0.00000000000000e+00
2.57295625000000e-01 1.28973739893572e-02 0.00000000000000e+00
2.58411875000000e-01 1.23522535624243e-02 0.00000000000000e+00
2.59528125000000e-01 1.18301731962126e-02 0.00000000000000e+00
2.60644375000000e-01 1.13301590794838e-02 0.00000000000000e+00
2.61760625000000e-01 1.08512785601065e-02 0.00000000000000e+00
2.62876875000000e-01 1.03926384054258e-02 0.00000000000000e+00
2.63993125000000e-01 9.95338313615935e-03 0.00000000000000e+00
2.65109375000000e-01 9.53269343071330e-03 0.00000000000000e+00
2.66225625000000e-01 9.12978459694145e-03 0.00000000000000e+00
2.67341875000000e-01 8.74390510849696e-03 0.00000000000000e+00
2.68458125000000e-01 8.37433520304658e-03 0.00000000000000e+00
2.69574375000000e-01 8.02038553973284e-03 0.00000000000000e+00
2.70690625000000e-01 7.68139591337993e-03 0.00000000000000e+00
2.71806875000000e-01 7.35673402304490e-03 0.00000000000000e+00
2.72923125000000e-01 7.04579429261732e-03 0.00000000000000e+00
2.74039375000000e-01 6.74799674126752e-03 0.00000000000000e+00
2.75155625000000e-01 6.46278590163634e-03 0.00000000000000e+00
2.76271875000000e-01 6.18962978374884e-03 0.00000000000000e+00
2.77388125000000e-01 5.92801888271904e-03 0.00000000000000e+00
2.78504375000000e-01 5.67746522839524e-03 0.00000000000000e+00
2.79620625000000e-01 5.43750147517279e-03 0.00000000000000e+00
2.80736875000000e-01 5.20768003027706e-03 0.00000000000000e+00
2.81853125000000e-01 4.98757221889024e-03 0.00000000000000e+00
2.82969375000000e-01 4.77676748456496e-03 0.00000000000000e+00
2.84085625000000e-01 4.57487262343322e-03 0.00000000000000e+00
2.85201875000000e-01 4.38151105078226e-03 0.00000000000000e+00
2.86318125000000e-01 4.19632209862931e-03 0.00000000000000e+00
2.87434375000000e-01 4.01896034298506e-03 0.00000000000000e+00
2.88550625000000e-01 3.84909495955101e-03 0.00000000000000e+00
2.89666875000000e-01 3.68640910664892e-03 0.00000000000000e+00
2.90783125000000e-01 3.53059933423135e-03 0.00000000000000e+00
2.91899375000000e-01 3.38137501787102e-03 0.00000000000000e+00
2.93015625000000e-01 3.23845781667307e-03 0.00000000000000e+00
2.94131875000000e-01 3.10158115409928e-03 0.00000000000000e+00
2.95248125000000e-01 2.97048972073580e-03 0.00000000000000e+00
2.96364375000000e-01 2.84493899807678e-03 0.00000000000000e+00
2.97480625000000e-01 2.72469480243591e-03 0.00000000000000e+00
2.98596875000000e-01 2.60953284813487e-03 0.00000000000000e+00
2.99713125000000e-01 2.49923832915413e-03 0.00000000000000e+00
3.00829375000000e-01 2.39360551846570e-03 0.00000000000000e+00
3.01945625000000e-01 2.29243738430042e-03 0.00000000000000e+00
3.03061875000000e-01 2.19554522263417e-03 0.00000000000000e+00
3.04178125000000e-01 2.10274830520738e-03 0.00000000000000e+00
3.05294375000000e-01 2.01387354242132e-03 0.00000000000000e+00
3.06410625000000e-01 1.92875516048252e-03 0.00000000000000e+00
3.07526875000000e-01 1.84723439219287e-03 0.00000000000000e+00
3.08643125000000e-01 1.76915918080889e-03 0.00000000000000e+00
3.09759375000000e-01 1.69438389641761e-03 0.00000000000000e+00
3.10875625000000e-01 1.62276906430019e-03 0.00000000000000e+00
3.11991875000000e-01 1.55418110477642e-03 0.00000000000000e+00
3.13108125000000e-01 1.48849208404508e-03 0.00000000000000e+00
3.14224375000000e-01 1.42557947555512e-03 0.00000000000000e+00
3.15340625000000e-01 1.36532593146291e-03 0.00000000000000e+00
3.16456875000000e-01 1.30761906374893e-03 0.00000000000000e+00
3.17573125000000e-01 1.25235123458582e-03 0.00000000000000e+00
3.18689375000000e-01 1.19941935556683e-03 0.00000000000000e+00
3.19805625000000e-01 1.14872469541990e-03 0.00000000000000e+00
3.20921875000000e-01 1.10017269584910e-03 0.00000000000000e+00
3.22038125000000e-01 1.05367279515955e-03 0.00000000000000e+00
3.23154375000000e-01 1.00913825933706e-03 0.00000000000000e+00
3.24270625000000e-01 9.66486020267456e-04 0.00000000000000e+00
3.25386875000000e-01 9.25636520793558e-04 0.00000000000000e+00
3.26503125000000e-01 8.86513566321114e-04 0.00000000000000e+00
3.27619375000000e-01 8.49044182696696e-04 0.00000000000000e+00
3.28735625000000e-01 8.13158480092548e-04 0.00000000000000e+00
3.29851875000000e-01 7.78789522644468e-04 0.00000000000000e+00
3.30968125000000e-01 7.45873203599585e-04 0.00000000000000e+00
3.32084375000000e-01 7.14348125741135e-04 0.00000000000000e+00
3.33200625000000e-01 6.84155486867199e-04 0.00000000000000e+00
3.34316875000000e-01 6.55238970109811e-04 0.00000000000000e+00
3.35433125000000e-01 6.27544638889820e-04 0.00000000000000e+00
3.36549375000000e-01 6.01020836311607e-04 0.00000000000000e+00
3.37665625000000e-01 5.75618088809974e-04 0.00000000000000e+00
3.38781875000000e-01 5.51289013869499e-04 0.00000000000000e+00
3.39898125000000e-01 5.27988231644221e-04 0.00000000000000e+00
3.41014375000000e-01 5.05672280312814e-04 0.00000000000000e+00
3.42130625000000e-01 4.84299535011349e-04 0.00000000000000e+00
3.43246875000000e-01 4.63830130192457e-04 0.00000000000000e+00
3.44363125000000e-01 4.44225885266047e-04 0.00000000000000e+00
3.45479375000000e-01 4.25450233382903e-04 0.00000000000000e+00
3.46595625000000e-01 4.07468153228309e-04 0.00000000000000e+00
3.47711875000000e-01 3.90246103698484e-04 0.00000000000000e+00
3.48828125000000e-01 3.73751961337987e-04 0.00000000000000e+00
3.49944375000000e-01 3.57954960421389e-04 0.00000000000000e+00
3.51060625000000e-01 3.42825635567455e-04 0.00000000000000e+00
3.52176875000000e-01 3.28335766778794e-04 0.00000000000000e+00
