Energy (eV)          EEDF (eV^-(3/2))     First Anisotropy
3.59090909090909e-02 6.23935555370324e-02 4.06427837187263e-05
1.07727272727273e-01 6.17442786289303e-02 6.69887981384810e-05
1.79545454545455e-01 6.11017581932191e-02 8.81049425786735e-05
2.51363636363636e-01 6.04659239274619e-02 1.03948905416725e-04
3.23181818181818e-01 5.98367062500297e-02 1.17000012586667e-04
3.95000000000000e-01 5.92140363078908e-02 1.28200628052737e-04
4.66818181818182e-01 5.85978459643860e-02 1.38040878327166e-04
5.38636363636364e-01 5.79880677918810e-02 1.46818186069258e-04
6.10454545454545e-01 5.73846350644056e-02 1.54730758212348e-04
6.82272727272727e-01 5.67874817512705e-02 1.61919350840814e-04
7.54090909090909e-01 5.61965425069271e-02 1.68488649750278e-04
8.25909090909091e-01 5.56117526668538e-02 1.74519306584635e-04
8.97727272727273e-01 5.50330482394156e-02 1.80075209559209e-04
9.69545454545455e-01 5.44603658988988e-02 1.85208121704276e-04
1.04136363636364e+00 5.38936429761995e-02 1.89960770956545e-04
1.11318181818182e+00 5.33328174603534e-02 1.94368985369454e-04
1.18500000000000e+00 5.27778279818629e-02 1.98463212465710e-04
1.25681818181818e+00 5.22286138098481e-02 2.02269627061029e-04
1.32863636363636e+00 5.16851148454422e-02 2.05810958584967e-04
1.40045454545455e+00 5.11472716152325e-02 2.09107120198105e-04
1.47227272727273e+00 5.06150252610683e-02 2.12175693774117e-04
1.54409090909091e+00 5.00883175448300e-02 2.15032311995197e-04
1.61590909090909e+00 4.95670908305198e-02 2.17690962258763e-04
1.68772727272727e+00 4.90512880818831e-02 2.20164229427480e-04
1.75954545454545e+00 4.85408528562463e-02 2.22463494829436e-04
1.83136363636364e+00 4.80357292955103e-02 2.24599098164231e-04
1.90318181818182e+00 4.75358621285786e-02 2.26580473008851e-04
1.97500000000000e+00 4.70411966565583e-02 2.28416260084052e-04
2.04681818181818e+00 4.65516787497557e-02 2.30114401062901e-04
2.11863636363636e+00 4.60672548417669e-02 2.31682219186413e-04
2.19045454545455e+00 4.55878719236248e-02 2.33126487980051e-04
2.26227272727273e+00 4.51134775358859e-02 2.34453489194652e-04
2.33409090909091e+00 4.46440197693128e-02 2.35669063972215e-04
2.40590909090909e+00 4.41794472526353e-02 2.36778657272254e-04
2.47772727272727e+00 4.37197091491489e-02 2.37787355301996e-04
2.54954545454545e+00 4.32647551511830e-02 2.38699919475431e-04
2.62136363636364e+00 4.28145354728556e-02 2.39520815134846e-04
2.69318181818182e+00 4.23690008498886e-02 2.40254237956466e-04
2.76500000000000e+00 4.19281025288531e-02 2.40904137391101e-04
2.83681818181818e+00 4.14917922636521e-02 2.41474236371933e-04
2.90863636363636e+00 4.10600223102478e-02 2.41968049763091e-04
2.98045454545455e+00 4.06327454214415e-02 2.42388900847794e-04
3.05227272727273e+00 4.02099148403142e-02 2.42739935353573e-04
3.12409090909091e+00 3.97914842993288e-02 2.43024135010064e-04
3.19590909090909e+00 3.93774080109751e-02 2.43244329825837e-04
3.26772727272727e+00 3.89676406642087e-02 2.43403208213229e-04
3.33954545454545e+00 3.85621374195085e-02 2.43503327115667e-04
3.41136363636364e+00 3.81608539027842e-02 2.43547120334284e-04
3.48318181818182e+00 3.77637462041069e-02 2.43536906961150e-04
3.55500000000000e+00 3.73707708692598e-02 2.43474899115498e-04
3.62681818181818e+00 3.69818848962151e-02 2.43363208137761e-04
3.69863636363636e+00 3.65970457304324e-02 2.43203850962652e-04
3.77045454545455e+00 3.62162112602037e-02 2.42998755960080e-04
3.84227272727273e+00 3.58393398110652e-02 2.42749767696778e-04
3.91409090909091e+00 3.54663901442126e-02 2.42458652078989e-04
3.98590909090909e+00 3.50973214489675e-02 2.42127101129987e-04
4.05772727272727e+00 3.47320933393299e-02 2.41756736624488e-04
4.12954545454545e+00 3.43706658495680e-02 2.41349114214725e-04
4.20136363636364e+00 3.40129994289900e-02 2.40905726548868e-04
4.27318181818182e+00 3.36590549402023e-02 2.40428006854531e-04
4.34500000000000e+00 3.33087936522032e-02 2.39917332297289e-04
4.41681818181818e+00 3.29621772370304e-02 2.39375026395707e-04
4.48863636363636e+00 3.26191677655690e-02 2.38802361837171e-04
4.56045454545455e+00 3.22797277034025e-02 2.38200563096635e-04
4.63227272727273e+00 3.19438199059816e-02 2.37570808386056e-04
4.70409090909091e+00 3.16114076167549e-02 2.36914232095457e-04
4.77590909090909e+00 3.12824544609210e-02 2.36231927100961e-04
4.84772727272727e+00 3.09569244421981e-02 2.35524946291282e-04
4.91954545454545e+00 3.06347819388905e-02 2.34794304622508e-04
4.99136363636364e+00 3.03159916993505e-02 2.34040980468350e-04
5.06318181818182e+00 3.00005188400569e-02 2.33265917455583e-04
5.13500000000000e+00 2.96883288398361e-02 2.32470026210639e-04
5.20681818181818e+00 2.93793875367467e-02 2.31654185421073e-04
5.27863636363636e+00 2.90736611243415e-02 2.30819243300673e-04
5.35045454545455e+00 2.87711161479704e-02 2.29966018963779e-04
5.42227272727273e+00 2.84717195005678e-02 2.29095303312334e-04
5.49409090909091e+00 2.81754384206995e-02 2.28207860385157e-04
5.56590909090909e+00 2.78822404872871e-02 2.27304428650360e-04
5.63772727272727e+00 2.75920936166294e-02 2.26385721702113e-04
5.70954545454545e+00 2.73049660588951e-02 2.25452429435682e-04
5.78136363636364e+00 2.70208263941572e-02 2.24505218679839e-04
5.85318181818182e+00 2.67396435304415e-02 2.23544734267084e-04
5.92500000000000e+00 2.64613866988190e-02 2.22571600063782e-04
5.99681818181818e+00 2.61860254505461e-02 2.21586419463801e-04
6.06863636363636e+00 2.59135296537341e-02 2.20589776243699e-04
6.14045454545455e+00 2.56438694900521e-02 2.19582235368837e-04
6.21227272727273e+00 2.53770154510362e-02 2.18564343417601e-04
6.28409090909091e+00 2.51129383361574e-02 2.17536629412000e-04
6.35590909090909e+00 2.48516092483138e-02 2.16499605621151e-04
6.42772727272727e+00 2.45929995911100e-02 2.15453767887625e-04
6.49954545454545e+00 2.43370810657308e-02 2.14399596368843e-04
6.57136363636364e+00 2.40838256674588e-02 2.13337555841322e-04
6.64318181818182e+00 2.38332056837751e-02 2.12268096385320e-04
6.71500000000000e+00 2.35851936901483e-02 2.11191654049628e-04
6.78681818181818e+00 2.33397625474305e-02 2.10108651080716e-04
6.85863636363636e+00 2.30968853988880e-02 2.09019496465356e-04
6.93045454545455e+00 2.28565356672632e-02 2.07924586443334e-04
7.00227272727273e+00 2.26186870515277e-02 2.06824304709778e-04
7.07409090909091e+00 2.23833135250292e-02 2.05719022967796e-04
7.14590909090909e+00 2.21503893316069e-02 2.04609101467191e-04
7.21772727272727e+00 2.19198889831219e-02 2.03494889150915e-04
7.28954545454545e+00 2.16917872566696e-02 2.02376724157441e-04
7.36136363636364e+00 2.14660591915139e-02 2.01254933962489e-04
7.43318181818182e+00 2.12426800872813e-02 2.00129835847483e-04
7.50500000000000e+00 2.10216255003218e-02 1.99001737357565e-04
7.57681818181818e+00 2.08028712413498e-02 1.97870936398733e-04
7.64863636363636e+00 2.05863933727968e-02 1.96737721604098e-04
7.72045454545455e+00 2.03721682061932e-02 1.95602372680217e-04
7.79227272727273e+00 2.01601722993045e-02 1.94465160496011e-04
7.86409090909091e+00 1.99503824543869e-02 1.93326347471956e-04
7.93590909090909e+00 1.97427757148192e-02 1.92186187961781e-04
8.00772727272727e+00 1.95373293628697e-02 1.91044928306821e-04
8.07954545454546e+00 1.93340209172118e-02 1.89902807194671e-04
8.15136363636364e+00 1.91328281302175e-02 1.88760055716112e-04
8.22318181818182e+00 1.89337289862674e-02 1.87616897701917e-04
8.29500000000000e+00 1.87367016985892e-02 1.86473550053957e-04
8.36681818181818e+00 1.85417247071269e-02 1.85330222773646e-04
8.43863636363636e+00 1.83487766761816e-02 1.84187119220901e-04
8.51045454545455e+00 1.81578364920776e-02 1.83044436358948e-04
8.58227272727273e+00 1.79688832606324e-02 1.81902364782969e-04
8.65409090909091e+00 1.77818963055338e-02 1.80761089005973e-04
8.72590909090909e+00 1.75968551654071e-02 1.79620787740503e-04
8.79772727272727e+00 1.74137395918013e-02 1.78481633904503e-04
8.86954545454546e+00 1.72325295469746e-02 1.77343794887488e-04
8.94136363636364e+00 1.70532052015014e-02 1.76207432561941e-04
9.01318181818182e+00 1.68757469327073e-02 1.75072703534546e-04
9.08500000000000e+00 1.67001353219109e-02 1.73939759394260e-04
9.15681818181818e+00 1.65263511525042e-02 1.72808746704467e-04
9.22863636363636e+00 1.63543754078504e-02 1.71679807192620e-04
9.30045454545455e+00 1.61841892692031e-02 1.70553077929356e-04
9.37227272727273e+00 1.60157741134680e-02 1.69428691324648e-04
9.44409090909091e+00 1.58491115117062e-02 1.68306775344467e-04
9.51590909090909e+00 1.56841832265712e-02 1.67187453725160e-04
9.58772727272727e+00 1.55209712104965e-02 1.66070845953754e-04
9.65954545454546e+00 1.53594576037222e-02 1.64957067471311e-04
9.73136363636364e+00 1.51996247321761e-02 1.63846229659800e-04
9.80318181818182e+00 1.50414551060352e-02 1.62738440034745e-04
9.87500000000000e+00 1.48849314173117e-02 1.61633802436148e-04
9.94681818181818e+00 1.47300365381272e-02 1.60532417001723e-04
1.00186363636364e+01 1.45767535188386e-02 1.59434380503409e-04
1.00904545454545e+01 1.44250655854329e-02 1.58339785553105e-04
1.01622727272727e+01 1.42749561411409e-02 1.57248722085627e-04
1.02340909090909e+01 1.41264087584778e-02 1.56161277079668e-04
1.03059090909091e+01 1.39794071824001e-02 1.55077533415911e-04
1.03777272727273e+01 1.38339353270136e-02 1.53997571268562e-04
1.04495454545455e+01 1.36899772738189e-02 1.52921467435682e-04
1.05213636363636e+01 1.35475172713140e-02 1.51849296495105e-04
1.05931818181818e+01 1.34065397291941e-02 1.50781130163881e-04
1.06650000000000e+01 1.32670292207576e-02 1.49717036642416e-04
1.07368181818182e+01 1.31289704798337e-02 1.48657081793055e-04
1.08086363636364e+01 1.29923483991140e-02 1.47601328841112e-04
1.08804545454545e+01 1.28571480284998e-02 1.46549838118963e-04
1.09522727272727e+01 1.27233545746816e-02 1.45502668123694e-04
1.10240909090909e+01 1.25909533958399e-02 1.44459874921477e-04
1.10959090909091e+01 1.24599300037553e-02 1.43421511537896e-04
1.11677272727273e+01 1.23302700609726e-02 1.42387629037351e-04
1.12395454545455e+01 1.22019593792363e-02 1.41358275937719e-04
1.13113636363636e+01 1.20749839190525e-02 1.40333499193794e-04
1.13831818181818e+01 1.19493297847744e-02 1.39313343637328e-04
1.14550000000000e+01 1.18249832264886e-02 1.38297851404084e-04
1.15268181818182e+01 1.17019306373645e-02 1.37287062937905e-04
1.15986363636364e+01 1.15801585521661e-02 1.36281016725233e-04
1.16704545454545e+01 1.14596536457795e-02 1.35279749066464e-04
1.17422727272727e+01 1.13404027327645e-02 1.34283294978105e-04
1.18140909090909e+01 1.12223927628538e-02 1.33291687672414e-04
1.18859090909091e+01 1.11056108226093e-02 1.32304958025160e-04
1.19577272727273e+01 1.09900441329700e-02 1.31323135497328e-04
1.20295454545455e+01 1.08756800478577e-02 1.30346247624034e-04
1.21013636363636e+01 1.07625060537206e-02 1.29374320854933e-04
1.21731818181818e+01 1.06505097653515e-02 1.28407380065216e-04
1.22450000000000e+01 1.05396789273688e-02 1.27445448055523e-04
1.23168181818182e+01 1.04300014119219e-02 1.26488546410822e-04
1.23886363636364e+01 1.03214652173640e-02 1.25536695265708e-04
1.24604545454545e+01 1.02140584669400e-02 1.24589913101306e-04
1.25322727272727e+01 1.01077694083300e-02 1.23648217517727e-04
1.26040909090909e+01 1.00025864098102e-02 1.22711624779806e-04
1.26759090909091e+01 9.89849796155453e-03 1.21780149352637e-04
1.27477272727273e+01 9.79549267350859e-03 1.20853804691466e-04
1.28195454545455e+01 9.69355927414580e-03 1.19932602795643e-04
1.28913636363636e+01 9.59268661001067e-03 1.19016554929326e-04
1.29631818181818e+01 9.49286364214500e-03 1.18105671194591e-04
1.30350000000000e+01 9.39407944725291e-03 1.17199960095020e-04
1.31068181818182e+01 9.29632321570735e-03 1.16299429272817e-04
1.31786363636364e+01 9.19958425036781e-03 1.15404085301915e-04
1.32504545454545e+01 9.10385196541033e-03 1.14513933508161e-04
1.33222727272727e+01 9.00911588587597e-03 1.13628978632850e-04
1.33940909090909e+01 8.91536564438474e-03 1.12749224436173e-04
1.34659090909091e+01 8.82259098215879e-03 1.11874673291879e-04
1.35377272727273e+01 8.73078174717360e-03 1.11005326866261e-04
1.36095454545455e+01 8.63992789304909e-03 1.10141185728837e-04
1.36813636363636e+01 8.55001947860248e-03 1.09282249972206e-04
1.37531818181818e+01 8.46104666478465e-03 1.08428518839316e-04
1.38250000000000e+01 8.37299971559564e-03 1.07579990342584e-04
1.38968181818182e+01 8.28586899634932e-03 1.06736661898278e-04
1.39686363636364e+01 8.19964497261945e-03 1.05898530144372e-04
1.40404545454545e+01 8.11431820919691e-03 1.05065590781726e-04
1.41122727272727e+01 8.02987936965180e-03 1.04237839145598e-04
1.41840909090909e+01 7.94631921351186e-03 1.03415269859341e-04
1.42559090909091e+01 7.86362859706614e-03 1.02597876480563e-04
1.43277272727273e+01 7.78179847175368e-03 1.01785652086271e-04
1.43995454545455e+01 7.70081988317495e-03 1.00978588932925e-04
1.44713636363636e+01 7.62068397066157e-03 1.00176678990882e-04
1.45431818181818e+01 7.54138196464213e-03 9.93799136188649e-05
1.46150000000000e+01 7.46290518736082e-03 9.85882832313708e-05
1.46868181818182e+01 7.38524505136347e-03 9.78017778459414e-05
1.47586363636364e+01 7.30839305855819e-03 9.70203869229564e-05
1.48304545454545e+01 7.23234079928587e-03 9.62440992255389e-05
1.49022727272727e+01 7.15707995190171e-03 9.54729033129079e-05
1.49740909090909e+01 7.08260228034575e-03 9.47067872378555e-05
1.50459090909091e+01 7.00889963477297e-03 9.39457382376837e-05
1.51177272727273e+01 6.93596395014618e-03 9.31897432395771e-05
1.51895454545455e+01 6.86378724535480e-03 9.24387885636237e-05
1.52613636363636e+01 6.79236162280591e-03 9.16928603845860e-05
1.53331818181818e+01 6.72167926615352e-03 9.09519444474502e-05
1.54050000000000e+01 6.65173244086126e-03 9.02160257768685e-05
1.54768181818182e+01 6.58251349287921e-03 8.94850891502110e-05
1.55486363636364e+01 6.51401484780658e-03 8.87591189567255e-05
1.56204545454545e+01 6.44622901006322e-03 8.80380990740691e-05
1.56922727272727e+01 6.37914856249408e-03 8.73220132949944e-05
1.57640909090909e+01 6.31276616427224e-03 8.66108450629439e-05
1.58359090909091e+01 6.24707455139143e-03 8.59045772019651e-05
1.59077272727273e+01 6.18206653543518e-03 8.52031923539667e-05
1.59795454545455e+01 6.11773500279127e-03 8.45066727191518e-05
1.60513636363636e+01 6.05407291426681e-03 8.38150004557259e-05
1.61231818181818e+01 5.99107330312628e-03 8.31281574311931e-05
1.61950000000000e+01 5.92872927553054e-03 8.24461249683595e-05
1.62668181818182e+01 5.86703400937853e-03 8.17688842549621e-05
1.63386363636364e+01 5.80598075356097e-03 8.10964162198801e-05
1.64104545454545e+01 5.74556282722184e-03 8.04287014243565e-05
1.64822727272727e+01 5.68577361938772e-03 7.97657204316652e-05
1.65540909090909e+01 5.62660658715382e-03 7.91074535758772e-05
1.66259090909091e+01 5.56805525606733e-03 7.84538807256738e-05
1.66977272727273e+01 5.51011321904915e-03 7.78049816633164e-05
1.67695454545455e+01 5.45277413569360e-03 7.71607358576249e-05
1.68413636363636e+01 5.39603173190893e-03 7.65211228105112e-05
1.69131818181818e+01 5.33987979821853e-03 7.58861218394142e-05
1.69850000000000e+01 5.28431219010181e-03 7.52557118551138e-05
1.70568181818182e+01 5.22932282697880e-03 7.46298717170057e-05
1.71286363636364e+01 5.17490569154493e-03 7.40085801242738e-05
1.72004545454545e+01 5.12105482911277e-03 7.33918155200819e-05
1.72722727272727e+01 5.06776434726692e-03 7.27795564123255e-05
1.73440909090909e+01 5.01502841429186e-03 7.21717811712686e-05
1.74159090909091e+01 4.96284125946861e-03 7.15684678228890e-05
1.74877272727273e+01 4.91119717212879e-03 7.09695943777963e-05
1.75595454545455e+01 4.86009050103043e-03 7.03751386325504e-05
1.76313636363636e+01 4.80951565402415e-03 6.97850784705275e-05
1.77031818181818e+01 4.75946709657963e-03 6.91993916714625e-05
1.77750000000000e+01 4.70993935204845e-03 6.86180557169882e-05
1.78468181818182e+01 4.66092700077289e-03 6.80410480991712e-05
1.79186363636364e+01 4.61242467949295e-03 6.74683462248316e-05
1.79904545454545e+01 4.56442708075969e-03 6.68999273311613e-05
1.80622727272727e+01 4.51692895261560e-03 6.63357687644018e-05
1.81340909090909e+01 4.46992509722965e-03 6.57758478026404e-05
1.82059090909091e+01 4.42341037112507e-03 6.52201414748667e-05
1.82777272727273e+01 4.37737968434859e-03 6.46686268468345e-05
1.83495454545455e+01 4.33182799991403e-03 6.41212808470741e-05
1.84213636363636e+01 4.28675033349390e-03 6.35780805284238e-05
1.84931818181818e+01 4.24214175213900e-03 6.30390029012151e-05
1.85650000000000e+01 4.19799737447948e-03 6.25040247629607e-05
1.86368181818182e+01 4.15431236994158e-03 6.19731229666344e-05
1.87086363636364e+01 4.11108195821925e-03 6.14462743365340e-05
1.87804545454545e+01 4.06830140875110e-03 6.09234555939484e-05
1.88522727272727e+01 4.02596604042583e-03 6.04046435995653e-05
1.89240909090909e+01 3.98407122039525e-03 5.98898151982128e-05
1.89959090909091e+01 3.94261236424737e-03 5.93789470603367e-05
1.90677272727273e+01 3.90158493527607e-03 5.88720159307167e-05
1.91395454545455e+01 3.86098444398508e-03 5.83689984760077e-05
1.92113636363636e+01 3.82080644780420e-03 5.78698715123518e-05
1.92831818181818e+01 3.78104654997515e-03 5.73746118591759e-05
1.93550000000000e+01 3.74170039970342e-03 5.68831961899381e-05
1.94268181818182e+01 3.70276369146942e-03 5.63956012656664e-05
1.94986363636364e+01 3.66423216455742e-03 5.59118038609388e-05
1.95704545454545e+01 3.62610160258944e-03 5.54317806984049e-05
1.96422727272727e+01 3.58836783325465e-03 5.49555086598674e-05
1.97140909090909e+01 3.55102672727564e-03 5.44829646501645e-05
1.97859090909091e+01 3.51407419853827e-03 5.40141254582080e-05
1.98577272727273e+01 3.47750620344893e-03 5.35489679736109e-05
1.99295454545455e+01 3.44131874049244e-03 5.30874690530154e-05
2.00013636363636e+01 3.40550784997180e-03 5.26296057183837e-05
2.00731818181818e+01 3.37006961303724e-03 5.21753550287886e-05
2.01450000000000e+01 3.33500015179930e-03 5.17246939495356e-05
2.02168181818182e+01 3.30029562872233e-03 5.12775995556636e-05
2.02886363636364e+01 3.26595224620464e-03 5.08340489668088e-05
2.03604545454545e+01 3.23196624616302e-03 5.03940192895102e-05
2.04322727272727e+01 3.19833390978499e-03 4.99574878011856e-05
2.05040909090909e+01 3.16505155662739e-03 4.95244318307323e-05
2.05759090909091e+01 3.13211554471196e-03 4.90948286366464e-05
2.06477272727273e+01 3.09952226995929e-03 4.86686555958747e-05
2.07195454545455e+01 3.06726816579467e-03 4.82458900865552e-05
2.07913636363636e+01 3.03534970291017e-03 4.78265096609114e-05
2.08631818181818e+01 3.00376338841751e-03 4.74104919327675e-05
2.09350000000000e+01 2.97250576593034e-03 4.69978144627231e-05
2.10068181818182e+01 2.94157341502992e-03 4.65884549356285e-05
2.10786363636364e+01 2.91096295089090e-03 4.61823911032593e-05
2.11504545454545e+01 2.88067102391100e-03 4.57796007334580e-05
2.12222727272727e+01 2.85069431948472e-03 4.53800617706337e-05
2.12940909090909e+01 2.82102955721637e-03 4.49837522309697e-05
2.13659090909091e+01 2.79167349098873e-03 4.45906500954584e-05
2.14377272727273e+01 2.76262290846402e-03 4.42007334746885e-05
2.15095454545455e+01 2.73387463073263e-03 4.38139805059216e-05
2.15813636363636e+01 2.70542551209608e-03 4.34303695039820e-05
2.16531818181818e+01 2.67727243932701e-03 4.30498788624993e-05
2.17250000000000e+01 2.64941233172740e-03 4.26724869531173e-05
2.17968181818182e+01 2.62184214065732e-03 4.22981722804152e-05
2.18686363636364e+01 2.59455884920148e-03 4.19269134314198e-05
2.19404545454545e+01 2.56755947183911e-03 4.15586890307685e-05
2.20122727272727e+01 2.54084105423778e-03 4.11934778808407e-05
2.20840909090909e+01 2.51440067256560e-03 4.08312588697354e-05
2.21559090909091e+01 2.48823543353864e-03 4.04720108773542e-05
2.22277272727273e+01 2.46234247398084e-03 4.01157129192997e-05
2.22995454545455e+01 2.43671896051084e-03 3.97623440564850e-05
2.23713636363636e+01 2.41136208934442e-03 3.94118835269222e-05
2.24431818181818e+01 2.38626908564747e-03 3.90643106589823e-05
2.25150000000000e+01 2.36143720357519e-03 3.87196047828743e-05
2.25868181818182e+01 2.33686372585639e-03 3.83777453659704e-05
2.26586363636364e+01 2.31254596349623e-03 3.80387119683344e-05
