Energy (eV)          EEDF (eV^-(3/2))     First Anisotropy
1.39743589743590e-02 2.01673806112196e-01 1.20960095883100e-04
4.19230769230769e-02 1.99887941206387e-01 1.99525897843983e-04
6.98717948717949e-02 1.98117890515707e-01 2.62831536977805e-04
9.78205128205128e-02 1.96363514005164e-01 3.10582683228876e-04
1.25769230769231e-01 1.94624672871046e-01 3.50125175683788e-04
1.53717948717949e-01 1.92901229549164e-01 3.84244533813427e-04
1.81666666666667e-01 1.91193047688520e-01 4.14386285107117e-04
2.09615384615385e-01 1.89499992145564e-01 4.41425713149988e-04
2.37564102564103e-01 1.87821928973484e-01 4.65944877023580e-04
2.65512820512821e-01 1.86158725411601e-01 4.88356255671156e-04
2.93461538461538e-01 1.84510249880736e-01 5.08965992168459e-04
3.21410256410256e-01 1.82876371954580e-01 5.28009465096401e-04
3.49358974358974e-01 1.81256962368289e-01 5.45672757036016e-04
3.77307692307692e-01 1.79651893001669e-01 5.62106340493929e-04
4.05256410256410e-01 1.78061036869042e-01 5.77434188928942e-04
4.33205128205128e-01 1.76484268109208e-01 5.91760064221425e-04
4.61153846153846e-01 1.74921461975486e-01 6.05171986951190e-04
4.89102564102564e-01 1.73372494825850e-01 6.17745496314190e-04
5.17051282051282e-01 1.71837244113144e-01 6.29546079826245e-04
5.45000000000000e-01 1.70315588375391e-01 6.40631018948212e-04
5.72948717948718e-01 1.68807407226175e-01 6.51050814609077e-04
6.00897435897436e-01 1.67312581345132e-01 6.60850304632904e-04
6.28846153846154e-01 1.65830992468504e-01 6.70069551279505e-04
6.56794871794872e-01 1.64362523379784e-01 6.78744554582811e-04
6.84743589743590e-01 1.62907057900441e-01 6.86907831839580e-04
7.12692307692308e-01 1.61464480880727e-01 6.94588892955861e-04
7.40641025641026e-01 1.60034678190570e-01 7.01814633833792e-04
7.68589743589744e-01 1.58617536710544e-01 7.08609664580848e-04
7.96538461538462e-01 1.57212944322917e-01 7.14996585389629e-04
8.24487179487180e-01 1.55820789902784e-01 7.20996219822652e-04
8.52435897435897e-01 1.54440963310904e-01 7.26627814333603e-04
8.80384615384615e-01 1.53073355380019e-01 7.31909208246491e-04
9.08333333333333e-01 1.51717857911268e-01 7.36856980141361e-04
9.36282051282051e-01 1.50374363663912e-01 7.41486575652202e-04
9.64230769230769e-01 1.49042766346852e-01 7.45812417882080e-04
9.92179487179487e-01 1.47722960610219e-01 7.49848004849925e-04
1.02012820512821e+00 1.46414842031803e-01 7.53605990721983e-04
1.04807692307692e+00 1.45118307134636e-01 7.57098266779518e-04
1.07602564102564e+00 1.43833253330134e-01 7.60336025526077e-04
1.10397435897436e+00 1.42559578950926e-01 7.63329814256034e-04
1.13192307692308e+00 1.41297183229827e-01 7.66089593278264e-04
1.15987179487179e+00 1.40045966292051e-01 7.68624779241014e-04
1.18782051282051e+00 1.38805829157690e-01 7.70944291918195e-04
1.21576923076923e+00 1.37576673702095e-01 7.73056588645168e-04
1.24371794871795e+00 1.36358402680264e-01 7.74969695015932e-04
1.27166666666667e+00 1.35150919708263e-01 7.76691240523036e-04
1.29961538461538e+00 1.33954129255713e-01 7.78228483269237e-04
1.32756410256410e+00 1.32767936647127e-01 7.79588339616886e-04
1.35551282051282e+00 1.31592248027256e-01 7.80777404245122e-04
1.38346153846154e+00 1.30426970381113e-01 7.81801968158502e-04
1.41141025641026e+00 1.29272011517348e-01 7.82668042328571e-04
1.43935897435897e+00 1.28127280061021e-01 7.83381372442424e-04
1.46730769230769e+00 1.26992685454081e-01 7.83947459003913e-04
1.49525641025641e+00 1.25868137924712e-01 7.84371569483181e-04
1.52320512820513e+00 1.24753548503952e-01 7.84658749261914e-04
1.55115384615385e+00 1.23648829010664e-01 7.84813838289155e-04
1.57910256410256e+00 1.22553892044598e-01 7.84841480152792e-04
1.60705128205128e+00 1.21468650986208e-01 7.84746136484753e-04
1.63500000000000e+00 1.20393019969313e-01 7.84532094507932e-04
1.66294871794872e+00 1.19326913894983e-01 7.84203473831350e-04
1.69089743589744e+00 1.18270248417854e-01 7.83764237665059e-04
1.71884615384615e+00 1.17222939945544e-01 7.83218202966271e-04
1.74679487179487e+00 1.16184905613633e-01 7.82569045658734e-04
1.77474358974359e+00 1.15156063297675e-01 7.81820305317572e-04
1.80269230769231e+00 1.14136331600435e-01 7.80975395138522e-04
1.83064102564103e+00 1.13125629845472e-01 7.80037605847431e-04
1.85858974358974e+00 1.12123878076127e-01 7.79010114520290e-04
1.88653846153846e+00 1.11130997032934e-01 7.77895987863481e-04
1.91448717948718e+00 1.10146908163758e-01 7.76698185135495e-04
1.94243589743590e+00 1.09171533612040e-01 7.75419566045044e-04
1.97038461538462e+00 1.08204796210668e-01 7.74062893180617e-04
1.99833333333333e+00 1.07246619480638e-01 7.72630839063214e-04
2.02628205128205e+00 1.06296927610548e-01 7.71125988174053e-04
2.05423076923077e+00 1.05355645465182e-01 7.69550838733081e-04
2.08217948717949e+00 1.04422698574644e-01 7.67907809138515e-04
2.11012820512821e+00 1.03498013128500e-01 7.66199239427369e-04
2.13807692307692e+00 1.02581515974192e-01 7.64427397068778e-04
2.16602564102564e+00 1.01673134598328e-01 7.62594478163292e-04
2.19397435897436e+00 1.00772797133982e-01 7.60702608463878e-04
2.22192307692308e+00 9.98804323506098e-02 7.58753848751705e-04
2.24987179487179e+00 9.89959696484415e-02 7.56750195649409e-04
2.27782051282051e+00 9.81193390567155e-02 7.54693586486283e-04
2.30576923076923e+00 9.72504712165441e-02 7.52585899940525e-04
2.33371794871795e+00 9.63892973871241e-02 7.50428956548562e-04
2.36166666666667e+00 9.55357494363560e-02 7.48224523282293e-04
2.38961538461538e+00 9.46897598354753e-02 7.45974313923850e-04
2.41756410256410e+00 9.38512616571517e-02 7.43679993224705e-04
2.44551282051282e+00 9.30201885597447e-02 7.41343177169821e-04
2.47346153846154e+00 9.21964747925918e-02 7.38965433137873e-04
2.50141025641026e+00 9.13800551872603e-02 7.36548283861178e-04
2.52935897435897e+00 9.05708651524059e-02 7.34093207500821e-04
2.55730769230769e+00 8.97688406717758e-02 7.31601641255567e-04
2.58525641025641e+00 8.89739182896981e-02 7.29074981366590e-04
2.61320512820513e+00 8.81860351155841e-02 7.26514583038835e-04
2.64115384615385e+00 8.74051288157520e-02 7.23921763911869e-04
2.66910256410256e+00 8.66311376085035e-02 7.21297803929312e-04
2.69705128205128e+00 8.58640002620616e-02 7.18643948509399e-04
2.72500000000000e+00 8.51036560811598e-02 7.15961408371429e-04
2.75294871794872e+00 8.43500449108745e-02 7.13251359293670e-04
2.78089743589744e+00 8.36031071289662e-02 7.10514944572734e-04
2.80884615384615e+00 8.28627836437828e-02 7.07753277220627e-04
2.83679487179487e+00 8.21290158816679e-02 7.04967439694996e-04
2.86474358974359e+00 8.14017457903040e-02 7.02158483570014e-04
2.89269230769231e+00 8.06809158314345e-02 6.99327432339951e-04
2.92064102564103e+00 7.99664689763177e-02 6.96475281068954e-04
2.94858974358974e+00 7.92583487036001e-02 6.93602998961945e-04
2.97653846153846e+00 7.85564989876313e-02 6.90711529004012e-04
3.00448717948718e+00 7.78608643013010e-02 6.87801787551375e-04
3.03243589743590e+00 7.71713896091978e-02 6.84874666851875e-04
3.06038461538462e+00 7.64880203632639e-02 6.81931034626118e-04
3.08833333333333e+00 7.58107025006543e-02 6.78971736383335e-04
3.11628205128205e+00 7.51393824328745e-02 6.75997595000517e-04
3.14423076923077e+00 7.44740070481776e-02 6.73009410261593e-04
3.17217948717949e+00 7.38145237051271e-02 6.70007961137933e-04
3.20012820512821e+00 7.31608802284420e-02 6.66994005325626e-04
3.22807692307692e+00 7.25130249068573e-02 6.63968281344575e-04
3.25602564102564e+00 7.18709064830071e-02 6.60931508079260e-04
3.28397435897436e+00 7.12344741554429e-02 6.57884384286017e-04
3.31192307692308e+00 7.06036775725682e-02 6.54827590667965e-04
3.33987179487180e+00 6.99784668286658e-02 6.51761789386065e-04
3.36782051282051e+00 6.93587924617707e-02 6.48687625971447e-04
3.39576923076923e+00 6.87446054442334e-02 6.45605728843978e-04
3.42371794871795e+00 6.81358571844076e-02 6.42516708801663e-04
3.45166666666667e+00 6.75324995209332e-02 6.39421160917818e-04
3.47961538461538e+00 6.69344847189326e-02 6.36319664038705e-04
3.50756410256410e+00 6.63417654679086e-02 6.33212782532839e-04
3.53551282051282e+00 6.57542948729282e-02 6.30101065799222e-04
3.56346153846154e+00 6.51720264560240e-02 6.26985047749355e-04
3.59141025641026e+00 6.45949141507990e-02 6.23865248548700e-04
3.61935897435897e+00 6.40229122987869e-02 6.20742174110099e-04
3.64730769230769e+00 6.34559756473798e-02 6.17616317700104e-04
3.67525641025641e+00 6.28940593415824e-02 6.14488159445087e-04
3.70320512820513e+00 6.23371189251640e-02 6.11358165813519e-04
3.73115384615385e+00 6.17851103355622e-02 6.08226791219866e-04
3.75910256410256e+00 6.12379899004002e-02 6.05094477520499e-04
3.78705128205128e+00 6.06957143354513e-02 6.01961655493438e-04
3.81500000000000e+00 6.01582407369155e-02 5.98828744348389e-04
3.84294871794872e+00 5.96255265823555e-02 5.95696151214797e-04
3.87089743589744e+00 5.90975297258795e-02 5.92564272254201e-04
3.89884615384615e+00 5.85742083961379e-02 5.89433493643172e-04
3.92679487179487e+00 5.80555211889964e-02 5.86304191091537e-04
3.95474358974359e+00 5.75414270683118e-02 5.83176729340377e-04
3.98269230769231e+00 5.70318853613228e-02 5.80051463552286e-04
4.01064102564103e+00 5.65268557554347e-02 5.76928738822875e-04
4.03858974358974e+00 5.60262982962588e-02 5.73808891464864e-04
4.06653846153846e+00 5.55301733807373e-02 5.70692248536243e-04
4.09448717948718e+00 5.50384417577510e-02 5.67579127350445e-04
4.12243589743590e+00 5.45510645237558e-02 5.64469836765676e-04
4.15038461538462e+00 5.40680031197081e-02 5.61364676709132e-04
4.17833333333333e+00 5.35892193291491e-02 5.58263939368690e-04
4.20628205128205e+00 5.31146752717478e-02 5.55167908733319e-04
4.23423076923077e+00 5.26443334037626e-02 5.52076860117618e-04
4.26217948717949e+00 5.21781565139081e-02 5.48991061359846e-04
4.29012820512821e+00 5.17161077204140e-02 5.45910772360513e-04
4.31807692307692e+00 5.12581504691578e-02 5.42836246190522e-04
4.34602564102564e+00 5.08042485275945e-02 5.39767728645466e-04
4.37397435897436e+00 5.03543659850915e-02 5.36705457785822e-04
4.40192307692308e+00 4.99084672490103e-02 5.33649665052034e-04
4.42987179487180e+00 4.94665170418950e-02 5.30600574818728e-04
4.45782051282051e+00 4.90284803996532e-02 5.27558405426830e-04
4.48576923076923e+00 4.85943226658452e-02 5.24523368752906e-04
4.51371794871795e+00 4.81640094919089e-02 5.21495669765514e-04
4.54166666666667e+00 4.77375068334443e-02 5.18475507565101e-04
4.56961538461538e+00 4.73147809475235e-02 5.15463074954456e-04
4.59756410256410e+00 4.68957983909229e-02 5.12458559401094e-04
4.62551282051282e+00 4.64805260147467e-02 5.09462142622630e-04
4.65346153846154e+00 4.60689309645547e-02 5.06474000159678e-04
4.68141025641026e+00 4.56609806768388e-02 5.03494302346852e-04
4.70935897435897e+00 4.52566428764490e-02 5.00523213899911e-04
4.73730769230769e+00 4.48558855748775e-02 4.97560894814394e-04
4.76525641025641e+00 4.44586770651928e-02 4.94607499967010e-04
4.79320512820513e+00 4.40649859220842e-02 4.91663178705434e-04
4.82115384615385e+00 4.36747809985185e-02 4.88728075756231e-04
4.84910256410256e+00 4.32880314232770e-02 4.85802330828543e-04
4.87705128205128e+00 4.29047065992918e-02 4.82886079454249e-04
4.90500000000000e+00 4.25247761988692e-02 4.79979452605566e-04
4.93294871794872e+00 4.21482101636628e-02 4.77082576301598e-04
4.96089743589744e+00 4.17749787014993e-02 4.74195572227601e-04
4.98884615384615e+00 4.14050522847560e-02 4.71318558279531e-04
5.01679487179487e+00 4.10384016458062e-02 4.68451648195523e-04
5.04474358974359e+00 4.06749977769373e-02 4.65594951176895e-04
5.07269230769231e+00 4.03148119273060e-02 4.62748572693481e-04
5.10064102564103e+00 3.99578156006637e-02 4.59912614116946e-04
5.12858974358974e+00 3.96039805537860e-02 4.57087173466376e-04
5.15653846153846e+00 3.92532787921732e-02 4.54272345055232e-04
5.18448717948718e+00 3.89056825699145e-02 4.51468219128863e-04
5.21243589743590e+00 3.85611643867944e-02 4.48674882619420e-04
5.24038461538462e+00 3.82196969861182e-02 4.45892418795107e-04
5.26833333333333e+00 3.78812533531916e-02 4.43120907959474e-04
5.29628205128205e+00 3.75458067112605e-02 4.40360427113609e-04
5.32423076923077e+00 3.72133305213289e-02 4.37611049609664e-04
5.35217948717949e+00 3.68837984794086e-02 4.34872845859083e-04
5.38012820512821e+00 3.65571845144394e-02 4.32145882997596e-04
5.40807692307692e+00 3.62334627868190e-02 4.29430225541417e-04
5.43602564102564e+00 3.59126076845670e-02 4.26725935064264e-04
5.46397435897436e+00 3.55945938231027e-02 4.24033069866654e-04
5.49192307692308e+00 3.52793960426307e-02 4.21351685640738e-04
5.51987179487180e+00 3.49669894061516e-02 4.18681835150432e-04
5.54782051282051e+00 3.46573491980414e-02 4.16023568847764e-04
5.57576923076923e+00 3.43504509204256e-02 4.13376934564382e-04
5.60371794871795e+00 3.40462702929232e-02 4.10741977195810e-04
5.63166666666667e+00 3.37447832501605e-02 4.08118739326220e-04
5.65961538461538e+00 3.34459659398687e-02 4.05507260923234e-04
5.68756410256410e+00 3.31497947215115e-02 4.02907579917046e-04
5.71551282051282e+00 3.28562461628568e-02 4.00319731906047e-04
5.74346153846154e+00 3.25652970396917e-02 3.97743749855482e-04
5.77141025641026e+00 3.22769243334584e-02 3.95179664685005e-04
5.79935897435897e+00 3.19911052294339e-02 3.92627504977567e-04
5.82730769230769e+00 3.17078171154061e-02 3.90087297523937e-04
5.85525641025641e+00 3.14270375784295e-02 3.87559067041938e-04
5.88320512820513e+00 3.11487444045174e-02 3.85042835888984e-04
5.91115384615385e+00 3.08729155763927e-02 3.82538624614927e-04
5.93910256410256e+00 3.05995292717461e-02 3.80046451684513e-04
5.96705128205128e+00 3.03285638619596e-02 3.77566333989654e-04
5.99500000000000e+00 3.00599979090359e-02 3.75098286581734e-04
6.02294871794872e+00 2.97938101652708e-02 3.72642322397531e-04
6.05089743589744e+00 2.95299795711130e-02 3.70198452632098e-04
6.07884615384615e+00 2.92684852539241e-02 3.67766687065938e-04
6.10679487179487e+00 2.90093065250409e-02 3.65347033807910e-04
6.13474358974359e+00 2.87524228794333e-02 3.62939499032032e-04
6.16269230769231e+00 2.84978139936475e-02 3.60544087472973e-04
6.19064102564103e+00 2.82454597241982e-02 3.58160802171527e-04
6.21858974358974e+00 2.79953401063736e-02 3.55789644933880e-04
6.24653846153846e+00 2.77474353514523e-02 3.53430616086490e-04
6.27448717948718e+00 2.75017258463493e-02 3.51083714225339e-04
6.30243589743590e+00 2.72581921516572e-02 3.48748936682701e-04
6.33038461538462e+00 2.70168150001092e-02 3.46426279284708e-04
6.35833333333333e+00 2.67775752954265e-02 3.44115736784134e-04
6.38628205128205e+00 2.65404541096829e-02 3.41817302626733e-04
6.41423076923077e+00 2.63054326829395e-02 3.39530968712463e-04
6.44217948717949e+00 2.60724924213807e-02 3.37256725835370e-04
6.47012820512820e+00 2.58416148958431e-02 3.34994563452678e-04
6.49807692307692e+00 2.56127818407066e-02 3.32744470092852e-04
6.52602564102564e+00 2.53859751513951e-02 3.30506433132902e-04
6.55397435897436e+00 2.51611768840056e-02 3.28280438570966e-04
6.58192307692308e+00 2.49383692535315e-02 3.26066471441133e-04
6.60987179487180e+00 2.47175346324569e-02 3.23864515593508e-04
6.63782051282051e+00 2.44986555496876e-02 3.21674554079077e-04
6.66576923076923e+00 2.42817146881829e-02 3.19496568937585e-04
6.69371794871795e+00 2.40666948845786e-02 3.17330540980896e-04
6.72166666666667e+00 2.38535791274952e-02 3.15176450184352e-04
6.74961538461538e+00 2.36423505561932e-02 3.13034275477388e-04
6.77756410256410e+00 2.34329924595444e-02 3.10903995106555e-04
6.80551282051282e+00 2.32254882737856e-02 3.08785586433537e-04
6.83346153846154e+00 2.30198215821390e-02 3.06679025728801e-04
6.86141025641026e+00 2.28159761132004e-02 3.04584288540991e-04
6.88935897435897e+00 2.26139357396528e-02 3.02501349497550e-04
6.91730769230769e+00 2.24136844772766e-02 3.00430182647300e-04
6.94525641025641e+00 2.22152064828194e-02 2.98370761268111e-04
6.97320512820513e+00 2.20184860536138e-02 2.96323057670409e-04
7.00115384615385e+00 2.18235076260430e-02 2.94287043545906e-04
7.02910256410256e+00 2.16302557743094e-02 2.92262689777803e-04
7.05705128205128e+00 2.14387152094830e-02 2.90249966764179e-04
7.08500000000000e+00 2.12488707774799e-02 2.88248844234878e-04
7.11294871794872e+00 2.10607074586806e-02 2.86259291064385e-04
7.14089743589744e+00 2.08742103664673e-02 2.84281275505122e-04
7.16884615384615e+00 2.06893647463020e-02 2.82314765391876e-04
7.19679487179487e+00 2.05061559737879e-02 2.80359727966025e-04
7.22474358974359e+00 2.03245695542885e-02 2.78416129695966e-04
7.25269230769231e+00 2.01445911215202e-02 2.76483936591424e-04
7.28064102564103e+00 1.99662064364160e-02 2.74563114029774e-04
7.30858974358974e+00 1.97894013862384e-02 2.72653627047582e-04
7.33653846153846e+00 1.96141619827394e-02 2.70755440173187e-04
7.36448717948718e+00 1.94404743617826e-02 2.68868517255798e-04
7.39243589743590e+00 1.92683247820009e-02 2.66992821762439e-04
7.42038461538462e+00 1.90976996237102e-02 2.65128316612617e-04
7.44833333333333e+00 1.89285853880563e-02 2.63274964453837e-04
7.47628205128205e+00 1.87609686952684e-02 2.61432727502157e-04
7.50423076923077e+00 1.85948362842835e-02 2.59601567379495e-04
7.53217948717949e+00 1.84301750114681e-02 2.57781445394278e-04
7.56012820512821e+00 1.82669718495787e-02 2.55972322384059e-04
7.58807692307692e+00 1.81052138869415e-02 2.54174158975950e-04
7.61602564102564e+00 1.79448883257942e-02 2.52386915434799e-04
7.64397435897436e+00 1.77859824819146e-02 2.50610551508317e-04
7.67192307692308e+00 1.76284837834022e-02 2.48845026692361e-04
7.69987179487179e+00 1.74723797696830e-02 2.47090300081127e-04
7.72782051282051e+00 1.73176580907227e-02 2.45346330613408e-04
7.75576923076923e+00 1.71643065054504e-02 2.43613076928025e-04
7.78371794871795e+00 1.70123128813929e-02 2.41890497216342e-04
7.81166666666667e+00 1.68616651935126e-02 2.40178549473177e-04
7.83961538461539e+00 1.67123515232561e-02 2.38477191354221e-04
7.86756410256410e+00 1.65643600577979e-02 2.36786380408854e-04
7.89551282051282e+00 1.64176790885427e-02 2.35106073942516e-04
7.92346153846154e+00 1.62722970107660e-02 2.33436228876316e-04
7.95141025641026e+00 1.61282023225052e-02 2.31776801984354e-04
7.97935897435897e+00 1.59853836236502e-02 2.30127749757991e-04
8.00730769230769e+00 1.58438296152165e-02 2.28489028626038e-04
8.03525641025641e+00 1.57035290979225e-02 2.26860594823776e-04
8.06320512820513e+00 1.55644709718354e-02 2.25242404259264e-04
8.09115384615385e+00 1.54266442353147e-02 2.23634412737859e-04
8.11910256410256e+00 1.52900379841419e-02 2.22036575833035e-04
8.14705128205128e+00 1.51546414108224e-02 2.20448849094679e-04
8.17500000000000e+00 1.50204438032330e-02 2.18871187924399e-04
8.20294871794872e+00 1.48874345442752e-02 2.17303547448217e-04
8.23089743589744e+00 1.47556031108672e-02 2.15745882665807e-04
8.25884615384615e+00 1.46249390732678e-02 2.14198148581089e-04
8.28679487179487e+00 1.44954320937787e-02 2.12660300082529e-04
8.31474358974359e+00 1.43670719264023e-02 2.11132291820916e-04
8.34269230769231e+00 1.42398484158715e-02 2.09614078412499e-04
8.37064102564103e+00 1.41137514968463e-02 2.08105614320774e-04
8.39858974358974e+00 1.39887711932647e-02 2.06606854044944e-04
8.42653846153846e+00 1.38648976171088e-02 2.05117752005898e-04
8.45448717948718e+00 1.37421209680699e-02 2.03638262429878e-04
8.48243589743590e+00 1.36204315326233e-02 2.02168339540771e-04
8.51038461538462e+00 1.34998196832596e-02 2.00707937447562e-04
8.53833333333333e+00 1.33802758778615e-02 1.99257010322755e-04
8.56628205128205e+00 1.32617906585308e-02 1.97815512293769e-04
8.59423076923077e+00 1.31443546512609e-02 1.96383397332228e-04
8.62217948717949e+00 1.30279585650541e-02 1.94960619435990e-04
8.65012820512820e+00 1.29125931911864e-02 1.93547132521989e-04
8.67807692307692e+00 1.27982494026094e-02 1.92142890595192e-04
8.70602564102564e+00 1.26849181528348e-02 1.90747847645176e-04
8.73397435897436e+00 1.25725904756142e-02 1.89361957540719e-04
8.76192307692308e+00 1.24612574840976e-02 1.87985174202177e-04
8.78987179487179e+00 1.23509103701298e-02 1.86617451499459e-04
8.81782051282051e+00 1.22415404036764e-02 1.85258743412027e-04
