Energy (eV)          EEDF (eV^-(3/2))     First Anisotropy
2.49000000000000e-01 5.62485030723309e-02 9.14810331212302e-05
7.47000000000000e-01 5.24940111474125e-02 1.46512193957481e-04
1.24500000000000e+00 4.89901251736619e-02 1.81724575204782e-04
1.74300000000000e+00 4.57201176300155e-02 2.02197189514507e-04
2.24100000000000e+00 4.26683775289935e-02 2.14626283975077e-04
2.73900000000000e+00 3.98203358899822e-02 2.21783357757299e-04
3.23700000000000e+00 3.71623961870482e-02 2.25210336363083e-04
3.73500000000000e+00 3.46818694392422e-02 2.25892734704168e-04
4.23300000000000e+00 3.23669136335147e-02 2.24512676166686e-04
4.73100000000000e+00 3.02064771910487e-02 2.21566843630309e-04
5.22900000000000e+00 2.81902462071192e-02 2.17429501719164e-04
5.72700000000000e+00 2.63085952126022e-02 2.12389529670350e-04
6.22500000000000e+00 2.45525412220684e-02 2.06673767826457e-04
6.72300000000000e+00 2.29137008490901e-02 2.00462553863315e-04
7.22100000000000e+00 2.13842502840266e-02 1.93900513253968e-04
7.71900000000000e+00 1.99568879432260e-02 1.87104316593572e-04
8.21700000000000e+00 1.86247996113279e-02 1.80168416055646e-04
8.71500000000000e+00 1.73816259102595e-02 1.73169387740227e-04
9.21300000000000e+00 1.62214319396192e-02 1.66169283497366e-04
9.71100000000000e+00 1.51386789435150e-02 1.59218260974959e-04
1.02090000000000e+01 1.41281978685910e-02 1.52356676135924e-04
1.07070000000000e+01 1.31851646870130e-02 1.45616767812496e-04
1.12050000000000e+01 1.23050773666006e-02 1.39024027481689e-04
1.17030000000000e+01 1.14837343781656e-02 1.32598322626042e-04
1.22010000000000e+01 1.07172146374480e-02 1.26354824732445e-04
1.26990000000000e+01 1.00018587858941e-02 1.20304780664379e-04
1.31970000000000e+01 9.33425172091063e-03 1.14456157219362e-04
1.36950000000000e+01 8.71120629219461e-03 1.08814182112021e-04
1.41930000000000e+01 8.12974808630593e-03 1.03381799711431e-04
1.46910000000000e+01 7.58710122684332e-03 9.81600561396497e-05
1.51890000000000e+01 7.08067512243469e-03 9.31484254831099e-05
1.56870000000000e+01 6.60805209927652e-03 8.83450866526817e-05
1.61850000000000e+01 6.16697585918023e-03 8.37471586904926e-05
1.66830000000000e+01 5.75534070802433e-03 7.93509009454876e-05
1.71810000000000e+01 5.37118150318901e-03 7.51518834402358e-05
1.76790000000000e+01 5.01266427198245e-03 7.11451318657752e-05
1.81770000000000e+01 4.67807745627120e-03 6.73252509223244e-05
1.86750000000000e+01 4.36582374151656e-03 6.36865291359845e-05
1.91730000000000e+01 4.07441243120894e-03 6.02230277980376e-05
1.96710000000000e+01 3.80245233029570e-03 5.69286562732475e-05
2.01690000000000e+01 3.54864510362813e-03 5.37972355905326e-05
2.06670000000000e+01 3.31177907772078e-03 5.08225519507980e-05
2.11650000000000e+01 3.09072345623278e-03 4.79984015525980e-05
2.16630000000000e+01 2.88442292155603e-03 4.53186279387242e-05
2.21610000000000e+01 2.69189259673810e-03 4.27771528993727e-05
2.26590000000000e+01 2.51221334368828e-03 4.03680018251661e-05
2.31570000000000e+01 2.34452737522035e-03 3.80853242818069e-05
2.36550000000000e+01 2.18803415998401e-03 3.59234104741395e-05
2.41530000000000e+01 2.04198660073525e-03 3.38767041781499e-05
2.46510000000000e+01 1.90568746770058e-03 3.19398126426137e-05
2.51490000000000e+01 1.77848607000821e-03 3.01075138958582e-05
2.56470000000000e+01 1.65977514929547e-03 2.83747618358354e-05
2.61450000000000e+01 1.54898798066273e-03 2.67366894321109e-05
2.66430000000000e+01 1.44559566713363e-03 2.51886103253495e-05
2.71410000000000e+01 1.34910461470554e-03 2.37260190724924e-05
2.76390000000000e+01 1.25905417593615e-03 2.23445902533011e-05
2.81370000000000e+01 1.17501445081651e-03 2.10401766256038e-05
2.86350000000000e+01 1.09658423443222e-03 1.98088064918723e-05
2.91330000000000e+01 1.02338910161461e-03 1.86466804181927e-05
2.96310000000000e+01 9.55079619438295e-04 1.75501674278530e-05
3.01290000000000e+01 8.91329679031416e-04 1.65158007753046e-05
3.06270000000000e+01 8.31834938734733e-04 1.55402733918600e-05
3.11250000000000e+01 7.76311371177206e-04 1.46204330818908e-05
3.16230000000000e+01 7.24493907331799e-04 1.37532775372756e-05
3.21210000000000e+01 6.76135171078258e-04 1.29359492282056e-05
3.26190000000000e+01 6.31004298231674e-04 1.21657302200219e-05
3.31170000000000e+01 5.88885834398877e-04 1.14400369583857e-05
3.36150000000000e+01 5.49578706401044e-04 1.07564150586308e-05
3.41130000000000e+01 5.12895262352095e-04 1.01125341295184e-05
3.46110000000000e+01 4.78660375810232e-04 9.50618265669100e-06
3.51090000000000e+01 4.46710609725827e-04 8.93526296683702e-06
3.56070000000000e+01 4.16893436194379e-04 8.39778628983567e-06
3.61050000000000e+01 3.89066508289624e-04 7.89186793290222e-06
3.66030000000000e+01 3.63096980500556e-04 7.41572257792775e-06
3.71010000000000e+01 3.38860874528113e-04 6.96765971075887e-06
3.75990000000000e+01 3.16242487413860e-04 6.54607918904383e-06
3.80970000000000e+01 2.95133839175074e-04 6.14946695344317e-06
3.85950000000000e+01 2.75434157309254e-04 5.77639088543078e-06
3.90930000000000e+01 2.57049395707064e-04 5.42549681356257e-06
3.95910000000000e+01 2.39891785677037e-04 5.09550466893858e-06
4.00890000000000e+01 2.23879416938601e-04 4.78520478960706e-06
4.05870000000000e+01 2.08935846583120e-04 4.49345437283193e-06
4.10850000000000e+01 1.94989734136110e-04 4.21917407345208e-06
4.15830000000000e+01 1.81974500978438e-04 3.96134474598395e-06
4.20810000000000e+01 1.69828012500577e-04 3.71900432764362e-06
4.25790000000000e+01 1.58492281472522e-04 3.49124485907801e-06
4.30770000000000e+01 1.47913191213255e-04 3.27720963928591e-06
4.35750000000000e+01 1.38040237238191e-04 3.07609051096769e-06
4.40730000000000e+01 1.28826286151200e-04 2.88712527235870e-06
4.45710000000000e+01 1.20227350630193e-04 2.70959521146890e-06
4.50690000000000e+01 1.12202379432022e-04 2.54282275856106e-06
4.55670000000000e+01 1.04713061414213e-04 2.38616925264835e-06
4.60650000000000e+01 9.77236426378982e-05 2.23903281777165e-06
4.65630000000000e+01 9.12007556788266e-05 2.10084634482434e-06
4.70610000000000e+01 8.51132603315728e-05 1.97107557472235e-06
4.75590000000000e+01 7.94320949464670e-05 1.84921727876734e-06
4.80570000000000e+01 7.41301376895327e-05 1.73479753211625e-06
4.85550000000000e+01 6.91820770630890e-05 1.62737007635040e-06
4.90530000000000e+01 6.45642910688806e-05 1.52651476722696e-06
4.95510000000000e+01 6.02547344368647e-05 1.43183610379501e-06
5.00490000000000e+01 5.62328333812840e-05 1.34296183516407e-06
5.05470000000000e+01 5.24793873815933e-05 1.25954164132427e-06
5.10450000000000e+01 4.89764775193415e-05 1.18124588453208e-06
5.15430000000000e+01 4.57073809334116e-05 1.10776442789342e-06
5.20410000000000e+01 4.26564909852277e-05 1.03880551789472e-06
5.25390000000000e+01 3.98092427527984e-05 9.74094727752723e-07
5.30370000000000e+01 3.71520434979065e-05 9.13373958573039e-07
5.35350000000000e+01 3.46722077744949e-05 8.56400495426757e-07
5.40330000000000e+01 3.23578968684586e-05 8.02946115571733e-07
5.45310000000000e+01 3.01980622797262e-05 7.52796246161015e-07
5.50290000000000e+01 2.81823929768171e-05 7.05749168894448e-07
5.55270000000000e+01 2.63012661720676e-05 6.61615269180612e-07
5.60250000000000e+01 2.45457013825258e-05 6.20216327484556e-07
5.65230000000000e+01 2.29073175572052e-05 5.81384850642207e-07
5.70210000000000e+01 2.13782930660196e-05 5.44963441024644e-07
5.75190000000000e+01 1.99513283593902e-05 5.10804201534467e-07
5.80170000000000e+01 1.86196111202586e-05 4.78768174512296e-07
5.85150000000000e+01 1.73767837421455e-05 4.48724812723876e-07
5.90130000000000e+01 1.62169129779923e-05 4.20551480687320e-07
5.95110000000000e+01 1.51344616148917e-05 3.94132984685740e-07
6.00090000000000e+01 1.41242620394815e-05 3.69361129892841e-07
6.05070000000000e+01 1.31814915678033e-05 3.46134303118111e-07
6.10050000000000e+01 1.23016494218516e-05 3.24357079754004e-07
6.15030000000000e+01 1.14805352428991e-05 3.03939853580046e-07
6.20010000000000e+01 1.07142290390202e-05 2.84798488148224e-07
6.24990000000000e+01 9.99907247108411e-06 2.66853988540377e-07
6.29970000000000e+01 9.33165138787581e-06 2.50032192351620e-07
6.34950000000000e+01 8.70877952696779e-06 2.34263478814346e-07
6.39930000000000e+01 8.12748330353109e-06 2.19482495034962e-07
6.44910000000000e+01 7.58498761446724e-06 2.05627898370459e-07
6.49890000000000e+01 7.07870259009034e-06 1.92642114024213e-07
6.54870000000000e+01 6.60621123011169e-06 1.80471106990205e-07
6.59850000000000e+01 6.16525786490162e-06 1.69064167522143e-07
6.64830000000000e+01 5.75373738694222e-06 1.58373709349018e-07
6.69810000000000e+01 5.36968520106256e-06 1.48355079901316e-07
6.74790000000000e+01 5.01126784547836e-06 1.38966381852730e-07
6.79770000000000e+01 4.67677423886152e-06 1.30168305320713e-07
6.84750000000000e+01 4.36460751165275e-06 1.21923970105763e-07
6.89730000000000e+01 4.07327738262024e-06 1.14198777383986e-07
6.94710000000000e+01 3.80139304427006e-06 1.06960270300299e-07
6.99690000000000e+01 3.54765652314330e-06 1.00178002940784e-07
7.04670000000000e+01 3.31085648330215e-06 9.38234171921472e-08
7.09650000000000e+01 3.08986244342265e-06 8.78697270241459e-08
7.14630000000000e+01 2.88361937988676e-06 8.22918097572665e-08
7.19610000000000e+01 2.69114269010878e-06 7.70661039029001e-08
7.24590000000000e+01 2.51151349205119e-06 7.21705131869086e-08
7.29570000000000e+01 2.34387423748988e-06 6.75843163898142e-08
7.34550000000000e+01 2.18742461808634e-06 6.32880826579657e-08
7.39530000000000e+01 2.04141774472268e-06 5.92635919599998e-08
7.44510000000000e+01 1.90515658185946e-06 5.54937603817721e-08
7.49490000000000e+01 1.77799061989417e-06 5.19625699707432e-08
7.54470000000000e+01 1.65931276963400e-06 4.86550028576278e-08
7.59450000000000e+01 1.54855646405735e-06 4.55569793989950e-08
7.64430000000000e+01 1.44519295352782e-06 4.26553000994925e-08
7.69410000000000e+01 1.34872878154808e-06 3.99375910865119e-08
7.74390000000000e+01 1.25870342900282e-06 3.73922529234583e-08
7.79370000000000e+01 1.17468711564450e-06 3.50084125603713e-08
7.84350000000000e+01 1.09627874832628e-06 3.27758782325130e-08
7.89330000000000e+01 1.02310400618674e-06 3.06850971287348e-08
7.94310000000000e+01 9.54813553645409e-07 2.87271156619801e-08
7.99290000000000e+01 8.91081372677739e-07 2.68935421842315e-08
8.04270000000000e+01 8.31603206407899e-07 2.51765119975747e-08
8.09250000000000e+01 7.76095106589109e-07 2.35686545218881e-08
8.14230000000000e+01 7.24292078037182e-07 2.20630624879836e-08
8.19210000000000e+01 6.75946813545830e-07 2.06532630328580e-08
8.24190000000000e+01 6.30828513244218e-07 1.93331905810966e-08
8.29170000000000e+01 5.88721782760398e-07 1.80971614034188e-08
8.34150000000000e+01 5.49425604930449e-07 1.69398497498976e-08
8.39130000000000e+01 5.12752380144302e-07 1.58562654615429e-08
8.44110000000000e+01 4.78527030746826e-07 1.48417329697379e-08
8.49090000000000e+01 4.46586165218639e-07 1.38918715984728e-08
8.54070000000000e+01 4.16777298146416e-07 1.30025770894526e-08
8.59050000000000e+01 3.88958122258861e-07 1.21700042749900e-08
8.64030000000000e+01 3.62995829053026e-07 1.13905508281346e-08
8.69010000000000e+01 3.38766474767688e-07 1.06608420237683e-08
8.73990000000000e+01 3.16154388676908e-07 9.97771644841627e-09
8.78970000000000e+01 2.95051620878994e-07 9.33821260030348e-09
8.83950000000000e+01 2.75357426944617e-07 8.73955632474451e-09
8.88930000000000e+01 2.56977786963780e-07 8.17914903329707e-09
8.93910000000000e+01 2.39824956695590e-07 7.65455665825307e-09
8.98890000000000e+01 2.23817048678017e-07 7.16349929699688e-09
9.03870000000000e+01 2.08877641297867e-07 6.70384150353754e-09
9.08850000000000e+01 1.94935413954664e-07 6.27358318713313e-09
9.13830000000000e+01 1.81923806576727e-07 5.87085108037891e-09
9.18810000000000e+01 1.69780701863971e-07 5.49389074143657e-09
9.23790000000000e+01 1.58448128740452e-07 5.14105905724914e-09
9.28770000000000e+01 1.47871985600966e-07 4.81081721662084e-09
9.33750000000000e+01 1.38001782030448e-07 4.50172412395464e-09
9.38730000000000e+01 1.28790397763178e-07 4.21243022623637e-09
9.43710000000000e+01 1.20193857731039e-07 3.94167172754187e-09
9.48690000000000e+01 1.12171122126930e-07 3.68826516692896e-09
9.53670000000000e+01 1.04683890481080e-07 3.45110233706467e-09
9.58650000000000e+01 9.76964188149439e-08 3.22914552233607e-09
9.63630000000000e+01 9.11753489997579e-08 3.02142303650624e-09
9.68610000000000e+01 8.50895495051258e-08 2.82702504120949e-09
9.73590000000000e+01 7.94099667773629e-08 2.64509962773717e-09
9.78570000000000e+01 7.41094865380855e-08 2.47484914565275e-09
9.83550000000000e+01 6.91628043408818e-08 2.31552676279420e-09
9.88530000000000e+01 6.45463047681059e-08 2.16643324218007e-09
9.93510000000000e+01 6.02379486910794e-08 2.02691392223407e-09
9.98490000000000e+01 5.62171680554843e-08 1.89635588758715e-09
1.00347000000000e+02 5.24647676896505e-08 1.77418531850751e-09
1.00845000000000e+02 4.89628336669739e-08 1.65986500775264e-09
1.01343000000000e+02 4.56946477849871e-08 1.55289203433449e-09
1.01841000000000e+02 4.26446077528068e-08 1.45279558434372e-09
1.02339000000000e+02 3.97981527059332e-08 1.35913490959286e-09
1.02837000000000e+02 3.71416936928100e-08 1.27149741541441e-09
1.03335000000000e+02 3.46625488012880e-08 1.18949686949079e-09
1.03833000000000e+02 3.23488826152875e-08 1.11277172409998e-09
1.04331000000000e+02 3.01896497126248e-08 1.04098354463650e-09
1.04829000000000e+02 2.81745419342636e-08 9.73815537714088e-10
1.05327000000000e+02 2.62939391732532e-08 9.10971172574692e-10
1.05825000000000e+02 2.45388634484221e-08 8.52172889921416e-10
1.06323000000000e+02 2.29009360435744e-08 7.97160892661378e-10
1.06821000000000e+02 2.13723375075715e-08 7.45692013389861e-10
1.07319000000000e+02 1.99457703243405e-08 6.97538653771203e-10
1.07817000000000e+02 1.86144240745966e-08 6.52487791275783e-10
1.08315000000000e+02 1.73719429229605e-08 6.10340049017379e-10
1.08813000000000e+02 1.62123952752557e-08 5.70908824702376e-10
1.09311000000000e+02 1.51302454611301e-08 5.34019474952957e-10
1.09809000000000e+02 1.41203273068135e-08 4.99508551501249e-10
1.10307000000000e+02 1.31778194718496e-08 4.67223085971762e-10
1.10805000000000e+02 1.22982224320582e-08 4.37019920175968e-10
1.11303000000000e+02 1.14773369988465e-08 4.08765079036488e-10
1.11801000000000e+02 1.07112442723192e-08 3.82333183439937e-10
1.12299000000000e+02 9.99628693248456e-09 3.57606900487569e-10
1.12797000000000e+02 9.32905177924075e-09 3.34476428772493e-10
1.13295000000000e+02 8.70635343778828e-09 3.12839016461687e-10
1.13793000000000e+02 8.12521915167854e-09 2.92598510101271e-10
1.14291000000000e+02 7.58287459090049e-09 2.73664932194858e-10
1.14789000000000e+02 7.07673060725329e-09 2.55954085727937e-10
1.15287000000000e+02 6.60437087377551e-09 2.39387183926694e-10
1.15785000000000e+02 6.16354034922119e-09 2.23890503647825e-10
1.16283000000000e+02 5.75213451251269e-09 2.09395060897289e-10
1.16781000000000e+02 5.36818931577538e-09 1.95836307070934e-10
1.17279000000000e+02 5.00987180799022e-09 1.83153844598994e-10
1.17777000000000e+02 4.67547138450164e-09 1.71291160759856e-10
1.18275000000000e+02 4.36339162060579e-09 1.60195378506713e-10
1.18773000000000e+02 4.07214265023294e-09 1.49817023223933e-10
1.19271000000000e+02 3.80033405333990e-09 1.40109804398659e-10
1.19769000000000e+02 3.54666821805683e-09 1.31030411257456e-10
1.20267000000000e+02 3.30993414589951e-09 1.22538321478069e-10
1.20765000000000e+02 3.08900167047313e-09 1.14595622142847e-10
1.21263000000000e+02 2.88281606206780e-09 1.07166842153255e-10
1.21761000000000e+02 2.69039299238813e-09 1.00218795374482e-10
1.22259000000000e+02 2.51081383537848e-09 9.37204338255428e-11
1.22757000000000e+02 2.34322128171025e-09 8.76427102738164e-11
1.23255000000000e+02 2.18681524599459e-09 8.19584496336499e-11
1.23753000000000e+02 2.04084904718176e-09 7.66422286068770e-11
1.24251000000000e+02 1.90462584391229e-09 7.16702630388136e-11
1.24749000000000e+02 1.77749530780241e-09 6.70203024968034e-11
1.25247000000000e+02 1.65885051878204e-09 6.26715316097513e-11
1.25745000000000e+02 1.54812506766366e-09 5.86044777364599e-11
1.26243000000000e+02 1.44479035210979e-09 5.48009245581101e-11
1.26741000000000e+02 1.34835305309005e-09 5.12438312160019e-11
1.27239000000000e+02 1.25835277978039e-09 4.79172566398092e-11
1.27737000000000e+02 1.17435987166137e-09 4.48062887342178e-11
1.28235000000000e+02 1.09597334732252e-09 4.18969781129855e-11
1.28733000000000e+02 1.02281899018062e-09 3.91762760892989e-11
1.29231000000000e+02 9.54547561973003e-10 3.66319766498703e-11
1.29729000000000e+02 8.90833135497126e-10 3.42526621576099e-11
1.30227000000000e+02 8.31371538636945e-10 3.20276525439973e-11
1.30725000000000e+02 7.75878902247897e-10 2.99469577675263e-11
1.31223000000000e+02 7.24090304968072e-10 2.80012333288780e-11
1.31721000000000e+02 6.75758508485952e-10 2.61817386468514e-11
1.32219000000000e+02 6.30652777226859e-10 2.44802981116031e-11
1.32717000000000e+02 5.88557776823343e-10 2.28892646434704e-11
1.33215000000000e+02 5.49272546110788e-10 2.14014855966364e-11
1.33713000000000e+02 5.12609537740563e-10 2.00102708571675e-11
1.34211000000000e+02 4.78393722830622e-10 1.87093629945844e-11
1.34709000000000e+02 4.46461755379140e-10 1.74929093351359e-11
1.35207000000000e+02 4.16661192452136e-10 1.63554358333831e-11
1.35705000000000e+02 3.88849766422226e-10 1.52918226265982e-11
1.36203000000000e+02 3.62894705784219e-10 1.42972811638797e-11
1.36701000000000e+02 3.38672101305106e-10 1.33673328088065e-11
1.37199000000000e+02 3.16066314482463e-10 1.24977888209373e-11
1.37697000000000e+02 2.94969425487251e-10 1.16847316275265e-11
1.38195000000000e+02 2.75280717955493e-10 1.09244973025096e-11
1.38693000000000e+02 2.56906198169230e-10 1.02136591751282e-11
1.39191000000000e+02 2.39758146331334e-10 9.54901249554230e-12
1.39689000000000e+02 2.23754697791959e-10 8.92756008943571e-12
1.40187000000000e+02 2.08819452227421e-10 8.34649893798451e-12
1.40685000000000e+02 1.94881108905715e-10 7.80320762363871e-12
1.41183000000000e+02 1.81873126297446e-10 7.29523458599073e-12
1.41681000000000e+02 1.69733404407145e-10 6.82028713558009e-12
1.42179000000000e+02 1.58403988308437e-10 6.37622117683266e-12
1.42677000000000e+02 1.47830791467723e-10 5.96103159446692e-12
1.43175000000000e+02 1.37963337535546e-10 5.57284326063217e-12
1.43673000000000e+02 1.28754519372932e-10 5.20990262278972e-12
1.44171000000000e+02 1.20160374162328e-10 4.87056983491745e-12
1.44669000000000e+02 1.12139873529489e-10 4.55331139702310e-12
1.45167000000000e+02 1.04654727674378e-10 4.25669327020245e-12
1.45665000000000e+02 9.76692025759952e-11 3.97937443658531e-12
1.46163000000000e+02 9.11499493984758e-11 3.72010087548351e-12
1.46661000000000e+02 8.50658452840352e-11 3.47769992890032e-12
1.47159000000000e+02 7.93878447727193e-11 3.25107503128750e-12
1.47657000000000e+02 7.40888411396317e-11 3.03920078005196e-12
1.48155000000000e+02 6.91435369876657e-11 2.84111832482658e-12
1.48653000000000e+02 6.45283234779513e-11 2.65593105493451e-12
1.49151000000000e+02 6.02211676214640e-11 2.48280056580122e-12
1.49649000000000e+02 5.62015070937283e-11 2.32094288630728e-12
1.50147000000000e+02 5.24501520704590e-11 2.16962495023495e-12
1.50645000000000e+02 4.89491936155085e-11 2.02816129604684e-12
1.51143000000000e+02 4.56819181837611e-11 1.89591098025025e-12
1.51641000000000e+02 4.26327278308150e-11 1.77227469055117e-12
1.52139000000000e+02 3.97870657485317e-11 1.65669204589117e-12
1.52637000000000e+02 3.71313467709609e-11 1.54863907129203e-12
1.53135000000000e+02 3.46528925188766e-11 1.44762583621199e-12
1.53633000000000e+02 3.23398708733058e-11 1.35319424584549e-12
1.54131000000000e+02 3.01812394890952e-11 1.26491597548008e-12
1.54629000000000e+02 2.81666930788524e-11 1.18239053866181e-12
1.55127000000000e+02 2.62866142155931e-11 1.10524348051717e-12
1.55625000000000e+02 2.45320274192292e-11 1.03312468813777e-12
1.56123000000000e+02 2.28945563077050e-11 9.65706810456532e-13
1.56621000000000e+02 2.13663836082221e-11 9.02683780532647e-13
1.57119000000000e+02 1.99402138376477e-11 8.43769433619875e-13
