Energy (eV)          EEDF (eV^-(3/2))     First Anisotropy
2.88983050847458e-02 3.62544188644775e-02 1.77155185649989e-05
8.66949152542373e-02 3.60428493374565e-02 2.92663875188326e-05
1.44491525423729e-01 3.58325144650004e-02 3.86694850188588e-05
2.02288135593220e-01 3.56234070402522e-02 4.58341539966145e-05
2.60084745762712e-01 3.54155199019081e-02 5.18270380413052e-05
3.17881355932203e-01 3.52088459285509e-02 5.70508100893537e-05
3.75677966101695e-01 3.50033780404377e-02 6.17135541698829e-05
4.33474576271186e-01 3.47991091991697e-02 6.59407497827074e-05
4.91271186440678e-01 3.45960324074644e-02 6.98155016817501e-05
5.49067796610169e-01 3.43941407084916e-02 7.33964654233234e-05
6.06864406779661e-01 3.41934271868467e-02 7.67270010973948e-05
6.64661016949152e-01 3.39938849670356e-02 7.98403137493694e-05
7.22457627118644e-01 3.37955072136907e-02 8.27625507496789e-05
7.80254237288136e-01 3.35982871313341e-02 8.55147730373101e-05
8.38050847457627e-01 3.34022179641516e-02 8.81142655571574e-05
8.95847457627119e-01 3.32072929955317e-02 9.05754400217578e-05
9.53644067796610e-01 3.30135055485247e-02 9.29104758551161e-05
1.01144067796610e+00 3.28208489849021e-02 9.51297868044903e-05
1.06923728813559e+00 3.26293167057014e-02 9.72423682958975e-05
1.12703389830508e+00 3.24389021493854e-02 9.92560606676396e-05
1.18483050847458e+00 3.22495987932705e-02 1.01177752109720e-04
1.24262711864407e+00 3.20614001527375e-02 1.03013537793159e-04
1.30042372881356e+00 3.18742997810092e-02 1.04768845823203e-04
1.35822033898305e+00 3.16882912689301e-02 1.06448538359549e-04
1.41601694915254e+00 3.15033682447463e-02 1.08056993625744e-04
1.47381355932203e+00 3.13195243738877e-02 1.09598173067084e-04
1.53161016949153e+00 3.11367533587506e-02 1.11075676834592e-04
1.58940677966102e+00 3.09550489384822e-02 1.12492789996765e-04
1.64720338983051e+00 3.07744048887663e-02 1.13852521315993e-04
1.70500000000000e+00 3.05948150216095e-02 1.15157636174710e-04
1.76279661016949e+00 3.04162731841057e-02 1.16410683932467e-04
1.82059322033898e+00 3.02387732613432e-02 1.17614022088001e-04
1.87838983050847e+00 3.00623091730288e-02 1.18769837103664e-04
1.93618644067797e+00 2.98868748743519e-02 1.19880161607101e-04
1.99398305084746e+00 2.97124643557780e-02 1.20946889946311e-04
2.05177966101695e+00 2.95390716428426e-02 1.21971791611323e-04
2.10957627118644e+00 2.93666907959462e-02 1.22956522993791e-04
2.16737288135593e+00 2.91953159101514e-02 1.23902637731338e-04
2.22516949152542e+00 2.90249411149802e-02 1.24811595841094e-04
2.28296610169492e+00 2.88555605742129e-02 1.25684771812730e-04
2.34076271186441e+00 2.86871684856884e-02 1.26523461803618e-04
2.39855932203390e+00 2.85197590811053e-02 1.27328890056048e-04
2.45635593220339e+00 2.83533266258243e-02 1.28102214637776e-04
2.51415254237288e+00 2.81878654186718e-02 1.28844532592069e-04
2.57194915254237e+00 2.80233697917443e-02 1.29556884570538e-04
2.62974576271186e+00 2.78598341102147e-02 1.30240259011515e-04
2.68754237288136e+00 2.76972527721392e-02 1.30895595917935e-04
2.74533898305085e+00 2.75356202082649e-02 1.31523790281109e-04
2.80313559322034e+00 2.73749308818397e-02 1.32125695190645e-04
2.86093220338983e+00 2.72151792884221e-02 1.32702124665390e-04
2.91872881355932e+00 2.70563599556929e-02 1.33253856235741e-04
2.97652542372881e+00 2.68984674432678e-02 1.33781633303869e-04
3.03432203389831e+00 2.67414963425108e-02 1.34286167305015e-04
3.09211864406780e+00 2.65854412763491e-02 1.34768139690306e-04
3.14991525423729e+00 2.64302968990889e-02 1.35228203748972e-04
3.20771186440678e+00 2.62760578962321e-02 1.35666986285839e-04
3.26550847457627e+00 2.61227189842946e-02 1.36085089168119e-04
3.32330508474576e+00 2.59702749106248e-02 1.36483090753875e-04
3.38110169491525e+00 2.58187204532244e-02 1.36861547213237e-04
3.43889830508475e+00 2.56680504205686e-02 1.37220993752241e-04
3.49669491525424e+00 2.55182596514289e-02 1.37561945747905e-04
3.55449152542373e+00 2.53693430146962e-02 1.37884899802593e-04
3.61228813559322e+00 2.52212954092049e-02 1.38190334724714e-04
3.67008474576271e+00 2.50741117635585e-02 1.38478712441857e-04
3.72788135593220e+00 2.49277870359554e-02 1.38750478852226e-04
3.78567796610169e+00 2.47823162140163e-02 1.39006064619449e-04
3.84347457627119e+00 2.46376943146129e-02 1.39245885915376e-04
3.90127118644068e+00 2.44939163836967e-02 1.39470345115015e-04
3.95906779661017e+00 2.43509774961295e-02 1.39679831447474e-04
4.01686440677966e+00 2.42088727555148e-02 1.39874721606294e-04
4.07466101694915e+00 2.40675972940299e-02 1.40055380322217e-04
4.13245762711864e+00 2.39271462722591e-02 1.40222160901370e-04
4.19025423728814e+00 2.37875148790281e-02 1.40375405731340e-04
4.24805084745763e+00 2.36486983312393e-02 1.40515446757535e-04
4.30584745762712e+00 2.35106918737076e-02 1.40642605932004e-04
4.36364406779661e+00 2.33734907789978e-02 1.40757195636597e-04
4.42144067796610e+00 2.32370903472623e-02 1.40859519082400e-04
4.47923728813559e+00 2.31014859060806e-02 1.40949870686988e-04
4.53703389830508e+00 2.29666728102990e-02 1.41028536431085e-04
4.59483050847458e+00 2.28326464418714e-02 1.41095794195953e-04
4.65262711864407e+00 2.26994022097012e-02 1.41151914082866e-04
4.71042372881356e+00 2.25669355494840e-02 1.41197158715835e-04
4.76822033898305e+00 2.24352419235513e-02 1.41231783528632e-04
4.82601694915254e+00 2.23043168207150e-02 1.41256037037148e-04
4.88381355932203e+00 2.21741557561130e-02 1.41270161098039e-04
4.94161016949153e+00 2.20447542710554e-02 1.41274391154480e-04
4.99940677966102e+00 2.19161079328717e-02 1.41268956469827e-04
5.05720338983051e+00 2.17882123347592e-02 1.41254080349961e-04
5.11500000000000e+00 2.16610630956321e-02 1.41229980422640e-04
5.17279661016949e+00 2.15346558597267e-02 1.41196868634942e-04
5.23059322033898e+00 2.14089862971910e-02 1.41154951582425e-04
5.28838983050847e+00 2.12840501031923e-02 1.41104430830229e-04
5.34618644067797e+00 2.11598429980195e-02 1.41045502880207e-04
5.40398305084746e+00 2.10363607269363e-02 1.40978359407667e-04
5.46177966101695e+00 2.09135990600361e-02 1.40903187421039e-04
5.51957627118644e+00 2.07915537920966e-02 1.40820169414453e-04
5.57737288135593e+00 2.06702207424357e-02 1.40729483513696e-04
5.63516949152542e+00 2.05495957547686e-02 1.40631303615893e-04
5.69296610169491e+00 2.04296746970655e-02 1.40525799523177e-04
5.75076271186441e+00 2.03104534614094e-02 1.40413137070795e-04
5.80855932203390e+00 2.01919279638562e-02 1.40293478249900e-04
5.86635593220339e+00 2.00740941442943e-02 1.40166981325191e-04
5.92415254237288e+00 1.99569479663057e-02 1.40033800947841e-04
5.98194915254237e+00 1.98404854170275e-02 1.39894088263854e-04
6.03974576271186e+00 1.97247025070150e-02 1.39747991018075e-04
6.09754237288136e+00 1.96095952701043e-02 1.39595653654148e-04
6.15533898305085e+00 1.94951597632769e-02 1.39437217410518e-04
6.21313559322034e+00 1.93813920665247e-02 1.39272820412761e-04
6.27093220338983e+00 1.92682882827153e-02 1.39102597762364e-04
6.32872881355932e+00 1.91558445374591e-02 1.38926681622148e-04
6.38652542372881e+00 1.90440569789758e-02 1.38745201298508e-04
6.44432203389831e+00 1.89329217779633e-02 1.38558283320582e-04
6.50211864406780e+00 1.88224351274658e-02 1.38366051516512e-04
6.55991525423729e+00 1.87125932427440e-02 1.38168627086959e-04
6.61771186440678e+00 1.86033923611449e-02 1.37966128675946e-04
6.67550847457627e+00 1.84948287419734e-02 1.37758672439156e-04
6.73330508474576e+00 1.83868986663638e-02 1.37546372109872e-04
6.79110169491525e+00 1.82795984371525e-02 1.37329339062575e-04
6.84889830508475e+00 1.81729243787516e-02 1.37107682374360e-04
6.90669491525424e+00 1.80668728370226e-02 1.36881508884204e-04
6.96449152542373e+00 1.79614401791515e-02 1.36650923250230e-04
7.02228813559322e+00 1.78566227935243e-02 1.36416028005108e-04
7.08008474576271e+00 1.77524170896032e-02 1.36176923609521e-04
7.13788135593220e+00 1.76488194978037e-02 1.35933708503883e-04
7.19567796610169e+00 1.75458264693723e-02 1.35686479158407e-04
7.25347457627119e+00 1.74434344762650e-02 1.35435330121494e-04
7.31127118644068e+00 1.73416400110261e-02 1.35180354066581e-04
7.36906779661017e+00 1.72404395866686e-02 1.34921641837493e-04
7.42686440677966e+00 1.71398297365545e-02 1.34659282492367e-04
7.48466101694915e+00 1.70398070142757e-02 1.34393363346199e-04
7.54245762711864e+00 1.69403679935366e-02 1.34123970012049e-04
7.60025423728814e+00 1.68415092680362e-02 1.33851186440993e-04
7.65805084745763e+00 1.67432274513518e-02 1.33575094960838e-04
7.71584745762712e+00 1.66455191768225e-02 1.33295776313668e-04
7.77364406779661e+00 1.65483810974346e-02 1.33013309692289e-04
7.83144067796610e+00 1.64518098857063e-02 1.32727772775543e-04
7.88923728813559e+00 1.63558022335738e-02 1.32439241762598e-04
7.94703389830508e+00 1.62603548522785e-02 1.32147791406236e-04
8.00483050847458e+00 1.61654644722537e-02 1.31853495045165e-04
8.06262711864407e+00 1.60711278430129e-02 1.31556424635388e-04
8.12042372881356e+00 1.59773417330386e-02 1.31256650780691e-04
8.17822033898305e+00 1.58841029296713e-02 1.30954242762273e-04
8.23601694915254e+00 1.57914082389996e-02 1.30649268567501e-04
8.29381355932203e+00 1.56992544857507e-02 1.30341794917887e-04
8.35161016949153e+00 1.56076385131819e-02 1.30031887296305e-04
8.40940677966102e+00 1.55165571829721e-02 1.29719609973419e-04
8.46720338983051e+00 1.54260073751146e-02 1.29405026033402e-04
8.52500000000000e+00 1.53359859878100e-02 1.29088197436121e-04
8.58279661016949e+00 1.52464899372559e-02 1.28769184929467e-04
8.64059322033898e+00 1.51575161578557e-02 1.28448048148063e-04
8.69838983050848e+00 1.50690616017970e-02 1.28124845711937e-04
8.75618644067797e+00 1.49811232390537e-02 1.27799635135074e-04
8.81398305084746e+00 1.48936980572819e-02 1.27472472885443e-04
8.87177966101695e+00 1.48067830617167e-02 1.27143414406315e-04
8.92957627118644e+00 1.47203752750698e-02 1.26812514137011e-04
8.98737288135593e+00 1.46344717374277e-02 1.26479825533140e-04
9.04516949152542e+00 1.45490695061495e-02 1.26145401086286e-04
9.10296610169491e+00 1.44641656557671e-02 1.25809292343219e-04
9.16076271186441e+00 1.43797572778844e-02 1.25471549924633e-04
9.21855932203390e+00 1.42958414810776e-02 1.25132223543410e-04
9.27635593220339e+00 1.42124153907966e-02 1.24791362022424e-04
9.33415254237288e+00 1.41294761492662e-02 1.24449013311912e-04
9.39194915254237e+00 1.40470209153882e-02 1.24105224506403e-04
9.44974576271186e+00 1.39650468646443e-02 1.23760041861279e-04
9.50754237288136e+00 1.38835511889992e-02 1.23413510808899e-04
9.56533898305085e+00 1.38025310968043e-02 1.23065675974353e-04
9.62313559322034e+00 1.37219838127023e-02 1.22716581190830e-04
9.68093220338983e+00 1.36419065775321e-02 1.22366269514636e-04
9.73872881355932e+00 1.35622966482339e-02 1.22014783239842e-04
9.79652542372881e+00 1.34831512977559e-02 1.21662163912598e-04
9.85432203389830e+00 1.34044678149603e-02 1.21308452345145e-04
9.91211864406780e+00 1.33262435045309e-02 1.20953688629439e-04
9.96991525423729e+00 1.32484756868801e-02 1.20597912150524e-04
1.00277118644068e+01 1.31711616980581e-02 1.20241161688225e-04
1.00855084745763e+01 1.30942988894315e-02 1.19883475133301e-04
1.01433050847458e+01 1.30178846283601e-02 1.19524889738100e-04
1.02011016949153e+01 1.29419162972579e-02 1.19165442308854e-04
1.02588983050847e+01 1.28663912938143e-02 1.18805168886064e-04
1.03166949152542e+01 1.27913070309043e-02 1.18444104877049e-04
1.03744915254237e+01 1.27166609365016e-02 1.18082285067363e-04
1.04322881355932e+01 1.26424504535892e-02 1.17719743632417e-04
1.04900847457627e+01 1.25686730400721e-02 1.17356514422696e-04
1.05478813559322e+01 1.24953261679969e-02 1.16992630146503e-04
1.06056779661017e+01 1.24224073255578e-02 1.16628122934742e-04
1.06634745762712e+01 1.23499140149050e-02 1.16263024910014e-04
1.07212711864407e+01 1.22778437527657e-02 1.15897367354616e-04
1.07790677966102e+01 1.22061940703586e-02 1.15531181002478e-04
1.08368644067797e+01 1.21349625133094e-02 1.15164496048839e-04
1.08946610169492e+01 1.20641466415664e-02 1.14797342159262e-04
1.09524576271186e+01 1.19937440293179e-02 1.14429748478907e-04
1.10102542372881e+01 1.19237522649084e-02 1.14061743641830e-04
1.10680508474576e+01 1.18541689507562e-02 1.13693356031714e-04
1.11258474576271e+01 1.17849917026512e-02 1.13324613030392e-04
1.11836440677966e+01 1.17162181515438e-02 1.12955541535165e-04
1.12414406779661e+01 1.16478459415825e-02 1.12586168480224e-04
1.12992372881356e+01 1.15798727306635e-02 1.12216520071788e-04
1.13570338983051e+01 1.15122961903510e-02 1.11846622055077e-04
1.14148305084746e+01 1.14451140057970e-02 1.11476499722102e-04
1.14726271186441e+01 1.13783238756623e-02 1.11106177919060e-04
1.15304237288136e+01 1.13119235120378e-02 1.10735681053935e-04
1.15882203389831e+01 1.12459106403660e-02 1.10365033104039e-04
1.16460169491525e+01 1.11802829993629e-02 1.09994257854845e-04
1.17038135593220e+01 1.11150383403853e-02 1.09623378208241e-04
1.17616101694915e+01 1.10501744290297e-02 1.09252416657243e-04
1.18194067796610e+01 1.09856890433702e-02 1.08881395764519e-04
1.18772033898305e+01 1.09215799744472e-02 1.08510337458473e-04
1.19350000000000e+01 1.08578450261917e-02 1.08139263277921e-04
1.19927966101695e+01 1.07944820153506e-02 1.07768194378383e-04
1.20505932203390e+01 1.07314887714111e-02 1.07397151538199e-04
1.21083898305085e+01 1.06688631365275e-02 1.07026155164885e-04
1.21661864406780e+01 1.06066029654464e-02 1.06655225301240e-04
1.22239830508475e+01 1.05447061254335e-02 1.06284381844550e-04
1.22817796610169e+01 1.04831704957012e-02 1.05913643909186e-04
1.23395762711864e+01 1.04219939688423e-02 1.05543030262857e-04
1.23973728813559e+01 1.03611744492430e-02 1.05172559766495e-04
1.24551694915254e+01 1.03007098535187e-02 1.04802250725702e-04
1.25129661016949e+01 1.02405981104429e-02 1.04432121115378e-04
1.25707627118644e+01 1.01808371608758e-02 1.04062188584860e-04
1.26285593220339e+01 1.01214249576944e-02 1.03692470463031e-04
1.26863559322034e+01 1.00623594657221e-02 1.03322983763646e-04
1.27441525423729e+01 1.00036386616591e-02 1.02953745190359e-04
1.28019491525424e+01 9.94526053401280e-03 1.02584771338219e-04
1.28597457627119e+01 9.88722308257961e-03 1.02216078105749e-04
1.29175423728814e+01 9.82952431973257e-03 1.01847681096428e-04
1.29753389830508e+01 9.77216226898933e-03 1.01479596023611e-04
1.30331355932203e+01 9.71513496540171e-03 1.01111838112398e-04
1.30909322033898e+01 9.65844045548837e-03 1.00744422306140e-04
1.31487288135593e+01 9.60207679716764e-03 1.00377363270676e-04
1.32065254237288e+01 9.54604205969148e-03 1.00010675398677e-04
1.32643220338983e+01 9.49033432357913e-03 9.96443728141015e-05
1.33221186440678e+01 9.43495168055137e-03 9.92784693763491e-05
1.33799152542373e+01 9.37989223346509e-03 9.89129788657769e-05
1.34377118644068e+01 9.32515409584263e-03 9.85479144409280e-05
1.34955084745763e+01 9.27073539303104e-03 9.81832890084594e-05
1.35533050847458e+01 9.21663426090714e-03 9.78191155963016e-05
1.36111016949153e+01 9.16284884622622e-03 9.74554068015379e-05
1.36688983050847e+01 9.10937730655851e-03 9.70921749805265e-05
1.37266949152542e+01 9.05621781022590e-03 9.67294322524194e-05
1.37844915254237e+01 9.00336853623963e-03 9.63671905028280e-05
1.38422881355932e+01 8.95082767423767e-03 9.60054613876345e-05
1.39000847457627e+01 8.89859342442273e-03 9.56442565053660e-05
1.39578813559322e+01 8.84666399712985e-03 9.52835868914465e-05
1.40156779661017e+01 8.79503761388340e-03 9.49234633623732e-05
1.40734745762712e+01 8.74371250621169e-03 9.45638968629511e-05
1.41312711864407e+01 8.69268691596331e-03 9.42048979518725e-05
1.41890677966102e+01 8.64195909524686e-03 9.38464769783976e-05
1.42468644067797e+01 8.59152730637109e-03 9.34886440856053e-05
1.43046610169492e+01 8.54138982178523e-03 9.31314092133960e-05
1.43624576271186e+01 8.49154492402019e-03 9.27747821016195e-05
1.44202542372881e+01 8.44199090562946e-03 9.24187722932893e-05
1.44780508474576e+01 8.39272606913070e-03 9.20633892935740e-05
1.45358474576271e+01 8.34374872661186e-03 9.17086421022021e-05
1.45936440677966e+01 8.29505720068590e-03 9.13545395312635e-05
1.46514406779661e+01 8.24664982341529e-03 9.10010905257813e-05
1.47092372881356e+01 8.19852493659608e-03 9.06483036881343e-05
1.47670338983051e+01 8.15068089170107e-03 9.02961874411036e-05
1.48248305084746e+01 8.10311604982334e-03 8.99447500305870e-05
1.48826271186441e+01 8.05582878162002e-03 8.95939995281526e-05
1.49404237288136e+01 8.00881746725677e-03 8.92439438337489e-05
1.49982203389830e+01 7.96208049635207e-03 8.88945906783793e-05
1.50560169491525e+01 7.91561626792213e-03 8.85459477709836e-05
1.51138135593220e+01 7.86942319002153e-03 8.81980223657799e-05
1.51716101694915e+01 7.82349968060700e-03 8.78508215558871e-05
1.52294067796610e+01 7.77784416655997e-03 8.75043525696492e-05
1.52872033898305e+01 7.73245508394214e-03 8.71586223306210e-05
1.53450000000000e+01 7.68733087794184e-03 8.68136376081435e-05
1.54027966101695e+01 7.64247000282077e-03 8.64694050196177e-05
1.54605932203390e+01 7.59787092186105e-03 8.61259310327339e-05
1.55183898305085e+01 7.55353210731273e-03 8.57832219677999e-05
1.55761864406780e+01 7.50945204034133e-03 8.54412839999949e-05
1.56339830508475e+01 7.46562921097583e-03 8.51001232951440e-05
1.56917796610169e+01 7.42206211778041e-03 8.47597456091120e-05
1.57495762711864e+01 7.37874926863700e-03 8.44201565593815e-05
1.58073728813559e+01 7.33568917985575e-03 8.40813618991154e-05
1.58651694915254e+01 7.29288037640517e-03 8.37433671097800e-05
1.59229661016949e+01 7.25032139186159e-03 8.34061775403570e-05
1.59807627118644e+01 7.20801076835886e-03 8.30697984092460e-05
1.60385593220339e+01 7.16594705653854e-03 8.27342348061812e-05
1.60963559322034e+01 7.12412881550024e-03 8.23994916942775e-05
1.61541525423729e+01 7.08255461275226e-03 8.20655739119208e-05
1.62119491525424e+01 7.04122302416244e-03 8.17324862983776e-05
1.62697457627119e+01 7.00013263365794e-03 8.14002333226497e-05
1.63275423728814e+01 6.95928203393519e-03 8.10688193348227e-05
1.63853389830508e+01 6.91866982564918e-03 8.07382488197520e-05
1.64431355932203e+01 6.87829461762107e-03 8.04085260196625e-05
1.65009322033898e+01 6.83815502679048e-03 8.00796550629274e-05
1.65587288135593e+01 6.79824967816809e-03 7.97516399656832e-05
1.66165254237288e+01 6.75857720478864e-03 7.94244846335063e-05
1.66743220338983e+01 6.71913624766411e-03 7.90981928631746e-05
1.67321186440678e+01 6.67992545573710e-03 7.87727683442779e-05
1.67899152542373e+01 6.64094348583460e-03 7.84482147755146e-05
1.68477118644068e+01 6.60218900239287e-03 7.81245355206211e-05
1.69055084745763e+01 6.56366067810246e-03 7.78017338411736e-05
1.69633050847458e+01 6.52535719316837e-03 7.74798131315728e-05
1.70211016949153e+01 6.48727723549753e-03 7.71587765691860e-05
1.70788983050847e+01 6.44941950065384e-03 7.68386272335985e-05
1.71366949152542e+01 6.41178269181337e-03 7.65193681079592e-05
1.71944915254237e+01 6.37436551972020e-03 7.62010020804365e-05
1.72522881355932e+01 6.33716670264209e-03 7.58835319457966e-05
1.73100847457627e+01 6.30018496632659e-03 7.55669605139397e-05
1.73678813559322e+01 6.26341904374656e-03 7.52512902882031e-05
1.74256779661017e+01 6.22686767569259e-03 7.49365236828741e-05
1.74834745762712e+01 6.19052961009071e-03 7.46226632427443e-05
1.75412711864407e+01 6.15440360217368e-03 7.43097113160195e-05
1.75990677966102e+01 6.11848841443833e-03 7.39976701656347e-05
1.76568644067797e+01 6.08278281660316e-03 7.36865419705707e-05
1.77146610169492e+01 6.04728558556617e-03 7.33763288270513e-05
1.77724576271186e+01 6.01199550536308e-03 7.30670327498279e-05
1.78302542372881e+01 5.97691136712561e-03 7.27586556734913e-05
1.78880508474576e+01 5.94203196904006e-03 7.24511995531216e-05
1.79458474576271e+01 5.90735611611370e-03 7.21446660657463e-05
1.80036440677966e+01 5.87288262071415e-03 7.18390568120182e-05
1.80614406779661e+01 5.83861030194537e-03 7.15343735198463e-05
1.81192372881356e+01 5.80453798580268e-03 7.12306177408648e-05
1.81770338983051e+01 5.77066450513254e-03 7.09277909536261e-05
1.82348305084746e+01 5.73698869959252e-03 7.06258945647090e-05
