Energy (eV)          EEDF (eV^-(3/2))     First Anisotropy
1.32954545454545e-02 1.81078879432645e-01 1.02264141362152e-04
3.98863636363636e-02 1.79658771880739e-01 1.68772374836063e-04
6.64772727272727e-02 1.78249801494769e-01 2.22547689759711e-04
9.30681818181818e-02 1.76851880931587e-01 2.63248788130681e-04
1.19659090909091e-01 1.75464923537564e-01 2.97068094229844e-04
1.46250000000000e-01 1.74088843329739e-01 3.26350210499574e-04
1.72840909090909e-01 1.72723554995436e-01 3.52310105852790e-04
1.99431818181818e-01 1.71368973909521e-01 3.75682428732846e-04
2.26022727272727e-01 1.70025016100189e-01 3.96955043837358e-04
2.52613636363636e-01 1.68691598254337e-01 4.16473206936391e-04
2.79204545454545e-01 1.67368637712327e-01 4.34492820853844e-04
3.05795454545455e-01 1.66056052462835e-01 4.51210373642781e-04
3.32386363636364e-01 1.64753761137694e-01 4.66780997747980e-04
3.58977272727273e-01 1.63461683006948e-01 4.81329974685026e-04
3.85568181818182e-01 1.62179737973778e-01 4.94960391032250e-04
4.12159090909091e-01 1.60907846569529e-01 5.07758418662013e-04
4.38750000000000e-01 1.59645929948784e-01 5.19797067151468e-04
4.65340909090909e-01 1.58393909881744e-01 5.31138917647947e-04
4.91931818181818e-01 1.57151708757785e-01 5.41838160612850e-04
5.18522727272727e-01 1.55919249571998e-01 5.51942142986037e-04
5.45113636363636e-01 1.54696455923391e-01 5.61492561184880e-04
5.71704545454546e-01 1.53483252010152e-01 5.70526396739180e-04
5.98295454545455e-01 1.52279562624944e-01 5.79076658777781e-04
6.24886363636364e-01 1.51085313150235e-01 5.87172980438196e-04
6.51477272727273e-01 1.49900429553698e-01 5.94842103089659e-04
6.78068181818182e-01 1.48724838383602e-01 6.02108273304588e-04
7.04659090909091e-01 1.47558466764263e-01 6.08993571185129e-04
7.31250000000000e-01 1.46401242391524e-01 6.15518184330568e-04
7.57840909090909e-01 1.45253093526751e-01 6.21700637201429e-04
7.84431818181818e-01 1.44113948997037e-01 6.27557986061023e-04
8.11022727272727e-01 1.42983738186045e-01 6.33105984976637e-04
8.37613636363636e-01 1.41862391031251e-01 6.38359226980003e-04
8.64204545454546e-01 1.40749838019594e-01 6.43331266364062e-04
8.90795454545455e-01 1.39646010183171e-01 6.48034724339823e-04
9.17386363636364e-01 1.38550839094951e-01 6.52481380914047e-04
9.43977272727273e-01 1.37464256864550e-01 6.56682255148595e-04
9.70568181818182e-01 1.36386196134012e-01 6.60647675568229e-04
9.97159090909091e-01 1.35316590073636e-01 6.64387342984386e-04
1.02375000000000e+00 1.34255372372555e-01 6.67910381430243e-04
1.05034090909091e+00 1.33202477259713e-01 6.71225392897828e-04
1.07693181818182e+00 1.32157839455074e-01 6.74340499102715e-04
1.10352272727273e+00 1.31121394200924e-01 6.77263374722687e-04
1.13011363636364e+00 1.30093077247404e-01 6.80001287589702e-04
1.15670454545455e+00 1.29072824848530e-01 6.82561128158498e-04
1.18329545454545e+00 1.28060573758240e-01 6.84949437532145e-04
1.20988636363636e+00 1.27056261226449e-01 6.87172432759326e-04
1.23647727272727e+00 1.26059824995216e-01 6.89236029745700e-04
1.26306818181818e+00 1.25071203294849e-01 6.91145864054437e-04
1.28965909090909e+00 1.24090334840084e-01 6.92907309812664e-04
1.31625000000000e+00 1.23117158826282e-01 6.94525495675560e-04
1.34284090909091e+00 1.22151614932851e-01 6.96005324424562e-04
1.36943181818182e+00 1.21193643297702e-01 6.97351484791092e-04
1.39602272727273e+00 1.20243184535585e-01 6.98568462063075e-04
1.42261363636364e+00 1.19300179726975e-01 6.99660554169596e-04
1.44920454545455e+00 1.18364570414421e-01 7.00631881529616e-04
1.47579545454545e+00 1.17436298598923e-01 7.01486397355493e-04
1.50238636363636e+00 1.16515306736316e-01 7.02227897158747e-04
1.52897727272727e+00 1.15601537733744e-01 7.02860027546842e-04
1.55556818181818e+00 1.14694934946095e-01 7.03386294377144e-04
1.58215909090909e+00 1.13795442172496e-01 7.03810070311943e-04
1.60875000000000e+00 1.12903003652825e-01 7.04134600781690e-04
1.63534090909091e+00 1.12017564069659e-01 7.04363013711568e-04
1.66193181818182e+00 1.11139068528480e-01 7.04498323459530e-04
1.68852272727273e+00 1.10267462570798e-01 7.04543434323569e-04
1.71511363636364e+00 1.09402692165213e-01 7.04501149109050e-04
1.74170454545455e+00 1.08544703704064e-01 7.04374172982817e-04
1.76829545454545e+00 1.07693444000106e-01 7.04165118109897e-04
1.79488636363636e+00 1.06848860283202e-01 7.03876507992561e-04
1.82147727272727e+00 1.06010900197077e-01 7.03510781544203e-04
1.84806818181818e+00 1.05179511796052e-01 7.03070296918639e-04
1.87465909090909e+00 1.04354643541837e-01 7.02557335103810e-04
1.90125000000000e+00 1.03536244300323e-01 7.01974102412351e-04
1.92784090909091e+00 1.02724263342619e-01 7.01322736364065e-04
1.95443181818182e+00 1.01918650329196e-01 7.00605306881307e-04
1.98102272727273e+00 1.01119355319594e-01 6.99823817295428e-04
2.00761363636364e+00 1.00326328765008e-01 6.98980209781481e-04
2.03420454545455e+00 9.95395215052180e-02 6.98076366962091e-04
2.06079545454545e+00 9.87588847655418e-02 6.97114114302040e-04
2.08738636363636e+00 9.79843701538041e-02 6.96095222370945e-04
2.11397727272727e+00 9.72159296573511e-02 6.95021408990031e-04
2.14056818181818e+00 9.64535156400664e-02 6.93894341270779e-04
2.16715909090909e+00 9.56970808394183e-02 6.92715637544958e-04
2.19375000000000e+00 9.49465783635304e-02 6.91486868436777e-04
2.22034090909091e+00 9.42019616916119e-02 6.90209560907948e-04
2.24693181818182e+00 9.34631846609739e-02 6.88885198372182e-04
2.27352272727273e+00 9.27302014743569e-02 6.87515220711923e-04
2.30011363636364e+00 9.20029666936647e-02 6.86101028134823e-04
2.32670454545455e+00 9.12814352371482e-02 6.84643981814837e-04
2.35329545454545e+00 9.05655623766106e-02 6.83145405258043e-04
2.37988636363636e+00 8.98553037346300e-02 6.81606585602253e-04
2.40647727272727e+00 8.91506152818183e-02 6.80028774859922e-04
2.43306818181818e+00 8.84514533340863e-02 6.78413191107480e-04
2.45965909090909e+00 8.77577745499363e-02 6.76761019618599e-04
2.48625000000000e+00 8.70695359277747e-02 6.75073413292344e-04
2.51284090909091e+00 8.63866948059496e-02 6.73351495673968e-04
2.53943181818182e+00 8.57092088519310e-02 6.71596360619639e-04
2.56602272727273e+00 8.50370360679302e-02 6.69809071903188e-04
2.59261363636364e+00 8.43701347855243e-02 6.67990666155661e-04
2.61920454545455e+00 8.37084636630746e-02 6.66142153059114e-04
2.64579545454545e+00 8.30519816831626e-02 6.64264516185931e-04
2.67238636363636e+00 8.24006481500446e-02 6.62358713801704e-04
2.69897727272727e+00 8.17544226871359e-02 6.60425679637765e-04
2.72556818181818e+00 8.11132652345039e-02 6.58466323634865e-04
2.75215909090909e+00 8.04771360463851e-02 6.56481532655367e-04
2.77875000000000e+00 7.98459956887209e-02 6.54472170598888e-04
2.80534090909091e+00 7.92198050389319e-02 6.52439080781614e-04
2.83193181818182e+00 7.85985252767842e-02 6.50383085418214e-04
2.85852272727273e+00 7.79821178887452e-02 6.48304985065568e-04
2.88511363636364e+00 7.73705446633236e-02 6.46205560969443e-04
2.91170454545455e+00 7.67637676887009e-02 6.44085575040799e-04
2.93829545454545e+00 7.61617493503807e-02 6.41945770402129e-04
2.96488636363636e+00 7.55644523288553e-02 6.39786871912094e-04
2.99147727272727e+00 7.49718395972968e-02 6.37609586673062e-04
3.01806818181818e+00 7.43838744192590e-02 6.35414604521888e-04
3.04465909090909e+00 7.38005203464008e-02 6.33202598501486e-04
3.07125000000000e+00 7.32217412162260e-02 6.30974224819873e-04
3.09784090909091e+00 7.26475011516833e-02 6.28730124791003e-04
3.12443181818182e+00 7.20777645533756e-02 6.26470924255088e-04
3.15102272727273e+00 7.15124961029633e-02 6.24197232971863e-04
3.17761363636364e+00 7.09516607590896e-02 6.21909646552062e-04
3.20420454545455e+00 7.03952237552091e-02 6.19608746327004e-04
3.23079545454545e+00 6.98431505974318e-02 6.17295099720820e-04
3.25738636363636e+00 6.92954070623837e-02 6.14969260608918e-04
3.28397727272727e+00 6.87519591950885e-02 6.12631769666117e-04
3.31056818181818e+00 6.82127733068611e-02 6.10283154704589e-04
3.33715909090909e+00 6.76778159732190e-02 6.07923930999560e-04
3.36375000000000e+00 6.71470540318104e-02 6.05554601169726e-04
3.39034090909091e+00 6.66204545819010e-02 6.03175656798359e-04
3.41693181818182e+00 6.60979849776724e-02 6.00787577849542e-04
3.44352272727273e+00 6.55796128308956e-02 5.98390832063684e-04
3.47011363636364e+00 6.50653060073455e-02 5.95985876580702e-04
3.49670454545455e+00 6.45550326248089e-02 5.93573157759666e-04
3.52329545454545e+00 6.40487610511079e-02 5.91153111441678e-04
3.54988636363636e+00 6.35464599021380e-02 5.88726163203646e-04
3.57647727272727e+00 6.30480980399253e-02 5.86292728605518e-04
3.60306818181818e+00 6.25536445706947e-02 5.83853213431156e-04
3.62965909090909e+00 6.20630688429548e-02 5.81408013920851e-04
3.65625000000000e+00 6.15763404455979e-02 5.78957516614404e-04
3.68284090909091e+00 6.10934292073160e-02 5.76502099727710e-04
3.70943181818182e+00 6.06143051907978e-02 5.74042132591888e-04
3.73602272727273e+00 6.01389386948348e-02 5.71577975076109e-04
3.76261363636364e+00 5.96673002511495e-02 5.69109978971816e-04
3.78920454545455e+00 5.91993606225685e-02 5.66638487792331e-04
3.81579545454545e+00 5.87350908012106e-02 5.64163836964059e-04
3.84238636363636e+00 5.82744620066867e-02 5.61686354011395e-04
3.86897727272727e+00 5.78174456843189e-02 5.59206358737270e-04
3.89556818181818e+00 5.73640135033684e-02 5.56724163399583e-04
3.92215909090909e+00 5.69141373552796e-02 5.54240072881842e-04
3.94875000000000e+00 5.64677893519377e-02 5.51754384521378e-04
3.97534090909091e+00 5.60249418250452e-02 5.49267389292064e-04
4.00193181818182e+00 5.55855673210668e-02 5.46779371278783e-04
4.02852272727273e+00 5.51496386028915e-02 5.44290607138489e-04
4.05511363636364e+00 5.47171286470149e-02 5.41801367293228e-04
4.08170454545455e+00 5.42880106418636e-02 5.39311915726024e-04
4.10829545454545e+00 5.38622579861336e-02 5.36822510123185e-04
4.13488636363636e+00 5.34398442871399e-02 5.34333402012216e-04
4.16147727272727e+00 5.30207433591827e-02 5.31844836896865e-04
4.18806818181818e+00 5.26049292219229e-02 5.29357054389193e-04
4.21465909090909e+00 5.21923760987716e-02 5.26870288337537e-04
4.24125000000000e+00 5.17830584152921e-02 5.24384766652348e-04
4.26784090909091e+00 5.13769507985589e-02 5.21900712331320e-04
4.29443181818182e+00 5.09740280727324e-02 5.19418342973825e-04
4.32102272727273e+00 5.05742652603710e-02 5.16937870284060e-04
4.34761363636364e+00 5.01776375799176e-02 5.14459501107497e-04
4.37420454545455e+00 4.97841204441645e-02 5.11983437231803e-04
4.40079545454546e+00 4.93936894587281e-02 5.09509875494889e-04
4.42738636363636e+00 4.90063204205369e-02 5.07039007889769e-04
4.45397727272727e+00 4.86219893163319e-02 5.04571021667300e-04
4.48056818181818e+00 4.82406723211778e-02 5.02106099436982e-04
4.50715909090909e+00 4.78623457969857e-02 4.99644419264772e-04
4.53375000000000e+00 4.74869862910480e-02 4.97186154503263e-04
4.56034090909091e+00 4.71145705353942e-02 4.94731474686167e-04
4.58693181818182e+00 4.67450754429022e-02 4.92280545083476e-04
4.61352272727273e+00 4.63784781083308e-02 4.89833526246960e-04
4.64011363636364e+00 4.60147558060723e-02 4.87390574916069e-04
4.66670454545455e+00 4.56538859887443e-02 4.84951843828506e-04
4.69329545454545e+00 4.52958462857918e-02 4.82517481803577e-04
4.71988636363636e+00 4.49406145020997e-02 4.80087633823132e-04
4.74647727272727e+00 4.45881686166183e-02 4.77662441111058e-04
4.77306818181818e+00 4.42384867809975e-02 4.75242041211361e-04
4.79965909090909e+00 4.38915473182322e-02 4.72826568063886e-04
4.82625000000000e+00 4.35473287213190e-02 4.70416151842671e-04
4.85284090909091e+00 4.32058096526206e-02 4.68010919740607e-04
4.87943181818182e+00 4.28669689404350e-02 4.65610995563903e-04
4.90602272727273e+00 4.25307855798056e-02 4.63216499318272e-04
4.93261363636364e+00 4.21972387305069e-02 4.60827548004599e-04
4.95920454545455e+00 4.18663077157521e-02 4.58444255441416e-04
4.98579545454546e+00 4.15379720209120e-02 4.56066732330089e-04
5.01238636363636e+00 4.12122112922422e-02 4.53695086318039e-04
5.03897727272727e+00 4.08890053356227e-02 4.51329422061007e-04
5.06556818181818e+00 4.05683341153055e-02 4.48969841284329e-04
5.09215909090909e+00 4.02501777526724e-02 4.46616442842332e-04
5.11875000000000e+00 3.99345165250030e-02 4.44269322566601e-04
5.14534090909091e+00 3.96213308648552e-02 4.41928573957067e-04
5.17193181818182e+00 3.93106013570300e-02 4.39594287813632e-04
5.19852272727273e+00 3.90023087392025e-02 4.37266551860596e-04
5.22511363636364e+00 3.86964339001123e-02 4.34945451448149e-04
5.25170454545455e+00 3.83929578783785e-02 4.32631069387582e-04
5.27829545454545e+00 3.80918618613246e-02 4.30323486002746e-04
5.30488636363636e+00 3.77931271838116e-02 4.28022779180105e-04
5.33147727272727e+00 3.74967353270819e-02 4.25729024417992e-04
5.35806818181818e+00 3.72026679176108e-02 4.23442294875145e-04
5.38465909090909e+00 3.69109067259678e-02 4.21162661417762e-04
5.41125000000000e+00 3.66214336656860e-02 4.18890192478388e-04
5.43784090909091e+00 3.63342307926650e-02 4.16624954666809e-04
5.46443181818182e+00 3.60492803024773e-02 4.14367012436022e-04
5.49102272727273e+00 3.57665645308559e-02 4.12116427741849e-04
5.51761363636364e+00 3.54860659520656e-02 4.09873260663569e-04
5.54420454545455e+00 3.52077671778165e-02 4.07637569251914e-04
5.57079545454545e+00 3.49316509561859e-02 4.05409409570062e-04
5.59738636363636e+00 3.46577001705485e-02 4.03188835733578e-04
5.62397727272727e+00 3.43858978385163e-02 4.00975899949693e-04
5.65056818181818e+00 3.41162271108853e-02 3.98770652556059e-04
5.67715909090909e+00 3.38486712705909e-02 3.96573142058415e-04
5.70375000000000e+00 3.35832137316718e-02 3.94383415000157e-04
5.73034090909091e+00 3.33198380386973e-02 3.92201516503736e-04
5.75693181818182e+00 3.30585278643717e-02 3.90027489968307e-04
5.78352272727273e+00 3.27992670099065e-02 3.87861376761656e-04
5.81011363636364e+00 3.25420394035521e-02 3.85703216770623e-04
5.83670454545455e+00 3.22868290996012e-02 3.83553048261507e-04
5.86329545454545e+00 3.20336202774003e-02 3.81410907913040e-04
5.88988636363636e+00 3.17823972403690e-02 3.79276830848395e-04
5.91647727272727e+00 3.15331444150269e-02 3.77150850666787e-04
5.94306818181818e+00 3.12858463500287e-02 3.75032999474651e-04
5.96965909090909e+00 3.10404877152056e-02 3.72923307915858e-04
5.99625000000000e+00 3.07970533006156e-02 3.70821805051882e-04
6.02284090909091e+00 3.05555280159975e-02 3.68728518842703e-04
6.04943181818182e+00 3.03158968886361e-02 3.66643475873241e-04
6.07602272727273e+00 3.00781450636411e-02 3.64566701074797e-04
6.10261363636364e+00 2.98422578026216e-02 3.62498218214253e-04
6.12920454545455e+00 2.96082204827721e-02 3.60438049766346e-04
6.15579545454545e+00 2.93760185959662e-02 3.58386216940280e-04
6.18238636363636e+00 2.91456377478571e-02 3.56342739705601e-04
6.20897727272727e+00 2.89170636569853e-02 3.54307636817681e-04
6.23556818181818e+00 2.86902821538935e-02 3.52280925842935e-04
6.26215909090909e+00 2.84652791802482e-02 3.50262623183318e-04
6.28875000000000e+00 2.82420407879678e-02 3.48252743966374e-04
6.31534090909091e+00 2.80205531387061e-02 3.46251302473370e-04
6.34193181818182e+00 2.78008025019445e-02 3.44258311891880e-04
6.36852272727273e+00 2.75827752551975e-02 3.42273784063936e-04
6.39511363636364e+00 2.73664578828135e-02 3.40297729921748e-04
6.42170454545455e+00 2.71518369751372e-02 3.38330159371034e-04
6.44829545454545e+00 2.69388992276782e-02 3.36371081312635e-04
6.47488636363636e+00 2.67276314402861e-02 3.34420503663447e-04
6.50147727272727e+00 2.65180205163327e-02 3.32478433377109e-04
6.52806818181818e+00 2.63100534618998e-02 3.30544876464542e-04
6.55465909090909e+00 2.61037173849735e-02 3.28619838013767e-04
6.58125000000000e+00 2.58989994946456e-02 3.26703322089334e-04
6.60784090909091e+00 2.56958871006247e-02 3.24795332114172e-04
6.63443181818182e+00 2.54943676115302e-02 3.22895870645781e-04
6.66102272727273e+00 2.52944285350373e-02 3.21004939148634e-04
6.68761363636364e+00 2.50960574767917e-02 3.19122538382903e-04
6.71420454545455e+00 2.48992421396420e-02 3.17248668298052e-04
6.74079545454545e+00 2.47039703228767e-02 3.15383328050400e-04
6.76738636363636e+00 2.45102299214678e-02 3.13526516020150e-04
6.79397727272727e+00 2.43180089253213e-02 3.11678229828290e-04
6.82056818181818e+00 2.41272954185319e-02 3.09838466353270e-04
6.84715909090909e+00 2.39380775786445e-02 3.08007221747162e-04
6.87375000000000e+00 2.37503436759213e-02 3.06184491343785e-04
6.90034090909091e+00 2.35640820728824e-02 3.04370269999763e-04
6.92693181818182e+00 2.33792812227767e-02 3.02564551892196e-04
6.95352272727273e+00 2.31959296696784e-02 3.00767330312844e-04
6.98011363636364e+00 2.30140160475050e-02 2.98978598015464e-04
7.00670454545455e+00 2.28335290793120e-02 2.97198347118903e-04
7.03329545454545e+00 2.26544575765941e-02 2.95426569121368e-04
7.05988636363636e+00 2.24767904385915e-02 2.93663254914379e-04
7.08647727272727e+00 2.23005166516023e-02 2.91908394796557e-04
7.11306818181818e+00 2.21256252882989e-02 2.90161978487165e-04
7.13965909090909e+00 2.19521055070513e-02 2.88423995139351e-04
7.16625000000000e+00 2.17799465512547e-02 2.86694433256334e-04
7.19284090909091e+00 2.16091377488980e-02 2.84973280996386e-04
7.21943181818182e+00 2.14396685111920e-02 2.83260525989913e-04
7.24602272727273e+00 2.12715283326278e-02 2.81556155153362e-04
7.27261363636364e+00 2.11047067900858e-02 2.79860154999976e-04
7.29920454545455e+00 2.09391935421893e-02 2.78172511551543e-04
7.32579545454545e+00 2.07749783286638e-02 2.76493210350090e-04
7.35238636363636e+00 2.06120509697006e-02 2.74822236469258e-04
7.37897727272727e+00 2.04504013653260e-02 2.73159574525515e-04
7.40556818181818e+00 2.02900194947754e-02 2.71505208689324e-04
7.43215909090909e+00 2.01308954158716e-02 2.69859122695933e-04
7.45875000000000e+00 1.99730192644087e-02 2.68221299768917e-04
7.48534090909091e+00 1.98163812537480e-02 2.66591722893333e-04
7.51193181818182e+00 1.96609716735856e-02 2.64970374650240e-04
7.53852272727273e+00 1.95067808899798e-02 2.63357237048448e-04
7.56511363636364e+00 1.93537993445430e-02 2.61752291802824e-04
7.59170454545455e+00 1.92020175538492e-02 2.60155520254010e-04
7.61829545454546e+00 1.90514261088457e-02 2.58566903377999e-04
7.64488636363636e+00 1.89020156742702e-02 2.56986421795412e-04
7.67147727272727e+00 1.87537769880720e-02 2.55414055780690e-04
7.69806818181818e+00 1.86067008608379e-02 2.53849785271174e-04
7.72465909090909e+00 1.84607781752226e-02 2.52293589875959e-04
7.75125000000000e+00 1.83159998853831e-02 2.50745448806223e-04
7.77784090909091e+00 1.81723570166014e-02 2.49205341120103e-04
7.80443181818182e+00 1.80298406641756e-02 2.47673245572987e-04
7.83102272727273e+00 1.78884419934238e-02 2.46149140465302e-04
7.85761363636364e+00 1.77481522389498e-02 2.44633003892108e-04
7.88420454545455e+00 1.76089627040998e-02 2.43124813670044e-04
7.91079545454545e+00 1.74708647604235e-02 2.41624547345131e-04
7.93738636363636e+00 1.73338498471389e-02 2.40132182200381e-04
7.96397727272727e+00 1.71979094706016e-02 2.38647695263307e-04
7.99056818181818e+00 1.70630352037788e-02 2.37171063313337e-04
8.01715909090909e+00 1.69292186857263e-02 2.35702262888999e-04
8.04375000000000e+00 1.67964516210705e-02 2.34241270224535e-04
8.07034090909091e+00 1.66647257796558e-02 2.32788061469627e-04
8.09693181818182e+00 1.65340329955463e-02 2.31342612553892e-04
8.12352272727273e+00 1.64043651670107e-02 2.29904899049188e-04
8.15011363636364e+00 1.62757142558556e-02 2.28474896393608e-04
8.17670454545455e+00 1.61480722869265e-02 2.27052579825046e-04
8.20329545454545e+00 1.60214313476143e-02 2.25637924387586e-04
8.22988636363636e+00 1.58957835873641e-02 2.24230904937696e-04
8.25647727272727e+00 1.57711212171890e-02 2.22831496150343e-04
8.28306818181818e+00 1.56474365091870e-02 2.21439672525053e-04
8.30965909090909e+00 1.55247217960620e-02 2.20055408391786e-04
8.33625000000000e+00 1.54029694706486e-02 2.18678677853191e-04
8.36284090909091e+00 1.52821719855833e-02 2.17309454981929e-04
8.38943181818182e+00 1.51623218524053e-02 2.15947713698065e-04
