Energy (eV)          EEDF (eV^-(3/2))     First Anisotropy
2.14655172413793e-02 5.80870527615446e-02 2.86102275438109e-05
6.43965517241379e-02 5.77422962867421e-02 4.72623047326807e-05
1.07327586206897e-01 5.73995859999107e-02 6.24411230233140e-05
1.50258620689655e-01 5.70589097577286e-02 7.40027871906559e-05
1.93189655172414e-01 5.67202554855053e-02 8.36703889523137e-05
2.36120689655172e-01 5.63836111843488e-02 9.20945128840644e-05
2.79051724137931e-01 5.60489649232971e-02 9.96113989170404e-05
3.21982758620690e-01 5.57163048448888e-02 1.06423834414527e-04
3.64913793103448e-01 5.53856191597412e-02 1.12666142516406e-04
4.07844827586207e-01 5.50568961504341e-02 1.18433141304156e-04
4.50775862068965e-01 5.47301241673297e-02 1.23794932534836e-04
4.93706896551724e-01 5.44052916315075e-02 1.28805206818437e-04
5.36637931034483e-01 5.40823870313444e-02 1.33506248470767e-04
5.79568965517241e-01 5.37613989248389e-02 1.37932120669028e-04
6.22500000000000e-01 5.34423159367073e-02 1.42110783018839e-04
6.65431034482759e-01 5.31251267602807e-02 1.46065550535394e-04
7.08362068965517e-01 5.28098201549750e-02 1.49816129407515e-04
7.51293103448276e-01 5.24963849478734e-02 1.53379371130800e-04
7.94224137931034e-01 5.21848100314805e-02 1.56769833750350e-04
8.37155172413793e-01 5.18750843650632e-02 1.60000207496252e-04
8.80086206896552e-01 5.15671969726279e-02 1.63081643051112e-04
9.23017241379310e-01 5.12611369440705e-02 1.66024008439182e-04
9.65948275862069e-01 5.09568934333344e-02 1.68836092766948e-04
1.00887931034483e+00 5.06544556594063e-02 1.71525769774538e-04
1.05181034482759e+00 5.03538129040239e-02 1.74100130017867e-04
1.09474137931034e+00 5.00549545154797e-02 1.76565590301858e-04
1.13767241379310e+00 4.97578699004823e-02 1.78927982495002e-04
1.18060344827586e+00 4.94625485340743e-02 1.81192628717001e-04
1.22353448275862e+00 4.91689799485111e-02 1.83364404001009e-04
1.26646551724138e+00 4.88771537432324e-02 1.85447788838304e-04
1.30939655172414e+00 4.85870595767778e-02 1.87446915739771e-04
1.35232758620690e+00 4.82986871670184e-02 1.89365605555091e-04
1.39525862068966e+00 4.80120262971711e-02 1.91207402061623e-04
1.43818965517241e+00 4.77270668069088e-02 1.92975600296703e-04
1.48112068965517e+00 4.74437986002562e-02 1.94673271381608e-04
1.52405172413793e+00 4.71622116372350e-02 1.96303284293892e-04
1.56698275862069e+00 4.68822959412596e-02 1.97868324834189e-04
1.60991379310345e+00 4.66040415912659e-02 1.99370912419437e-04
1.65284482758621e+00 4.63274387286548e-02 2.00813414509107e-04
1.69577586206897e+00 4.60524775514935e-02 2.02198060943326e-04
1.73870689655172e+00 4.57791483145016e-02 2.03526953759166e-04
1.78163793103448e+00 4.55074413334048e-02 2.04802078771382e-04
1.82456896551724e+00 4.52373469783253e-02 2.06025314598976e-04
1.86750000000000e+00 4.49688556795406e-02 2.07198440954445e-04
1.91043103448276e+00 4.47019579212020e-02 2.08323146187393e-04
1.95336206896552e+00 4.44366442467887e-02 2.09401034004027e-04
1.99629310344828e+00 4.41729052531266e-02 2.10433629626042e-04
2.03922413793103e+00 4.39107315955616e-02 2.11422385290984e-04
2.08215517241379e+00 4.36501139822563e-02 2.12368685329204e-04
2.12508620689655e+00 4.33910431791023e-02 2.13273850459803e-04
2.16801724137931e+00 4.31335100054753e-02 2.14139142998539e-04
2.21094827586207e+00 4.28775053341069e-02 2.14965769168000e-04
2.25387931034483e+00 4.26230200942355e-02 2.15754883589055e-04
2.29681034482759e+00 4.23700452666524e-02 2.16507592270439e-04
2.33974137931034e+00 4.21185718879128e-02 2.17224955524910e-04
2.38267241379310e+00 4.18685910455860e-02 2.17907990721007e-04
2.42560344827586e+00 4.16200938822762e-02 2.18557674754523e-04
2.46853448275862e+00 4.13730715910650e-02 2.19174946396188e-04
2.51146551724138e+00 4.11275154193531e-02 2.19760708185034e-04
2.55439655172414e+00 4.08834166654417e-02 2.20315829301741e-04
2.59732758620690e+00 4.06407666783643e-02 2.20841146093659e-04
2.64025862068966e+00 4.03995568603764e-02 2.21337464646354e-04
2.68318965517241e+00 4.01597786629223e-02 2.21805562178542e-04
2.72612068965517e+00 3.99214235899875e-02 2.22246188492902e-04
2.76905172413793e+00 3.96844831942133e-02 2.22660067384801e-04
2.81198275862069e+00 3.94489490801131e-02 2.23047897902179e-04
2.85491379310345e+00 3.92148129003260e-02 2.23410355577587e-04
2.89784482758621e+00 3.89820663587048e-02 2.23748093338482e-04
2.94077586206897e+00 3.87507012074894e-02 2.24061743346216e-04
2.98370689655172e+00 3.85207092471162e-02 2.24351916828294e-04
3.02663793103448e+00 3.82920823282326e-02 2.24619205767106e-04
3.06956896551724e+00 3.80648123483366e-02 2.24864183601235e-04
3.11250000000000e+00 3.78388912545059e-02 2.25087406021336e-04
3.15543103448276e+00 3.76143110401498e-02 2.25289411767070e-04
3.19836206896552e+00 3.73910637476363e-02 2.25470723330951e-04
3.24129310344828e+00 3.71691414651500e-02 2.25631847668605e-04
3.28422413793103e+00 3.69485363292221e-02 2.25773276823172e-04
3.32715517241379e+00 3.67292405216897e-02 2.25895488560621e-04
3.37008620689655e+00 3.65112462721337e-02 2.25998946760827e-04
3.41301724137931e+00 3.62945458555713e-02 2.26084102646564e-04
3.45594827586207e+00 3.60791315922553e-02 2.26151394295081e-04
3.49887931034483e+00 3.58649958492709e-02 2.26201247791012e-04
3.54181034482759e+00 3.56521310377743e-02 2.26234077542186e-04
3.58474137931034e+00 3.54405296151743e-02 2.26250286700915e-04
3.62767241379310e+00 3.52301840824543e-02 2.26250267604304e-04
3.67060344827586e+00 3.50210869862782e-02 2.26234402152890e-04
3.71353448275862e+00 3.48132309163928e-02 2.26203062210061e-04
3.75646551724138e+00 3.46066085076616e-02 2.26156609795757e-04
3.79939655172414e+00 3.44012124380844e-02 2.26095398040482e-04
3.84232758620690e+00 3.41970354285954e-02 2.26019770610234e-04
3.88525862068966e+00 3.39940702443964e-02 2.25930062612201e-04
3.92818965517241e+00 3.37923096925801e-02 2.25826600757540e-04
3.97112068965517e+00 3.35917466239631e-02 2.25709703627367e-04
4.01405172413793e+00 3.33923739307764e-02 2.25579681962134e-04
4.05698275862069e+00 3.31941845484385e-02 2.25436838903138e-04
4.09991379310345e+00 3.29971714533108e-02 2.25281470257976e-04
4.14284482758621e+00 3.28013276644132e-02 2.25113864587299e-04
4.18577586206897e+00 3.26066462417055e-02 2.24934303981766e-04
4.22870689655172e+00 3.24131202858874e-02 2.24743063465799e-04
4.27163793103448e+00 3.22207429395229e-02 2.24540411740624e-04
4.31456896551724e+00 3.20295073849736e-02 2.24326611262071e-04
4.35750000000000e+00 3.18394068459545e-02 2.24101918415742e-04
4.40043103448276e+00 3.16504345855220e-02 2.23866583716370e-04
4.44336206896552e+00 3.14625839075818e-02 2.23620851968232e-04
4.48629310344828e+00 3.12758481549299e-02 2.23364962449822e-04
4.52922413793103e+00 3.10902207107141e-02 2.23099149060873e-04
4.57215517241379e+00 3.09056949965258e-02 2.22823640493779e-04
4.61508620689655e+00 3.07222644738171e-02 2.22538660250241e-04
4.65801724137931e+00 3.05399226424337e-02 2.22244427274350e-04
4.70094827586207e+00 3.03586630404204e-02 2.21941155368581e-04
4.74387931034483e+00 3.01784792449472e-02 2.21629053803098e-04
4.78681034482759e+00 2.99993648705425e-02 2.21308327336001e-04
4.82974137931034e+00 2.98213135703856e-02 2.20979176323327e-04
4.87267241379310e+00 2.96443190345835e-02 2.20641796852495e-04
4.91560344827586e+00 2.94683749914249e-02 2.20296380843847e-04
4.95853448275862e+00 2.92934752057005e-02 2.19943116175344e-04
5.00146551724138e+00 2.91196134799203e-02 2.19582186668802e-04
5.04439655172414e+00 2.89467836530165e-02 2.19213772637618e-04
5.08732758620690e+00 2.87749796001554e-02 2.18838050329184e-04
5.13025862068965e+00 2.86041952335308e-02 2.18455192454046e-04
5.17318965517241e+00 2.84344245008017e-02 2.18065368180237e-04
5.21612068965517e+00 2.82656613862073e-02 2.17668743210803e-04
5.25905172413793e+00 2.80978999090412e-02 2.17265479883305e-04
5.30198275862069e+00 2.79311341247353e-02 2.16855737241702e-04
5.34491379310345e+00 2.77653581233699e-02 2.16439671129943e-04
5.38784482758621e+00 2.76005660307271e-02 2.16017434160587e-04
5.43077586206897e+00 2.74367520071370e-02 2.15589176196305e-04
5.47370689655172e+00 2.72739102472956e-02 2.15155043823828e-04
5.51663793103448e+00 2.71120349809491e-02 2.14715180820200e-04
5.55956896551724e+00 2.69511204715040e-02 2.14269728131781e-04
5.60250000000000e+00 2.67911610169943e-02 2.13818823930057e-04
5.64543103448276e+00 2.66321509487233e-02 2.13362603687870e-04
5.68836206896552e+00 2.64740846322048e-02 2.12901200231387e-04
5.73129310344828e+00 2.63169564658353e-02 2.12434743812215e-04
5.77422413793103e+00 2.61607608818098e-02 2.11963362155847e-04
5.81715517241379e+00 2.60054923448240e-02 2.11487180530042e-04
5.86008620689655e+00 2.58511453529648e-02 2.11006321701601e-04
5.90301724137931e+00 2.56977144367019e-02 2.10520906354931e-04
5.94594827586207e+00 2.55451941587138e-02 2.10031052605332e-04
5.98887931034483e+00 2.53935791144640e-02 2.09536876405156e-04
6.03181034482759e+00 2.52428639309856e-02 2.09038491512124e-04
6.07474137931034e+00 2.50930432677021e-02 2.08536009527542e-04
6.11767241379310e+00 2.49441118152394e-02 2.08029539953114e-04
6.16060344827586e+00 2.47960642962244e-02 2.07519190226691e-04
6.20353448275862e+00 2.46488954641228e-02 2.07005065776331e-04
6.24646551724138e+00 2.45026001040169e-02 2.06487269972762e-04
6.28939655172414e+00 2.43571730316992e-02 2.05965904505371e-04
6.33232758620690e+00 2.42126090935056e-02 2.05441068928167e-04
6.37525862068965e+00 2.40689031668164e-02 2.04912861025314e-04
6.41818965517241e+00 2.39260501589644e-02 2.04381376775006e-04
6.46112068965517e+00 2.37840450079541e-02 2.03846710377961e-04
6.50405172413793e+00 2.36428826813931e-02 2.03308954303061e-04
6.54698275862069e+00 2.35025581771926e-02 2.02768199314041e-04
6.58991379310345e+00 2.33630665225216e-02 2.02224534513107e-04
6.63284482758621e+00 2.32244027744892e-02 2.01678047291478e-04
6.67577586206897e+00 2.30865620193266e-02 2.01128823669482e-04
6.71870689655172e+00 2.29495393722271e-02 2.00576947873840e-04
6.76163793103448e+00 2.28133299777842e-02 2.00022502668409e-04
6.80456896551724e+00 2.26779290090058e-02 1.99465569316090e-04
6.84750000000000e+00 2.25433316679472e-02 1.98906227600208e-04
6.89043103448276e+00 2.24095331847465e-02 1.98344555861834e-04
6.93336206896552e+00 2.22765288182413e-02 1.97780631019922e-04
6.97629310344828e+00 2.21443138550236e-02 1.97214528607032e-04
7.01922413793103e+00 2.20128836100409e-02 1.96646322788289e-04
7.06215517241379e+00 2.18822334256709e-02 1.96076086395630e-04
7.10508620689655e+00 2.17523586723075e-02 1.95503890878106e-04
7.14801724137931e+00 2.16232547476338e-02 1.94929806605108e-04
7.19094827586207e+00 2.14949170764721e-02 1.94353902478850e-04
7.23387931034483e+00 2.13673411111560e-02 1.93776246229628e-04
7.27681034482759e+00 2.12405223306574e-02 1.93196904376800e-04
7.31974137931034e+00 2.11144562411301e-02 1.92615942244129e-04
7.36267241379310e+00 2.09891383750545e-02 1.92033423989487e-04
7.40560344827586e+00 2.08645642917682e-02 1.91449412619278e-04
7.44853448275862e+00 2.07407295766266e-02 1.90863970016974e-04
7.49146551724138e+00 2.06176298415213e-02 1.90277156894457e-04
7.53439655172414e+00 2.04952607242193e-02 1.89689033068894e-04
7.57732758620690e+00 2.03736178882193e-02 1.89099657102522e-04
7.62025862068965e+00 2.02526970230789e-02 1.88509086572390e-04
7.66318965517241e+00 2.01324938436213e-02 1.87917378031838e-04
7.70612068965517e+00 2.00130040904170e-02 1.87324587022247e-04
7.74905172413793e+00 1.98942235290064e-02 1.86730768097977e-04
7.79198275862069e+00 1.97761479503693e-02 1.86135974837438e-04
7.83491379310345e+00 1.96587731701628e-02 1.85540259867128e-04
7.87784482758621e+00 1.95420950291796e-02 1.84943674814553e-04
7.92077586206896e+00 1.94261093927461e-02 1.84346270561847e-04
7.96370689655172e+00 1.93108121505857e-02 1.83748096910977e-04
8.00663793103448e+00 1.91961992171060e-02 1.83149202830922e-04
8.04956896551724e+00 1.90822665306771e-02 1.82549636420171e-04
8.09250000000000e+00 1.89690100540589e-02 1.81949444915717e-04
8.13543103448276e+00 1.88564257736926e-02 1.81348674714250e-04
8.17836206896552e+00 1.87445097001180e-02 1.80747371380662e-04
8.22129310344828e+00 1.86332578672785e-02 1.80145579668529e-04
8.26422413793103e+00 1.85226663329284e-02 1.79543343528136e-04
8.30715517241379e+00 1.84127311779510e-02 1.78940706126234e-04
8.35008620689655e+00 1.83034485067561e-02 1.78337709801196e-04
8.39301724137931e+00 1.81948144467406e-02 1.77734396292045e-04
8.43594827586207e+00 1.80868251481590e-02 1.77130806431704e-04
8.47887931034483e+00 1.79794767843708e-02 1.76526980370288e-04
8.52181034482759e+00 1.78727655511937e-02 1.75922957539131e-04
8.56474137931034e+00 1.77666876672748e-02 1.75318776657273e-04
8.60767241379310e+00 1.76612393734559e-02 1.74714475749071e-04
8.65060344827586e+00 1.75564169331356e-02 1.74110092150370e-04
8.69353448275862e+00 1.74522166316468e-02 1.73505662525510e-04
8.73646551724138e+00 1.73486347766104e-02 1.72901222824639e-04
8.77939655172414e+00 1.72456676974406e-02 1.72296808494541e-04
8.82232758620690e+00 1.71433117452223e-02 1.71692454193408e-04
8.86525862068966e+00 1.70415632929293e-02 1.71088193996554e-04
8.90818965517241e+00 1.69404187348328e-02 1.70484061361939e-04
8.95112068965517e+00 1.68398744868319e-02 1.69880089135188e-04
8.99405172413793e+00 1.67399269858729e-02 1.69276309564803e-04
9.03698275862069e+00 1.66405726902722e-02 1.68672754306890e-04
9.07991379310345e+00 1.65418080791462e-02 1.68069454439946e-04
9.12284482758621e+00 1.64436296527265e-02 1.67466440424294e-04
9.16577586206897e+00 1.63460339319066e-02 1.66863742296619e-04
9.20870689655172e+00 1.62490174581246e-02 1.66261389404643e-04
9.25163793103448e+00 1.61525767935563e-02 1.65659410596875e-04
9.29456896551724e+00 1.60567085205731e-02 1.65057834189851e-04
9.33750000000000e+00 1.59614092420369e-02 1.64456687971928e-04
9.38043103448276e+00 1.58666755807682e-02 1.63855999216541e-04
9.42336206896552e+00 1.57725041798335e-02 1.63255794685831e-04
9.46629310344828e+00 1.56788917020231e-02 1.62656100643520e-04
9.50922413793103e+00 1.55858348301328e-02 1.62056942858289e-04
9.55215517241379e+00 1.54933302664498e-02 1.61458346616317e-04
9.59508620689655e+00 1.54013747330284e-02 1.60860336683288e-04
9.63801724137931e+00 1.53099649712802e-02 1.60262937481309e-04
9.68094827586207e+00 1.52190977418637e-02 1.59666172845527e-04
9.72387931034483e+00 1.51287698248514e-02 1.59070066196749e-04
9.76681034482758e+00 1.50389780192408e-02 1.58474640510588e-04
9.80974137931034e+00 1.49497191432116e-02 1.57879918320175e-04
9.85267241379310e+00 1.48609900336462e-02 1.57285921727494e-04
9.89560344827586e+00 1.47727875463809e-02 1.56692672405889e-04
9.93853448275862e+00 1.46851085557347e-02 1.56100191611092e-04
9.98146551724138e+00 1.45979499547547e-02 1.55508500031279e-04
1.00243965517241e+01 1.45113086550966e-02 1.54917618521939e-04
1.00673275862069e+01 1.44251815856329e-02 1.54327566851410e-04
1.01102586206897e+01 1.43395656951757e-02 1.53738364278399e-04
1.01531896551724e+01 1.42544579497835e-02 1.53150030813639e-04
1.01961206896552e+01 1.41698553326988e-02 1.52562584952643e-04
1.02390517241379e+01 1.40857548467286e-02 1.51976044818003e-04
1.02819827586207e+01 1.40021535116329e-02 1.51390429274769e-04
1.03249137931034e+01 1.39190483640612e-02 1.50805755717948e-04
1.03678448275862e+01 1.38364364598605e-02 1.50222041186597e-04
1.04107758620690e+01 1.37543148715413e-02 1.49639303452501e-04
1.04537068965517e+01 1.36726806882147e-02 1.49057558860960e-04
1.04966379310345e+01 1.35915310178289e-02 1.48476823417452e-04
1.05395689655172e+01 1.35108629847116e-02 1.47897113850374e-04
1.05825000000000e+01 1.34306737295061e-02 1.47318445503613e-04
1.06254310344828e+01 1.33509604113407e-02 1.46740833734929e-04
1.06683620689655e+01 1.32717202047032e-02 1.46164293598070e-04
1.07112931034483e+01 1.31929503023401e-02 1.45588839479404e-04
1.07542241379310e+01 1.31146479129099e-02 1.45014486474660e-04
1.07971551724138e+01 1.30368102609216e-02 1.44441248358466e-04
1.08400862068966e+01 1.29594345888008e-02 1.43869138605520e-04
1.08830172413793e+01 1.28825181546132e-02 1.43298171389563e-04
1.09259482758621e+01 1.28060582320025e-02 1.42728359601315e-04
1.09688793103448e+01 1.27300521121952e-02 1.42159715845424e-04
1.10118103448276e+01 1.26544971017891e-02 1.41592253415275e-04
1.10547413793103e+01 1.25793905226930e-02 1.41025984358008e-04
1.10976724137931e+01 1.25047297140706e-02 1.40460920447885e-04
1.11406034482759e+01 1.24305120301930e-02 1.39897074137613e-04
1.11835344827586e+01 1.23567348403793e-02 1.39334456669163e-04
1.12264655172414e+01 1.22833955308821e-02 1.38773079024202e-04
1.12693965517241e+01 1.22104915028022e-02 1.38212952852568e-04
1.13123275862069e+01 1.21380201720294e-02 1.37654088627747e-04
1.13552586206897e+01 1.20659789710722e-02 1.37096496574736e-04
1.13981896551724e+01 1.19943653470320e-02 1.36540187576567e-04
1.14411206896552e+01 1.19231767615450e-02 1.35985171373260e-04
1.14840517241379e+01 1.18524106925568e-02 1.35431457467445e-04
1.15269827586207e+01 1.17820646323556e-02 1.34879056009750e-04
1.15699137931034e+01 1.17121360875135e-02 1.34327976040036e-04
1.16128448275862e+01 1.16426225806097e-02 1.33778226371357e-04
1.16557758620690e+01 1.15735216483190e-02 1.33229816454785e-04
1.16987068965517e+01 1.15048308413542e-02 1.32682754661788e-04
1.17416379310345e+01 1.14365477261379e-02 1.32137049147123e-04
1.17845689655172e+01 1.13686698829462e-02 1.31592708693642e-04
1.18275000000000e+01 1.13011949058508e-02 1.31049741034755e-04
1.18704310344828e+01 1.12341204043421e-02 1.30508153966180e-04
1.19133620689655e+01 1.11674440009688e-02 1.29967955092117e-04
1.19562931034483e+01 1.11011633335107e-02 1.29429151535235e-04
1.19992241379310e+01 1.10352760532042e-02 1.28891751031999e-04
1.20421551724138e+01 1.09697798246848e-02 1.28355760315194e-04
1.20850862068966e+01 1.09046723275379e-02 1.27821185926073e-04
1.21280172413793e+01 1.08399512545728e-02 1.27288035009707e-04
1.21709482758621e+01 1.07756143117671e-02 1.26756313735054e-04
1.22138793103448e+01 1.07116592197718e-02 1.26226028088373e-04
1.22568103448276e+01 1.06480837122336e-02 1.25697184649871e-04
1.22997413793103e+01 1.05848855357400e-02 1.25169789050324e-04
1.23426724137931e+01 1.05220624512811e-02 1.24643846746239e-04
1.23856034482759e+01 1.04596122326180e-02 1.24119363778315e-04
1.24285344827586e+01 1.03975326662292e-02 1.23596345263662e-04
1.24714655172414e+01 1.03358215527299e-02 1.23074796153183e-04
1.25143965517241e+01 1.02744767052858e-02 1.22554721972294e-04
1.25573275862069e+01 1.02134959495601e-02 1.22036127347901e-04
1.26002586206897e+01 1.01528771250919e-02 1.21519016748287e-04
1.26431896551724e+01 1.00926180837541e-02 1.21003395206779e-04
1.26861206896552e+01 1.00327166897007e-02 1.20489266882581e-04
1.27290517241379e+01 9.97317082070599e-03 1.19976635783398e-04
1.27719827586207e+01 9.91397836666502e-03 1.19465506472635e-04
1.28149137931034e+01 9.85513722954104e-03 1.18955882663222e-04
1.28578448275862e+01 9.79664532466700e-03 1.18447767923386e-04
1.29007758620690e+01 9.73850057928704e-03 1.17941166367848e-04
1.29437068965517e+01 9.68070093250432e-03 1.17436081283770e-04
1.29866379310345e+01 9.62324433654582e-03 1.16932515820130e-04
1.30295689655172e+01 9.56612875534366e-03 1.16430473663268e-04
1.30725000000000e+01 9.50935216448340e-03 1.15929957694184e-04
1.31154310344828e+01 9.45291255243316e-03 1.15430970877596e-04
1.31583620689655e+01 9.39680791873945e-03 1.14933516058310e-04
1.32012931034483e+01 9.34103627567528e-03 1.14437595728640e-04
1.32442241379310e+01 9.28559564688190e-03 1.13943212904837e-04
1.32871551724138e+01 9.23048406731814e-03 1.13450369831645e-04
1.33300862068966e+01 9.17569958443569e-03 1.12959068631983e-04
1.33730172413793e+01 9.12124025685741e-03 1.12469311943741e-04
1.34159482758621e+01 9.06710415432751e-03 1.11981101653722e-04
1.34588793103448e+01 9.01328935885387e-03 1.11494439532684e-04
1.35018103448276e+01 8.95979396342177e-03 1.11009327857489e-04
1.35447413793103e+01 8.90661607194495e-03 1.10525768173715e-04
