Energy (eV)          EEDF (eV^-(3/2))     First Anisotropy
4.54545454545455e-03 6.15199543381749e-01 1.73511854792928e-07
1.36363636363636e-02 6.15199301523646e-01 5.40233866028870e-07
2.27272727272727e-02 6.15198670900156e-01 1.26674225281752e-06
3.18181818181818e-02 6.15197711755904e-01 2.08272776910328e-06
4.09090909090909e-02 6.15196454717364e-01 3.00233712582573e-06
5.00000000000000e-02 6.15194885104306e-01 4.05849849830264e-06
5.90909090909091e-02 6.15192986947605e-01 5.24566145783412e-06
6.81818181818182e-02 6.15190748462004e-01 6.56369560469511e-06
7.72727272727273e-02 6.15188152596937e-01 7.98876887145603e-06
8.63636363636364e-02 6.15185204181733e-01 9.53093815411415e-06
9.54545454545454e-02 6.15181876971228e-01 1.12361547846017e-05
1.04545454545455e-01 6.15178145263173e-01 1.30120791068407e-05
1.13636363636364e-01 6.15174043335803e-01 1.48262266760883e-05
1.22727272727273e-01 6.15169561097186e-01 1.67471556357336e-05
1.31818181818182e-01 6.15164687938980e-01 1.87764166285831e-05
1.40909090909091e-01 6.15159412834783e-01 2.09155189563982e-05
1.50000000000000e-01 6.15153724404895e-01 2.31659550420212e-05
1.59090909090909e-01 6.15147610959684e-01 2.55292155505717e-05
1.68181818181818e-01 6.15141060528975e-01 2.80067985175627e-05
1.77272727272727e-01 6.15134060882177e-01 3.06001652517192e-05
1.86363636363636e-01 6.15126599565681e-01 3.33097754006684e-05
1.95454545454545e-01 6.15118664359761e-01 3.61318325043957e-05
2.04545454545455e-01 6.15110244734920e-01 3.88699103903041e-05
2.13636363636364e-01 6.15101421171915e-01 4.14939999656387e-05
2.22727272727273e-01 6.15092192487941e-01 4.41718920552401e-05
2.31818181818182e-01 6.15082557444738e-01 4.69024930163791e-05
2.40909090909091e-01 6.15072514740196e-01 4.96848367945285e-05
2.50000000000000e-01 6.15062063001852e-01 5.25180714725248e-05
2.59090909090909e-01 6.15051200781838e-01 5.54014476572256e-05
2.68181818181818e-01 6.15039926552992e-01 5.83343083082820e-05
2.77272727272727e-01 6.15028238705917e-01 6.13160635345045e-05
2.86363636363636e-01 6.15016135553191e-01 6.43458657521188e-05
2.95454545454545e-01 6.15003615449817e-01 6.74215476558291e-05
3.04545454545455e-01 6.14990677188790e-01 7.07317452598466e-05
3.13636363636364e-01 6.14977253378791e-01 7.48774993156022e-05
3.22727272727273e-01 6.14963124674854e-01 8.01905080626130e-05
3.31818181818182e-01 6.14948108782129e-01 8.65167941890513e-05
3.40909090909091e-01 6.14932055395945e-01 9.37183543606616e-05
3.50000000000000e-01 6.14914841875515e-01 1.01671327242510e-04
3.59090909090909e-01 6.14896369534707e-01 1.10264396568241e-04
3.68181818181818e-01 6.14876560453972e-01 1.19397394030508e-04
3.77272727272727e-01 6.14855354734098e-01 1.28980064454724e-04
3.86363636363636e-01 6.14832708128854e-01 1.38930822760282e-04
3.95454545454545e-01 6.14808590051351e-01 1.49175291194973e-04
4.04545454545455e-01 6.14782981969705e-01 1.59713678475774e-04
4.13636363636364e-01 6.14755865530144e-01 1.71185400533997e-04
4.22727272727273e-01 6.14727015772788e-01 1.84093255752640e-04
4.31818181818182e-01 6.14696246348157e-01 1.98244298914297e-04
4.40909090909091e-01 6.14663404494495e-01 2.13466215847438e-04
4.50000000000000e-01 6.14628366628741e-01 2.29605319871576e-04
4.59090909090909e-01 6.14591034471483e-01 2.46524759680075e-04
4.68181818181818e-01 6.14551331637526e-01 2.64102913941261e-04
4.77272727272727e-01 6.14509200633140e-01 2.82231945661341e-04
4.86363636363636e-01 6.14464600210972e-01 3.00816408561668e-04
4.95454545454545e-01 6.14417503066530e-01 3.19771801434604e-04
5.04545454545455e-01 6.14367893863222e-01 3.38850432401846e-04
5.13636363636364e-01 6.14315828901111e-01 3.58087741079814e-04
5.22727272727273e-01 6.14261281992885e-01 3.77675482702715e-04
5.31818181818182e-01 6.14204242251326e-01 3.97515611454579e-04
5.40909090909091e-01 6.14144712061684e-01 4.17520439486964e-04
5.50000000000000e-01 6.14082705269206e-01 4.37611781844435e-04
5.59090909090909e-01 6.14018245558617e-01 4.57720174406157e-04
5.68181818181818e-01 6.13951365005093e-01 4.77784157722072e-04
5.77272727272727e-01 6.13882102778620e-01 4.97749616155660e-04
5.86363636363636e-01 6.13810503987021e-01 5.17569103438809e-04
5.95454545454545e-01 6.13736618661997e-01 5.37201112047924e-04
6.04545454545454e-01 6.13660500884776e-01 5.58659722439342e-04
6.13636363636364e-01 6.13581639239217e-01 5.85679412529607e-04
6.22727272727273e-01 6.13499066593562e-01 6.19507140873843e-04
6.31818181818182e-01 6.13411957242793e-01 6.59279736770431e-04
6.40909090909091e-01 6.13319611436300e-01 7.04216025305097e-04
6.50000000000000e-01 6.13221441535509e-01 7.53609264748665e-04
6.59090909090909e-01 6.13116959628747e-01 8.06820275350355e-04
6.68181818181818e-01 6.13005766449958e-01 8.63271192654393e-04
6.77272727272727e-01 6.12887541464708e-01 9.22439782141498e-04
6.86363636363636e-01 6.12762034002982e-01 9.83854211398296e-04
6.95454545454545e-01 6.12629055344460e-01 1.04708822834792e-03
7.04545454545454e-01 6.12488471658988e-01 1.11504184815739e-03
7.13636363636364e-01 6.12339353396454e-01 1.19384436101790e-03
7.22727272727273e-01 6.12180000405585e-01 1.28567194626827e-03
7.31818181818182e-01 6.12008956236462e-01 1.38889628514803e-03
7.40909090909091e-01 6.11824985412732e-01 1.50201849543833e-03
7.50000000000000e-01 6.11627052691138e-01 1.62365941012939e-03
7.59090909090909e-01 6.11414304139738e-01 1.75255053181401e-03
7.68181818181818e-01 6.11186049881534e-01 1.88752561173611e-03
7.77272727272727e-01 6.10941748363785e-01 2.02751280292953e-03
7.86363636363636e-01 6.10680992026973e-01 2.17152728475256e-03
7.95454545454545e-01 6.10403494273697e-01 2.31866434615880e-03
8.04545454545454e-01 6.10109077622907e-01 2.46635010336513e-03
8.13636363636364e-01 6.09798090761293e-01 2.61062219779707e-03
8.22727272727273e-01 6.09471318526314e-01 2.74970163828671e-03
8.31818181818182e-01 6.09129523006282e-01 2.88367497330956e-03
8.40909090909091e-01 6.08773443561776e-01 3.01263377173341e-03
8.50000000000000e-01 6.08403796801018e-01 3.13667484344095e-03
8.59090909090909e-01 6.08021276523252e-01 3.25590036641915e-03
8.68181818181818e-01 6.07626553641442e-01 3.37041793713488e-03
8.77272727272727e-01 6.07220276093436e-01 3.48034055396437e-03
8.86363636363636e-01 6.06803068750087e-01 3.58578649860037e-03
8.95454545454545e-01 6.06375533338603e-01 3.68687918360544e-03
9.04545454545455e-01 6.05938248369550e-01 3.78528857690142e-03
9.13636363636364e-01 6.05491409015876e-01 3.88409013644528e-03
9.22727272727273e-01 6.05034867400584e-01 3.98462076403365e-03
9.31818181818182e-01 6.04568507238048e-01 4.08662445035252e-03
9.40909090909091e-01 6.04092241790345e-01 4.18985832427988e-03
9.50000000000000e-01 6.03606011875691e-01 4.29409260567299e-03
9.59090909090909e-01 6.03109783933169e-01 4.39911050370427e-03
9.68181818181818e-01 6.02603548147372e-01 4.50470806546732e-03
9.77272727272727e-01 6.02087316635979e-01 4.61069396578664e-03
9.86363636363636e-01 6.01561121706428e-01 4.71688909737313e-03
9.95454545454545e-01 6.01025014221180e-01 4.82312613272753e-03
1.00454545454545e+00 6.00479062027968e-01 4.94443888763767e-03
1.01363636363636e+00 5.99919871879418e-01 5.10587635960649e-03
1.02272727272727e+00 5.99341961949824e-01 5.31531812141570e-03
1.03181818181818e+00 5.98740363233518e-01 5.56872786523961e-03
1.04090909090909e+00 5.98110595483112e-01 5.86221651044992e-03
1.05000000000000e+00 5.97448643338704e-01 6.19204551018990e-03
1.05909090909091e+00 5.96750932634871e-01 6.55463008847105e-03
1.06818181818182e+00 5.96014306882965e-01 6.94654232745231e-03
1.07727272727273e+00 5.95236003934323e-01 7.36451404094874e-03
1.08636363636364e+00 5.94413632836601e-01 7.80543938229876e-03
1.09545454545455e+00 5.93545150900492e-01 8.26637713987753e-03
1.10454545454545e+00 5.92628840999223e-01 8.75244060952584e-03
1.11363636363636e+00 5.91661302298190e-01 9.26403395602604e-03
1.12272727272727e+00 5.90640721706322e-01 9.79403151778774e-03
1.13181818181818e+00 5.89565532610846e-01 1.03402925682562e-02
1.14090909090909e+00 5.88434400747640e-01 1.09007805295153e-02
1.15000000000000e+00 5.87246210364096e-01 1.14735624852719e-02
1.15909090909091e+00 5.86000050702641e-01 1.20568083453376e-02
1.16818181818182e+00 5.84695202828112e-01 1.26487897031834e-02
1.17727272727273e+00 5.83331126817992e-01 1.32478784241204e-02
1.18636363636364e+00 5.81907449330616e-01 1.38525449993764e-02
1.19545454545455e+00 5.80423951562924e-01 1.44613566839203e-02
1.20454545454545e+00 5.78880557609235e-01 1.50891195940013e-02
1.21363636363636e+00 5.77273204788608e-01 1.57352563196786e-02
1.22272727272727e+00 5.75601860723972e-01 1.63837937946584e-02
1.23181818181818e+00 5.73866513578312e-01 1.70344563104909e-02
1.24090909090909e+00 5.72067179638411e-01 1.76868962626700e-02
1.25000000000000e+00 5.70203910336909e-01 1.83406988069219e-02
1.25909090909091e+00 5.68276798737311e-01 1.89953863719124e-02
1.26818181818182e+00 5.66285985505083e-01 1.96504230289953e-02
1.27727272727273e+00 5.64231664388004e-01 2.03052187116659e-02
1.28636363636364e+00 5.62114087229151e-01 2.09591332765727e-02
1.29545454545455e+00 5.59933568536175e-01 2.16114804007514e-02
1.30454545454545e+00 5.57690489630168e-01 2.22589226349331e-02
1.31363636363636e+00 5.55386203334291e-01 2.29101276456287e-02
1.32272727272727e+00 5.53019340631361e-01 2.35761578128000e-02
1.33181818181818e+00 5.50588641283783e-01 2.42559460142195e-02
1.34090909090909e+00 5.48092961401171e-01 2.49483495618477e-02
1.35000000000000e+00 5.45531279237998e-01 2.56521670631147e-02
1.35909090909091e+00 5.42902699273546e-01 2.63661549263112e-02
1.36818181818182e+00 5.40206454635700e-01 2.70890434148371e-02
1.37727272727273e+00 5.37441907937044e-01 2.78195521732787e-02
1.38636363636364e+00 5.34608550597262e-01 2.85564051619656e-02
1.39545454545455e+00 5.31706000729871e-01 2.92983449503364e-02
1.40454545454545e+00 5.28733999674133e-01 3.00448982193846e-02
1.41363636363636e+00 5.25692256798166e-01 3.07963972617097e-02
1.42272727272727e+00 5.22580443069729e-01 3.15524553533057e-02
1.43181818181818e+00 5.19398341368569e-01 3.23119338036286e-02
1.44090909090909e+00 5.16145845479824e-01 3.30736999346785e-02
1.45000000000000e+00 5.12822958449750e-01 3.38366334158888e-02
1.45909090909091e+00 5.09429790383217e-01 3.45996318791358e-02
1.46818181818182e+00 5.05966555756349e-01 3.53616158628527e-02
1.47727272727273e+00 5.02433570311940e-01 3.61215331324251e-02
1.48636363636364e+00 4.98831247599819e-01 3.68783624212363e-02
1.49545454545455e+00 4.95160095219317e-01 3.76311166103312e-02
1.50454545454545e+00 4.91420710820986e-01 3.83990478083641e-02
1.51363636363636e+00 4.87608536285253e-01 3.91774705286832e-02
1.52272727272727e+00 4.83725018297300e-01 3.99428082742971e-02
1.53181818181818e+00 4.79771468435599e-01 4.06962530717084e-02
1.54090909090909e+00 4.75749083980775e-01 4.14387984086351e-02
1.55000000000000e+00 4.71658967458591e-01 4.21712506666251e-02
1.55909090909091e+00 4.67502144944051e-01 4.28942404203379e-02
1.56818181818182e+00 4.63279583153274e-01 4.36082335855092e-02
1.57727272727273e+00 4.58992205352056e-01 4.43135423846372e-02
1.58636363636364e+00 4.54640906112311e-01 4.50103360972305e-02
1.59545454545455e+00 4.50226564950260e-01 4.56986514765181e-02
1.60454545454545e+00 4.45750058899058e-01 4.64491982975944e-02
1.61363636363636e+00 4.41195443223880e-01 4.73006557507940e-02
1.62272727272727e+00 4.36555945163985e-01 4.82189822439185e-02
1.63181818181818e+00 4.31825265922532e-01 4.91992654817948e-02
1.64090909090909e+00 4.26997589959315e-01 5.02365077891727e-02
1.65000000000000e+00 4.22067590172159e-01 5.13256691626472e-02
1.65909090909091e+00 4.17030429006268e-01 5.24617098465726e-02
1.66818181818182e+00 4.11881755553084e-01 5.36396321830306e-02
1.67727272727273e+00 4.06617698723445e-01 5.48545214980873e-02
1.68636363636364e+00 4.01234856599820e-01 5.61015858197999e-02
1.69545454545455e+00 3.95730282089267e-01 5.73761942147668e-02
1.70454545454545e+00 3.90101465020602e-01 5.86998078039874e-02
1.71363636363636e+00 3.84337405106661e-01 6.00083807772010e-02
1.72272727272727e+00 3.78447750891004e-01 6.12166442482129e-02
1.73181818181818e+00 3.72441861219770e-01 6.23277499493118e-02
1.74090909090909e+00 3.66328798642040e-01 6.33449128541170e-02
1.75000000000000e+00 3.60117324085390e-01 6.42713975218672e-02
1.75909090909091e+00 3.53815892741264e-01 6.51105052191008e-02
1.76818181818182e+00 3.47432651085444e-01 6.58655618619914e-02
1.77727272727273e+00 3.40975434959904e-01 6.65399067664120e-02
1.78636363636364e+00 3.34451768643767e-01 6.71368821704330e-02
1.79545454545455e+00 3.27868864846388e-01 6.76598228424733e-02
1.80454545454545e+00 3.21233625684294e-01 6.85027112698788e-02
1.81363636363636e+00 3.14444563886073e-01 6.96345238521859e-02
1.82272727272727e+00 3.07512938322801e-01 7.06392005697749e-02
1.83181818181818e+00 3.00450066926889e-01 7.15184277062471e-02
1.84090909090909e+00 2.93267276642097e-01 7.22743573993038e-02
1.85000000000000e+00 2.85975854959782e-01 7.29095785915027e-02
1.85909090909091e+00 2.78587003114049e-01 7.34270884312866e-02
1.86818181818182e+00 2.71111790945590e-01 7.38302644469568e-02
1.87727272727273e+00 2.63561113439722e-01 7.41228375152906e-02
1.88636363636364e+00 2.55945648939940e-01 7.43088656536070e-02
1.89545454545455e+00 2.48275819032221e-01 7.43927088261751e-02
1.90454545454545e+00 2.40561750057311e-01 7.43028720208812e-02
1.91363636363636e+00 2.32833976226337e-01 7.39853876965526e-02
1.92272727272727e+00 2.25114413191489e-01 7.34634514114964e-02
1.93181818181818e+00 2.17424474960647e-01 7.27450865231236e-02
1.94090909090909e+00 2.09784985948107e-01 7.18389670738084e-02
1.95000000000000e+00 2.02216102633406e-01 7.07543091536861e-02
1.95909090909091e+00 1.94737245314387e-01 6.95007610239935e-02
1.96818181818182e+00 1.87367040354205e-01 6.80882928805734e-02
1.97727272727273e+00 1.80123273233547e-01 6.65270870634805e-02
1.98636363636364e+00 1.73022852645830e-01 6.48274292194687e-02
1.99545454545455e+00 1.66081785872998e-01 6.29996017130175e-02
2.00454545454545e+00 1.59315165310687e-01 6.10569139444240e-02
2.01363636363636e+00 1.52740517683420e-01 5.90692867077895e-02
2.02272727272727e+00 1.46357542968091e-01 5.71009542010185e-02
2.03181818181818e+00 1.40165586137622e-01 5.51548581915615e-02
2.04090909090909e+00 1.34163660207244e-01 5.32336870371939e-02
2.05000000000000e+00 1.28350468841930e-01 5.13398845617886e-02
2.05909090909091e+00 1.22724428472433e-01 4.94756591462017e-02
2.06818181818182e+00 1.17283689886575e-01 4.76429929204164e-02
2.07727272727273e+00 1.12026159266936e-01 4.58436510140506e-02
2.08636363636364e+00 1.06949518650067e-01 4.40791908342418e-02
2.09545454545455e+00 1.02051245784484e-01 4.23509716011525e-02
2.10454545454545e+00 9.73286333095586e-02 4.05940811289240e-02
2.11363636363636e+00 9.28072969918553e-02 3.88298838828693e-02
2.12272727272727e+00 8.84779747788038e-02 3.71483381031189e-02
2.13181818181818e+00 8.43317727005029e-02 3.55460917534760e-02
2.14090909090909e+00 8.03601495508762e-02 3.40199330093555e-02
2.15000000000000e+00 7.65549021292560e-02 3.25667852251364e-02
2.15909090909091e+00 7.29081509917879e-02 3.11837022002383e-02
2.16818181818182e+00 6.94123266964419e-02 2.98678635881495e-02
2.17727272727273e+00 6.60601565265703e-02 2.86165704417160e-02
2.18636363636364e+00 6.28446516783959e-02 2.74272408933729e-02
2.19545454545455e+00 5.97590948977279e-02 2.62974060499067e-02
2.20454545454545e+00 5.67970285330324e-02 2.52007934558549e-02
2.21363636363636e+00 5.39606635917679e-02 2.41193903779800e-02
2.22272727272727e+00 5.12473003112715e-02 2.30616869929429e-02
2.23181818181818e+00 4.86541588195269e-02 2.20283326672986e-02
2.24090909090909e+00 4.61783948915024e-02 2.10198409520140e-02
2.25000000000000e+00 4.38171151243152e-02 2.00365947019892e-02
2.25909090909091e+00 4.15673915179883e-02 1.90788512746319e-02
2.26818181818182e+00 3.94262754596642e-02 1.81467477318280e-02
2.27727272727273e+00 3.73908111152100e-02 1.72403059933643e-02
2.28636363636364e+00 3.54580482378005e-02 1.63594378930399e-02
2.29545454545455e+00 3.36250544084147e-02 1.55039500915991e-02
2.30454545454545e+00 3.18889267281838e-02 1.46761931899384e-02
2.31363636363636e+00 3.02469219338569e-02 1.38870825907489e-02
2.32272727272727e+00 2.86935086246901e-02 1.31440114607677e-02
2.33181818181818e+00 2.72234867352655e-02 1.24442484586486e-02
2.34090909090909e+00 2.58319668217127e-02 1.17852313557912e-02
2.35000000000000e+00 2.45143506653647e-02 1.11645564168645e-02
2.35909090909091e+00 2.32663131051907e-02 1.05799684747156e-02
2.36818181818182e+00 2.20837850192806e-02 1.00293516409904e-02
2.37727272727273e+00 2.09629373809380e-02 9.51072061116580e-03
2.38636363636364e+00 1.99001663198122e-02 9.02221252598735e-03
2.39545454545455e+00 1.88920791229723e-02 8.56207936593681e-03
2.40454545454545e+00 1.79354811122907e-02 8.12519695488485e-03
2.41363636363636e+00 1.70285654455398e-02 7.70719509168676e-03
2.42272727272727e+00 1.61690837860063e-02 7.30774403424395e-03
2.43181818181818e+00 1.53548911307397e-02 6.92600292701163e-03
2.44090909090909e+00 1.45839421481629e-02 6.56115932682192e-03
2.45000000000000e+00 1.38542876492144e-02 6.21242819569070e-03
2.45909090909091e+00 1.31640711904494e-02 5.87905089767184e-03
2.46818181818182e+00 1.25115258080388e-02 5.56029419783697e-03
2.47727272727273e+00 1.18949708815765e-02 5.25544926374977e-03
2.48636363636364e+00 1.13128091265954e-02 4.96383066967717e-03
2.49545454545455e+00 1.07635237146895e-02 4.68477540289339e-03
2.50454545454545e+00 1.02456755203322e-02 4.41851459697245e-03
2.51363636363636e+00 9.75784791291616e-03 4.16725224570525e-03
2.52272727272727e+00 9.29808218852593e-03 3.93214711708927e-03
2.53181818181818e+00 8.86455415916476e-03 3.71210637503936e-03
2.54090909090909e+00 8.45556435500279e-03 3.50611571167979e-03
2.55000000000000e+00 8.06952897151869e-03 3.31323345985381e-03
2.55909090909091e+00 7.70497150210913e-03 3.13258516678460e-03
2.56818181818182e+00 7.36051500226832e-03 2.96335858872735e-03
2.57727272727273e+00 7.03487493583395e-03 2.80479907276477e-03
2.58636363636364e+00 6.72685255781284e-03 2.65620529480481e-03
2.59545454545455e+00 6.43532879196544e-03 2.51692532811704e-03
2.60454545454545e+00 6.15925856408932e-03 2.38568505117114e-03
2.61363636363636e+00 5.89793435440444e-03 2.26171249395764e-03
2.62272727272727e+00 5.65047176821379e-03 2.14502753871977e-03
2.63181818181818e+00 5.41604099768016e-03 2.03519092285889e-03
2.64090909090909e+00 5.19386315462244e-03 1.93179242155699e-03
2.65000000000000e+00 4.98320685740453e-03 1.83444887555620e-03
2.65909090909091e+00 4.78338505342842e-03 1.74280235908161e-03
2.66818181818182e+00 4.59375206036359e-03 1.65651847649021e-03
2.67727272727273e+00 4.41370081051454e-03 1.57528477811622e-03
2.68636363636364e+00 4.24266028389586e-03 1.49880928671936e-03
2.69545454545455e+00 4.08009311661866e-03 1.42681913336656e-03
2.70454545454545e+00 3.92549337068527e-03 1.35749860188679e-03
2.71363636363636e+00 3.77904505545872e-03 1.29042223490577e-03
2.72272727272727e+00 3.64029254146888e-03 1.22689495017678e-03
2.73181818181818e+00 3.50880751857507e-03 1.16671326214098e-03
2.74090909090909e+00 3.38418722552039e-03 1.10968642675520e-03
2.75000000000000e+00 3.26605280000755e-03 1.05563560711597e-03
2.75909090909091e+00 3.15404774010922e-03 1.00439309929003e-03
2.76818181818182e+00 3.04783646915845e-03 9.55801611011587e-04
2.77727272727273e+00 2.94710299685658e-03 9.09713589397335e-04
2.78636363636364e+00 2.85154966986953e-03 8.65990594265190e-04
2.79545454545455e+00 2.76089600565723e-03 8.24502716886467e-04
2.80454545454545e+00 2.67487760309720e-03 7.84505895986700e-04
2.81363636363636e+00 2.59354654634467e-03 7.46298796002030e-04
2.82272727272727e+00 2.51655369176222e-03 7.10858902010530e-04
2.83181818181818e+00 2.44357413569522e-03 6.78010895140347e-04
2.84090909090909e+00 2.37430534372767e-03 6.47592571618659e-04
2.85000000000000e+00 2.30846544912233e-03 6.19453665690359e-04
2.85909090909091e+00 2.24579170466295e-03 5.93454775631733e-04
2.86818181818182e+00 2.18603907396625e-03 5.69466381797346e-04
