Energy (eV)          EEDF (eV^-(3/2))     First Anisotropy
1.12142857142857e-02 3.60485512981452e+00 4.87378373798435e-03
3.36428571428571e-02 3.43081221021689e+00 7.88021462406103e-03
5.60714285714286e-02 3.26517210723504e+00 9.96754666325598e-03
7.85000000000000e-02 3.10752913224507e+00 1.13099340005584e-02
1.00928571428571e-01 2.95749718262749e+00 1.22427280605839e-02
1.23357142857143e-01 2.81470879705916e+00 1.29013332110434e-02
1.45785714285714e-01 2.67881425450561e+00 1.33599335501444e-02
1.68214285714286e-01 2.54948072030115e+00 1.36655961520319e-02
1.90642857142857e-01 2.42639142781850e+00 1.38508851044314e-02
2.13071428571429e-01 2.30924490359850e+00 1.39396468696215e-02
2.35500000000000e-01 2.19775423047779e+00 1.39500515536546e-02
2.57928571428571e-01 2.09164634271078e+00 1.38963513507625e-02
2.80357142857143e-01 1.99066135906392e+00 1.37899718905853e-02
3.02785714285714e-01 1.89455194464346e+00 1.36402278095891e-02
3.25214285714286e-01 1.80308270659437e+00 1.34548129339981e-02
3.47642857142857e-01 1.71602961649895e+00 1.32401484138502e-02
3.70071428571429e-01 1.63317946187797e+00 1.30016373336757e-02
3.92500000000000e-01 1.55432932462040e+00 1.27438558269358e-02
4.14928571428571e-01 1.47928608313051e+00 1.24706995549873e-02
4.37357142857143e-01 1.40786594011307e+00 1.21854980934361e-02
4.59785714285714e-01 1.33989397170167e+00 1.18911057180842e-02
4.82214285714286e-01 1.27520369968002e+00 1.15899744493869e-02
5.04642857142857e-01 1.21363668326396e+00 1.12842135953767e-02
5.27071428571429e-01 1.15504213111685e+00 1.09756387329515e-02
5.49500000000000e-01 1.09927653234479e+00 1.06658124810202e-02
5.71928571428571e-01 1.04620330458150e+00 1.03560786686062e-02
5.94357142857143e-01 9.95692459859558e-01 1.00475911973859e-02
6.16785714285714e-01 9.47620285880327e-01 9.74133859494609e-03
6.39214285714286e-01 9.01869043348074e-01 9.43816501057661e-03
6.61642857142857e-01 8.58326677355108e-01 9.13878829381065e-03
6.84071428571429e-01 8.16886542967349e-01 8.84381558297100e-03
7.06500000000000e-01 7.77447144200031e-01 8.55375686336727e-03
7.28928571428571e-01 7.39911885200585e-01 8.26903676537852e-03
7.51357142857143e-01 7.04188833878418e-01 7.99000487481007e-03
7.73785714285714e-01 6.70190496543981e-01 7.71694477596637e-03
7.96214285714286e-01 6.37833603802169e-01 7.45008199427465e-03
8.18642857142857e-01 6.07038906470736e-01 7.18959100752463e-03
8.41071428571428e-01 5.77730981498291e-01 6.93560141469038e-03
8.63500000000000e-01 5.49838047335982e-01 6.68820341193228e-03
8.85928571428571e-01 5.23291787995966e-01 6.44745263626557e-03
9.08357142857143e-01 4.98027185854134e-01 6.21337446188174e-03
9.30785714285714e-01 4.73982362292284e-01 5.98596781910674e-03
9.53214285714286e-01 4.51098426251279e-01 5.76520858585976e-03
9.75642857142857e-01 4.29319329914319e-01 5.55105261385466e-03
9.98071428571428e-01 4.08591731442628e-01 5.34343840485546e-03
1.02050000000000e+00 3.88864864459521e-01 5.14228953172240e-03
1.04292857142857e+00 3.70090413278616e-01 4.94751673716051e-03
1.06535714285714e+00 3.52222395305616e-01 4.75901984228653e-03
1.08778571428571e+00 3.35217047812513e-01 4.57668947808380e-03
1.11021428571429e+00 3.19032720942422e-01 4.40040855456840e-03
1.13264285714286e+00 3.03629775699282e-01 4.23005361669460e-03
1.15507142857143e+00 2.88970486864346e-01 4.06549603982445e-03
1.17750000000000e+00 2.75018950598065e-01 3.90660309922807e-03
1.19992857142857e+00 2.61740996401006e-01 3.75323889361817e-03
1.22235714285714e+00 2.49104103742874e-01 3.60526519637438e-03
1.24478571428571e+00 2.37077322079113e-01 3.46254221259113e-03
1.26721428571429e+00 2.25631195162082e-01 3.32492921112754e-03
1.28964285714286e+00 2.14737688895872e-01 3.19228511121485e-03
1.31207142857143e+00 2.04370122675231e-01 3.06446899151773e-03
1.33450000000000e+00 1.94503104038480e-01 2.94134054123505e-03
1.35692857142857e+00 1.85112466411634e-01 2.82276043715586e-03
1.37935714285714e+00 1.76175210118991e-01 2.70859069312650e-03
1.40178571428571e+00 1.67669445843852e-01 2.59869496529495e-03
1.42421428571429e+00 1.59574341088972e-01 2.49293879074277e-03
1.44664285714286e+00 1.51870069152988e-01 2.39118981070593e-03
1.46907142857143e+00 1.44537760570795e-01 2.29331795560305e-03
1.49150000000000e+00 1.37559456897842e-01 2.19919560360927e-03
1.51392857142857e+00 1.30918066685310e-01 2.10869770084997e-03
1.53635714285714e+00 1.24597323745906e-01 2.02170187323925e-03
1.55878571428571e+00 1.18581747182802e-01 1.93808851792898e-03
1.58121428571429e+00 1.12856603519147e-01 1.85774085854653e-03
1.60364285714286e+00 1.07407870612425e-01 1.78054499773744e-03
1.62607142857143e+00 1.02222203311330e-01 1.70638995111331e-03
1.64850000000000e+00 9.72869007704157e-02 1.63516766987246e-03
1.67092857142857e+00 9.25898753169047e-02 1.56677304352798e-03
1.69335714285714e+00 8.81196229262993e-02 1.50110390244336e-03
1.71578571428571e+00 8.38651949623108e-02 1.43806101164704e-03
1.73821428571429e+00 7.98161713904157e-02 1.37754804487178e-03
1.76064285714286e+00 7.59626352568277e-02 1.31947156100400e-03
1.78307142857143e+00 7.22951483998034e-02 1.26374097191860e-03
1.80550000000000e+00 6.88047283334268e-02 1.21026850629386e-03
1.82792857142857e+00 6.54828262307069e-02 1.15896916334265e-03
1.85035714285714e+00 6.23213060379244e-02 1.10976066951687e-03
1.87278571428571e+00 5.93124244932971e-02 1.06256343219707e-03
1.89521428571429e+00 5.64488121808528e-02 1.01730048268145e-03
1.91764285714286e+00 5.37234554810652e-02 9.73897423274748e-04
1.94007142857143e+00 5.11296793930193e-02 9.32282370850995e-04
1.96250000000000e+00 4.86611311858164e-02 8.92385899836176e-04
1.98492857142857e+00 4.63117648283891e-02 8.54140980347460e-04
2.00735714285714e+00 4.40758262154810e-02 8.17482920206008e-04
2.02978571428571e+00 4.19478390392199e-02 7.82349306637167e-04
2.05221428571429e+00 3.99225913886755e-02 7.48679942323915e-04
2.07464285714286e+00 3.79951229847163e-02 7.16416785745939e-04
2.09707142857143e+00 3.61607130312315e-02 6.85503890531443e-04
2.11950000000000e+00 3.44148686528327e-02 6.55887345729368e-04
2.14192857142857e+00 3.27533138836392e-02 6.27515214015006e-04
2.16435714285714e+00 3.11719792167926e-02 6.00337473680168e-04
2.18678571428571e+00 2.96669916141882e-02 5.74305961487072e-04
2.20921428571429e+00 2.82346650285641e-02 5.49374312685481e-04
2.23164285714286e+00 2.68714913755437e-02 5.25497904889109e-04
2.25407142857143e+00 2.55741319415871e-02 5.02633802163881e-04
2.27650000000000e+00 2.43394092067288e-02 4.80740700572326e-04
2.29892857142857e+00 2.31642990574054e-02 4.59778873084543e-04
2.32135714285714e+00 2.20459233944197e-02 4.39710117800067e-04
2.34378571428571e+00 2.09815430686006e-02 4.20497707443963e-04
2.36621428571429e+00 1.99685511772960e-02 4.02106337569366e-04
2.38864285714286e+00 1.90044666794849e-02 3.84502077997259e-04
2.41107142857143e+00 1.80869283191747e-02 3.67652324968401e-04
2.43350000000000e+00 1.72136888421543e-02 3.51525754823326e-04
2.45592857142857e+00 1.63826094888458e-02 3.36092277749516e-04
2.47835714285714e+00 1.55916547657277e-02 3.21322994263895e-04
2.50078571428571e+00 1.48388874498797e-02 3.07190153010460e-04
2.52321428571429e+00 1.41224638477852e-02 2.93667108090077e-04
2.54564285714286e+00 1.34406292797125e-02 2.80728278997550e-04
2.56807142857143e+00 1.27917137821271e-02 2.68349111416089e-04
2.59050000000000e+00 1.21741280175753e-02 2.56506039406305e-04
2.61292857142857e+00 1.15863593799684e-02 2.45176447968537e-04
2.63535714285714e+00 1.10269682963331e-02 2.34338637788442e-04
2.65778571428571e+00 1.04945846942825e-02 2.23971791175227e-04
2.68021428571429e+00 9.98790464872255e-03 2.14055937953502e-04
2.70264285714286e+00 9.50568718824848e-03 2.04571923401247e-04
2.72507142857143e+00 9.04675125573776e-03 1.95501377019878e-04
2.74750000000000e+00 8.60997281567638e-03 1.86826682491181e-04
2.76992857142857e+00 8.19428209976187e-03 1.78530948107051e-04
2.79235714285714e+00 7.79866099111052e-03 1.70597978902781e-04
2.81478571428571e+00 7.42214052619880e-03 1.63012249802518e-04
2.83721428571429e+00 7.06379852320216e-03 1.55758878915129e-04
2.85964285714286e+00 6.72275732336599e-03 1.48823602407462e-04
2.88207142857143e+00 6.39818164142918e-03 1.42192750111869e-04
2.90450000000000e+00 6.08927651982364e-03 1.35853222102847e-04
2.92692857142857e+00 5.79528538072027e-03 1.29792465743324e-04
2.94935714285714e+00 5.51548817588387e-03 1.23998454039190e-04
2.97178571428571e+00 5.24919962012875e-03 1.18459664819229e-04
2.99421428571429e+00 4.99576751393695e-03 1.13165060140588e-04
3.01664285714286e+00 4.75457114607624e-03 1.08104066894743e-04
3.03907142857143e+00 4.52501977334357e-03 1.03266558027823e-04
3.06150000000000e+00 4.30655117370299e-03 9.86428345310518e-05
3.08392857142857e+00 4.09863026865727e-03 9.42236078517510e-05
3.10635714285714e+00 3.90074781465584e-03 8.99999832973219e-05
3.12878571428571e+00 3.71241915384066e-03 8.59634440948041e-05
3.15121428571429e+00 3.53318302770502e-03 8.21058356880442e-05
3.17364285714286e+00 3.36260044736867e-03 7.84193509397527e-05
3.19607142857143e+00 3.20025361839870e-03 7.48965158305476e-05
3.21850000000000e+00 3.04574491753761e-03 7.15301757584296e-05
3.24092857142857e+00 2.89869591841743e-03 6.83134821939214e-05
3.26335714285714e+00 2.75874646601062e-03 6.52398800822234e-05
3.28578571428571e+00 2.62555379318268e-03 6.23030957564261e-05
3.30821428571429e+00 2.49879168164579e-03 5.94971250703406e-05
3.33064285714286e+00 2.37814966297763e-03 5.68162222083015e-05
3.35307142857143e+00 2.26333225821657e-03 5.42548888878206e-05
3.37550000000000e+00 2.15405825416783e-03 5.18078640238644e-05
3.39792857142857e+00 2.05006001436779e-03 4.94701136832717e-05
3.42035714285714e+00 1.95108282446036e-03 4.72368215972273e-05
3.44278571428571e+00 1.85688426743618e-03 4.51033800666847e-05
3.46521428571429e+00 1.76723363021404e-03 4.30653810573562e-05
3.48764285714286e+00 1.68191133857321e-03 4.11186077981538e-05
3.51007142857143e+00 1.60070841936831e-03 3.92590266850105e-05
3.53250000000000e+00 1.52342598870752e-03 3.74827795358337e-05
3.55492857142857e+00 1.44987476465106e-03 3.57861760763821e-05
3.57735714285714e+00 1.37987460421079e-03 3.41656868407103e-05
3.59978571428571e+00 1.31325406152587e-03 3.26179363705705e-05
3.62221428571429e+00 1.24984996816635e-03 3.11396965717416e-05
3.64464285714286e+00 1.18950703349733e-03 2.97278804429555e-05
3.66707142857143e+00 1.13207746433837e-03 2.83795360392300e-05
3.68950000000000e+00 1.07742060298504e-03 2.70918407000549e-05
3.71192857142857e+00 1.02540258257785e-03 2.58620954581261e-05
3.73435714285714e+00 9.75895999634224e-04 2.46877197546400e-05
3.75678571428571e+00 9.28779601593226e-04 2.35662463801519e-05
3.77921428571429e+00 8.83937989985022e-04 2.24953165417404e-05
3.80164285714286e+00 8.41261337794377e-04 2.14726752048264e-05
3.82407142857143e+00 8.00645120470305e-04 2.04961666131593e-05
3.84650000000000e+00 7.61989859922172e-04 1.95637300072344e-05
3.86892857142857e+00 7.25200880788165e-04 1.86733954819846e-05
3.89135714285714e+00 6.90188078826776e-04 1.78232800703032e-05
3.91378571428571e+00 6.56865699949436e-04 1.70115839956143e-05
3.93621428571429e+00 6.25152130287315e-04 1.62365870240839e-05
3.95864285714286e+00 5.94969696300822e-04 1.54966450186085e-05
3.98107142857143e+00 5.66244474540124e-04 1.47901866271650e-05
4.00350000000000e+00 5.38906110590177e-04 1.41157101190077e-05
4.02592857142857e+00 5.12887646697605e-04 1.34717803271857e-05
4.04835714285714e+00 4.88125357961452e-04 1.28570257568820e-05
4.07078571428571e+00 4.64558596065095e-04 1.22701358197505e-05
4.09321428571429e+00 4.42129640801361e-04 1.17098581456848e-05
4.11564285714286e+00 4.20783558702921e-04 1.11749960424013e-05
4.13807142857143e+00 4.00468068498210e-04 1.06644060557026e-05
4.16050000000000e+00 3.81133413062969e-04 1.01769956393942e-05
4.18292857142857e+00 3.62732237513481e-04 9.71172090568675e-06
4.20535714285714e+00 3.45219473349959e-04 9.26758449702359e-06
4.22778571428571e+00 3.28552227943365e-04 8.84363355138836e-06
4.25021428571428e+00 3.12689679526954e-04 8.43895772708922e-06
4.27264285714286e+00 2.97592977214715e-04 8.05268733556131e-06
4.29507142857143e+00 2.83225145847034e-04 7.68399154921251e-06
4.31750000000000e+00 2.69550995430317e-04 7.33207669027888e-06
4.33992857142857e+00 2.56537034921266e-04 6.99618458019555e-06
4.36235714285714e+00 2.44151390285763e-04 6.67559097767228e-06
4.38478571428571e+00 2.32363726343402e-04 6.36960408585305e-06
4.40721428571428e+00 2.21145172500647e-04 6.07756310474120e-06
4.42964285714286e+00 2.10468252040342e-04 5.79883686239249e-06
4.45207142857143e+00 2.00306814825211e-04 5.53282250179371e-06
4.47450000000000e+00 1.90635973250359e-04 5.27894422739125e-06
4.49692857142857e+00 1.81432041269160e-04 5.03665209686399e-06
4.51935714285714e+00 1.72672476439482e-04 4.80542087756259e-06
4.54178571428571e+00 1.64335824651589e-04 4.58474895383423e-06
4.56421428571428e+00 1.56401667603243e-04 4.37415726854026e-06
4.58664285714286e+00 1.48850572790758e-04 4.17318832190383e-06
4.60907142857143e+00 1.41664045914533e-04 3.98140521152269e-06
4.63150000000000e+00 1.34824485582408e-04 3.79839071617855e-06
4.65392857142857e+00 1.28315140187068e-04 3.62374641331241e-06
4.67635714285714e+00 1.22120066917688e-04 3.45709184355667e-06
4.69878571428571e+00 1.16224092671011e-04 3.29806371264027e-06
4.72121428571428e+00 1.10612776903385e-04 3.14631511896264e-06
4.74364285714286e+00 1.05272376262667e-04 3.00151482282594e-06
4.76607142857143e+00 1.00189810927743e-04 2.86334654599867e-06
4.78850000000000e+00 9.53526325731379e-05 2.73150830335562e-06
4.81092857142857e+00 9.07489938714959e-05 2.60571175946743e-06
4.83335714285714e+00 8.63676195042433e-05 2.48568161937729e-06
4.85578571428571e+00 8.21977785174843e-05 2.37115504675756e-06
4.87821428571428e+00 7.82292580493176e-05 2.26188110123601e-06
4.90064285714286e+00 7.44523383162741e-05 2.15762020594820e-06
4.92307142857143e+00 7.08577688074334e-05 2.05814363737543e-06
4.94550000000000e+00 6.74367456278700e-05 1.96323303862339e-06
4.96792857142857e+00 6.41808899299271e-05 1.87267995112676e-06
4.99035714285714e+00 6.10822274103210e-05 1.78628537115503e-06
5.01278571428571e+00 5.81331687598925e-05 1.70385932633305e-06
5.03521428571428e+00 5.53264910824180e-05 1.62522046641450e-06
5.05764285714286e+00 5.26553202041357e-05 1.55019567595744e-06
5.08007142857143e+00 5.01131138373846e-05 1.47861970333347e-06
5.10250000000000e+00 4.76936455570907e-05 1.41033480683343e-06
5.12492857142857e+00 4.53909895467341e-05 1.34519041434003e-06
5.14735714285714e+00 4.31995060975708e-05 1.28304280096960e-06
5.16978571428571e+00 4.11138277824292e-05 1.22375478131568e-06
5.19221428571429e+00 3.91288463142921e-05 1.16719541224979e-06
5.21464285714286e+00 3.72397000349692e-05 1.11323971157396e-06
5.23707142857143e+00 3.54417620078289e-05 1.06176838861800e-06
5.25950000000000e+00 3.37306286854035e-05 1.01266758728486e-06
5.28192857142857e+00 3.21021091212871e-05 9.65828639058590e-07
5.30435714285714e+00 3.05522147144021e-05 9.21147829016197e-07
5.32678571428571e+00 2.90771494309016e-05 8.78526172473966e-07
5.34921428571429e+00 2.76733005099976e-05 8.37869199427618e-07
5.37164285714286e+00 2.63372296155094e-05 7.99086750452917e-07
5.39407142857143e+00 2.50656644146223e-05 7.62092781324556e-07
5.41650000000000e+00 2.38554905632193e-05 7.26805176684363e-07
5.43892857142857e+00 2.27037440762123e-05 6.93145571008350e-07
5.46135714285714e+00 2.16076040741453e-05 6.61039178974421e-07
5.48378571428571e+00 2.05643858679658e-05 6.30414633562955e-07
5.50621428571429e+00 1.95715343857942e-05 6.01203829894710e-07
5.52864285714286e+00 1.86266179149862e-05 5.73341777346235e-07
5.55107142857143e+00 1.77273221463342e-05 5.46766458017474e-07
5.57350000000000e+00 1.68714445058112e-05 5.21418691768779e-07
5.59592857142857e+00 1.60568887586382e-05 4.97242006594048e-07
5.61835714285714e+00 1.52816598793061e-05 4.74182515783208e-07
5.64078571428571e+00 1.45438591610071e-05 4.52188800699762e-07
5.66321428571429e+00 1.38416795667701e-05 4.31211797770981e-07
5.68564285714286e+00 1.31734013036275e-05 4.11204691451387e-07
5.70807142857143e+00 1.25373876104638e-05 3.92122811807225e-07
5.73050000000000e+00 1.19320807492246e-05 3.73923536863982e-07
5.75292857142857e+00 1.13559981887493e-05 3.56566198847878e-07
5.77535714285714e+00 1.08077289765888e-05 3.40011995326421e-07
5.79778571428571e+00 1.02859302803060e-05 3.24223904421005e-07
5.82021428571429e+00 9.78932409960680e-06 3.09166603105707e-07
5.84264285714286e+00 9.31669413623366e-06 2.94806389813038e-07
5.86507142857143e+00 8.86688281498406e-06 2.81111110396550e-07
5.88750000000000e+00 8.43878844855220e-06 2.68050087542831e-07
5.90992857142857e+00 8.03136253861794e-06 2.55594053020321e-07
5.93235714285714e+00 7.64360720981445e-06 2.43715083460358e-07
5.95478571428571e+00 7.27457276367002e-06 2.32386539087832e-07
5.97721428571429e+00 6.92335535329134e-06 2.21583004708246e-07
5.99964285714286e+00 6.58909476964226e-06 2.11280233797904e-07
6.02207142857143e+00 6.27097233470265e-06 2.01455095029504e-07
6.04450000000000e+00 5.96820889634455e-06 1.92085521293146e-07
6.06692857142857e+00 5.68006291957868e-06 1.83150460780895e-07
6.08935714285714e+00 5.40582867172970e-06 1.74629830616183e-07
6.11178571428571e+00 5.14483449253502e-06 1.66504472617509e-07
6.13421428571429e+00 4.89644114958584e-06 1.58756110708882e-07
6.15664285714286e+00 4.66004027270537e-06 1.51367310564482e-07
6.17907142857143e+00 4.43505286391651e-06 1.44321441018140e-07
6.20150000000000e+00 4.22092787934740e-06 1.37602637276370e-07
6.22392857142857e+00 4.01714087930160e-06 1.31195765630390e-07
6.24635714285714e+00 3.82319274472560e-06 1.25086390000359e-07
6.26878571428571e+00 3.63860845378691e-06 1.19260740022451e-07
6.29121428571429e+00 3.46293591877520e-06 1.13705680335776e-07
6.31364285714286e+00 3.29574487883941e-06 1.08408681476878e-07
6.33607142857143e+00 3.13662584618423e-06 1.03357792051749e-07
6.35850000000000e+00 2.98518910314377e-06 9.85416122101699e-08
6.38092857142857e+00 2.84106374746876e-06 9.39492682076154e-08
6.40335714285714e+00 2.70389678455082e-06 8.95703882854267e-08
6.42578571428571e+00 2.57335226219220e-06 8.53950796652919e-08
6.44821428571429e+00 2.44911044801543e-06 8.14139064166506e-08
6.47064285714286e+00 2.33086704636791e-06 7.76178684801088e-08
6.49307142857143e+00 2.21833245303488e-06 7.39983816146955e-08
6.51550000000000e+00 2.11123104593456e-06 7.05472582847714e-08
6.53792857142857e+00 2.00930050991511e-06 6.72566893350734e-08
6.56035714285714e+00 1.91229119473259e-06 6.41192266136996e-08
6.58278571428571e+00 1.81996550314108e-06 6.11277663992244e-08
6.60521428571429e+00 1.73209730912369e-06 5.82755334620407e-08
6.62764285714286e+00 1.64847140405998e-06 5.55560659565210e-08
6.65007142857143e+00 1.56888296963260e-06 5.29632009806630e-08
6.67250000000000e+00 1.49313707618192e-06 5.04910608131884e-08
6.69492857142857e+00 1.42104820518098e-06 4.81340397211943e-08
6.71735714285714e+00 1.35243979516745e-06 4.58867914490719e-08
6.73978571428571e+00 1.28714380898706e-06 4.37442172872751e-08
6.76221428571429e+00 1.22500032234341e-06 4.17014546013209e-08
6.78464285714286e+00 1.16585713210798e-06 3.97538659575875e-08
6.80707142857143e+00 1.10956938354117e-06 3.78970287309683e-08
6.82950000000000e+00 1.05599921551094e-06 3.61267252006044e-08
6.85192857142857e+00 1.00501542277190e-06 3.44389330582546e-08
6.87435714285714e+00 9.56493134827380e-07 3.28298164060270e-08
6.89678571428571e+00 9.10313509873864e-07 3.12957171719381e-08
6.91921428571429e+00 8.66363443807122e-07 2.98331468590656e-08
6.94164285714286e+00 8.24535293205244e-07 2.84387787231856e-08
6.96407142857143e+00 7.84726611686190e-07 2.71094402979924e-08
6.98650000000000e+00 7.46839898993916e-07 2.58421062717284e-08
7.00892857142857e+00 7.10782362151304e-07 2.46338916619795e-08
7.03135714285714e+00 6.76465688336717e-07 2.34820453418125e-08
7.05378571428571e+00 6.43805828434204e-07 2.23839438667913e-08
7.07621428571429e+00 6.12722791231166e-07 2.13370855435436e-08
