Energy (eV)          EEDF (eV^-(3/2))     First Anisotropy
7.39285714285714e-04 1.47455207399544e+01 7.90497578206634e-03
2.21785714285714e-03 1.46247227388915e+01 1.30437445923067e-02
3.69642857142857e-03 1.45049143371338e+01 1.71937621211342e-02
5.17500000000000e-03 1.43860874277322e+01 2.03311106102363e-02
6.65357142857143e-03 1.42682339702837e+01 2.29349412293028e-02
8.13214285714286e-03 1.41513459898704e+01 2.51867665418684e-02
9.61071428571428e-03 1.40354155771366e+01 2.71806925805864e-02
1.10892857142857e-02 1.39204348875181e+01 2.89736493191436e-02
1.25678571428571e-02 1.38063961409385e+01 3.06034607047546e-02
1.40464285714286e-02 1.36932916200594e+01 3.20969068405596e-02
1.55250000000000e-02 1.35811136723262e+01 3.34738463308252e-02
1.70035714285714e-02 1.34698547070213e+01 3.47495341974402e-02
1.84821428571429e-02 1.33595071956307e+01 3.59360201861100e-02
1.99607142857143e-02 1.32500636708599e+01 3.70430397407651e-02
2.14392857142857e-02 1.31415167275940e+01 3.80786071361290e-02
2.29178571428571e-02 1.30338590208389e+01 3.90494246691768e-02
2.43964285714286e-02 1.29270832654079e+01 3.99611732244330e-02
2.58750000000000e-02 1.28211822366000e+01 4.08187243354329e-02
2.73535714285714e-02 1.27161487684751e+01 4.16262981633573e-02
2.88321428571429e-02 1.26119757538020e+01 4.23875833441403e-02
3.03107142857143e-02 1.25086561432856e+01 4.31058295306853e-02
3.17892857142857e-02 1.24061829459905e+01 4.37839199966162e-02
3.32678571428571e-02 1.23045492279299e+01 4.44244293103862e-02
3.47464285714286e-02 1.22037481116774e+01 4.50296694642538e-02
3.62250000000000e-02 1.21037727766688e+01 4.56017275325999e-02
3.77035714285714e-02 1.20046164579440e+01 4.61424965327239e-02
3.91821428571429e-02 1.19062724459639e+01 4.66537008642684e-02
4.06607142857143e-02 1.18087340859518e+01 4.71369175319703e-02
4.21392857142857e-02 1.17119947780730e+01 4.75935940524596e-02
4.36178571428571e-02 1.16160479763382e+01 4.80250636264946e-02
4.50964285714286e-02 1.15208871882055e+01 4.84325578837928e-02
4.65750000000000e-02 1.14265059746962e+01 4.88172179661465e-02
4.80535714285714e-02 1.13328979493870e+01 4.91801040563434e-02
4.95321428571429e-02 1.12400567781741e+01 4.95222035507718e-02
5.10107142857143e-02 1.11479761786904e+01 4.98444381733199e-02
5.24892857142857e-02 1.10566499203525e+01 5.01476702551421e-02
5.39678571428571e-02 1.09660718234551e+01 5.04327082635468e-02
5.54464285714286e-02 1.08762357587802e+01 5.07003115246001e-02
5.69250000000000e-02 1.07871356476078e+01 5.09511945430987e-02
5.84035714285714e-02 1.06987654608686e+01 5.11860308221154e-02
5.98821428571429e-02 1.06111192188853e+01 5.14054561986706e-02
6.13607142857143e-02 1.05241909908463e+01 5.16100718277981e-02
6.28392857142857e-02 1.04379748947747e+01 5.18004469118909e-02
6.43178571428571e-02 1.03524650967517e+01 5.19771211690646e-02
6.57964285714286e-02 1.02676558105418e+01 5.21406069285111e-02
6.72750000000000e-02 1.01835412975377e+01 5.22913911488658e-02
6.87535714285714e-02 1.01001158660278e+01 5.24299372335211e-02
7.02321428571429e-02 1.00173738709285e+01 5.25566866215684e-02
7.17107142857143e-02 9.93530971330400e+00 5.26720602391338e-02
7.31892857142857e-02 9.85391784028602e+00 5.27764598717572e-02
7.46678571428571e-02 9.77319274439376e+00 5.28702694321709e-02
7.61464285714286e-02 9.69312896317536e+00 5.29538560078997e-02
7.76250000000000e-02 9.61372107911232e+00 5.30275709328610e-02
7.91035714285714e-02 9.53496371897351e+00 5.30917507609598e-02
8.05821428571429e-02 9.45685155354639e+00 5.31467181121991e-02
8.20607142857143e-02 9.37937929719598e+00 5.31927824563192e-02
8.35392857142857e-02 9.30254170775250e+00 5.32302408801781e-02
8.50178571428571e-02 9.22633358590686e+00 5.32593788097942e-02
8.64964285714286e-02 9.15074977486933e+00 5.32804705790699e-02
8.79750000000000e-02 9.07578516024807e+00 5.32937800558985e-02
8.94535714285714e-02 9.00143466947154e+00 5.32995612138798e-02
9.09321428571429e-02 8.92769327152368e+00 5.32980586197246e-02
9.24107142857143e-02 8.85455597653612e+00 5.32895078903707e-02
9.38892857142857e-02 8.78201783565586e+00 5.32741361583305e-02
9.53678571428571e-02 8.71007394050157e+00 5.32521625171080e-02
9.68464285714286e-02 8.63871942283959e+00 5.32237983481643e-02
9.83250000000000e-02 8.56794945444607e+00 5.31892477150754e-02
9.98035714285714e-02 8.49775924658550e+00 5.31487077147295e-02
1.01282142857143e-01 8.42814404981108e+00 5.31023688493552e-02
1.02760714285714e-01 8.35909915311854e+00 5.30504151151455e-02
1.04239285714286e-01 8.29061988508886e+00 5.29930244529676e-02
1.05717857142857e-01 8.22270161197259e+00 5.29303692394225e-02
1.07196428571429e-01 8.15533973745106e+00 5.28626160184283e-02
1.08675000000000e-01 8.08852970394429e+00 5.27899260963033e-02
1.10153571428571e-01 8.02226699014436e+00 5.27124556852849e-02
1.11632142857143e-01 7.95654711282705e+00 5.26303560992944e-02
1.13110714285714e-01 7.89136562447058e+00 5.25437739671800e-02
1.14589285714286e-01 7.82671811499383e+00 5.24528513267279e-02
1.16067857142857e-01 7.76260020993139e+00 5.23577261375662e-02
1.17546428571429e-01 7.69900757019767e+00 5.22585319568298e-02
1.19025000000000e-01 7.63593589318692e+00 5.21553984225541e-02
1.20503571428571e-01 7.57338091062454e+00 5.20484513344557e-02
1.21982142857143e-01 7.51133839010249e+00 5.19378127852669e-02
1.23460714285714e-01 7.44980413300121e+00 5.18236013109172e-02
1.24939285714286e-01 7.38877397596544e+00 5.17059319360595e-02
1.26417857142857e-01 7.32824378930487e+00 5.15849166008530e-02
1.27896428571429e-01 7.26820947676386e+00 5.14606638335721e-02
1.29375000000000e-01 7.20866697645330e+00 5.13332791555282e-02
1.30853571428571e-01 7.14961225896436e+00 5.12028651242643e-02
1.32332142857143e-01 7.09104132867963e+00 5.10695214244162e-02
1.33810714285714e-01 7.03295022194600e+00 5.09333449773855e-02
1.35289285714286e-01 6.97533500833672e+00 5.07944299579087e-02
1.36767857142857e-01 6.91819178923977e+00 5.06528681579293e-02
1.38246428571429e-01 6.86151669763466e+00 5.05087486679399e-02
1.39725000000000e-01 6.80530589888668e+00 5.03621582238256e-02
1.41203571428571e-01 6.74955558908030e+00 5.02131812269047e-02
1.42682142857143e-01 6.69426199614573e+00 5.00618998084006e-02
1.44160714285714e-01 6.63942137824241e+00 4.99083939120091e-02
1.45639285714286e-01 6.58503002484484e+00 4.97527412928800e-02
1.47117857142857e-01 6.53108425548891e+00 4.95950178334341e-02
1.48596428571429e-01 6.47758041955697e+00 4.94352972392093e-02
1.50075000000000e-01 6.42451489695807e+00 4.92736513408951e-02
1.51553571428571e-01 6.37188409664734e+00 4.91101500998612e-02
1.53032142857143e-01 6.31968445759904e+00 4.89448616548456e-02
1.54510714285714e-01 6.26791244736881e+00 4.87778523857403e-02
1.55989285714286e-01 6.21656456303253e+00 4.86091869018573e-02
1.57467857142857e-01 6.16563733006733e+00 4.84389283197074e-02
1.58946428571429e-01 6.11512730214533e+00 4.82671379759169e-02
1.60425000000000e-01 6.06503106171870e+00 4.80938756935213e-02
1.61903571428571e-01 6.01534521869806e+00 4.79191997783271e-02
1.63382142857143e-01 5.96606641129665e+00 4.77431670532814e-02
1.64860714285714e-01 5.91719130474579e+00 4.75658329088485e-02
1.66339285714286e-01 5.86871659211012e+00 4.73872512848166e-02
1.67817857142857e-01 5.82063899328440e+00 4.72074749170950e-02
1.69296428571429e-01 5.77295525479612e+00 4.70265550685685e-02
1.70775000000000e-01 5.72566215031054e+00 4.68445417660880e-02
1.72253571428571e-01 5.67875647944615e+00 4.66614837910590e-02
1.73732142857143e-01 5.63223506850990e+00 4.64774287050842e-02
1.75210714285714e-01 5.58609476934481e+00 4.62924228905173e-02
1.76689285714286e-01 5.54033246004065e+00 4.61065115285048e-02
1.78167857142857e-01 5.49494504403106e+00 4.59197388199615e-02
1.79646428571429e-01 5.44992944990500e+00 4.57321477342914e-02
1.81125000000000e-01 5.40528263184415e+00 4.55437802218353e-02
1.82603571428571e-01 5.36100156855721e+00 4.53546772008928e-02
1.84082142857143e-01 5.31708326392252e+00 4.51648785770650e-02
1.85560714285714e-01 5.27352474595056e+00 4.49744232764149e-02
1.87039285714286e-01 5.23032306740553e+00 4.47833492215018e-02
1.88517857142857e-01 5.18747530498988e+00 4.45916935304538e-02
1.89996428571429e-01 5.14497855916468e+00 4.43994922829428e-02
1.91475000000000e-01 5.10282995452932e+00 4.42067807117531e-02
1.92953571428571e-01 5.06102663885969e+00 4.40135931876798e-02
1.94432142857143e-01 5.01956578367151e+00 4.38199632342314e-02
1.95910714285714e-01 4.97844458328334e+00 4.36259235551263e-02
1.97389285714286e-01 4.93766025536179e+00 4.34315060094668e-02
1.98867857142857e-01 4.89721004018279e+00 4.32367417919530e-02
2.00346428571429e-01 4.85709120046069e+00 4.30416612152510e-02
2.01825000000000e-01 4.81730102167856e+00 4.28462938835423e-02
2.03303571428571e-01 4.77783681121767e+00 4.26506686762670e-02
2.04782142857143e-01 4.73869589885260e+00 4.24548137593634e-02
2.06260714285714e-01 4.69987563590265e+00 4.22587566083497e-02
2.07739285714286e-01 4.66137339571125e+00 4.20625239833705e-02
2.09217857142857e-01 4.62318657297501e+00 4.18661420929825e-02
2.10696428571429e-01 4.58531258358125e+00 4.16696363919601e-02
2.12175000000000e-01 4.54774886489586e+00 4.14730317391038e-02
2.13653571428571e-01 4.51049287497345e+00 4.12763523804885e-02
2.15132142857143e-01 4.47354209299338e+00 4.10796219580851e-02
2.16610714285714e-01 4.43689401848943e+00 4.08828635293326e-02
2.18089285714286e-01 4.40054617177224e+00 4.06860995425445e-02
2.19567857142857e-01 4.36449609331843e+00 4.04893519862494e-02
2.21046428571429e-01 4.32874134361632e+00 4.02926422014296e-02
2.22525000000000e-01 4.29327950341718e+00 4.00959910254673e-02
2.24003571428571e-01 4.25810817301688e+00 3.98994187753291e-02
2.25482142857143e-01 4.22322497264076e+00 3.97029452541857e-02
2.26960714285714e-01 4.18862754174264e+00 3.95065897681623e-02
2.28439285714286e-01 4.15431353937786e+00 3.93103711024197e-02
2.29917857142857e-01 4.12028064364594e+00 3.91143076576941e-02
2.31396428571429e-01 4.08652655154402e+00 3.89184172759628e-02
2.32875000000000e-01 4.05304897918661e+00 3.87227173720940e-02
2.34353571428571e-01 4.01984566115079e+00 3.85272249172636e-02
2.35832142857143e-01 3.98691435081656e+00 3.83319564440348e-02
2.37310714285714e-01 3.95425281972768e+00 3.81369280608019e-02
2.38789285714286e-01 3.92185885792162e+00 3.79421554287365e-02
2.40267857142857e-01 3.88973027342001e+00 3.77476538869148e-02
2.41746428571429e-01 3.85786489208971e+00 3.75534382904500e-02
2.43225000000000e-01 3.82626055783499e+00 3.73595231311706e-02
2.44703571428571e-01 3.79491513199967e+00 3.71659225214591e-02
2.46182142857143e-01 3.76382649366850e+00 3.69726501981230e-02
2.47660714285714e-01 3.73299253908331e+00 3.67797195349481e-02
2.49139285714286e-01 3.70241118193536e+00 3.65871435206259e-02
2.50617857142857e-01 3.67208035289858e+00 3.63949348736438e-02
2.52096428571429e-01 3.64199799949795e+00 3.62031058919769e-02
2.53575000000000e-01 3.61216208627770e+00 3.60116685639109e-02
2.55053571428571e-01 3.58257059425448e+00 3.58206345524396e-02
2.56532142857143e-01 3.55322152118464e+00 3.56300151981928e-02
2.58010714285714e-01 3.52411288103000e+00 3.54398215303999e-02
2.59489285714286e-01 3.49524270421712e+00 3.52500642458634e-02
2.60967857142857e-01 3.46660903720925e+00 3.50607538146317e-02
2.62446428571429e-01 3.43820994238149e+00 3.48719003403965e-02
2.63925000000000e-01 3.41004349816821e+00 3.46835136624361e-02
2.65403571428571e-01 3.38210779856203e+00 3.44956033406371e-02
2.66882142857143e-01 3.35440095335120e+00 3.43081786576862e-02
2.68360714285714e-01 3.32692108762993e+00 3.41212486286996e-02
2.69839285714286e-01 3.29966634202874e+00 3.39348219812655e-02
2.71317857142857e-01 3.27263487232114e+00 3.37489072527803e-02
2.72796428571429e-01 3.24582484930543e+00 3.35635126607454e-02
2.74275000000000e-01 3.21923445893390e+00 3.33786461966899e-02
2.75753571428571e-01 3.19286190185309e+00 3.31943156118669e-02
2.77232142857143e-01 3.16670539361485e+00 3.30105284188481e-02
2.78710714285714e-01 3.14076316422693e+00 3.28272919000252e-02
2.80189285714286e-01 3.11503345835778e+00 3.26446130887212e-02
2.81667857142857e-01 3.08951453497472e+00 3.24624988589644e-02
2.83146428571429e-01 3.06420466723200e+00 3.22809558049531e-02
2.84625000000000e-01 3.03910214258405e+00 3.20999903276908e-02
2.86103571428571e-01 3.01420526236314e+00 3.19196086213719e-02
2.87582142857143e-01 2.98951234196711e+00 3.17398166745144e-02
2.89060714285714e-01 2.96502171044640e+00 3.15606202774924e-02
2.90539285714286e-01 2.94073171068636e+00 3.13820250046924e-02
2.92017857142857e-01 2.91664069907386e+00 3.12040362974140e-02
2.93496428571429e-01 2.89274704539145e+00 3.10266593518132e-02
2.94975000000000e-01 2.86904913291650e+00 3.08498991989103e-02
2.96453571428571e-01 2.84554535803276e+00 3.06737606916684e-02
2.97932142857143e-01 2.82223413039754e+00 3.04982485057552e-02
2.99410714285714e-01 2.79911387256171e+00 3.03233671462455e-02
3.00889285714286e-01 2.77618302013209e+00 3.01491209307908e-02
3.02367857142857e-01 2.75344002146403e+00 2.99755140662500e-02
3.03846428571429e-01 2.73088333756117e+00 2.98025505444847e-02
3.05325000000000e-01 2.70851144216239e+00 2.96302342163176e-02
3.06803571428571e-01 2.68632282138401e+00 2.94585687792991e-02
3.08282142857143e-01 2.66431597386880e+00 2.92875577781740e-02
3.09760714285714e-01 2.64248941043598e+00 2.91172046108598e-02
3.11239285714286e-01 2.62084165422587e+00 2.89475125125959e-02
3.12717857142857e-01 2.59937124041619e+00 2.87784846268451e-02
3.14196428571429e-01 2.57807671612715e+00 2.86101239083578e-02
3.15675000000000e-01 2.55695664049762e+00 2.84424331916024e-02
3.17153571428571e-01 2.53600958435523e+00 2.82754151792003e-02
3.18632142857143e-01 2.51523413034931e+00 2.81090724421547e-02
3.20110714285714e-01 2.49462887262808e+00 2.79434074252053e-02
3.21589285714286e-01 2.47419241696772e+00 2.77784224319136e-02
3.23067857142857e-01 2.45392338051014e+00 2.76141196903188e-02
3.24546428571429e-01 2.43382039167324e+00 2.74505012627302e-02
3.26025000000000e-01 2.41388209021753e+00 2.72875691090905e-02
3.27503571428571e-01 2.39410712694173e+00 2.71253250760665e-02
3.28982142857143e-01 2.37449416380134e+00 2.69637708970923e-02
3.30460714285714e-01 2.35504187361072e+00 2.68029081971674e-02
3.31939285714286e-01 2.33574894015821e+00 2.66427384788381e-02
3.33417857142857e-01 2.31661405796360e+00 2.64832631830449e-02
3.34896428571429e-01 2.29763593219326e+00 2.63244836051410e-02
3.36375000000000e-01 2.27881327871836e+00 2.61664009536196e-02
3.37853571428571e-01 2.26014482383374e+00 2.60090163398277e-02
3.39332142857143e-01 2.24162930436369e+00 2.58523307778561e-02
3.40810714285714e-01 2.22326546738672e+00 2.56963451888566e-02
3.42289285714286e-01 2.20505207033837e+00 2.55410603878743e-02
3.43767857142857e-01 2.18698788078663e+00 2.53864771402707e-02
3.45246428571429e-01 2.16907167635170e+00 2.52325960835215e-02
3.46725000000000e-01 2.15130224475681e+00 2.50794177816803e-02
3.48203571428571e-01 2.13367838356835e+00 2.49269427156841e-02
3.49682142857143e-01 2.11619890029029e+00 2.47751712831305e-02
3.51160714285714e-01 2.09886261210969e+00 2.46241038021697e-02
3.52639285714286e-01 2.08166834598850e+00 2.44737404991332e-02
3.54117857142857e-01 2.06461493845550e+00 2.43240815608960e-02
3.55596428571429e-01 2.04770123553041e+00 2.41751270620308e-02
3.57075000000000e-01 2.03092609276820e+00 2.40268770153491e-02
3.58553571428571e-01 2.01428837501865e+00 2.38793313627700e-02
3.60032142857143e-01 1.99778695651067e+00 2.37324899750114e-02
3.61510714285714e-01 1.98142072061682e+00 2.35863526551027e-02
3.62989285714286e-01 1.96518855993525e+00 2.34409191267704e-02
3.64467857142857e-01 1.94908937609680e+00 2.32961890830599e-02
3.65946428571429e-01 1.93312207969330e+00 2.31521621184501e-02
3.67425000000000e-01 1.91728559031605e+00 2.30088377757855e-02
3.68903571428571e-01 1.90157883633326e+00 2.28662155376915e-02
3.70382142857143e-01 1.88600075496532e+00 2.27242948261864e-02
3.71860714285714e-01 1.87055029206672e+00 2.25830750058604e-02
3.73339285714286e-01 1.85522640219928e+00 2.24425553729775e-02
3.74817857142857e-01 1.84002804845314e+00 2.23027352006422e-02
3.76296428571429e-01 1.82495420237893e+00 2.21636136755295e-02
3.77775000000000e-01 1.81000384402131e+00 2.20251899414847e-02
3.79253571428571e-01 1.79517596171258e+00 2.18874630914443e-02
3.80732142857143e-01 1.78046955214003e+00 2.17504321669995e-02
3.82210714285714e-01 1.76588362014384e+00 2.16140961612774e-02
3.83689285714286e-01 1.75141717878241e+00 2.14784540087109e-02
3.85167857142857e-01 1.73706924916619e+00 2.13435046270242e-02
3.86646428571429e-01 1.72283886039361e+00 2.12092468582396e-02
3.88125000000000e-01 1.70872504958006e+00 2.10756795092044e-02
3.89603571428571e-01 1.69472686166659e+00 2.09428013439972e-02
3.91082142857143e-01 1.68084334948002e+00 2.08106110834479e-02
3.92560714285714e-01 1.66707357354554e+00 2.06791074077527e-02
3.94039285714286e-01 1.65341660214505e+00 2.05482889468767e-02
3.95517857142857e-01 1.63987151116282e+00 2.04181543196005e-02
3.96996428571429e-01 1.62643738402486e+00 2.02887020784979e-02
3.98475000000000e-01 1.61311331172402e+00 2.01599307476212e-02
3.99953571428571e-01 1.59989839264243e+00 2.00318388153682e-02
4.01432142857143e-01 1.58679173260528e+00 1.99044247339741e-02
4.02910714285714e-01 1.57379244470679e+00 1.97776869218828e-02
4.04389285714286e-01 1.56089964936246e+00 1.96516237547479e-02
4.05867857142857e-01 1.54811247416546e+00 1.95262336017565e-02
4.07346428571429e-01 1.53543005382944e+00 1.94015147742998e-02
4.08825000000000e-01 1.52285153021004e+00 1.92774655610350e-02
4.10303571428571e-01 1.51037605214014e+00 1.91540842211818e-02
4.11782142857143e-01 1.49800277547779e+00 1.90313689839965e-02
4.13260714285714e-01 1.48573086294472e+00 1.89093180509256e-02
4.14739285714286e-01 1.47355948417293e+00 1.87879295871648e-02
4.16217857142857e-01 1.46148781557115e+00 1.86672017554684e-02
4.17696428571429e-01 1.44951504027076e+00 1.85471326682505e-02
4.19175000000000e-01 1.43764034814427e+00 1.84277204202198e-02
4.20653571428571e-01 1.42586293565223e+00 1.83089630820805e-02
4.22132142857143e-01 1.41418200588607e+00 1.81908586999930e-02
4.23610714285714e-01 1.40259676841803e+00 1.80734052975355e-02
4.25089285714286e-01 1.39110643934277e+00 1.79566008677875e-02
4.26567857142857e-01 1.37971024115310e+00 1.78404434048085e-02
4.28046428571429e-01 1.36840740268886e+00 1.77249308589304e-02
4.29525000000000e-01 1.35719715915270e+00 1.76100611671434e-02
4.31003571428571e-01 1.34607875196777e+00 1.74958322471781e-02
4.32482142857143e-01 1.33505142881601e+00 1.73822419969604e-02
4.33960714285714e-01 1.32411444349857e+00 1.72692882964002e-02
4.35439285714286e-01 1.31326705597303e+00 1.71569689999654e-02
4.36917857142857e-01 1.30250853223763e+00 1.70452819660015e-02
4.38396428571429e-01 1.29183814428301e+00 1.69342250149923e-02
4.39875000000000e-01 1.28125517010554e+00 1.68237959578627e-02
4.41353571428571e-01 1.27075889357508e+00 1.67139925904196e-02
4.42832142857143e-01 1.26034860446900e+00 1.66048126928063e-02
4.44310714285714e-01 1.25002359834255e+00 1.64962540311319e-02
4.45789285714286e-01 1.23978317656189e+00 1.63883143505083e-02
4.47267857142857e-01 1.22962664619636e+00 1.62809914023697e-02
4.48746428571429e-01 1.21955331997282e+00 1.61742829054916e-02
4.50225000000000e-01 1.20956251628692e+00 1.60681865723631e-02
4.51703571428571e-01 1.19965355908004e+00 1.59627001039675e-02
4.53182142857143e-01 1.18982577786963e+00 1.58578211892379e-02
4.54660714285714e-01 1.18007850762859e+00 1.57535475065451e-02
4.56139285714286e-01 1.17041108881471e+00 1.56498767171647e-02
4.57617857142857e-01 1.16082286727029e+00 1.55468064907421e-02
4.59096428571429e-01 1.15131319417898e+00 1.54443344688834e-02
4.60575000000000e-01 1.14188142607521e+00 1.53424582897336e-02
4.62053571428571e-01 1.13252692472963e+00 1.52411755830751e-02
4.63532142857143e-01 1.12324905717615e+00 1.51404839697891e-02
4.65010714285714e-01 1.11404719559966e+00 1.50403810632150e-02
4.66489285714286e-01 1.10492071736226e+00 1.49408644630244e-02
