Energy (eV)          EEDF (eV^-(3/2))     First Anisotropy
1.28846153846154e-02 1.47533207035531e-01 7.66759118040379e-05
3.86538461538462e-02 1.46554894268053e-01 1.26619597714476e-04
6.44230769230769e-02 1.45583068827614e-01 1.67167779337903e-04
9.01923076923077e-02 1.44617687693315e-01 1.97982032821000e-04
1.15961538461538e-01 1.43658708133122e-01 2.23689358646734e-04
1.41730769230769e-01 1.42706087694899e-01 2.46038531450910e-04
1.67500000000000e-01 1.41759784211042e-01 2.65934231534496e-04
1.93269230769231e-01 1.40819755798774e-01 2.83922585402857e-04
2.19038461538462e-01 1.39885960841620e-01 3.00365673009952e-04
2.44807692307692e-01 1.38958358004892e-01 3.15519319189520e-04
2.70576923076923e-01 1.38036906227915e-01 3.29572835920882e-04
2.96346153846154e-01 1.37121564725584e-01 3.42671349464941e-04
3.22115384615385e-01 1.36212292976525e-01 3.54929258958024e-04
3.47884615384615e-01 1.35309050731497e-01 3.66438804617091e-04
3.73653846153846e-01 1.34411798008071e-01 3.77275767296007e-04
3.99423076923077e-01 1.33520495089006e-01 3.87503395766344e-04
4.25192307692308e-01 1.32635102522583e-01 3.97175196792767e-04
4.50961538461538e-01 1.31755581114238e-01 4.06336966362191e-04
4.76730769230769e-01 1.30881891931555e-01 4.15028301700176e-04
5.02500000000000e-01 1.30013996300294e-01 4.23283749342778e-04
5.28269230769231e-01 1.29151855804349e-01 4.31133690793401e-04
5.54038461538462e-01 1.28295432278937e-01 4.38605035213063e-04
5.79807692307692e-01 1.27444687814078e-01 4.45721768842395e-04
6.05576923076923e-01 1.26599584751169e-01 4.52505396824704e-04
6.31346153846154e-01 1.25760085682688e-01 4.58975301653957e-04
6.57115384615385e-01 1.24926153446421e-01 4.65149036195619e-04
6.82884615384615e-01 1.24097751127974e-01 4.71042565808255e-04
7.08653846153846e-01 1.23274842057718e-01 4.76670470949186e-04
7.34423076923077e-01 1.22457389809200e-01 4.82046116445943e-04
7.60192307692308e-01 1.21645358198604e-01 4.87181795354341e-04
7.85961538461538e-01 1.20838711279841e-01 4.92088850589492e-04
8.11730769230769e-01 1.20037413346297e-01 4.96777778952794e-04
8.37500000000000e-01 1.19241428928140e-01 5.01258321264452e-04
8.63269230769231e-01 1.18450722791668e-01 5.05539540287438e-04
8.89038461538462e-01 1.17665259934941e-01 5.09629887906687e-04
9.14807692307692e-01 1.16885005589071e-01 5.13537263727880e-04
9.40576923076923e-01 1.16109925215721e-01 5.17269067016822e-04
9.66346153846154e-01 1.15339984506390e-01 5.20832242387690e-04
9.92115384615385e-01 1.14575149378459e-01 5.24233319671097e-04
1.01788461538462e+00 1.13815385976134e-01 5.27478449099218e-04
1.04365384615385e+00 1.13060660668836e-01 5.30573433615985e-04
1.06942307692308e+00 1.12310940048237e-01 5.33523756976342e-04
1.09519230769231e+00 1.11566190927548e-01 5.36334608766992e-04
1.12096153846154e+00 1.10826380340048e-01 5.39010907223538e-04
1.14673076923077e+00 1.10091475537626e-01 5.41557319649165e-04
1.17250000000000e+00 1.09361443989327e-01 5.43978281961808e-04
1.19826923076923e+00 1.08636253373868e-01 5.46278011965549e-04
1.22403846153846e+00 1.07915871596574e-01 5.48460526753394e-04
1.24980769230769e+00 1.07200266769358e-01 5.50529658730421e-04
1.27557692307692e+00 1.06489407215585e-01 5.52489064650963e-04
1.30134615384615e+00 1.05783261468678e-01 5.54342238203219e-04
1.32711538461538e+00 1.05081798270718e-01 5.56092520449514e-04
1.35288461538462e+00 1.04384986571062e-01 5.57743109394104e-04
1.37865384615385e+00 1.03692795524962e-01 5.59297068758856e-04
1.40442307692308e+00 1.03005194492216e-01 5.60757336056968e-04
1.43019230769231e+00 1.02322153035803e-01 5.62126730033850e-04
1.45596153846154e+00 1.01643640920536e-01 5.63407957525495e-04
1.48173076923077e+00 1.00969628111721e-01 5.64603619797961e-04
1.50750000000000e+00 1.00300084773830e-01 5.65716219322758e-04
1.53326923076923e+00 9.96349812648514e-02 5.66748162466196e-04
1.55903846153846e+00 9.89742881480985e-02 5.67701766384512e-04
1.58480769230769e+00 9.83179761776436e-02 5.68579265567393e-04
1.61057692307692e+00 9.76660163014933e-02 5.69382813395244e-04
1.63634615384615e+00 9.70183796603032e-02 5.70114487148758e-04
1.66211538461538e+00 9.63750375860996e-02 5.70776291802527e-04
1.68788461538462e+00 9.57359616010108e-02 5.71370163569715e-04
1.71365384615385e+00 9.51011234160001e-02 5.71897973212517e-04
1.73942307692308e+00 9.44704949296266e-02 5.72361529143977e-04
1.76519230769231e+00 9.38440482267947e-02 5.72762580337975e-04
1.79096153846154e+00 9.32217555775177e-02 5.73102819054832e-04
1.81673076923077e+00 9.26035894356912e-02 5.73383883402383e-04
1.84250000000000e+00 9.19895224378730e-02 5.73607360498114e-04
1.86826923076923e+00 9.13795273988192e-02 5.73774786454359e-04
1.89403846153846e+00 9.07735773201319e-02 5.73887650044338e-04
1.91980769230769e+00 9.01716453791176e-02 5.73947396252788e-04
1.94557692307692e+00 8.95737049309485e-02 5.73955425845963e-04
1.97134615384615e+00 8.89797295074823e-02 5.73913097945526e-04
1.99711538461538e+00 8.83896928160914e-02 5.73821731722348e-04
2.02288461538462e+00 8.78035687384984e-02 5.73682607999652e-04
2.04865384615385e+00 8.72213313296159e-02 5.73496970767626e-04
2.07442307692308e+00 8.66429548164069e-02 5.73266028620309e-04
2.10019230769231e+00 8.60684135967390e-02 5.72990956120025e-04
2.12596153846154e+00 8.54976822382514e-02 5.72672895088838e-04
2.15173076923077e+00 8.49307354772292e-02 5.72312955835699e-04
2.17750000000000e+00 8.43675482174848e-02 5.71912218959525e-04
2.20326923076923e+00 8.38080955267198e-02 5.71471734533812e-04
2.22903846153846e+00 8.32523526430694e-02 5.70992524453090e-04
2.25480769230769e+00 8.27002949662904e-02 5.70475584736729e-04
2.28057692307692e+00 8.21518980592674e-02 5.69921884522253e-04
2.30634615384615e+00 8.16071376469312e-02 5.69332367636062e-04
2.33211538461538e+00 8.10659896151841e-02 5.68707953463281e-04
2.35788461538462e+00 8.05284300098324e-02 5.68049537778445e-04
2.38365384615385e+00 7.99944350355235e-02 5.67357993536553e-04
2.40942307692308e+00 7.94639810546982e-02 5.66634171630439e-04
2.43519230769231e+00 7.89370445865413e-02 5.65878901616193e-04
2.46096153846154e+00 7.84136023059423e-02 5.65092992404876e-04
2.48673076923077e+00 7.78936310424630e-02 5.64277232925134e-04
2.51250000000000e+00 7.73771077793114e-02 5.63432393301748e-04
2.53826923076923e+00 7.68640096503130e-02 5.62559223820479e-04
2.56403846153846e+00 7.63543139449788e-02 5.61658456613045e-04
2.58980769230769e+00 7.58479981013692e-02 5.60730807325837e-04
2.61557692307692e+00 7.53450397071560e-02 5.59776973979791e-04
2.64134615384615e+00 7.48454164986303e-02 5.58797638047104e-04
2.66711538461538e+00 7.43491063597174e-02 5.57793464945178e-04
2.69288461538462e+00 7.38560873209970e-02 5.56765104511633e-04
2.71865384615385e+00 7.33663375587295e-02 5.55713191459136e-04
2.74442307692308e+00 7.28798353938936e-02 5.54638345813937e-04
2.77019230769231e+00 7.23965592912248e-02 5.53541173338649e-04
2.79596153846154e+00 7.19164878582618e-02 5.52422265937565e-04
2.82173076923077e+00 7.14395998443999e-02 5.51282202047353e-04
2.84750000000000e+00 7.09658741399502e-02 5.50121547482069e-04
2.87326923076923e+00 7.04952897735769e-02 5.48940854380122e-04
2.89903846153846e+00 7.00278259162913e-02 5.47740662502903e-04
2.92480769230769e+00 6.95634618755690e-02 5.46521500528399e-04
2.95057692307692e+00 6.91021770961007e-02 5.45283884932303e-04
2.97634615384615e+00 6.86439511588823e-02 5.44028320785701e-04
3.00211538461538e+00 6.81887637803109e-02 5.42755302057635e-04
3.02788461538462e+00 6.77365948112873e-02 5.41465311907514e-04
3.05365384615385e+00 6.72874242363220e-02 5.40158822966345e-04
3.07942307692308e+00 6.68412321726530e-02 5.38836297609323e-04
3.10519230769231e+00 6.63979988693632e-02 5.37498188220099e-04
3.13096153846154e+00 6.59577047065071e-02 5.36144937444882e-04
3.15673076923077e+00 6.55203301942415e-02 5.34776978438745e-04
3.18250000000000e+00 6.50858559719631e-02 5.33394735510719e-04
3.20826923076923e+00 6.46542628061150e-02 5.31998623126111e-04
3.23403846153846e+00 6.42255315933747e-02 5.30589046952985e-04
3.25980769230769e+00 6.37996433557385e-02 5.29166404908373e-04
3.28557692307692e+00 6.33765792410487e-02 5.27731086115104e-04
3.31134615384615e+00 6.29563205221590e-02 5.26283471524572e-04
3.33711538461538e+00 6.25388485961052e-02 5.24823934113151e-04
3.36288461538462e+00 6.21241449832821e-02 5.23352839072814e-04
3.38865384615385e+00 6.17121913266243e-02 5.21870543995057e-04
3.41442307692308e+00 6.13029693907958e-02 5.20377399049892e-04
3.44019230769231e+00 6.08964610613815e-02 5.18873747160179e-04
3.46596153846154e+00 6.04926483440857e-02 5.17359924169733e-04
3.49173076923077e+00 6.00915133639353e-02 5.15836259006824e-04
3.51750000000000e+00 5.96930383644887e-02 5.14303074197993e-04
3.54326923076923e+00 5.92972057059402e-02 5.12760684950630e-04
3.56903846153846e+00 5.89039978676913e-02 5.11209400020702e-04
3.59480769230769e+00 5.85133974441991e-02 5.09649522582695e-04
3.62057692307692e+00 5.81253871453394e-02 5.08081349278500e-04
3.64634615384615e+00 5.77399497956409e-02 5.06505170721036e-04
3.67211538461538e+00 5.73570683335254e-02 5.04921271627658e-04
3.69788461538462e+00 5.69767258105525e-02 5.03329930950298e-04
3.72365384615385e+00 5.65989053906684e-02 5.01731422001220e-04
3.74942307692308e+00 5.62235903494622e-02 5.00126012575674e-04
3.77519230769231e+00 5.58507640734252e-02 4.98513965071975e-04
3.80096153846154e+00 5.54804100592150e-02 4.96895536607442e-04
3.82673076923077e+00 5.51125119129251e-02 4.95270979131524e-04
3.85250000000000e+00 5.47470533493593e-02 4.93640539847205e-04
3.87826923076923e+00 5.43840181903814e-02 4.92004460379126e-04
3.90403846153846e+00 5.40233903670067e-02 4.90362977507216e-04
3.92980769230769e+00 5.36651539158632e-02 4.88716323903449e-04
3.95557692307692e+00 5.33092929794345e-02 4.87064727273600e-04
3.98134615384615e+00 5.29557918053574e-02 4.85408410774821e-04
4.00711538461538e+00 5.26046347457249e-02 4.83747593109786e-04
4.03288461538462e+00 5.22558062563935e-02 4.82082488618611e-04
4.05865384615385e+00 5.19092908962945e-02 4.80413307367893e-04
4.08442307692308e+00 5.15650733267514e-02 4.78740255237900e-04
4.11019230769231e+00 5.12231383108009e-02 4.77063534007998e-04
4.13596153846154e+00 5.08834707125181e-02 4.75383341439448e-04
4.16173076923077e+00 5.05460554963462e-02 4.73699871356342e-04
4.18750000000000e+00 5.02108777264317e-02 4.72013313998345e-04
4.21326923076923e+00 4.98779225651780e-02 4.70323855271620e-04
4.23903846153846e+00 4.95471752749583e-02 4.68631677377352e-04
4.26480769230769e+00 4.92186212150778e-02 4.66936959443953e-04
4.29057692307692e+00 4.88922458419261e-02 4.65239876756632e-04
4.31634615384615e+00 4.85680347083338e-02 4.63540601109691e-04
4.34211538461538e+00 4.82459734629324e-02 4.61839300874815e-04
4.36788461538462e+00 4.79260478495193e-02 4.60136141068039e-04
4.39365384615385e+00 4.76082437064264e-02 4.58431283414648e-04
4.41942307692308e+00 4.72925469658941e-02 4.56724886412788e-04
4.44519230769231e+00 4.69789436534480e-02 4.55017105396134e-04
4.47096153846154e+00 4.66674198872802e-02 4.53308092594532e-04
4.49673076923077e+00 4.63579618776354e-02 4.51597997193427e-04
4.52250000000000e+00 4.60505559261996e-02 4.49886965633691e-04
4.54826923076923e+00 4.57451884248281e-02 4.48175140939327e-04
4.57403846153846e+00 4.54418458569551e-02 4.46462663261261e-04
4.59980769230769e+00 4.51405147949697e-02 4.44749670424865e-04
4.62557692307692e+00 4.48411819003015e-02 4.43036297240003e-04
4.65134615384615e+00 4.45438339228299e-02 4.41322675802025e-04
4.67711538461538e+00 4.42484577002977e-02 4.39608935542628e-04
4.70288461538462e+00 4.39550401577286e-02 4.37895203279697e-04
4.72865384615385e+00 4.36635683068477e-02 4.36181603265776e-04
4.75442307692308e+00 4.33740292455075e-02 4.34468257235634e-04
4.78019230769231e+00 4.30864101571166e-02 4.32755284453038e-04
4.80596153846154e+00 4.28006983100720e-02 4.31042801756423e-04
4.83173076923077e+00 4.25168810571960e-02 4.29330923603391e-04
4.85750000000000e+00 4.22349458351758e-02 4.27619762328371e-04
4.88326923076923e+00 4.19548801634386e-02 4.25909427540163e-04
4.90903846153846e+00 4.16766716453173e-02 4.24200026595852e-04
4.93480769230769e+00 4.14003079657728e-02 4.22491665078364e-04
4.96057692307692e+00 4.11257768914282e-02 4.20784446179007e-04
4.98634615384615e+00 4.08530662700282e-02 4.19078470957317e-04
5.01211538461538e+00 4.05821640299007e-02 4.17373838379565e-04
5.03788461538462e+00 4.03130581794224e-02 4.15670645356650e-04
5.06365384615385e+00 4.00457368064880e-02 4.13968986780934e-04
5.08942307692308e+00 3.97801880779831e-02 4.12268955562402e-04
5.11519230769231e+00 3.95164002392604e-02 4.10570642664484e-04
5.14096153846154e+00 3.92543616136195e-02 4.08874137138839e-04
5.16673076923077e+00 3.89940606017893e-02 4.07179526159353e-04
5.19250000000000e+00 3.87354856814157e-02 4.05486895245388e-04
5.21826923076923e+00 3.84786254060620e-02 4.03796327722262e-04
5.24403846153846e+00 3.82234684061773e-02 4.02107905136545e-04
5.26980769230769e+00 3.79700033871094e-02 4.00421707674798e-04
5.29557692307692e+00 3.77182191291024e-02 3.98737813611171e-04
5.32134615384615e+00 3.74681044868003e-02 3.97056299533285e-04
5.34711538461538e+00 3.72196483887533e-02 3.95377240371882e-04
5.37288461538462e+00 3.69728398369280e-02 3.93700709430053e-04
5.39865384615385e+00 3.67276679062202e-02 3.92026778411724e-04
5.42442307692308e+00 3.64841217439719e-02 3.90355517449626e-04
5.45019230769231e+00 3.62421905694905e-02 3.88686995133024e-04
5.47596153846154e+00 3.60018636735715e-02 3.87021278534614e-04
5.50173076923077e+00 3.57631304180250e-02 3.85358433237003e-04
5.52750000000000e+00 3.55259802352041e-02 3.83698523527364e-04
5.55326923076923e+00 3.52904026271165e-02 3.82041611914149e-04
5.57903846153846e+00 3.50563871662305e-02 3.80387759492676e-04
5.60480769230769e+00 3.48239234937346e-02 3.78737026313942e-04
5.63057692307692e+00 3.45930013195082e-02 3.77089470890195e-04
5.65634615384615e+00 3.43636104216659e-02 3.75445150392383e-04
5.68211538461538e+00 3.41357406461050e-02 3.73804120673414e-04
5.70788461538462e+00 3.39093819060558e-02 3.72166436290924e-04
5.73365384615385e+00 3.36845241816357e-02 3.70532150529574e-04
5.75942307692308e+00 3.34611575194049e-02 3.68901315422997e-04
5.78519230769231e+00 3.32392720319268e-02 3.67273981775486e-04
5.81096153846154e+00 3.30188578973292e-02 3.65650199183133e-04
5.83673076923077e+00 3.27999053588706e-02 3.64030016054580e-04
5.86250000000000e+00 3.25824047245075e-02 3.62413479781746e-04
5.88826923076923e+00 3.23663463661016e-02 3.60800636306692e-04
5.91403846153846e+00 3.21517207200926e-02 3.59191530444591e-04
5.93980769230769e+00 3.19385182859689e-02 3.57586206209739e-04
5.96557692307692e+00 3.17267296262183e-02 3.55984706372743e-04
5.99134615384615e+00 3.15163453659101e-02 3.54387072633961e-04
6.01711538461538e+00 3.13073561922798e-02 3.52793345641828e-04
6.04288461538462e+00 3.10997528543173e-02 3.51203565010929e-04
6.06865384615385e+00 3.08935261623570e-02 3.49617769339583e-04
6.09442307692308e+00 3.06886669876715e-02 3.48035996227176e-04
6.12019230769231e+00 3.04851662620671e-02 3.46458282291423e-04
6.14596153846154e+00 3.02830149774826e-02 3.44884663185070e-04
6.17173076923077e+00 3.00822041855905e-02 3.43315173612363e-04
6.19750000000000e+00 2.98827249974009e-02 3.41749847479313e-04
6.22326923076923e+00 2.96845685825522e-02 3.40188717505375e-04
6.24903846153846e+00 2.94877261698731e-02 3.38631815509672e-04
6.27480769230769e+00 2.92921890460362e-02 3.37079172699829e-04
6.30057692307692e+00 2.90979485554929e-02 3.35530819275222e-04
6.32634615384615e+00 2.89049961000909e-02 3.33986784579911e-04
6.35211538461538e+00 2.87133231386935e-02 3.32447097117219e-04
6.37788461538462e+00 2.85229211868015e-02 3.30911784564142e-04
6.40365384615385e+00 2.83337818161772e-02 3.29380873785353e-04
6.42942307692308e+00 2.81458966544720e-02 3.27854390847077e-04
6.45519230769231e+00 2.79592573848555e-02 3.26332361030857e-04
6.48096153846154e+00 2.77738557456473e-02 3.24814808846900e-04
6.50673076923077e+00 2.75896835299514e-02 3.23301758047240e-04
6.53250000000000e+00 2.74067325852926e-02 3.21793231758474e-04
6.55826923076923e+00 2.72249948129815e-02 3.20289252133383e-04
6.58403846153846e+00 2.70444621685844e-02 3.18789840605132e-04
6.60980769230769e+00 2.68651266607339e-02 3.17295018143927e-04
6.63557692307692e+00 2.66869803510542e-02 3.15804804901237e-04
6.66134615384615e+00 2.65100153538099e-02 3.14319220344994e-04
6.68711538461539e+00 2.63342238355572e-02 3.12838283271278e-04
6.71288461538462e+00 2.61595980147969e-02 3.11362011815937e-04
6.73865384615385e+00 2.59861301616296e-02 3.09890423465825e-04
6.76442307692308e+00 2.58138125974145e-02 3.08423535069935e-04
6.79019230769231e+00 2.56426376944285e-02 3.06961362850480e-04
6.81596153846154e+00 2.54725978755292e-02 3.05503922413604e-04
6.84173076923077e+00 2.53036856138193e-02 3.04051228760053e-04
6.86750000000000e+00 2.51358934323131e-02 3.02603296402675e-04
6.89326923076923e+00 2.49692139033665e-02 3.01160139053677e-04
6.91903846153846e+00 2.48036396490708e-02 2.99721769850907e-04
6.94480769230769e+00 2.46391633401992e-02 2.98288201586335e-04
6.97057692307692e+00 2.44757776961257e-02 2.96859446386738e-04
6.99634615384615e+00 2.43134754845033e-02 2.95435515833582e-04
7.02211538461539e+00 2.41522495209437e-02 2.94016420972534e-04
7.04788461538462e+00 2.39920926686993e-02 2.92602172322751e-04
7.07365384615385e+00 2.38329978383469e-02 2.91192779885984e-04
7.09942307692308e+00 2.36749579874745e-02 2.89788253155602e-04
7.12519230769231e+00 2.35179661203695e-02 2.88388601125523e-04
7.15096153846154e+00 2.33620152877085e-02 2.86993832298907e-04
7.17673076923077e+00 2.32070985862501e-02 2.85603954696749e-04
7.20250000000000e+00 2.30532091585294e-02 2.84218975962250e-04
7.22826923076923e+00 2.29003401923445e-02 2.82838903079840e-04
7.25403846153846e+00 2.27484849210875e-02 2.81463742576929e-04
7.27980769230769e+00 2.25976366228094e-02 2.80093500727707e-04
7.30557692307692e+00 2.24477886201348e-02 2.78728183266358e-04
7.33134615384615e+00 2.22989342799673e-02 2.77367795493605e-04
7.35711538461539e+00 2.21510670131953e-02 2.76012342284380e-04
7.38288461538462e+00 2.20041802744005e-02 2.74661828095409e-04
7.40865384615385e+00 2.18582675615681e-02 2.73316256972584e-04
7.43442307692308e+00 2.17133224157991e-02 2.71975632558288e-04
7.46019230769231e+00 2.15693384210244e-02 2.70639958098631e-04
7.48596153846154e+00 2.14263092037208e-02 2.69309236450522e-04
7.51173076923077e+00 2.12842284326286e-02 2.67983470088653e-04
7.53750000000000e+00 2.11430898184717e-02 2.66662661198336e-04
7.56326923076923e+00 2.10028871134952e-02 2.65346811422964e-04
7.58903846153846e+00 2.08636141117435e-02 2.64035922044151e-04
7.61480769230769e+00 2.07252646482277e-02 2.62729994163761e-04
7.64057692307692e+00 2.05878325988398e-02 2.61429028446161e-04
7.66634615384615e+00 2.04513118800816e-02 2.60133025213112e-04
7.69211538461539e+00 2.03156964487956e-02 2.58841984449999e-04
7.71788461538462e+00 2.01809803018971e-02 2.57555905811993e-04
7.74365384615385e+00 2.00471574761086e-02 2.56274788630072e-04
7.76942307692308e+00 1.99142220476960e-02 2.54998631916952e-04
7.79519230769231e+00 1.97821681322064e-02 2.53727434373006e-04
7.82096153846154e+00 1.96509898842074e-02 2.52461194392019e-04
7.84673076923077e+00 1.95206814970284e-02 2.51199910066899e-04
7.87250000000000e+00 1.93912372025040e-02 2.49943579272420e-04
7.89826923076923e+00 1.92626512705563e-02 2.48692199437982e-04
7.92403846153846e+00 1.91349180094292e-02 2.47445767708743e-04
7.94980769230769e+00 1.90080317649464e-02 2.46204281108505e-04
7.97557692307692e+00 1.88819869204248e-02 2.44967736307822e-04
8.00134615384615e+00 1.87567778964268e-02 2.43736129708639e-04
8.02711538461539e+00 1.86323991505124e-02 2.42509457449393e-04
8.05288461538461e+00 1.85088451769945e-02 2.41287715410021e-04
8.07865384615385e+00 1.83861105066948e-02 2.40070899216872e-04
8.10442307692308e+00 1.82641897067020e-02 2.38859004247558e-04
8.13019230769231e+00 1.81430773801311e-02 2.37652025635807e-04
