Energy (eV)          EEDF (eV^-(3/2))     First Anisotropy
1.09047619047619e-03 2.31429722707180e+01 1.69364665324468e-02
3.27142857142857e-03 2.27657779067389e+01 2.78325791830800e-02
5.45238095238095e-03 2.23947312227975e+01 3.63879771758462e-02
7.63333333333333e-03 2.20297320212844e+01 4.26760225357841e-02
9.81428571428571e-03 2.16706817376616e+01 4.77481222512434e-02
1.19952380952381e-02 2.13174834138409e+01 5.20076122447420e-02
1.41761904761905e-02 2.09700416715460e+01 5.56661069818722e-02
1.63571428571429e-02 2.06282626876062e+01 5.88531026698537e-02
1.85380952380952e-02 2.02920541695504e+01 6.16556011283698e-02
2.07190476190476e-02 1.99613253258154e+01 6.41358729950211e-02
2.29000000000000e-02 1.96359868463194e+01 6.63405824452286e-02
2.50809523809524e-02 1.93159508765648e+01 6.83059416216674e-02
2.72619047619048e-02 1.90011309939410e+01 7.00608345701476e-02
2.94428571428571e-02 1.86914421843964e+01 7.16288168798233e-02
3.16238095238095e-02 1.83868008202814e+01 7.30294529098187e-02
3.38047619047619e-02 1.80871246352595e+01 7.42792423727485e-02
3.59857142857143e-02 1.77923327046724e+01 7.53922819705692e-02
3.81666666666667e-02 1.75023454227996e+01 7.63807501825420e-02
4.03476190476190e-02 1.72170844813763e+01 7.72552700544560e-02
4.25285714285714e-02 1.69364728489842e+01 7.80251861648002e-02
4.47095238095238e-02 1.66604347485719e+01 7.86987794056912e-02
4.68904761904762e-02 1.63888956387116e+01 7.92834361201303e-02
4.90714285714286e-02 1.61217821928772e+01 7.97857832153230e-02
5.12523809523810e-02 1.58590222796561e+01 8.02117971543554e-02
5.34333333333333e-02 1.56005449436604e+01 8.05668930439950e-02
5.56142857142857e-02 1.53462803851521e+01 8.08559979676783e-02
5.77952380952381e-02 1.50961599424346e+01 8.10836119716907e-02
5.99761904761905e-02 1.48501160728864e+01 8.12538593186397e-02
6.21571428571429e-02 1.46080823347269e+01 8.13705316851792e-02
6.43380952380952e-02 1.43699933693742e+01 8.14371250095427e-02
6.65190476190476e-02 1.41357848828745e+01 8.14568709523937e-02
6.87000000000000e-02 1.39053936294782e+01 8.14327639905610e-02
7.08809523809524e-02 1.36787573942413e+01 8.13675849806616e-02
7.30619047619048e-02 1.34558149762260e+01 8.12639216010814e-02
7.52428571428572e-02 1.32365061719754e+01 8.11241862392598e-02
7.74238095238095e-02 1.30207717594818e+01 8.09506317745503e-02
7.96047619047619e-02 1.28085534815005e+01 8.07453654333075e-02
8.17857142857143e-02 1.25997940305246e+01 8.05103610625921e-02
8.39666666666667e-02 1.23944370330690e+01 8.02474701283830e-02
8.61476190476191e-02 1.21924270344495e+01 7.99584314577937e-02
8.83285714285714e-02 1.19937094839893e+01 7.96448800344568e-02
9.05095238095238e-02 1.17982307197308e+01 7.93083548364330e-02
9.26904761904762e-02 1.16059379545113e+01 7.89503058970240e-02
9.48714285714286e-02 1.14167792615154e+01 7.85721007562933e-02
9.70523809523810e-02 1.12307035602551e+01 7.81750302422614e-02
9.92333333333333e-02 1.10476606029234e+01 7.77603138422761e-02
1.01414285714286e-01 1.08676009596434e+01 7.73291042638242e-02
1.03595238095238e-01 1.06904760083646e+01 7.68824920129709e-02
1.05776190476190e-01 1.05162379181304e+01 7.64215096728685e-02
1.07957142857143e-01 1.03448396362916e+01 7.59471349676735e-02
1.10138095238095e-01 1.01762348796983e+01 7.54602944822070e-02
1.12319047619048e-01 1.00103781181982e+01 7.49618670942468e-02
1.14500000000000e-01 9.84722456258566e+00 7.44526862123654e-02
1.16680952380952e-01 9.68673015597493e+00 7.39335428414049e-02
1.18861904761905e-01 9.52885155727941e+00 7.34051879608447e-02
1.21042857142857e-01 9.37354613399758e+00 7.28683346824923e-02
1.23223809523810e-01 9.22077194734537e+00 7.23236607528074e-02
1.25404761904762e-01 9.07048774112567e+00 7.17718099587544e-02
1.27585714285714e-01 8.92265293351521e+00 7.12133942394830e-02
1.29766666666667e-01 8.77722760310505e+00 7.06489956520873e-02
1.31947619047619e-01 8.63417247828623e+00 7.00791674492574e-02
1.34128571428571e-01 8.49344892927893e+00 6.95044359023162e-02
1.36309523809524e-01 8.35501895419374e+00 6.89253016323726e-02
1.38490476190476e-01 8.21884517218111e+00 6.83422408188769e-02
1.40671428571429e-01 8.08489081078507e+00 6.77557067419164e-02
1.42852380952381e-01 7.95311969615401e+00 6.71661304750510e-02
1.45033333333333e-01 7.82349624551755e+00 6.65739222631647e-02
1.47214285714286e-01 7.69598545458354e+00 6.59794724839642e-02
1.49395238095238e-01 7.57055289100063e+00 6.53831525189861e-02
1.51576190476190e-01 7.44716468288289e+00 6.47853159396215e-02
1.53757142857143e-01 7.32578750977456e+00 6.41862989522407e-02
1.55938095238095e-01 7.20638859558255e+00 6.35864214066507e-02
1.58119047619048e-01 7.08893569775237e+00 6.29859877467659e-02
1.60300000000000e-01 6.97339709866222e+00 6.23852873525751e-02
1.62480952380952e-01 6.85974159880989e+00 6.17845954648971e-02
1.64661904761905e-01 6.74793850605391e+00 6.11841737842850e-02
1.66842857142857e-01 6.63795762960005e+00 6.05842710099577e-02
1.69023809523810e-01 6.52976927014824e+00 5.99851236532611e-02
1.71204761904762e-01 6.42334421195685e+00 5.93869562507614e-02
1.73385714285714e-01 6.31865371646857e+00 5.87899820550358e-02
1.75566666666667e-01 6.21566951300251e+00 5.81944036891511e-02
1.77747619047619e-01 6.11436379119406e+00 5.76004133054140e-02
1.79928571428571e-01 6.01470919486873e+00 5.70081932365749e-02
1.82109523809524e-01 5.91667881281324e+00 5.64179163852500e-02
1.84290476190476e-01 5.82024617330494e+00 5.58297465707260e-02
1.86471428571429e-01 5.72538523561955e+00 5.52438391112410e-02
1.88652380952381e-01 5.63207038306382e+00 5.46603409129246e-02
1.90833333333333e-01 5.54027641726069e+00 5.40793910036170e-02
1.93014285714286e-01 5.44997854974204e+00 5.35011208350132e-02
1.95195238095238e-01 5.36115239681909e+00 5.29256545494530e-02
1.97376190476190e-01 5.27377397182907e+00 5.23531094612142e-02
1.99557142857143e-01 5.18781967871110e+00 5.17835960974630e-02
2.01738095238095e-01 5.10326630668527e+00 5.12172186034703e-02
2.03919047619048e-01 5.02009102291326e+00 5.06540751287258e-02
2.06100000000000e-01 4.93827136638142e+00 5.00942578478775e-02
2.08280952380952e-01 4.85778524279969e+00 4.95378533569787e-02
2.10461904761905e-01 4.77861091735127e+00 4.89849428791973e-02
2.12642857142857e-01 4.70072701007733e+00 4.84356024435370e-02
2.14823809523810e-01 4.62411248916609e+00 4.78899032459709e-02
2.17004761904762e-01 4.54874666531525e+00 4.73479116438170e-02
2.19185714285714e-01 4.47460918699057e+00 4.68096894578138e-02
2.21366666666667e-01 4.40168003406856e+00 4.62752942606391e-02
2.23547619047619e-01 4.32993951246778e+00 4.57447793605697e-02
2.25728571428571e-01 4.25936824960940e+00 4.52181941021655e-02
2.27909523809524e-01 4.18994718814953e+00 4.46955840088513e-02
2.30090476190476e-01 4.12165758184563e+00 4.41769909043173e-02
2.32271428571429e-01 4.05448098973680e+00 4.36624531889265e-02
2.34452380952381e-01 3.98839927119722e+00 4.31520058089197e-02
2.36633333333333e-01 3.92339458172235e+00 4.26456805122166e-02
2.38814285714286e-01 3.85944936719792e+00 4.21435059623374e-02
2.40995238095238e-01 3.79654636005136e+00 4.16455078339002e-02
2.43176190476190e-01 3.73466857392247e+00 4.11517090488324e-02
2.45357142857143e-01 3.67379929910444e+00 4.06621297360398e-02
2.47538095238095e-01 3.61392209863602e+00 4.01767874263472e-02
2.49719047619048e-01 3.55502080324756e+00 3.96956972392434e-02
2.51900000000000e-01 3.49707950702054e+00 3.92188718392480e-02
2.54080952380952e-01 3.44008256365081e+00 3.87463216350025e-02
2.56261904761905e-01 3.38401458148001e+00 3.82780548595129e-02
2.58442857142857e-01 3.32886042006626e+00 3.78140776354959e-02
2.60623809523810e-01 3.27460518555205e+00 3.73543941603641e-02
2.62804761904762e-01 3.22123422666486e+00 3.68990066580866e-02
2.64985714285714e-01 3.16873313125470e+00 3.64479155305988e-02
2.67166666666667e-01 3.11708772189964e+00 3.60011195030298e-02
2.69347619047619e-01 3.06628405209770e+00 3.55586155744347e-02
2.71528571428571e-01 3.01630840295836e+00 3.51203991744807e-02
2.73709523809524e-01 2.96714727888906e+00 3.46864642201420e-02
2.75890476190476e-01 2.91878740454647e+00 3.42568031602091e-02
2.78071428571429e-01 2.87121572080609e+00 3.38314071216255e-02
2.80252380952381e-01 2.82441938125405e+00 3.34102658586930e-02
2.82433333333333e-01 2.77838574912363e+00 3.29933678888631e-02
2.84614285714286e-01 2.73310239334277e+00 3.25807005382378e-02
2.86795238095238e-01 2.68855708570561e+00 3.21722499762552e-02
2.88976190476190e-01 2.64473779717545e+00 3.17680013428702e-02
2.91157142857143e-01 2.60163269465204e+00 3.13679386974753e-02
2.93338095238095e-01 2.55923013813663e+00 3.09720451214129e-02
2.95519047619048e-01 2.51751867722212e+00 3.05803028164638e-02
2.97700000000000e-01 2.47648704801565e+00 3.01926930544023e-02
2.99880952380952e-01 2.43612417043133e+00 2.98091962852905e-02
3.02061904761905e-01 2.39641914475298e+00 2.94297921694181e-02
3.04242857142857e-01 2.35736124912657e+00 2.90544596002693e-02
3.06423809523810e-01 2.31893993633900e+00 2.86831768063588e-02
3.08604761904762e-01 2.28114483098278e+00 2.83159213017350e-02
3.10785714285714e-01 2.24396572695195e+00 2.79526699673104e-02
3.12966666666667e-01 2.20739258438335e+00 2.75933991290534e-02
3.15147619047619e-01 2.17141552695717e+00 2.72380845096079e-02
3.17328571428571e-01 2.13602483950680e+00 2.68867013151799e-02
3.19509523809524e-01 2.10121096502697e+00 2.65392242576793e-02
3.21690476190476e-01 2.06696450245365e+00 2.61956275693789e-02
3.23871428571429e-01 2.03327620385563e+00 2.58558850849050e-02
3.26052380952381e-01 2.00013697194771e+00 2.55199701944940e-02
3.28233333333333e-01 1.96753785788081e+00 2.51878559200477e-02
3.30414285714286e-01 1.93547005849693e+00 2.48595149325105e-02
3.32595238095238e-01 1.90392491427363e+00 2.45349195625383e-02
3.34776190476191e-01 1.87289390674514e+00 2.42140418724109e-02
3.36957142857143e-01 1.84236865621114e+00 2.38968536111972e-02
3.39138095238095e-01 1.81234091969431e+00 2.35833262712224e-02
3.41319047619048e-01 1.78280258849040e+00 2.32734311424050e-02
3.43500000000000e-01 1.75374568598713e+00 2.29671392688567e-02
3.45680952380952e-01 1.72516236571538e+00 2.26644215103457e-02
3.47861904761905e-01 1.69704490895720e+00 2.23652485538442e-02
3.50042857142857e-01 1.66938572292899e+00 2.20695909194376e-02
3.52223809523810e-01 1.64217733853108e+00 2.17774190186125e-02
3.54404761904762e-01 1.61541240833830e+00 2.14887031129628e-02
3.56585714285714e-01 1.58908370479942e+00 2.12034133594881e-02
3.58766666666667e-01 1.56318411809896e+00 2.09215198541993e-02
3.60947619047619e-01 1.53770665424419e+00 2.06429925922881e-02
3.63128571428571e-01 1.51264443334763e+00 2.03678015179624e-02
3.65309523809524e-01 1.48799068754150e+00 2.00959165317448e-02
3.67490476190476e-01 1.46373875937318e+00 1.98273074930145e-02
3.69671428571429e-01 1.43988209984059e+00 1.95619442673945e-02
3.71852380952381e-01 1.41641426662997e+00 1.92997966890772e-02
3.74033333333333e-01 1.39332892252934e+00 1.90408346046853e-02
3.76214285714286e-01 1.37061983351328e+00 1.87850278784903e-02
3.78395238095238e-01 1.34828086725934e+00 1.85323463933451e-02
3.80576190476191e-01 1.32630599134264e+00 1.82827600924576e-02
3.82757142857143e-01 1.30468927161240e+00 1.80362389438610e-02
3.84938095238095e-01 1.28342487072675e+00 1.77927529722675e-02
3.87119047619048e-01 1.26250704643697e+00 1.75522722897443e-02
3.89300000000000e-01 1.24193015004199e+00 1.73147670615761e-02
3.91480952380952e-01 1.22168862499120e+00 1.70802075419686e-02
3.93661904761905e-01 1.20177700521337e+00 1.68485640767436e-02
3.95842857142857e-01 1.18218991380774e+00 1.66198071024046e-02
3.98023809523810e-01 1.16292206146708e+00 1.63939071802231e-02
4.00204761904762e-01 1.14396824505385e+00 1.61708349641604e-02
4.02385714285714e-01 1.12532334631024e+00 1.59505612265521e-02
4.04566666666667e-01 1.10698233035917e+00 1.57330568828460e-02
4.06747619047619e-01 1.08894024434894e+00 1.55182929608290e-02
4.08928571428571e-01 1.07119221622323e+00 1.53062406297383e-02
4.11109523809524e-01 1.05373345326243e+00 1.50968712011434e-02
4.13290476190476e-01 1.03655924092962e+00 1.48901561267457e-02
4.15471428571429e-01 1.01966494149258e+00 1.46860670262333e-02
4.17652380952381e-01 1.00304599277521e+00 1.44845756584461e-02
4.19833333333333e-01 9.86697907022137e-01 1.42856539470713e-02
4.22014285714286e-01 9.70616269558277e-01 1.40892739806464e-02
4.24195238095238e-01 9.54796737722715e-01 1.38954080097784e-02
4.26376190476191e-01 9.39235039601819e-01 1.37040284717624e-02
4.28557142857143e-01 9.23926972878988e-01 1.35151079636039e-02
4.30738095238095e-01 9.08868403786675e-01 1.33286192601680e-02
4.32919047619048e-01 8.94055265901983e-01 1.31445353316572e-02
4.35100000000000e-01 8.79483559051706e-01 1.29628293177792e-02
4.37280952380952e-01 8.65149348313348e-01 1.27834745487353e-02
4.39461904761905e-01 8.51048762844444e-01 1.26064445441987e-02
4.41642857142857e-01 8.37177994943245e-01 1.24317130099217e-02
4.43823809523810e-01 8.23533298941251e-01 1.22592538578888e-02
4.46004761904762e-01 8.10110990194531e-01 1.20890411821926e-02
4.48185714285714e-01 7.96907444161794e-01 1.19210492736817e-02
4.50366666666667e-01 7.83919095351463e-01 1.17552526340679e-02
4.52547619047619e-01 7.71142436361429e-01 1.15916259528431e-02
4.54728571428571e-01 7.58574017000370e-01 1.14301441244330e-02
4.56909523809524e-01 7.46210443264993e-01 1.12707822464775e-02
4.59090476190476e-01 7.34048376512804e-01 1.11135156160863e-02
4.61271428571429e-01 7.22084532493761e-01 1.09583197463468e-02
4.63452380952381e-01 7.10315680465757e-01 1.08051703447994e-02
4.65633333333333e-01 6.98738642383795e-01 1.06540433285965e-02
4.67814285714286e-01 6.87350291959789e-01 1.05049148224582e-02
4.69995238095238e-01 6.76147553898746e-01 1.03577611547960e-02
4.72176190476191e-01 6.65127403008207e-01 1.02125588723195e-02
4.74357142857143e-01 6.54286863383395e-01 1.00692847199811e-02
4.76538095238095e-01 6.43623007659134e-01 9.92791565131644e-03
4.78719047619048e-01 6.33132956162998e-01 9.78842883839628e-03
4.80900000000000e-01 6.22813876139643e-01 9.65080165265713e-03
4.83080952380952e-01 6.12662981037888e-01 9.51501167729457e-03
4.85261904761905e-01 6.02677529688988e-01 9.38103670488339e-03
4.87442857142857e-01 5.92854825634317e-01 9.24885473343244e-03
4.89623809523810e-01 5.83192216346436e-01 9.11844397835079e-03
4.91804761904762e-01 5.73687092514562e-01 8.98978285460831e-03
4.93985714285714e-01 5.64336887386864e-01 8.86284998506029e-03
4.96166666666667e-01 5.55139076029741e-01 8.73762420845675e-03
4.98347619047619e-01 5.46091174647612e-01 8.61408456239784e-03
5.00528571428571e-01 5.37190739956206e-01 8.49221029346331e-03
5.02709523809524e-01 5.28435368464225e-01 8.37198085464412e-03
5.04890476190476e-01 5.19822695881730e-01 8.25337590143643e-03
5.07071428571429e-01 5.11350396438740e-01 8.13637530164371e-03
5.09252380952381e-01 5.03016182258663e-01 8.02095911952821e-03
5.11433333333333e-01 4.94817802780174e-01 7.90710762475723e-03
5.13614285714286e-01 4.86753044096641e-01 7.79480128976765e-03
5.15795238095238e-01 4.78819728410104e-01 7.68402078591642e-03
5.17976190476190e-01 4.71015713404435e-01 7.57474699214950e-03
5.20157142857143e-01 4.63338891668147e-01 7.46696098027356e-03
5.22338095238095e-01 4.55787190161146e-01 7.36064402079074e-03
5.24519047619048e-01 4.48358569618575e-01 7.25577758850734e-03
5.26700000000000e-01 4.41051024001361e-01 7.15234334846996e-03
5.28880952380952e-01 4.33862579988148e-01 7.05032316327019e-03
5.31061904761905e-01 4.26791296397659e-01 6.94969909038339e-03
5.33242857142857e-01 4.19835263708404e-01 6.85045337846848e-03
5.35423809523810e-01 4.12992603510207e-01 6.75256847446139e-03
5.37604761904762e-01 4.06261467998061e-01 6.65602701051334e-03
5.39785714285714e-01 3.99640039503546e-01 6.56081180865986e-03
5.41966666666667e-01 3.93126529973157e-01 6.46690588530494e-03
5.44147619047619e-01 3.86719180486492e-01 6.37429243875164e-03
5.46328571428571e-01 3.80416260809819e-01 6.28295485515953e-03
5.48509523809524e-01 3.74216068890871e-01 6.19287670592202e-03
5.50690476190476e-01 3.68116930436470e-01 6.10404174415215e-03
5.52871428571429e-01 3.62117198432548e-01 6.01643391048185e-03
5.55052380952381e-01 3.56215252700324e-01 5.93003732148810e-03
5.57233333333333e-01 3.50409499484586e-01 5.84483627494582e-03
5.59414285714286e-01 3.44698370988987e-01 5.76081524724792e-03
5.61595238095238e-01 3.39080324986352e-01 5.67795889001557e-03
5.63776190476191e-01 3.33553844377039e-01 5.59625203521938e-03
5.65957142857143e-01 3.28117436780101e-01 5.51567968444004e-03
5.68138095238095e-01 3.22769634153607e-01 5.43622701209641e-03
5.70319047619048e-01 3.17508992374559e-01 5.35787936854149e-03
5.72500000000000e-01 3.12334090849710e-01 5.28062226981347e-03
5.74680952380952e-01 3.07243532153864e-01 5.20444140190972e-03
5.76861904761905e-01 3.02235941623355e-01 5.12932261830999e-03
5.79042857142857e-01 2.97309967013440e-01 5.05525193680484e-03
5.81223809523810e-01 2.92464278111751e-01 4.98221554367326e-03
5.83404761904762e-01 2.87697566379790e-01 4.91019978417718e-03
5.85585714285714e-01 2.83008544619401e-01 4.83919116511522e-03
5.87766666666667e-01 2.78395946605072e-01 4.76917635726926e-03
5.89947619047619e-01 2.73858526742663e-01 4.70014218633437e-03
5.92128571428571e-01 2.69395059751692e-01 4.63207563638911e-03
5.94309523809524e-01 2.65004340309654e-01 4.56496384754458e-03
5.96490476190476e-01 2.60685182750878e-01 4.49879411299727e-03
5.98671428571429e-01 2.56436420728143e-01 4.43355388243023e-03
6.00852380952381e-01 2.52256906898326e-01 4.36923075360460e-03
6.03033333333333e-01 2.48145512629447e-01 4.30581247540998e-03
6.05214285714286e-01 2.44101127673434e-01 4.24328694559681e-03
6.07395238095238e-01 2.40122659888351e-01 4.18164220796624e-03
6.09576190476190e-01 2.36209034927000e-01 4.12086645536530e-03
6.11757142857143e-01 2.32359195947344e-01 4.06094802189330e-03
6.13938095238095e-01 2.28572103342399e-01 4.00187538462585e-03
6.16119047619048e-01 2.24846734444007e-01 3.94363716526226e-03
6.18300000000000e-01 2.21182083247180e-01 3.88622212269035e-03
6.20480952380952e-01 2.17577160152817e-01 3.82961915545308e-03
6.22661904761905e-01 2.14030991681343e-01 3.77381729962605e-03
6.24842857142857e-01 2.10542620228600e-01 3.71880572622844e-03
6.27023809523810e-01 2.07111103793222e-01 3.66457374365284e-03
6.29204761904762e-01 2.03735515722719e-01 3.61111079077604e-03
6.31385714285714e-01 2.00414944476260e-01 3.55840643829690e-03
6.33566666666667e-01 1.97148493365325e-01 3.50645039001153e-03
6.35747619047619e-01 1.93935280311990e-01 3.45523247624216e-03
6.37928571428572e-01 1.90774437622981e-01 3.40474265582504e-03
6.40109523809524e-01 1.87665111739069e-01 3.35497101413601e-03
6.42290476190476e-01 1.84606463020564e-01 3.30590776071606e-03
6.44471428571429e-01 1.81597665508620e-01 3.25754323123594e-03
6.46652380952381e-01 1.78637906702584e-01 3.20986788140887e-03
6.48833333333333e-01 1.75726387351689e-01 3.16287228872934e-03
6.51014285714286e-01 1.72862321224452e-01 3.11654715058983e-03
6.53195238095238e-01 1.70044934910858e-01 3.07088328203297e-03
6.55376190476191e-01 1.67273467602669e-01 3.02587161747365e-03
6.57557142857143e-01 1.64547170888327e-01 2.98150320506154e-03
6.59738095238095e-01 1.61865308560917e-01 2.93776920754712e-03
6.61919047619048e-01 1.59227156409158e-01 2.89466090310318e-03
6.64100000000000e-01 1.56632002022171e-01 2.85216967994782e-03
6.66280952380952e-01 1.54079144606570e-01 2.81028703773643e-03
6.68461904761905e-01 1.51567894784617e-01 2.76900458582502e-03
6.70642857142857e-01 1.49097574420434e-01 2.72831404121978e-03
6.72823809523810e-01 1.46667516427624e-01 2.68820722996181e-03
6.75004761904762e-01 1.44277064589439e-01 2.64867608214814e-03
6.77185714285714e-01 1.41925573390157e-01 2.60971263258045e-03
6.79366666666667e-01 1.39612407832067e-01 2.57130902137751e-03
6.81547619047619e-01 1.37336943264265e-01 2.53345748922679e-03
6.83728571428571e-01 1.35098565222075e-01 2.49615037849345e-03
6.85909523809524e-01 1.32896669250346e-01 2.45938013162504e-03
6.88090476190476e-01 1.30730660750794e-01 2.42313928928637e-03
