Energy (eV)          EEDF (eV^-(3/2))     First Anisotropy
4.93750000000000e-02 3.19114336912453e-01 4.13966735697378e-04
1.48125000000000e-01 3.05627954806034e-01 6.71389191217058e-04
2.46875000000000e-01 2.92711532996858e-01 8.54598654584213e-04
3.45625000000000e-01 2.80340983872851e-01 9.75824294219370e-04
4.44375000000000e-01 2.68493237810490e-01 1.06298561329433e-03
5.43125000000000e-01 2.57146200152654e-01 1.12725301029079e-03
6.41875000000000e-01 2.46278710004687e-01 1.17470478461386e-03
7.40625000000000e-01 2.35870500771802e-01 1.20917915152442e-03
8.39375000000000e-01 2.25902162364266e-01 1.23332411441781e-03
9.38125000000000e-01 2.16355104999853e-01 1.24907666878094e-03
1.03687500000000e+00 2.07211524536083e-01 1.25791346232191e-03
1.13562500000000e+00 1.98454369267584e-01 1.26099500599807e-03
1.23437500000000e+00 1.90067308126660e-01 1.25925472615214e-03
1.33312500000000e+00 1.82034700227765e-01 1.25345705859850e-03
1.43187500000000e+00 1.74341565699084e-01 1.24423704933468e-03
1.53062500000000e+00 1.66973557746832e-01 1.23212833887663e-03
1.62937500000000e+00 1.59916935900164e-01 1.21758354133454e-03
1.72812500000000e+00 1.53158540386809e-01 1.20098946792117e-03
1.82687500000000e+00 1.46685767591633e-01 1.18267875012912e-03
1.92562500000000e+00 1.40486546552385e-01 1.16293888325551e-03
2.02437500000000e+00 1.34549316448756e-01 1.14201937966613e-03
2.12312500000000e+00 1.28863005042814e-01 1.12013750930310e-03
2.22187500000000e+00 1.23417008030574e-01 1.09748296562076e-03
2.32062500000000e+00 1.18201169266215e-01 1.07422170125881e-03
2.41937500000000e+00 1.13205761822059e-01 1.05049911311323e-03
2.51812500000000e+00 1.08421469848995e-01 1.02644271106166e-03
2.61687500000000e+00 1.03839371203506e-01 1.00216437214292e-03
2.71562500000000e+00 9.94509208089232e-02 9.77762258412445e-04
2.81437500000000e+00 9.52479347198591e-02 9.53322459313121e-04
2.91312500000000e+00 9.12225748601068e-02 9.28920406413273e-04
3.01187500000000e+00 8.73673344055485e-02 9.04622098538152e-04
3.11062500000000e+00 8.36750237848089e-02 8.80485167802224e-04
3.20937500000000e+00 8.01387572715471e-02 8.56559811234366e-04
3.30812500000000e+00 7.67519401433846e-02 8.32889608145804e-04
3.40687500000000e+00 7.35082563835217e-02 8.09512239809955e-04
3.50562500000000e+00 7.04016569021062e-02 7.86460125176219e-04
3.60437500000000e+00 6.74263482553907e-02 7.63760984057511e-04
3.70312500000000e+00 6.45767818416390e-02 7.41438337388291e-04
3.80187500000000e+00 6.18476435536346e-02 7.19511952650441e-04
3.90062500000000e+00 5.92338438684940e-02 6.97998241336694e-04
3.99937500000000e+00 5.67305083563030e-02 6.76910614309591e-04
4.09812500000000e+00 5.43329685898771e-02 6.56259800075156e-04
4.19687500000000e+00 5.20367534386916e-02 6.36054130291287e-04
4.29562500000000e+00 4.98375807307477e-02 6.16299796244726e-04
4.39437500000000e+00 4.77313492668240e-02 5.97001079536837e-04
4.49312500000000e+00 4.57141311722208e-02 5.78160559800450e-04
4.59187500000000e+00 4.37821645717341e-02 5.59779301914651e-04
4.69062500000000e+00 4.19318465741999e-02 5.41857024881002e-04
4.78937500000000e+00 4.01597265535242e-02 5.24392254264365e-04
4.88812500000000e+00 3.84624997136705e-02 5.07382459877478e-04
4.98687500000000e+00 3.68370009256022e-02 4.90824180194917e-04
5.08562500000000e+00 3.52801988246884e-02 4.74713134814144e-04
5.18437500000000e+00 3.37891901575644e-02 4.59044326135331e-04
5.28312500000000e+00 3.23611943679041e-02 4.43812131304241e-04
5.38187500000000e+00 3.09935484110093e-02 4.29010385350750e-04
5.48062500000000e+00 2.96837017875428e-02 4.14632456357695e-04
5.57937500000000e+00 2.84292117871469e-02 4.00671313408467e-04
5.67812500000000e+00 2.72277389330744e-02 3.87119587985576e-04
5.77687500000000e+00 2.60770426193394e-02 3.73969629425073e-04
5.87562500000000e+00 2.49749769322495e-02 3.61213554971953e-04
5.97437500000000e+00 2.39194866485284e-02 3.48843294928484e-04
6.07312500000000e+00 2.29086034025656e-02 3.36850633340105e-04
6.17187500000000e+00 2.19404420156453e-02 3.25227244621246e-04
6.27062500000000e+00 2.10131969803093e-02 3.13964726485639e-04
6.36937500000000e+00 2.01251390932970e-02 3.03054629511826e-04
6.46812500000000e+00 1.92746122307844e-02 2.92488483644098e-04
6.56687500000000e+00 1.84600302599071e-02 2.82257821901807e-04
6.66562500000000e+00 1.76798740808089e-02 2.72354201545383e-04
6.76437500000000e+00 1.69326887936982e-02 2.62769222925087e-04
6.86312500000000e+00 1.62170809856308e-02 2.53494546218563e-04
6.96187500000000e+00 1.55317161319580e-02 2.44521906245058e-04
7.06062500000000e+00 1.48753161075949e-02 2.35843125527735e-04
7.15937500000000e+00 1.42466568034667e-02 2.27450125760625e-04
7.25812500000000e+00 1.36445658436889e-02 2.19334937823223e-04
7.35687500000000e+00 1.30679203992236e-02 2.11489710473449e-04
7.45562500000000e+00 1.25156450939355e-02 2.03906717838497e-04
7.55437500000000e+00 1.19867099991410e-02 1.96578365812932e-04
7.65312500000000e+00 1.14801287129121e-02 1.89497197464089e-04
7.75187500000000e+00 1.09949565205526e-02 1.82655897536382e-04
7.85062500000000e+00 1.05302886328160e-02 1.76047296138389e-04
7.94937500000000e+00 1.00852584985793e-02 1.69664371689531e-04
8.04812500000000e+00 9.65903618882732e-03 1.63500253196688e-04
8.14687500000000e+00 9.25082684893186e-03 1.57548221925194e-04
8.24562500000000e+00 8.85986921634138e-03 1.51801712523263e-04
8.34437500000000e+00 8.48543420091548e-03 1.46254313653915e-04
8.44312500000000e+00 8.12682352525731e-03 1.40899768183951e-04
8.54187500000000e+00 7.78336842250807e-03 1.35731972975364e-04
8.64062500000000e+00 7.45442838917530e-03 1.30744978320723e-04
8.73937500000000e+00 7.13938999066892e-03 1.25932987060618e-04
8.83812500000000e+00 6.83766571731768e-03 1.21290353417973e-04
8.93687500000000e+00 6.54869288873249e-03 1.16811581581126e-04
9.03562500000000e+00 6.27193260447351e-03 1.12491324064839e-04
9.13437500000000e+00 6.00686873906399e-03 1.08324379875889e-04
9.23312500000000e+00 5.75300697947680e-03 1.04305692507648e-04
9.33187500000000e+00 5.50987390329858e-03 1.00430347785888e-04
9.43062500000000e+00 5.27701609585249e-03 9.66935715861509e-05
9.52937500000000e+00 5.05399930463294e-03 9.30907274412181e-05
9.62812500000000e+00 4.84040762947567e-03 8.96173140555930e-05
9.72687500000000e+00 4.63584274695263e-03 8.62689627423703e-05
9.82562500000000e+00 4.43992316754556e-03 8.30414347965118e-05
9.92437500000000e+00 4.25228352421274e-03 7.99306188172445e-05
1.00231250000000e+01 4.07257389102231e-03 7.69325279911336e-05
1.01218750000000e+01 3.90045913058144e-03 7.40432973463032e-05
1.02206250000000e+01 3.73561826904439e-03 7.12591809872803e-05
1.03193750000000e+01 3.57774389753392e-03 6.85765493190222e-05
1.04181250000000e+01 3.42654159885979e-03 6.59918862678499e-05
1.05168750000000e+01 3.28172939846522e-03 6.35017865062399e-05
1.06156250000000e+01 3.14303723857740e-03 6.11029526877124e-05
1.07143750000000e+01 3.01020647458145e-03 5.87921926974030e-05
1.08131250000000e+01 2.88298939267846e-03 5.65664169233072e-05
1.09118750000000e+01 2.76114874792840e-03 5.44226355526404e-05
1.10106250000000e+01 2.64445732181605e-03 5.23579558972428e-05
1.11093750000000e+01 2.53269749851516e-03 5.03695797515072e-05
1.12081250000000e+01 2.42566085906042e-03 4.84548007858758e-05
1.13068750000000e+01 2.32314779267056e-03 4.66110019785671e-05
1.14056250000000e+01 2.22496712449762e-03 4.48356530878387e-05
1.15043750000000e+01 2.13093575910830e-03 4.31263081667643e-05
1.16031250000000e+01 2.04087833903243e-03 4.14806031222109e-05
1.17018750000000e+01 1.95462691774186e-03 3.98962533194251e-05
1.18006250000000e+01 1.87202064644988e-03 3.83710512333956e-05
1.18993750000000e+01 1.79290547414709e-03 3.69028641479299e-05
1.19981250000000e+01 1.71713386031432e-03 3.54896319031782e-05
1.20968750000000e+01 1.64456449977689e-03 3.41293646921559e-05
1.21956250000000e+01 1.57506205918702e-03 3.28201409066394e-05
1.22943750000000e+01 1.50849692464297e-03 3.15601050326640e-05
1.23931250000000e+01 1.44474495997437e-03 3.03474655957094e-05
1.24918750000000e+01 1.38368727524278e-03 2.91804931555367e-05
1.25906250000000e+01 1.32521000502591e-03 2.80575183505248e-05
1.26893750000000e+01 1.26920409607195e-03 2.69769299912575e-05
1.27881250000000e+01 1.21556510392805e-03 2.59371732030169e-05
1.28868750000000e+01 1.16419299816367e-03 2.49367476167635e-05
1.29856250000000e+01 1.11499197582553e-03 2.39742056081084e-05
1.30843750000000e+01 1.06787028277639e-03 2.30481505837192e-05
1.31831250000000e+01 1.02274004258428e-03 2.21572353145462e-05
1.32818750000000e+01 9.79517092643276e-04 2.13001603152070e-05
1.33806250000000e+01 9.38120827220155e-04 2.04756722688240e-05
1.34793750000000e+01 8.98474047134097e-04 1.96825624965719e-05
1.35781250000000e+01 8.60502815789292e-04 1.89196654711619e-05
1.36768750000000e+01 8.24136321291855e-04 1.81858573734625e-05
1.37756250000000e+01 7.89306744393949e-04 1.74800546914329e-05
1.38743750000000e+01 7.55949132018836e-04 1.68012128605292e-05
1.39731250000000e+01 7.24001276131010e-04 1.61483249447279e-05
1.40718750000000e+01 6.93403597725501e-04 1.55204203573001e-05
1.41706250000000e+01 6.64099035720021e-04 1.49165636204613e-05
1.42693750000000e+01 6.36032940542734e-04 1.43358531630191e-05
1.43681250000000e+01 6.09152972217215e-04 1.37774201551346e-05
1.44668750000000e+01 5.83409002754529e-04 1.32404273793160e-05
1.45656250000000e+01 5.58753022670412e-04 1.27240681367632e-05
1.46643750000000e+01 5.35139051453210e-04 1.22275651881864e-05
1.47631250000000e+01 5.12523051815619e-04 1.17501697282253e-05
1.48618750000000e+01 4.90862847570307e-04 1.12911603926060e-05
1.49606250000000e+01 4.70118044976271e-04 1.08498422971752e-05
1.50593750000000e+01 4.50249957409243e-04 1.04255461079664e-05
1.51581250000000e+01 4.31221533215680e-04 1.00176271414585e-05
1.52568750000000e+01 4.12997286615767e-04 9.62546449420139e-06
1.53556250000000e+01 3.95543231526601e-04 9.24846020099303e-06
1.54543750000000e+01 3.78826818182136e-04 8.88603842080734e-06
1.55531250000000e+01 3.62816872431679e-04 8.53764464968359e-06
1.56518750000000e+01 3.47483537603761e-04 8.20274495980347e-06
1.57506250000000e+01 3.32798218826942e-04 7.88082526399500e-06
1.58493750000000e+01 3.18733529703728e-04 7.57139060491830e-06
1.59481250000000e+01 3.05263241238156e-04 7.27396446820212e-06
1.60468750000000e+01 2.92362232921786e-04 6.98808811881620e-06
1.61456250000000e+01 2.80006445886905e-04 6.71331995997886e-06
1.62443750000000e+01 2.68172838039553e-04 6.44923491391564e-06
1.63431250000000e+01 2.56839341088724e-04 6.19542382379993e-06
1.64418750000000e+01 2.45984819391592e-04 5.95149287622229e-06
1.65406250000000e+01 2.35589030538011e-04 5.71706304355036e-06
1.66393750000000e+01 2.25632587600799e-04 5.49176954555707e-06
1.67381250000000e+01 2.16096922981386e-04 5.27526132971075e-06
1.68368750000000e+01 2.06964253783428e-04 5.06720056953531e-06
1.69356250000000e+01 1.98217548649782e-04 4.86726218046456e-06
1.70343750000000e+01 1.89840496001028e-04 4.67513335262959e-06
1.71331250000000e+01 1.81817473616285e-04 4.49051310003282e-06
1.72318750000000e+01 1.74133519499599e-04 4.31311182557740e-06
1.73306250000000e+01 1.66774303977576e-04 4.14265090143555e-06
1.74293750000000e+01 1.59726102976221e-04 3.97886226425275e-06
1.75281250000000e+01 1.52975772427153e-04 3.82148802469952e-06
1.76268750000000e+01 1.46510723755453e-04 3.67028009089656e-06
1.77256250000000e+01 1.40318900403450e-04 3.52499980525193e-06
1.78243750000000e+01 1.34388755346659e-04 3.38541759426285e-06
1.79231250000000e+01 1.28709229559926e-04 3.25131263084779e-06
1.80218750000000e+01 1.23269731393651e-04 3.12247250878710e-06
1.81206250000000e+01 1.18060116821599e-04 2.99869292886328e-06
1.82193750000000e+01 1.13070670523482e-04 2.87977739630405e-06
1.83181250000000e+01 1.08292087767024e-04 2.76553692914361e-06
1.84168750000000e+01 1.03715457055731e-04 2.65578977712916e-06
1.85156250000000e+01 9.93322435099896e-05 2.55036115081129e-06
1.86143750000000e+01 9.51342729505200e-05 2.44908296046795e-06
1.87131250000000e+01 9.11137166544905e-05 2.35179356452273e-06
1.88118750000000e+01 8.72630767558665e-05 2.25833752712891e-06
1.89106250000000e+01 8.35751722627698e-05 2.16856538460093e-06
1.90093750000000e+01 8.00431256657711e-05 2.08233342038538e-06
1.91081250000000e+01 7.66603501121409e-05 1.99950344827300e-06
1.92068750000000e+01 7.34205371221420e-05 1.91994260356344e-06
1.93056250000000e+01 7.03176448244542e-05 1.84352314190322e-06
1.94043750000000e+01 6.73458866887930e-05 1.77012224552675e-06
1.95031250000000e+01 6.44997207347088e-05 1.69962183663915e-06
1.96018750000000e+01 6.17738391964439e-05 1.63190839768806e-06
1.97006250000000e+01 5.91631586245710e-05 1.56687279827999e-06
1.97993750000000e+01 5.66628104059567e-05 1.50441012850492e-06
1.98981250000000e+01 5.42681316843683e-05 1.44441953844067e-06
1.99968750000000e+01 5.19746566647945e-05 1.38680408361636e-06
2.00956250000000e+01 4.97781082852605e-05 1.33147057622143e-06
2.01943750000000e+01 4.76743902406098e-05 1.27832944185413e-06
2.02931250000000e+01 4.56595793433747e-05 1.22729458161021e-06
2.03918750000000e+01 4.37299182074922e-05 1.17828323931939e-06
2.04906250000000e+01 4.18818082412193e-05 1.13121587374382e-06
2.05893750000000e+01 4.01118029361816e-05 1.08601603555878e-06
2.06881250000000e+01 3.84166014400390e-05 1.04261024894253e-06
2.07868750000000e+01 3.67930424007837e-05 1.00092789760776e-06
2.08856250000000e+01 3.52380980711888e-05 9.60901115113056e-07
2.09843750000000e+01 3.37488686624151e-05 9.22464679298489e-07
2.10831250000000e+01 3.23225769362449e-05 8.85555910694535e-07
2.11818750000000e+01 3.09565630258584e-05 8.50114574759225e-07
2.12806250000000e+01 2.96482794754940e-05 8.16082787803184e-07
2.13793750000000e+01 2.83952864897418e-05 7.83404926467168e-07
2.14781250000000e+01 2.71952473836116e-05 7.52027540621615e-07
2.15768750000000e+01 2.60459242248891e-05 7.21899269562188e-07
2.16756250000000e+01 2.49451736606550e-05 6.92970761379849e-07
2.17743750000000e+01 2.38909429201830e-05 6.65194595388174e-07
2.18731250000000e+01 2.28812659867630e-05 6.38525207494905e-07
2.19718750000000e+01 2.19142599313107e-05 6.12918818408685e-07
2.20706250000000e+01 2.09881214009256e-05 5.88333364575870e-07
2.21693750000000e+01 2.01011232558490e-05 5.64728431746012e-07
2.22681250000000e+01 1.92516113485514e-05 5.42065191068239e-07
2.23668750000000e+01 1.84380014389409e-05 5.20306337624360e-07
2.24656250000000e+01 1.76587762399415e-05 4.99416031307796e-07
2.25643750000000e+01 1.69124825879303e-05 4.79359839960794e-07
2.26631250000000e+01 1.61977287327581e-05 4.60104684685466e-07
2.27618750000000e+01 1.55131817422982e-05 4.41618787247370e-07
2.28606250000000e+01 1.48575650166846e-05 4.23871619493202e-07
2.29593750000000e+01 1.42296559076029e-05 4.06833854707011e-07
2.30581250000000e+01 1.36282834381943e-05 3.90477320832178e-07
2.31568750000000e+01 1.30523261193214e-05 3.74774955488994e-07
2.32556250000000e+01 1.25007098581222e-05 3.59700762720246e-07
2.33543750000000e+01 1.19724059549531e-05 3.45229771399680e-07
2.34531250000000e+01 1.14664291849846e-05 3.31337995240661e-07
2.35518750000000e+01 1.09818359608724e-05 3.18002394344552e-07
2.36506250000000e+01 1.05177225730777e-05 3.05200838230631e-07
2.37493750000000e+01 1.00732235045552e-05 2.92912070291477e-07
2.38481250000000e+01 9.64750981666464e-06 2.81115673619840e-07
2.39468750000000e+01 9.23978760329816e-06 2.69792038154996e-07
2.40456250000000e+01 8.84929651033804e-06 2.58922329098484e-07
2.41443750000000e+01 8.47530831768558e-06 2.48488456551030e-07
2.42431250000000e+01 8.11712558121599e-06 2.38473046324214e-07
2.43418750000000e+01 7.77408033212691e-06 2.28859411882172e-07
2.44406250000000e+01 7.44553283125487e-06 2.19631527370282e-07
2.45393750000000e+01 7.13087037603681e-06 2.10774001689392e-07
2.46381250000000e+01 6.82950615789162e-06 2.02272053575697e-07
2.47368750000000e+01 6.54087816789095e-06 1.94111487647838e-07
2.48356250000000e+01 6.26444814867849e-06 1.86278671384274e-07
2.49343750000000e+01 5.99970059068307e-06 1.78760512995325e-07
2.50331250000000e+01 5.74614177075380e-06 1.71544440155617e-07
2.51318750000000e+01 5.50329883142426e-06 1.64618379563983e-07
2.52306250000000e+01 5.27071889908881e-06 1.57970737299066e-07
2.53293750000000e+01 5.04796823944636e-06 1.51590379940101e-07
2.54281250000000e+01 4.83463144863681e-06 1.45466616423466e-07
2.55268750000000e+01 4.63031067856156e-06 1.39589180606729e-07
2.56256250000000e+01 4.43462489494343e-06 1.33948214512993e-07
2.57243750000000e+01 4.24720916674243e-06 1.28534252229310e-07
2.58231250000000e+01 4.06771398560217e-06 1.23338204434002e-07
2.59218750000000e+01 3.89580461405773e-06 1.18351343528629e-07
2.60206250000000e+01 3.73116046128959e-06 1.13565289351274e-07
2.61193750000000e+01 3.57347448525930e-06 1.08971995448713e-07
2.62181250000000e+01 3.42245262011210e-06 1.04563735885865e-07
2.63168750000000e+01 3.27781322777858e-06 1.00333092571774e-07
2.64156250000000e+01 3.13928657275270e-06 9.62729430821077e-08
2.65143750000000e+01 3.00661431906673e-06 9.23764489589893e-08
2.66131250000000e+01 2.87954904852492e-06 8.86370444696554e-08
2.67118750000000e+01 2.75785379929760e-06 8.50484258061495e-08
2.68106250000000e+01 2.64130162401518e-06 8.16045407089598e-08
2.69093750000000e+01 2.52967516653786e-06 7.82995784981470e-08
2.70081250000000e+01 2.42276625661196e-06 7.51279604961340e-08
2.71068750000000e+01 2.32037552165679e-06 7.20843308269420e-08
2.72056250000000e+01 2.22231201495819e-06 6.91635475772396e-08
2.73043750000000e+01 2.12839285957526e-06 6.63606743051281e-08
2.74031250000000e+01 2.03844290729633e-06 6.36709718831306e-08
2.75018750000000e+01 1.95229441200810e-06 6.10898906623685e-08
2.76006250000000e+01 1.86978671686878e-06 5.86130629454073e-08
2.76993750000000e+01 1.79076595470193e-06 5.62362957557436e-08
2.77981250000000e+01 1.71508476105223e-06 5.39555638923559e-08
2.78968750000000e+01 1.64260199936802e-06 5.17670032581962e-08
2.79956250000000e+01 1.57318249779822e-06 4.96669044519220e-08
2.80943750000000e+01 1.50669679711267e-06 4.76517066125869e-08
2.81931250000000e+01 1.44302090927581e-06 4.57179915073994e-08
2.82918750000000e+01 1.38203608622356e-06 4.38624778530427e-08
2.83906250000000e+01 1.32362859841214e-06 4.20820158614172e-08
2.84893750000000e+01 1.26768952272573e-06 4.03735820010180e-08
2.85881250000000e+01 1.21411453934770e-06 3.87342739655005e-08
2.86868750000000e+01 1.16280373721633e-06 3.71613058413182e-08
2.87856250000000e+01 1.11366142770246e-06 3.56520034666222e-08
2.88843750000000e+01 1.06659596616134e-06 3.42037999739230e-08
2.89831250000000e+01 1.02151958102620e-06 3.28142315093032e-08
2.90818750000000e+01 9.78348210124479e-07 3.14809331212462e-08
2.91806250000000e+01 9.37001343911804e-07 3.02016348124207e-08
2.92793750000000e+01 8.97401875331095e-07 2.89741577480164e-08
2.93781250000000e+01 8.59475956016951e-07 2.77964106144752e-08
2.94768750000000e+01 8.23152858577112e-07 2.66663861227030e-08
2.95756250000000e+01 7.88364844694163e-07 2.55821576500752e-08
2.96743750000000e+01 7.55047038801516e-07 2.45418760157739e-08
2.97731250000000e+01 7.23137307098086e-07 2.35437663842036e-08
2.98718750000000e+01 6.92576141676038e-07 2.25861252914400e-08
2.99706250000000e+01 6.63306549545516e-07 2.16673177898621e-08
3.00693750000000e+01 6.35273946349400e-07 2.07857747063060e-08
3.01681250000000e+01 6.08426054569883e-07 1.99399900092640e-08
3.02668750000000e+01 5.82712806037027e-07 1.91285182808234e-08
3.03656250000000e+01 5.58086248557498e-07 1.83499722892099e-08
3.04643750000000e+01 5.34500456489350e-07 1.76030206579638e-08
3.05631250000000e+01 5.11911445096089e-07 1.68863856279289e-08
3.06618750000000e+01 4.90277088520294e-07 1.61988409083861e-08
3.07606250000000e+01 4.69557041223832e-07 1.55392096138061e-08
3.08593750000000e+01 4.49712662748166e-07 1.49063622828354e-08
3.09581250000000e+01 4.30706945654425e-07 1.42992149762601e-08
3.10568750000000e+01 4.12504446508874e-07 1.37167274508220e-08
3.11556250000000e+01 3.95071219785062e-07 1.31579014058830e-08
