Energy (eV)          EEDF (eV^-(3/2))     First Anisotropy
1.28205128205128e-03 6.15317127874534e-01 3.66603817635464e-08
3.84615384615385e-03 6.15317100796336e-01 1.08969401946730e-07
6.41025641025641e-03 6.15317034832663e-01 2.62767143829512e-07
8.97435897435897e-03 6.15316926839840e-01 4.55107573173495e-07
1.15384615384615e-02 6.15316779966869e-01 6.75872019862955e-07
1.41025641025641e-02 6.15316592743487e-01 9.25091079884419e-07
1.66666666666667e-02 6.15316365950798e-01 1.18487277937091e-06
1.92307692307692e-02 6.15316104511730e-01 1.44381916133038e-06
2.17948717948718e-02 6.15315811602564e-01 1.70414490274909e-06
2.43589743589744e-02 6.15315489352708e-01 1.97120119639156e-06
2.69230769230769e-02 6.15315137926131e-01 2.24863699925823e-06
2.94871794871795e-02 6.15314757697219e-01 2.53234224685764e-06
3.20512820512820e-02 6.15314349869241e-01 2.81612784776817e-06
3.46153846153846e-02 6.15313916356402e-01 3.10461313578183e-06
3.71794871794872e-02 6.15313456567946e-01 3.40530420431426e-06
3.97435897435897e-02 6.15312970081248e-01 3.71904222262633e-06
4.23076923076923e-02 6.15312456091501e-01 4.04911384567920e-06
4.48717948717949e-02 6.15311913342465e-01 4.39586835676538e-06
4.74358974358974e-02 6.15311341044436e-01 4.75747147357713e-06
5.00000000000000e-02 6.15310738493662e-01 5.12650204424753e-06
5.25641025641026e-02 6.15310106762420e-01 5.49514949449572e-06
5.51282051282051e-02 6.15309446934205e-01 5.87012472973005e-06
5.76923076923077e-02 6.15308758315966e-01 6.25865058478663e-06
6.02564102564103e-02 6.15308040262667e-01 6.66066682359034e-06
6.28205128205128e-02 6.15307292132194e-01 7.07663317117209e-06
6.53846153846154e-02 6.15306513212638e-01 7.50714202060252e-06
6.79487179487179e-02 6.15305702769938e-01 7.95233927733983e-06
7.05128205128205e-02 6.15304860098427e-01 8.39739649476007e-06
7.30769230769231e-02 6.15303987605789e-01 8.83483645273687e-06
7.56410256410256e-02 6.15303086014395e-01 9.27857745215436e-06
7.82051282051282e-02 6.15302154732037e-01 9.73493040072202e-06
8.07692307692308e-02 6.15301193186941e-01 1.02039384319943e-05
8.33333333333333e-02 6.15300200804780e-01 1.06859116061745e-05
8.58974358974359e-02 6.15299176979206e-01 1.11810550696053e-05
8.84615384615385e-02 6.15298121121552e-01 1.16892400689077e-05
9.10256410256410e-02 6.15297032672638e-01 1.22103726025594e-05
9.35897435897436e-02 6.15295911081863e-01 1.27446170553746e-05
9.61538461538462e-02 6.15294755779109e-01 1.32921399342398e-05
9.87179487179487e-02 6.15293566202031e-01 1.38529711220607e-05
1.01282051282051e-01 6.15292341792868e-01 1.43994778688958e-05
1.03846153846154e-01 6.15291086931547e-01 1.49289631070976e-05
1.06410256410256e-01 6.15289801388326e-01 1.54669624853603e-05
1.08974358974359e-01 6.15288484931074e-01 1.60135069980494e-05
1.11538461538462e-01 6.15287137324361e-01 1.65686336083016e-05
1.14102564102564e-01 6.15285758329686e-01 1.71323785928758e-05
1.16666666666667e-01 6.15284347705664e-01 1.77047776429223e-05
1.19230769230769e-01 6.15282905208207e-01 1.82858659399770e-05
1.21794871794872e-01 6.15281430590673e-01 1.88756782461665e-05
1.24358974358974e-01 6.15279923604001e-01 1.94742489768570e-05
1.26923076923077e-01 6.15278383996832e-01 2.00816122419178e-05
1.29487179487179e-01 6.15276811515612e-01 2.06978019113871e-05
1.32051282051282e-01 6.15275205904690e-01 2.13228516564813e-05
1.34615384615385e-01 6.15273566906395e-01 2.19567949877909e-05
1.37179487179487e-01 6.15271894261119e-01 2.25996652951166e-05
1.39743589743590e-01 6.15270187707374e-01 2.32514958751673e-05
1.42307692307692e-01 6.15268446981859e-01 2.39123199620053e-05
1.44871794871795e-01 6.15266671819506e-01 2.45821707488941e-05
1.47435897435897e-01 6.15264861953528e-01 2.52610814079800e-05
1.50000000000000e-01 6.15263017115465e-01 2.59490851155582e-05
1.52564102564103e-01 6.15261137035215e-01 2.66462150694170e-05
1.55128205128205e-01 6.15259221441071e-01 2.73525044863246e-05
1.57692307692308e-01 6.15257270059747e-01 2.80679866280312e-05
1.60256410256410e-01 6.15255282616410e-01 2.87926948162903e-05
1.62820512820513e-01 6.15253258834697e-01 2.95266624311458e-05
1.65384615384615e-01 6.15251198436740e-01 3.02699229196390e-05
1.67948717948718e-01 6.15249101143183e-01 3.10225098032991e-05
1.70512820512821e-01 6.15246966673200e-01 3.17844563806242e-05
1.73076923076923e-01 6.15244794744551e-01 3.25557942249802e-05
1.75641025641026e-01 6.15242585073795e-01 3.33365505922587e-05
1.78205128205128e-01 6.15240337376689e-01 3.41267380371903e-05
1.80769230769231e-01 6.15238051369761e-01 3.49263416008072e-05
1.83333333333333e-01 6.15235726772347e-01 3.57353022218644e-05
1.85897435897436e-01 6.15233363310237e-01 3.65534646108799e-05
1.88461538461538e-01 6.15230960724351e-01 3.73805822961720e-05
1.91025641025641e-01 6.15228518773344e-01 3.82163847996483e-05
1.93589743589744e-01 6.15226037233267e-01 3.90606147545091e-05
1.96153846153846e-01 6.15223515895345e-01 3.99130707813906e-05
1.98717948717949e-01 6.15220954560221e-01 4.07736332338695e-05
2.01282051282051e-01 6.15218353032745e-01 4.15861707202807e-05
2.03846153846154e-01 6.15215718645282e-01 4.23486085762997e-05
2.06410256410256e-01 6.15213051369996e-01 4.31154348362688e-05
2.08974358974359e-01 6.15210351178618e-01 4.38866227145515e-05
2.11538461538462e-01 6.15207618042651e-01 4.46621446016926e-05
2.14102564102564e-01 6.15204851933341e-01 4.54419738307771e-05
2.16666666666667e-01 6.15202052821658e-01 4.62260846453602e-05
2.19230769230769e-01 6.15199220678278e-01 4.70144521605323e-05
2.21794871794872e-01 6.15196355473557e-01 4.78070523435911e-05
2.24358974358974e-01 6.15193457177519e-01 4.86038619808062e-05
2.26923076923077e-01 6.15190525759838e-01 4.94048586455893e-05
2.29487179487179e-01 6.15187561189825e-01 5.02100206868357e-05
2.32051282051282e-01 6.15184563436407e-01 5.10193271921080e-05
2.34615384615385e-01 6.15181532468123e-01 5.18327579672710e-05
2.37179487179487e-01 6.15178468253104e-01 5.26502935151272e-05
2.39743589743590e-01 6.15175370759066e-01 5.34719150187349e-05
2.42307692307692e-01 6.15172239953299e-01 5.42976043266864e-05
2.44871794871795e-01 6.15169075802653e-01 5.51273439201955e-05
2.47435897435897e-01 6.15165878273533e-01 5.59611168981246e-05
2.50000000000000e-01 6.15162647331889e-01 5.67989069698589e-05
2.52564102564103e-01 6.15159382943206e-01 5.76406984250544e-05
2.55128205128205e-01 6.15156085072500e-01 5.84864761236014e-05
2.57692307692308e-01 6.15152753684308e-01 5.93362254769204e-05
2.60256410256410e-01 6.15149388742681e-01 6.01899324341465e-05
2.62820512820513e-01 6.15145990211182e-01 6.10475834663989e-05
2.65384615384615e-01 6.15142558052876e-01 6.19091655510639e-05
2.67948717948718e-01 6.15139092230327e-01 6.27746661672453e-05
2.70512820512820e-01 6.15135592705592e-01 6.36440731692193e-05
2.73076923076923e-01 6.15132059440229e-01 6.45173742862435e-05
2.75641025641026e-01 6.15128492395347e-01 6.53945562904131e-05
2.78205128205128e-01 6.15124891531702e-01 6.62756015924446e-05
2.80769230769231e-01 6.15121256810118e-01 6.71604840988654e-05
2.83333333333333e-01 6.15117588192026e-01 6.80491637938560e-05
2.85897435897436e-01 6.15113885640459e-01 6.89415692384462e-05
2.88461538461538e-01 6.15110149122450e-01 6.98375995079592e-05
2.91025641025641e-01 6.15106378609750e-01 7.07371468728205e-05
2.93589743589744e-01 6.15102574078718e-01 7.16401093837396e-05
2.96153846153846e-01 6.15098735509675e-01 7.25464053546034e-05
2.98717948717949e-01 6.15094862885256e-01 7.34559814898039e-05
3.01282051282051e-01 6.15090956188950e-01 7.43536839686253e-05
3.03846153846154e-01 6.15087017410982e-01 7.52924906615671e-05
3.06410256410256e-01 6.15083040960594e-01 7.63386777631269e-05
3.08974358974359e-01 6.15079021521673e-01 7.74882022053568e-05
3.11538461538462e-01 6.15074954041316e-01 7.87371478308862e-05
3.14102564102564e-01 6.15070833719013e-01 8.00817199532459e-05
3.16666666666667e-01 6.15066655996308e-01 8.15182411135253e-05
3.19230769230769e-01 6.15062416546917e-01 8.30431470290400e-05
3.21794871794872e-01 6.15058111267280e-01 8.46529826652986e-05
3.24358974358974e-01 6.15053736267529e-01 8.63443984781203e-05
3.26923076923077e-01 6.15049287862844e-01 8.81141468252341e-05
3.29487179487179e-01 6.15044762565189e-01 8.99590784922368e-05
3.32051282051282e-01 6.15040157075401e-01 9.18761393721066e-05
3.34615384615385e-01 6.15035468275614e-01 9.38623672761642e-05
3.37179487179487e-01 6.15030693222010e-01 9.59148888575278e-05
3.39743589743590e-01 6.15025829137878e-01 9.80309166336488e-05
3.42307692307692e-01 6.15020873406962e-01 1.00207746142522e-04
3.44871794871795e-01 6.15015823567095e-01 1.02442753211766e-04
3.47435897435897e-01 6.15010677304090e-01 1.04733391300803e-04
3.50000000000000e-01 6.15005432445896e-01 1.07077188962454e-04
3.52564102564103e-01 6.15000086956988e-01 1.09471747389948e-04
3.55128205128205e-01 6.14994638932995e-01 1.11914738053577e-04
3.57692307692308e-01 6.14989086595546e-01 1.14403900437780e-04
3.60256410256410e-01 6.14983428287324e-01 1.16937039823433e-04
3.62820512820513e-01 6.14977662467333e-01 1.19512025168964e-04
3.65384615384615e-01 6.14971787706344e-01 1.22126787080956e-04
3.67948717948718e-01 6.14965802682536e-01 1.24779315826596e-04
3.70512820512821e-01 6.14959706177309e-01 1.27467659389292e-04
3.73076923076923e-01 6.14953497071271e-01 1.30189921401488e-04
3.75641025641026e-01 6.14947174340405e-01 1.32944258936908e-04
3.78205128205128e-01 6.14940737052414e-01 1.35728879097512e-04
3.80769230769231e-01 6.14934184363350e-01 1.38542035226647e-04
3.83333333333333e-01 6.14927515514455e-01 1.41382022625012e-04
3.85897435897436e-01 6.14920729829321e-01 1.44247168848492e-04
3.88461538461538e-01 6.14913826711763e-01 1.47135833382186e-04
3.91025641025641e-01 6.14906805643095e-01 1.50046416988728e-04
3.93589743589744e-01 6.14899666179199e-01 1.52977366929496e-04
3.96153846153846e-01 6.14892407947393e-01 1.55927183331623e-04
3.98717948717949e-01 6.14885030642991e-01 1.58894421794474e-04
4.01282051282051e-01 6.14877534026045e-01 1.61817681298860e-04
4.03846153846154e-01 6.14869924499825e-01 1.64756063433950e-04
4.06410256410256e-01 6.14862196325723e-01 1.67826907931632e-04
4.08974358974359e-01 6.14854344048197e-01 1.71025142334107e-04
4.11538461538462e-01 6.14846362483954e-01 1.74345851068363e-04
4.14102564102564e-01 6.14838246711546e-01 1.77784270884471e-04
4.16666666666667e-01 6.14829992061333e-01 1.81335786430653e-04
4.19230769230769e-01 6.14821594105826e-01 1.84995925957395e-04
4.21794871794872e-01 6.14813048650374e-01 1.88760357183693e-04
4.24358974358974e-01 6.14804351724192e-01 1.92624883293026e-04
4.26923076923077e-01 6.14795499571717e-01 1.96585439059829e-04
4.29487179487179e-01 6.14786488644270e-01 2.00638087111835e-04
4.32051282051282e-01 6.14777315592021e-01 2.04779014275717e-04
4.34615384615385e-01 6.14767977256246e-01 2.09004528048129e-04
4.37179487179487e-01 6.14758470661858e-01 2.13311053212634e-04
4.39743589743590e-01 6.14748793010202e-01 2.17695128514232e-04
4.42307692307692e-01 6.14738941672115e-01 2.22153403464945e-04
4.44871794871795e-01 6.14728914181223e-01 2.26682635234504e-04
4.47435897435897e-01 6.14718708227484e-01 2.31279685637657e-04
4.50000000000000e-01 6.14708321650954e-01 2.35941518223384e-04
4.52564102564103e-01 6.14697752435779e-01 2.40665195424838e-04
4.55128205128205e-01 6.14686998704392e-01 2.45447875828330e-04
4.57692307692308e-01 6.14676058711919e-01 2.50286811512355e-04
4.60256410256410e-01 6.14664930840780e-01 2.55179345462052e-04
4.62820512820513e-01 6.14653613595477e-01 2.60122909068241e-04
4.65384615384615e-01 6.14642105597569e-01 2.65115019693568e-04
4.67948717948718e-01 6.14630405580819e-01 2.70153278303226e-04
4.70512820512821e-01 6.14618512386511e-01 2.75235367164916e-04
4.73076923076923e-01 6.14606424958929e-01 2.80359047483657e-04
4.75641025641026e-01 6.14594142341014e-01 2.85522156976710e-04
4.78205128205128e-01 6.14581663670169e-01 2.90722606841188e-04
4.80769230769231e-01 6.14568988174297e-01 2.95958378441089e-04
4.83333333333333e-01 6.14556115168007e-01 3.01227519698591e-04
4.85897435897436e-01 6.14543044049067e-01 3.06528138006919e-04
4.88461538461538e-01 6.14529774295326e-01 3.11858399699512e-04
4.91025641025641e-01 6.14516305461287e-01 3.17216535485623e-04
4.93589743589744e-01 6.14502637174637e-01 3.22600841872132e-04
4.96153846153846e-01 6.14488769132785e-01 3.28009684709921e-04
4.98717948717949e-01 6.14474701099147e-01 3.33441499554591e-04
5.01282051282051e-01 6.14460432899753e-01 3.38832727256687e-04
5.03846153846154e-01 6.14445970440205e-01 3.44191454218229e-04
5.06410256410256e-01 6.14431312858153e-01 3.49587271206775e-04
5.08974358974359e-01 6.14416459403380e-01 3.55017611801624e-04
5.11538461538461e-01 6.14401409433625e-01 3.60479985372986e-04
5.14102564102564e-01 6.14386162410459e-01 3.65971975934620e-04
5.16666666666667e-01 6.14370717895302e-01 3.71491240297996e-04
5.19230769230769e-01 6.14355075545566e-01 3.77035506355008e-04
5.21794871794872e-01 6.14339235110911e-01 3.82602571359358e-04
5.24358974358974e-01 6.14323196429618e-01 3.88190300211984e-04
5.26923076923077e-01 6.14306959425088e-01 3.93796623854931e-04
5.29487179487179e-01 6.14290524102433e-01 3.99419537685382e-04
5.32051282051282e-01 6.14273890545185e-01 4.05057100000736e-04
5.34615384615385e-01 6.14257058912101e-01 4.10707430501957e-04
5.37179487179487e-01 6.14240029434072e-01 4.16368708804508e-04
5.39743589743590e-01 6.14222802411124e-01 4.22039173013500e-04
5.42307692307692e-01 6.14205378209513e-01 4.27717118331120e-04
5.44871794871795e-01 6.14187757258915e-01 4.33400895684214e-04
5.47435897435897e-01 6.14169940049693e-01 4.39088910380038e-04
5.50000000000000e-01 6.14151927130262e-01 4.44779620836482e-04
5.52564102564103e-01 6.14133719104523e-01 4.50471537309439e-04
5.55128205128205e-01 6.14115316629388e-01 4.56163220619481e-04
5.57692307692308e-01 6.14096720412371e-01 4.61853280984231e-04
5.60256410256410e-01 6.14077931209264e-01 4.67540376834988e-04
5.62820512820513e-01 6.14058949821878e-01 4.73223213649776e-04
5.65384615384615e-01 6.14039777095858e-01 4.78900542857561e-04
5.67948717948718e-01 6.14020413918564e-01 4.84571160729730e-04
5.70512820512820e-01 6.14000861217018e-01 4.90233907284145e-04
5.73076923076923e-01 6.13981119955921e-01 4.95887665156943e-04
5.75641025641026e-01 6.13961191135731e-01 5.01531358381619e-04
5.78205128205128e-01 6.13941075790817e-01 5.07163950720311e-04
5.80769230769231e-01 6.13920774987712e-01 5.12784443793107e-04
5.83333333333333e-01 6.13900289823459e-01 5.18391875015295e-04
5.85897435897436e-01 6.13879621424063e-01 5.23985313864584e-04
5.88461538461538e-01 6.13858770943165e-01 5.29563861967862e-04
5.91025641025641e-01 6.13837739560513e-01 5.35126655710796e-04
5.93589743589744e-01 6.13816528480453e-01 5.40672868451484e-04
5.96153846153846e-01 6.13795138930235e-01 5.46201714604606e-04
5.98717948717949e-01 6.13773572158182e-01 5.51712447811178e-04
6.01282051282051e-01 6.13751829432208e-01 5.57371727436136e-04
6.03846153846154e-01 6.13729898924289e-01 5.63505750956092e-04
6.06410256410256e-01 6.13707756443784e-01 5.70262372113756e-04
6.08974358974359e-01 6.13685378812380e-01 5.77619276649288e-04
6.11538461538462e-01 6.13662743831663e-01 5.85554767626869e-04
6.14102564102564e-01 6.13639830251750e-01 5.94047748111190e-04
6.16666666666667e-01 6.13616617740894e-01 6.03077704903998e-04
6.19230769230769e-01 6.13593086856036e-01 6.12624692808453e-04
6.21794871794872e-01 6.13569219014262e-01 6.22669319320836e-04
6.24358974358974e-01 6.13544996465154e-01 6.33192729712097e-04
6.26923076923077e-01 6.13520402263989e-01 6.44176592574860e-04
6.29487179487179e-01 6.13495420245766e-01 6.55603085731557e-04
6.32051282051282e-01 6.13470035000044e-01 6.67454882523554e-04
6.34615384615385e-01 6.13444231846546e-01 6.79715138476424e-04
6.37179487179487e-01 6.13417996811523e-01 6.92367478318755e-04
6.39743589743590e-01 6.13391316604850e-01 7.05395983347277e-04
6.42307692307692e-01 6.13364178597823e-01 7.18785179104493e-04
6.44871794871795e-01 6.13336570801645e-01 7.32520023417503e-04
6.47435897435897e-01 6.13308481846583e-01 7.46585894744764e-04
6.50000000000000e-01 6.13279900961752e-01 7.60968580824877e-04
6.52564102564103e-01 6.13250817955544e-01 7.75654267627080e-04
6.55128205128205e-01 6.13221223196644e-01 7.90629528588210e-04
6.57692307692308e-01 6.13191107595646e-01 8.05881314152850e-04
6.60256410256410e-01 6.13160462587228e-01 8.21396941568520e-04
6.62820512820513e-01 6.13129280112885e-01 8.37164084954908e-04
6.65384615384615e-01 6.13097552604191e-01 8.53170765646915e-04
6.67948717948718e-01 6.13065272966583e-01 8.69405342769894e-04
6.70512820512820e-01 6.13032434563645e-01 8.85856504048942e-04
6.73076923076923e-01 6.12999031201882e-01 9.02513256815514e-04
6.75641025641026e-01 6.12965057115970e-01 9.19364919159183e-04
6.78205128205128e-01 6.12930506954472e-01 9.36401110999144e-04
6.80769230769231e-01 6.12895375766025e-01 9.53611745183541e-04
6.83333333333333e-01 6.12859658985982e-01 9.70987018657211e-04
6.85897435897436e-01 6.12823352423511e-01 9.88517402031496e-04
6.88461538461538e-01 6.12786452249261e-01 1.00619363243147e-03
6.91025641025641e-01 6.12748954983211e-01 1.02400671155631e-03
6.93589743589744e-01 6.12710857482663e-01 1.04194789979870e-03
6.96153846153846e-01 6.12672156930754e-01 1.06000870872445e-03
6.98717948717949e-01 6.12632850825227e-01 1.07818089728040e-03
7.01282051282051e-01 6.12592936967387e-01 1.09668061389192e-03
7.03846153846154e-01 6.12552397729228e-01 1.11605813471191e-03
7.06410256410256e-01 6.12511190727368e-01 1.13662259656065e-03
7.08974358974359e-01 6.12469275289719e-01 1.15833289805892e-03
7.11538461538462e-01 6.12426612409338e-01 1.18114887823851e-03
7.14102564102564e-01 6.12383164699378e-01 1.20503129713126e-03
7.16666666666667e-01 6.12338896349195e-01 1.22994181577003e-03
7.19230769230769e-01 6.12293773081563e-01 1.25584297661426e-03
7.21794871794872e-01 6.12247762110996e-01 1.28269818444880e-03
7.24358974358974e-01 6.12200832103111e-01 1.31047168766071e-03
7.26923076923077e-01 6.12152953135048e-01 1.33912855994371e-03
7.29487179487179e-01 6.12104096656879e-01 1.36863468235201e-03
7.32051282051282e-01 6.12054235454013e-01 1.39895672575382e-03
7.34615384615385e-01 6.12003343610552e-01 1.43006213363811e-03
7.37179487179487e-01 6.11951396473591e-01 1.46191910520530e-03
7.39743589743590e-01 6.11898370618421e-01 1.49449657886552e-03
7.42307692307692e-01 6.11844243814628e-01 1.52776421603798e-03
7.44871794871795e-01 6.11788994993060e-01 1.56169238529119e-03
7.47435897435897e-01 6.11732604213639e-01 1.59625214678162e-03
7.50000000000000e-01 6.11675052633996e-01 1.63141523700049e-03
7.52564102564103e-01 6.11616322478924e-01 1.66715405385264e-03
7.55128205128205e-01 6.11556397010601e-01 1.70344164201148e-03
7.57692307692308e-01 6.11495260499592e-01 1.74025167854835e-03
7.60256410256410e-01 6.11432898196597e-01 1.77755845889358e-03
7.62820512820513e-01 6.11369296304925e-01 1.81533688304928e-03
7.65384615384615e-01 6.11304441953685e-01 1.85356244204809e-03
7.67948717948718e-01 6.11238323171672e-01 1.89221120472918e-03
7.70512820512821e-01 6.11170928861930e-01 1.93125980471831e-03
7.73076923076923e-01 6.11102248776980e-01 1.97068542763968e-03
7.75641025641026e-01 6.11032273494696e-01 2.01046579847625e-03
7.78205128205128e-01 6.10960994394821e-01 2.05057916883612e-03
7.80769230769231e-01 6.10888403636130e-01 2.09100430408318e-03
7.83333333333333e-01 6.10814494134230e-01 2.13172047062617e-03
7.85897435897436e-01 6.10739259539976e-01 2.17270742244127e-03
7.88461538461538e-01 6.10662694218576e-01 2.21394539124519e-03
7.91025641025641e-01 6.10584793229017e-01 2.25541507747513e-03
7.93589743589744e-01 6.10505552304121e-01 2.29709764365136e-03
7.96153846153846e-01 6.10424967830714e-01 2.33897471044581e-03
7.98717948717949e-01 6.10343036830202e-01 2.38102834334566e-03
8.01282051282051e-01 6.10259756940023e-01 2.42309896890288e-03
8.03846153846154e-01 6.10175136240392e-01 2.46489204225871e-03
8.06410256410256e-01 6.10089192706639e-01 2.50626462633395e-03
8.08974358974359e-01 6.10001944169629e-01 2.54721851412058e-03
