Energy (eV)          EEDF (eV^-(3/2))     First Anisotropy
6.45000000000000e-02 1.59733898570370e+00 3.84823865261160e-03
1.93500000000000e-01 1.34382448840203e+00 5.87000377018665e-03
3.22500000000000e-01 1.13054540820175e+00 6.56334056960482e-03
4.51500000000000e-01 9.51115961226400e-01 6.58313956095541e-03
5.80500000000000e-01 8.00163854664192e-01 6.29923083281690e-03
7.09500000000000e-01 6.73169435076543e-01 5.86786671730846e-03
8.38500000000000e-01 5.66330365561751e-01 5.37138491454458e-03
9.67500000000000e-01 4.76447780076108e-01 4.85676274484523e-03
1.09650000000000e+00 4.00830506261631e-01 4.35143160285029e-03
1.22550000000000e+00 3.37214489118389e-01 3.87117438376320e-03
1.35450000000000e+00 2.83695002987504e-01 3.42454679053376e-03
1.48350000000000e+00 2.38669622205421e-01 3.01553522958892e-03
1.61250000000000e+00 2.00790242915161e-01 2.64522933296275e-03
1.74150000000000e+00 1.68922719520749e-01 2.31290556613632e-03
1.87050000000000e+00 1.42112907260849e-01 2.01674166409437e-03
1.99950000000000e+00 1.19558094183121e-01 1.75429161823266e-03
2.12850000000000e+00 1.00582967164715e-01 1.52280155402468e-03
2.25750000000000e+00 8.46193923780888e-02 1.31941811307821e-03
2.38650000000000e+00 7.11894048095740e-02 1.14132344103424e-03
2.51550000000000e+00 5.98908975202435e-02 9.85819797399624e-04
2.64450000000000e+00 5.03855821716032e-02 8.50379570638735e-04
2.77350000000000e+00 4.23888603424799e-02 7.32671646739310e-04
2.90250000000000e+00 3.56613023744505e-02 6.30571783952618e-04
3.03150000000000e+00 3.00014786141238e-02 5.42162365629861e-04
3.16050000000000e+00 2.52399284126705e-02 4.65725305770967e-04
3.28950000000000e+00 2.12340863085603e-02 3.99730753281928e-04
3.41850000000000e+00 1.78640134784630e-02 3.42823438486980e-04
3.54750000000000e+00 1.50288066517869e-02 2.93807932714461e-04
3.67650000000000e+00 1.26435769682496e-02 2.51633682393429e-04
3.80550000000000e+00 1.06369083225276e-02 2.15380386726509e-04
3.93450000000000e+00 8.94871909634303e-03 1.84244079909376e-04
4.06350000000000e+00 7.52846325615647e-03 1.57524131693574e-04
4.19250000000000e+00 6.33361695557748e-03 1.34611277038028e-04
4.32150000000000e+00 5.32840532988911e-03 1.14976714503761e-04
4.45050000000000e+00 4.48273136167295e-03 9.81622650675706e-05
4.57950000000000e+00 3.77127474672509e-03 8.37715517031330e-05
4.70850000000000e+00 3.17273377942920e-03 7.14621406745229e-05
4.83750000000000e+00 2.66918755889436e-03 6.09385745451377e-05
4.96650000000000e+00 2.24555941968702e-03 5.19462218899732e-05
5.09550000000000e+00 1.88916552174919e-03 4.42658677596915e-05
5.22450000000000e+00 1.58933508384441e-03 3.77089707333611e-05
5.35350000000000e+00 1.33709088995013e-03 3.21135159378594e-05
5.48250000000000e+00 1.12488050264588e-03 2.73403980055209e-05
5.61150000000000e+00 9.46350135763801e-04 2.32702730906461e-05
5.74050000000000e+00 7.96154415827845e-04 1.98008244225527e-05
5.86950000000000e+00 6.69796336353443e-04 1.68443912004569e-05
5.99850000000000e+00 5.63492613083117e-04 1.43259157763791e-05
6.12750000000000e+00 4.74060408762352e-04 1.21811689274482e-05
6.25650000000000e+00 3.98822035884931e-04 1.03552175312495e-05
6.38550000000000e+00 3.35524784114883e-04 8.80110309964384e-06
6.51450000000000e+00 2.82273471939799e-04 7.47870339087953e-06
6.64350000000000e+00 2.37473703086169e-04 6.35375271389064e-06
6.77250000000000e+00 1.99784128738406e-04 5.39699957866772e-06
6.90150000000000e+00 1.68076286245813e-04 4.58348305434903e-06
7.03050000000000e+00 1.41400811849144e-04 3.89191159716770e-06
7.15950000000000e+00 1.18959015802832e-04 3.30413022986303e-06
7.28850000000000e+00 1.00078968824281e-04 2.80466381895436e-06
7.41750000000000e+00 8.41953838751656e-05 2.38032583195050e-06
7.54650000000000e+00 7.08326909156425e-05 2.01988338739968e-06
7.67550000000000e+00 5.95907978730749e-05 1.71377065932353e-06
7.80450000000000e+00 5.01331114947867e-05 1.45384378489286e-06
7.93350000000000e+00 4.21764594174752e-05 1.23317136921717e-06
8.06250000000000e+00 3.54826117102051e-05 1.04585550103585e-06
8.19150000000000e+00 2.98511480377020e-05 8.86878903362136e-07
8.32050000000000e+00 2.51134568798529e-05 7.51974457527733e-07
8.44950000000000e+00 2.11276871381856e-05 6.37513869855427e-07
8.57850000000000e+00 1.77745009754972e-05 5.40412708181477e-07
8.70750000000000e+00 1.49535007245040e-05 4.58049430207704e-07
8.83650000000000e+00 1.25802228836687e-05 3.88196365572110e-07
8.96550000000000e+00 1.05836091975066e-05 3.28960905934484e-07
9.09450000000000e+00 8.90387910304496e-06 2.78735408700144e-07
9.22350000000000e+00 7.49073984140667e-06 2.36154535848624e-07
9.35250000000000e+00 6.30188064351057e-06 2.00058934565492e-07
9.48150000000000e+00 5.30170590433901e-06 1.69464325225051e-07
9.61050000000000e+00 4.46026941577316e-06 1.43535198407837e-07
9.73950000000000e+00 3.75237774788675e-06 1.21562439235842e-07
9.86850000000000e+00 3.15683593305874e-06 1.02944297116549e-07
9.99750000000000e+00 2.65581286795105e-06 8.71702043759466e-08
1.01265000000000e+01 2.23430743286688e-06 7.38070202765820e-08
1.02555000000000e+01 1.87969934358199e-06 6.24873393222127e-08
1.03845000000000e+01 1.58137128771441e-06 5.28995560634407e-08
1.05135000000000e+01 1.33039103202647e-06 4.47794241440452e-08
1.06425000000000e+01 1.11924398264154e-06 3.79028861872767e-08
1.07715000000000e+01 9.41608190767154e-07 3.20799842783078e-08
1.09005000000000e+01 7.92165067376338e-07 2.71496890798166e-08
1.10295000000000e+01 6.66440139459806e-07 2.29755097309775e-08
1.11585000000000e+01 5.60669079935843e-07 1.94417672332404e-08
1.12875000000000e+01 4.71685000022516e-07 1.64504315392724e-08
1.14165000000000e+01 3.96823629495852e-07 1.39184374794864e-08
1.15455000000000e+01 3.33843545838312e-07 1.17754073645112e-08
1.16745000000000e+01 2.80859063860415e-07 9.96171891739635e-09
1.18035000000000e+01 2.36283776445248e-07 8.42686639458764e-09
1.19325000000000e+01 1.98783055970645e-07 7.12807058750390e-09
1.20615000000000e+01 1.67234094255240e-07 6.02910005988650e-09
1.21905000000000e+01 1.40692284585365e-07 5.09927164327499e-09
1.23195000000000e+01 1.18362939267865e-07 4.31260303182160e-09
1.24485000000000e+01 9.95774959047440e-08 3.64709441430521e-09
1.25775000000000e+01 8.37734999822818e-08 3.08411956315947e-09
1.27065000000000e+01 7.04777644337913e-08 2.60790975923523e-09
1.28355000000000e+01 5.92922019568900e-08 2.20511644496482e-09
1.29645000000000e+01 4.98819058910311e-08 1.86444063410207e-09
1.30935000000000e+01 4.19651227851311e-08 1.57631891992583e-09
1.32225000000000e+01 3.53048164241811e-08 1.33265746393982e-09
1.33515000000000e+01 2.97015707335606e-08 1.12660665472622e-09
1.34805000000000e+01 2.49876190670822e-08 9.52370236640331e-10
1.36095000000000e+01 2.10218211098211e-08 8.05043650182072e-10
1.37385000000000e+01 1.76854369992972e-08 6.80477125418239e-10
1.38675000000000e+01 1.48785721380716e-08 5.75159748244939e-10
1.39965000000000e+01 1.25171862519766e-08 4.86121294841866e-10
1.41255000000000e+01 1.05305771422620e-08 4.10849117905410e-10
1.42545000000000e+01 8.85926379274085e-09 3.47217782351831e-10
1.43835000000000e+01 7.45320545009655e-09 2.93429499365521e-10
1.45125000000000e+01 6.27030335487538e-09 2.47963705454446e-10
1.46415000000000e+01 5.27514026352944e-09 2.09534385653803e-10
1.47705000000000e+01 4.43792002156848e-09 1.77053954058452e-10
1.48995000000000e+01 3.73357543760570e-09 1.49602686296599e-10
1.50285000000000e+01 3.14101774717562e-09 1.26402852332305e-10
1.51575000000000e+01 2.64250519453791e-09 1.06796828304584e-10
1.52865000000000e+01 2.22311182719001e-09 9.02285765423047e-11
1.54155000000000e+01 1.87028059827763e-09 7.62279764626255e-11
1.55445000000000e+01 1.57344739635302e-09 6.43975683335326e-11
1.56735000000000e+01 1.32372474556494e-09 5.44013390359089e-11
1.58025000000000e+01 1.11363570595519e-09 4.59552358445812e-11
1.59315000000000e+01 9.36890006576889e-10 3.88191424274508e-11
1.60605000000000e+01 7.88195708641331e-10 3.27900920654545e-11
1.61895000000000e+01 6.63100759704416e-10 2.76965276499853e-11
1.63185000000000e+01 5.57859694870099e-10 2.33934472733246e-11
1.64475000000000e+01 4.69321493914866e-10 1.97582990009696e-11
1.65765000000000e+01 3.94835236666042e-10 1.66875093884820e-11
1.67055000000000e+01 3.32170731863836e-10 1.40935480610094e-11
1.68345000000000e+01 2.79451743057779e-10 1.19024457036134e-11
1.69635000000000e+01 2.35099812255714e-10 1.00516955324047e-11
1.70925000000000e+01 1.97786999350525e-10 8.48847908392279e-12
1.72215000000000e+01 1.66396122296919e-10 7.16816627280189e-12
1.73505000000000e+01 1.39987307590335e-10 6.05304737934284e-12
1.74795000000000e+01 1.17769849536655e-10 5.11126115411995e-12
1.76085000000000e+01 9.90785357517938e-11 4.31588874825049e-12
1.77375000000000e+01 8.33537300534986e-11 3.64418784961805e-12
1.78665000000000e+01 7.01246164077039e-11 3.07694535772080e-12
1.79955000000000e+01 5.89951022368340e-11 2.59793027345284e-12
1.81245000000000e+01 4.96319590213421e-11 2.19343130860706e-12
1.82535000000000e+01 4.17548451125183e-11 1.85186611244179e-12
1.83825000000000e+01 3.51279120298413e-11 1.56345103634835e-12
1.85115000000000e+01 2.95527429272230e-11 1.31992206926227e-12
1.86405000000000e+01 2.48624117989308e-11 1.11429902402731e-12
1.87695000000000e+01 2.09164855520130e-11 9.40686279112750e-13
1.88985000000000e+01 1.75968193023970e-11 7.94104415315853e-13
1.90275000000000e+01 1.48040190017204e-11 6.70347962473106e-13
1.91565000000000e+01 1.24544654824890e-11 5.65865211398102e-13
1.92855000000000e+01 1.04778108185679e-11 4.77656672108791e-13
1.94145000000000e+01 8.81487203959532e-12 4.03189288542151e-13
1.95435000000000e+01 7.41585913507265e-12 3.40323967302417e-13
1.96725000000000e+01 6.23888429284166e-12 2.87254356173771e-13
1.98015000000000e+01 5.24870773709554e-12 2.42455127828107e-13
1.99305000000000e+01 4.41568261508801e-12 2.04638294405313e-13
2.00595000000000e+01 3.71486734141920e-12 1.72716307077030e-13
2.01885000000000e+01 3.12527882261934e-12 1.45770887785891e-13
2.03175000000000e+01 2.62926420284539e-12 1.23026703545006e-13
2.04465000000000e+01 2.21197232014336e-12 1.03829131607799e-13
2.05755000000000e+01 1.86090904816084e-12 8.76254803833849e-14
2.07045000000000e+01 1.56556320980655e-12 7.39491294817103e-14
2.08335000000000e+01 1.31709186234660e-12 6.24061355190935e-14
2.09625000000000e+01 1.10805553106603e-12 5.26639206605954e-14
2.10915000000000e+01 9.32195464133024e-13 4.44417203177549e-14
2.12205000000000e+01 7.84246239458915e-13 3.75025166467616e-14
2.13495000000000e+01 6.59778112820428e-13 3.16462269302833e-14
2.14785000000000e+01 5.55064386993073e-13 2.67039517823048e-14
2.16075000000000e+01 4.66969830798026e-13 2.25331184092091e-14
2.17365000000000e+01 3.92856807219841e-13 1.90133797539019e-14
2.18655000000000e+01 3.30506299979197e-13 1.60431519715676e-14
2.19945000000000e+01 2.78051474019163e-13 1.35366909513928e-14
2.21235000000000e+01 2.33921780641082e-13 1.14216240286864e-14
2.22525000000000e+01 1.96795933743273e-13 9.63686606605534e-15
2.23815000000000e+01 1.65562349225230e-13 8.13086009230264e-15
2.25105000000000e+01 1.39285863074466e-13 6.86009198757195e-15
2.26395000000000e+01 1.17179731643010e-13 5.78783655834796e-15
2.27685000000000e+01 9.85820757745308e-14 4.88309898047907e-15
2.28975000000000e+01 8.29360634962253e-14 4.11972119189497e-15
2.30265000000000e+01 6.97732379259453e-14 3.47562754923188e-15
2.31555000000000e+01 5.86994912158104e-14 2.93218805941231e-15
2.32845000000000e+01 4.93832645784917e-14 2.47368087262330e-15
2.34135000000000e+01 4.15456210934322e-14 2.08683857363887e-15
2.35425000000000e+01 3.49518940631316e-14 1.76046521559411e-15
2.36715000000000e+01 2.94046608631276e-14 1.48511307303590e-15
2.38005000000000e+01 2.47378319158844e-14 1.25280980754722e-15
2.39295000000000e+01 2.08116778066951e-14 1.05682818863060e-15
2.40585000000000e+01 1.75086456485934e-14 8.91491736365387e-16
2.41875000000000e+01 1.47298394341562e-14 7.52010685699828e-16
2.43165000000000e+01 1.23920589924928e-14 6.34343544726069e-16
2.44455000000000e+01 1.04253088949043e-14 5.35080255936539e-16
2.45745000000000e+01 8.77070272341467e-15 4.51343591406112e-16
2.47035000000000e+01 7.37869995392778e-15 3.80705937933471e-16
2.48325000000000e+01 6.20762266457217e-15 3.21119071480106e-16
2.49615000000000e+01 5.22240765803163e-15 2.70854894495294e-16
2.50905000000000e+01 4.39355663518686e-15 2.28455425659578e-16
2.52195000000000e+01 3.69625298724192e-15 1.92690598295114e-16
2.53485000000000e+01 3.10961876222947e-15 1.62522648843841e-16
2.54775000000000e+01 2.61608955874660e-15 1.37076066876431e-16
2.56065000000000e+01 2.20088863062949e-15 1.15612238531660e-16
2.57355000000000e+01 1.85158445674732e-15 1.05912787366851e-16
