Energy (eV)          EEDF (eV^-(3/2))     First Anisotropy
8.57894736842105e-04 3.86392233892868e+01 2.82303875475002e-02
2.57368421052632e-03 3.79421505717474e+01 4.63517265501003e-02
4.28947368421053e-03 3.72576533295486e+01 6.04923659244295e-02
6.00526315789474e-03 3.65855047943637e+01 7.08201410120250e-02
7.72105263157895e-03 3.59254821882264e+01 7.90968781892713e-02
9.43684210526316e-03 3.52773667521394e+01 8.60003374132087e-02
1.11526315789474e-02 3.46409436763590e+01 9.18870447958867e-02
1.28684210526316e-02 3.40160020213816e+01 9.69757155207641e-02
1.45842105263158e-02 3.34023346562923e+01 1.01413637592072e-01
1.63000000000000e-02 3.27997381868604e+01 1.05306463718280e-01
1.80157894736842e-02 3.22080128907805e+01 1.08733531333479e-01
1.97315789473684e-02 3.16269626435011e+01 1.11756525161670e-01
2.14473684210526e-02 3.10563948613550e+01 1.14424733101563e-01
2.31631578947368e-02 3.04961204349948e+01 1.16778414376741e-01
2.48789473684211e-02 2.99459536683998e+01 1.18851054132761e-01
2.65947368421053e-02 2.94057122121155e+01 1.20670927473296e-01
2.83105263157895e-02 2.88752170081261e+01 1.22262217530007e-01
3.00263157894737e-02 2.83542922287390e+01 1.23645835548305e-01
3.17421052631579e-02 2.78427652195035e+01 1.24840035550327e-01
3.34578947368421e-02 2.73404664382445e+01 1.25860883753532e-01
3.51736842105263e-02 2.68472294026776e+01 1.26722623191963e-01
3.68894736842105e-02 2.63628906349395e+01 1.27437961587419e-01
3.86052631578947e-02 2.58872896044075e+01 1.28018301028904e-01
4.03210526315789e-02 2.54202686775286e+01 1.28473923719179e-01
4.20368421052632e-02 2.49616730645353e+01 1.28814143955856e-01
4.37526315789474e-02 2.45113507689206e+01 1.29047433563567e-01
4.54684210526316e-02 2.40691525347247e+01 1.29181526239449e-01
4.71842105263158e-02 2.36349317994332e+01 1.29223505155988e-01
4.89000000000000e-02 2.32085446445967e+01 1.29179877210085e-01
5.06157894736842e-02 2.27898497487479e+01 1.29056636261209e-01
5.23315789473684e-02 2.23787083386910e+01 1.28859317248852e-01
5.40473684210526e-02 2.19749841454036e+01 1.28593042860053e-01
5.57631578947368e-02 2.15785433582319e+01 1.28262564125114e-01
5.74789473684211e-02 2.11892545810403e+01 1.27872295796126e-01
5.91947368421053e-02 2.08069887871345e+01 1.27426347249990e-01
6.09105263157895e-02 2.04316192780449e+01 1.26928549675546e-01
6.26263157894737e-02 2.00630216410149e+01 1.26382480206836e-01
6.43421052631579e-02 1.97010737081763e+01 1.25791483324119e-01
6.60578947368421e-02 1.93456555147930e+01 1.25158689834713e-01
6.77736842105263e-02 1.89966492607830e+01 1.24487033811585e-01
6.94894736842105e-02 1.86539392716055e+01 1.23779267974639e-01
7.12052631578947e-02 1.83174119588204e+01 1.23037977346648e-01
7.29210526315789e-02 1.79869557835558e+01 1.22265591590703e-01
7.46368421052632e-02 1.76624612191602e+01 1.21464396259027e-01
7.63526315789474e-02 1.73438207152096e+01 1.20636542988516e-01
7.80684210526316e-02 1.70309286609297e+01 1.19784058710880e-01
7.97842105263158e-02 1.67236813511353e+01 1.18908854045122e-01
8.15000000000000e-02 1.64219769515392e+01 1.18012731043500e-01
8.32157894736842e-02 1.61257154652616e+01 1.17097390276447e-01
8.49315789473684e-02 1.58347986988932e+01 1.16164437277924e-01
8.66473684210526e-02 1.55491302307544e+01 1.15215388468003e-01
8.83631578947368e-02 1.52686153786657e+01 1.14251676677859e-01
9.00789473684211e-02 1.49931611687900e+01 1.13274656240624e-01
9.17947368421053e-02 1.47226763041359e+01 1.12285607646980e-01
9.35105263157895e-02 1.44570711349882e+01 1.11285741852623e-01
9.52263157894737e-02 1.41962576289630e+01 1.10276204334945e-01
9.69421052631579e-02 1.39401493420215e+01 1.09258078853459e-01
9.86578947368421e-02 1.36886613892315e+01 1.08232390901761e-01
1.00373684210526e-01 1.34417104172287e+01 1.07200110919478e-01
1.02089473684211e-01 1.31992145763903e+01 1.06162157299671e-01
1.03805263157895e-01 1.29610934945305e+01 1.05119399418223e-01
1.05521052631579e-01 1.27272682469472e+01 1.04072659944329e-01
1.07236842105263e-01 1.24976613360292e+01 1.03022717510245e-01
1.08952631578947e-01 1.22721966591245e+01 1.01970309012646e-01
1.10668421052632e-01 1.20507994895528e+01 1.00916131735736e-01
1.12384210526316e-01 1.18333964458037e+01 9.98608454378680e-02
1.14100000000000e-01 1.16199154730555e+01 9.88050742221637e-02
1.15815789473684e-01 1.14102858136394e+01 9.77494083851736e-02
1.17531578947368e-01 1.12044379890621e+01 9.66944060710416e-02
1.19247368421053e-01 1.10023037716759e+01 9.56405949152248e-02
1.20963157894737e-01 1.08038161672006e+01 9.45884735121514e-02
1.22678947368421e-01 1.06089093875443e+01 9.35385128815450e-02
1.24394736842105e-01 1.04175188338185e+01 9.24911577746079e-02
1.26110526315789e-01 1.02295810702559e+01 9.14468279860763e-02
1.27826315789474e-01 1.00450338077137e+01 9.04059195199805e-02
1.29542105263158e-01 9.86381587863830e+00 8.93688057669746e-02
1.31257894736842e-01 9.68586722104833e+00 8.83358384757751e-02
1.32973684210526e-01 9.51112885545174e+00 8.73073491009871e-02
1.34689473684211e-01 9.33954286547583e+00 8.62836493108923e-02
1.36405263157895e-01 9.17105238144958e+00 8.52650322024523e-02
1.38121052631579e-01 9.00560155785816e+00 8.42517731258995e-02
1.39836842105263e-01 8.84313555842132e+00 8.32441304834822e-02
1.41552631578947e-01 8.68360053443563e+00 8.22423465499979e-02
1.43268421052632e-01 8.52694361030806e+00 8.12466481929257e-02
1.44984210526316e-01 8.37311286274776e+00 8.02572476162004e-02
1.46700000000000e-01 8.22205730674479e+00 7.92743430106165e-02
1.48415789473684e-01 8.07372687557517e+00 7.82981192292334e-02
1.50131578947368e-01 7.92807240721436e+00 7.73287483757536e-02
1.51847368421053e-01 7.78504562512129e+00 7.63663904188673e-02
1.53563157894737e-01 7.64459912507604e+00 7.54111937253008e-02
1.55278947368421e-01 7.50668635671015e+00 7.44632956194682e-02
1.56994736842105e-01 7.37126161075802e+00 7.35228228670552e-02
1.58710526315789e-01 7.23828000130235e+00 7.25898921855656e-02
1.60426315789474e-01 7.10769745342871e+00 7.16646106835583e-02
1.62142105263158e-01 6.97947068615648e+00 7.07470763270069e-02
1.63857894736842e-01 6.85355720048611e+00 6.98373782933264e-02
1.65573684210526e-01 6.72991526352730e+00 6.89355975805330e-02
1.67289473684211e-01 6.60850389475804e+00 6.80418071002481e-02
1.69005263157895e-01 6.48928285402517e+00 6.71560722322213e-02
1.70721052631579e-01 6.37221262610103e+00 6.62784511455851e-02
1.72436842105263e-01 6.25725440963530e+00 6.54089951154476e-02
1.74152631578947e-01 6.14437010230146e+00 6.45477488652193e-02
1.75868421052632e-01 6.03352229010741e+00 6.36947508553831e-02
1.77584210526316e-01 5.92467423310793e+00 6.28500335976286e-02
1.79300000000000e-01 5.81778985506388e+00 6.20136239184196e-02
1.81015789473684e-01 5.71283372969798e+00 6.11855432474882e-02
1.82731578947368e-01 5.60977107069237e+00 6.03658078585267e-02
1.84447368421053e-01 5.50856771846616e+00 5.95544291343282e-02
1.86163157894737e-01 5.40919013050136e+00 5.87514137866995e-02
1.87878947368421e-01 5.31160536862139e+00 5.79567641002839e-02
1.89594736842105e-01 5.21578108963577e+00 5.71704781335717e-02
1.91310526315789e-01 5.12168553309973e+00 5.63925499432553e-02
1.93026315789474e-01 5.02928751226800e+00 5.56229697680117e-02
1.94742105263158e-01 4.93855640231660e+00 5.48617242350446e-02
1.96457894736842e-01 4.84946213159650e+00 5.41087964988494e-02
1.98173684210526e-01 4.76197517061828e+00 5.33641665494073e-02
1.99889473684211e-01 4.67606652231457e+00 5.26278111912765e-02
2.01605263157895e-01 4.59170771336698e+00 5.18997043246400e-02
2.03321052631579e-01 4.50887078352159e+00 5.11798170797046e-02
2.05036842105263e-01 4.42752827753693e+00 5.04681179513928e-02
2.06752631578947e-01 4.34765323490025e+00 4.97645729542456e-02
2.08468421052632e-01 4.26921918204535e+00 4.90691457456286e-02
2.10184210526316e-01 4.19220012245397e+00 4.83817977685487e-02
2.11900000000000e-01 4.11657052913504e+00 4.77024883643353e-02
2.13615789473684e-01 4.04230533509629e+00 4.70311749043356e-02
2.15331578947368e-01 3.96937992607662e+00 4.63678128929479e-02
2.17047368421053e-01 3.89777013137373e+00 4.57123560890784e-02
2.18763157894737e-01 3.82745221682150e+00 4.50647566003218e-02
2.20478947368421e-01 3.75840287595995e+00 4.44249649949815e-02
2.22194736842105e-01 3.69059922324981e+00 4.37929303881239e-02
2.23910526315789e-01 3.62401878557163e+00 4.31686005448951e-02
2.25626315789474e-01 3.55863949567004e+00 4.25519219591071e-02
2.27342105263158e-01 3.49443968396933e+00 4.19428399485274e-02
2.29057894736842e-01 3.43139807223992e+00 4.13412987074002e-02
2.30773684210526e-01 3.36949376591211e+00 4.07472414715873e-02
2.32489473684211e-01 3.30870624717923e+00 4.01606104696277e-02
2.34205263157895e-01 3.24901536876773e+00 3.95813470729639e-02
2.35921052631579e-01 3.19040134650067e+00 3.90093918515713e-02
2.37636842105263e-01 3.13284475348065e+00 3.84446846309593e-02
2.39352631578947e-01 3.07632651292895e+00 3.78871645637582e-02
2.41068421052632e-01 3.02082789256693e+00 3.73367701815897e-02
2.42784210526316e-01 2.96633049772048e+00 3.67934394610216e-02
2.44500000000000e-01 2.91281626589333e+00 3.62571098707147e-02
2.46215789473684e-01 2.86026746012675e+00 3.57277184321693e-02
2.47931578947368e-01 2.80866666375850e+00 3.52052017625191e-02
2.49647368421053e-01 2.75799677402804e+00 3.46894961304553e-02
2.51363157894737e-01 2.70824099701508e+00 3.41805374950128e-02
2.53078947368421e-01 2.65938284148102e+00 3.36782615570253e-02
2.54794736842105e-01 2.61140611398109e+00 3.31826037942214e-02
2.56510526315789e-01 2.56429491293315e+00 3.26934995085382e-02
2.58226315789474e-01 2.51803362389767e+00 3.22108838578188e-02
2.59942105263158e-01 2.47260691386535e+00 3.17346918992899e-02
2.61657894736842e-01 2.42799972669928e+00 3.12648586054075e-02
2.63373684210526e-01 2.38419727775326e+00 3.08013189549266e-02
2.65089473684211e-01 2.34118504898835e+00 3.03440078829009e-02
2.66805263157895e-01 2.29894878451515e+00 2.98928603630805e-02
2.68521052631579e-01 2.25747448539783e+00 2.94478114283296e-02
2.70236842105263e-01 2.21674840547404e+00 2.90087961924510e-02
2.71952631578947e-01 2.17675704635012e+00 2.85757498822534e-02
2.73668421052632e-01 2.13748715336525e+00 2.81486078570187e-02
2.75384210526316e-01 2.09892571077064e+00 2.77273056378445e-02
2.77100000000000e-01 2.06105993783312e+00 2.73117789249394e-02
2.78815789473684e-01 2.02387728419143e+00 2.69019636244380e-02
2.80531578947368e-01 1.98736542609454e+00 2.64977958637004e-02
2.82247368421053e-01 1.95151226192844e+00 2.60992120157798e-02
2.83963157894737e-01 1.91630590858461e+00 2.57061487128817e-02
2.85678947368421e-01 1.88173469715095e+00 2.53185428686615e-02
2.87394736842105e-01 1.84778716940607e+00 2.49363316899874e-02
2.89110526315789e-01 1.81445207366824e+00 2.45594526972215e-02
2.90826315789474e-01 1.78171836141111e+00 2.41878437344271e-02
2.92542105263158e-01 1.74957518326490e+00 2.38214429877798e-02
2.94257894736842e-01 1.71801188574949e+00 2.34601889858601e-02
2.95973684210526e-01 1.68701800749762e+00 2.31040206504500e-02
2.97689473684211e-01 1.65658327579780e+00 2.27528772535202e-02
2.99405263157895e-01 1.62669760341264e+00 2.24066984628120e-02
3.01121052631579e-01 1.59735108493876e+00 2.20654243463835e-02
3.02836842105263e-01 1.56853399381361e+00 2.17289953783311e-02
3.04552631578947e-01 1.54023677880855e+00 2.13973524516306e-02
3.06268421052632e-01 1.51245006113975e+00 2.10704368827946e-02
3.07984210526316e-01 1.48516463108952e+00 2.07481904233901e-02
3.09700000000000e-01 1.45837144521775e+00 2.04305552637191e-02
3.11415789473684e-01 1.43206162310673e+00 2.01174740431075e-02
3.13131578947368e-01 1.40622644466967e+00 1.98088898526915e-02
3.14847368421053e-01 1.38085734701445e+00 1.95047462445714e-02
3.16563157894737e-01 1.35594592184596e+00 1.92049872337813e-02
3.18278947368421e-01 1.33148391244432e+00 1.89095573063877e-02
3.19994736842105e-01 1.30746321115779e+00 1.86184014207132e-02
3.21710526315789e-01 1.28387585649131e+00 1.83314650144628e-02
3.23426315789474e-01 1.26071403068687e+00 1.80486940052655e-02
3.25142105263158e-01 1.23797005691826e+00 1.77700347969009e-02
3.26857894736842e-01 1.21563639695586e+00 1.74954342735246e-02
3.28573684210526e-01 1.19370564851191e+00 1.72248398279643e-02
3.30289473684211e-01 1.17217054279337e+00 1.69581993272034e-02
3.32005263157895e-01 1.15102394223502e+00 1.66954611374746e-02
3.33721052631579e-01 1.13025883794461e+00 1.64365741219721e-02
3.35436842105263e-01 1.10986834756467e+00 1.61814876394774e-02
3.37152631578947e-01 1.08984571281078e+00 1.59301515479217e-02
3.38868421052632e-01 1.07018429740814e+00 1.56825162025682e-02
3.40584210526316e-01 1.05087758471946e+00 1.54385324589474e-02
3.42300000000000e-01 1.03191917575383e+00 1.51981516706392e-02
3.44015789473684e-01 1.01330278688083e+00 1.49613256916310e-02
3.45731578947368e-01 9.95022247909167e-01 1.47280068737384e-02
3.47447368421053e-01 9.77071499884004e-01 1.44981480684325e-02
3.49163157894737e-01 9.59444593232812e-01 1.42717026239365e-02
3.50878947368421e-01 9.42135685642882e-01 1.40486243865644e-02
3.52594736842105e-01 9.25139040272110e-01 1.38288676975272e-02
3.54310526315789e-01 9.08449023703718e-01 1.36123873938238e-02
3.56026315789474e-01 8.92060104219737e-01 1.33991388047882e-02
3.57742105263158e-01 8.75966849830094e-01 1.31890777525693e-02
3.59457894736842e-01 8.60163926606623e-01 1.29821605446057e-02
3.61173684210526e-01 8.44646096814783e-01 1.27783439891802e-02
3.62889473684211e-01 8.29408217181601e-01 1.25775853686846e-02
3.64605263157895e-01 8.14445237282640e-01 1.23798424531811e-02
3.66321052631579e-01 7.99752197746189e-01 1.21850734955833e-02
3.68036842105263e-01 7.85324228728699e-01 1.19932372275246e-02
3.69752631578947e-01 7.71156548184199e-01 1.18042928586437e-02
3.71468421052632e-01 7.57244460393258e-01 1.16182000723076e-02
3.73184210526316e-01 7.43583354295239e-01 1.14349190246257e-02
3.74900000000000e-01 7.30168702068922e-01 1.12544103400478e-02
3.76615789473684e-01 7.16996057525300e-01 1.10766351101303e-02
3.78331578947368e-01 7.04061054738068e-01 1.09015548890281e-02
3.80047368421053e-01 6.91359406494751e-01 1.07291316920370e-02
3.81763157894737e-01 6.78886902975315e-01 1.05593279909960e-02
3.83478947368421e-01 6.66639410259496e-01 1.03921067126280e-02
3.85194736842105e-01 6.54612869051862e-01 1.02274312338689e-02
3.86910526315789e-01 6.42803293243290e-01 1.00652653800249e-02
3.88626315789474e-01 6.31206768680858e-01 9.90557342004405e-03
3.90342105263158e-01 6.19819451781495e-01 9.74832006450979e-03
3.92057894736842e-01 6.08637568345133e-01 9.59347045826471e-03
3.93773684210526e-01 5.97657412238732e-01 9.44099018872368e-03
3.95489473684211e-01 5.86875344170416e-01 9.29084526559052e-03
3.97205263157895e-01 5.76287790542777e-01 9.14300212792193e-03
3.98921052631579e-01 5.65891242189292e-01 8.99742763879181e-03
4.00636842105263e-01 5.55682253288652e-01 8.85408908046502e-03
4.02352631578947e-01 5.45657440146967e-01 8.71295415193824e-03
4.04068421052632e-01 5.35813480150319e-01 8.57399096410658e-03
4.05784210526316e-01 5.26147110591089e-01 8.43716803721018e-03
4.07500000000000e-01 5.16655127657401e-01 8.30245429600398e-03
4.09215789473684e-01 5.07334385301955e-01 8.16981906712064e-03
4.10931578947368e-01 4.98181794267080e-01 8.03923207425116e-03
4.12647368421053e-01 4.89194320994528e-01 7.91066343543755e-03
4.14363157894737e-01 4.80368986684883e-01 7.78408365827154e-03
4.16078947368421e-01 4.71702866246822e-01 7.65946363712656e-03
4.17794736842105e-01 4.63193087389681e-01 7.53677464838123e-03
4.19510526315789e-01 4.54836829610758e-01 7.41598834760107e-03
4.21226315789474e-01 4.46631323319859e-01 7.29707676479335e-03
4.22942105263158e-01 4.38573848863259e-01 7.18001230154696e-03
4.24657894736842e-01 4.30661735679122e-01 7.06476772455458e-03
4.26373684210526e-01 4.22892361369910e-01 6.95131616983450e-03
4.28089473684211e-01 4.15263150834819e-01 6.83963112754338e-03
4.29805263157895e-01 4.07771575455187e-01 6.72968644540976e-03
4.31521052631579e-01 4.00415152204675e-01 6.62145632377078e-03
4.33236842105263e-01 3.93191442876901e-01 6.51491531098224e-03
4.34952631578947e-01 3.86098053227802e-01 6.41003830046900e-03
4.36668421052632e-01 3.79132632230531e-01 6.30680052618715e-03
4.38384210526316e-01 3.72292871248831e-01 6.20517755966540e-03
4.40100000000000e-01 3.65576503318236e-01 6.10514530552250e-03
4.41815789473684e-01 3.58981302349329e-01 6.00667999850626e-03
4.43531578947368e-01 3.52505082434325e-01 5.90975819906951e-03
4.45247368421053e-01 3.46145697079127e-01 5.81435679041053e-03
4.46963157894737e-01 3.39901038534402e-01 5.72045297411053e-03
4.48678947368421e-01 3.33769037055389e-01 5.62802426718158e-03
4.50394736842105e-01 3.27747660256604e-01 5.53704849776724e-03
4.52110526315789e-01 3.21834912398398e-01 5.44750380220149e-03
4.53826315789474e-01 3.16028833764456e-01 5.35936862077527e-03
4.55542105263158e-01 3.10327499974138e-01 5.27262169481059e-03
4.57257894736842e-01 3.04729021381969e-01 5.18724206128809e-03
4.58973684210526e-01 2.99231542423461e-01 5.10320905479130e-03
4.60689473684210e-01 2.93833241001134e-01 5.02050229623693e-03
4.62405263157895e-01 2.88532327906184e-01 4.93910169431962e-03
4.64121052631579e-01 2.83327046191445e-01 4.85898744125288e-03
4.65836842105263e-01 2.78215670622358e-01 4.78014000878074e-03
4.67552631578947e-01 2.73196507072576e-01 4.70254014532854e-03
4.69268421052632e-01 2.68267891994347e-01 4.62616887208583e-03
4.70984210526316e-01 2.63428191835945e-01 4.55100748018602e-03
4.72700000000000e-01 2.58675802530775e-01 4.47703752686195e-03
4.74415789473684e-01 2.54009148935842e-01 4.40424083265686e-03
4.76131578947368e-01 2.49426684338928e-01 4.33259947765232e-03
4.77847368421053e-01 2.44926889917324e-01 4.26209579871268e-03
4.79563157894737e-01 2.40508274262449e-01 4.19271238578646e-03
4.81278947368421e-01 2.36169372858111e-01 4.12443207918589e-03
4.82994736842105e-01 2.31908747621949e-01 4.05723796596111e-03
4.84710526315789e-01 2.27724986402525e-01 3.99111337721710e-03
4.86426315789474e-01 2.23616702536984e-01 3.92604188456095e-03
4.88142105263158e-01 2.19582534366305e-01 3.86200729745678e-03
4.89857894736842e-01 2.15621144808608e-01 3.79899365892176e-03
4.91573684210526e-01 2.11731220897596e-01 3.73698524623711e-03
4.93289473684210e-01 2.07911473348058e-01 3.67596656263862e-03
4.95005263157895e-01 2.04160636145455e-01 3.61592233771099e-03
4.96721052631579e-01 2.00477466103824e-01 3.55683752389617e-03
4.98436842105263e-01 1.96860742475748e-01 3.49869729319789e-03
5.00152631578947e-01 1.93309266526204e-01 3.44148703467746e-03
5.01868421052632e-01 1.89821861156343e-01 3.38519235123016e-03
5.03584210526316e-01 1.86397370492709e-01 3.32979905712344e-03
5.05300000000000e-01 1.83034659524340e-01 3.27529317484498e-03
5.07015789473684e-01 1.79732613706804e-01 3.22166093268427e-03
5.08731578947368e-01 1.76490138612148e-01 3.16888876165134e-03
5.10447368421053e-01 1.73306159547216e-01 3.11696329310202e-03
5.12163157894737e-01 1.70179621215995e-01 3.06587135572682e-03
5.13878947368421e-01 1.67109487351694e-01 3.01559997322017e-03
5.15594736842105e-01 1.64094740391056e-01 2.96613636133882e-03
5.17310526315789e-01 1.61134381119694e-01 2.91746792561518e-03
5.19026315789474e-01 1.58227428357949e-01 2.86958225848433e-03
5.20742105263158e-01 1.55372918619007e-01 2.82246713704193e-03
5.22457894736842e-01 1.52569905805886e-01 2.77611051967376e-03
5.24173684210526e-01 1.49817460885665e-01 2.73050054613012e-03
5.25889473684210e-01 1.47114671582004e-01 2.68562553142873e-03
5.27605263157895e-01 1.44460642083999e-01 2.64147396572829e-03
5.29321052631579e-01 1.41854492734354e-01 2.59803451154832e-03
5.31036842105263e-01 1.39295359752435e-01 2.55529600113070e-03
5.32752631578947e-01 1.36782394933674e-01 2.51324743435150e-03
5.34468421052632e-01 1.34314765382440e-01 2.47187797614712e-03
5.36184210526316e-01 1.31891653222281e-01 2.43117695447006e-03
5.37900000000000e-01 1.29512255338263e-01 2.39113385777853e-03
5.39615789473684e-01 1.27175783097645e-01 2.35173833303614e-03
5.41331578947368e-01 1.24881462101359e-01 2.31298018326398e-03
