Energy (eV)          EEDF (eV^-(3/2))     First Anisotropy
5.96000000000000e-03 1.39591790673967e+00 1.02890809295765e-03
1.78800000000000e-02 1.37678521939399e+00 1.69306794488847e-03
2.98000000000000e-02 1.35791476790237e+00 2.21932959400725e-03
4.17200000000000e-02 1.33930295801609e+00 2.60970118836689e-03
5.36400000000000e-02 1.32094624474954e+00 2.92756200081602e-03
6.55600000000000e-02 1.30284113170526e+00 3.19712543863127e-03
7.74800000000000e-02 1.28498417040798e+00 3.43104621227899e-03
8.94000000000000e-02 1.26737195964782e+00 3.63703966977468e-03
1.01320000000000e-01 1.25000114483245e+00 3.82027096829534e-03
1.13240000000000e-01 1.23286841734814e+00 3.98442447311871e-03
1.25160000000000e-01 1.21597051392960e+00 4.13225225365319e-03
1.37080000000000e-01 1.19930421603841e+00 4.26588343658171e-03
1.49000000000000e-01 1.18286634924995e+00 4.38701141889657e-03
1.60920000000000e-01 1.16665378264883e+00 4.49701351974986e-03
1.72840000000000e-01 1.15066342823252e+00 4.59703086378723e-03
1.84760000000000e-01 1.13489224032315e+00 4.68802365591356e-03
1.96680000000000e-01 1.11933721498745e+00 4.77081058897546e-03
2.08600000000000e-01 1.10399538946455e+00 4.84609766157408e-03
2.20520000000000e-01 1.08886384160171e+00 4.91449971731153e-03
2.32440000000000e-01 1.07393968929767e+00 4.97655685291996e-03
2.44360000000000e-01 1.05922008995378e+00 5.03274712826051e-03
2.56280000000000e-01 1.04470223993251e+00 5.08349655857843e-03
2.68200000000000e-01 1.03038337402345e+00 5.12918707467998e-03
2.80120000000000e-01 1.01626076491665e+00 5.17016294005125e-03
2.92040000000000e-01 1.00233172268312e+00 5.20673597985593e-03
3.03960000000000e-01 9.88593594262510e-01 5.23918988352924e-03
3.15880000000000e-01 9.75043762957741e-01 5.26778377672784e-03
3.27800000000000e-01 9.61679647936642e-01 5.29275521097998e-03
3.39720000000000e-01 9.48498703740364e-01 5.31432268479445e-03
3.51640000000000e-01 9.35498419798546e-01 5.33268778442257e-03
3.63560000000000e-01 9.22676319951130e-01 5.34803701334149e-03
3.75480000000000e-01 9.10029961976728e-01 5.36054336505351e-03
3.87400000000000e-01 8.97556937127452e-01 5.37036768273007e-03
3.99320000000000e-01 8.85254869670120e-01 5.37765984068515e-03
4.11240000000000e-01 8.73121416433752e-01 5.38255977600892e-03
4.23160000000000e-01 8.61154266363266e-01 5.38519839346306e-03
4.35080000000000e-01 8.49351140079293e-01 5.38569836260044e-03
4.47000000000000e-01 8.37709789444025e-01 5.38417482277095e-03
4.58920000000000e-01 8.26227997133010e-01 5.38073600902256e-03
4.70840000000000e-01 8.14903576212820e-01 5.37548380976318e-03
4.82760000000000e-01 8.03734369724509e-01 5.36851426530725e-03
4.94680000000000e-01 7.92718250272775e-01 5.35991801500290e-03
5.06600000000000e-01 7.81853119620757e-01 5.34978069946346e-03
5.18520000000000e-01 7.71136908290383e-01 5.33818332345601e-03
5.30440000000000e-01 7.60567575168199e-01 5.32520258419463e-03
5.42360000000000e-01 7.50143107116596e-01 5.31091116911306e-03
5.54280000000000e-01 7.39861518590372e-01 5.29537802662589e-03
5.66200000000000e-01 7.29720851258544e-01 5.27866861291403e-03
5.78120000000000e-01 7.19719173631344e-01 5.26084511736641e-03
5.90040000000000e-01 7.09854580692331e-01 5.24196666896986e-03
6.01960000000000e-01 7.00125193535543e-01 5.22208952564847e-03
6.13880000000000e-01 6.90529159007618e-01 5.20126724830470e-03
6.25800000000000e-01 6.81064649354833e-01 5.17955086110244e-03
6.37720000000000e-01 6.71729861874961e-01 5.15698899934608e-03
6.49640000000000e-01 6.62523018573924e-01 5.13362804615447e-03
6.61560000000000e-01 6.53442365827127e-01 5.10951225899007e-03
6.73480000000000e-01 6.44486174045453e-01 5.08468388698248e-03
6.85400000000000e-01 6.35652737345826e-01 5.05918327988508e-03
6.97320000000000e-01 6.26940373226292e-01 5.03304898941106e-03
7.09240000000000e-01 6.18347422245556e-01 5.00631786361520e-03
7.21160000000000e-01 6.09872247706903e-01 4.97902513491938e-03
7.33080000000000e-01 6.01513235346463e-01 4.95120450231822e-03
7.45000000000000e-01 5.93268793025741e-01 4.92288820824670e-03
7.56920000000000e-01 5.85137350428359e-01 4.89410711054352e-03
7.68840000000000e-01 5.77117358760963e-01 4.86489074990337e-03
7.80760000000000e-01 5.69207290458224e-01 4.83526741317191e-03
7.92680000000000e-01 5.61405638891880e-01 4.80526419280483e-03
8.04600000000000e-01 5.53710918083773e-01 4.77490704278189e-03
8.16520000000000e-01 5.46121662422813e-01 4.74422083124111e-03
8.28440000000000e-01 5.38636426385823e-01 4.71322939007463e-03
8.40360000000000e-01 5.31253784262212e-01 4.68195556170429e-03
8.52280000000000e-01 5.23972329882422e-01 4.65042124323943e-03
8.64200000000000e-01 5.16790676350091e-01 4.61864742819922e-03
8.76120000000000e-01 5.09707455777893e-01 4.58665424596736e-03
8.88040000000000e-01 5.02721319027000e-01 4.55446099913394e-03
8.99960000000000e-01 4.95830935450106e-01 4.52208619886466e-03
9.11880000000000e-01 4.89034992637986e-01 4.48954759842871e-03
9.23800000000000e-01 4.82332196169516e-01 4.45686222500374e-03
9.35720000000000e-01 4.75721269365126e-01 4.42404640986846e-03
9.47640000000000e-01 4.69200953043637e-01 4.39111581708525e-03
9.59560000000000e-01 4.62770005282416e-01 4.35808547076550e-03
9.71480000000000e-01 4.56427201180835e-01 4.32496978100549e-03
9.83400000000000e-01 4.50171332626959e-01 4.29178256857271e-03
9.95320000000000e-01 4.44001208067442e-01 4.25853708841754e-03
1.00724000000000e+00 4.37915652280570e-01 4.22524605207957e-03
1.01916000000000e+00 4.31913506152415e-01 4.19192164905201e-03
1.03108000000000e+00 4.25993626456063e-01 4.15857556716421e-03
1.04300000000000e+00 4.20154885633861e-01 4.12521901203824e-03
1.05492000000000e+00 4.14396171582652e-01 4.09186272567104e-03
1.06684000000000e+00 4.08716387441953e-01 4.05851700419030e-03
1.07876000000000e+00 4.03114451385037e-01 4.02519171482911e-03
1.09068000000000e+00 3.97589296412879e-01 3.99189631216144e-03
1.10260000000000e+00 3.92139870150920e-01 3.95863985363760e-03
1.11452000000000e+00 3.86765134648629e-01 3.92543101445675e-03
1.12644000000000e+00 3.81464066181797e-01 3.89227810181072e-03
1.13836000000000e+00 3.76235655057555e-01 3.85918906853124e-03
1.15028000000000e+00 3.71078905422055e-01 3.82617152617125e-03
1.16220000000000e+00 3.65992835070790e-01 3.79323275754821e-03
1.17412000000000e+00 3.60976475261514e-01 3.76037972877631e-03
1.18604000000000e+00 3.56028870529729e-01 3.72761910081303e-03
1.19796000000000e+00 3.51149078506693e-01 3.69495724054265e-03
1.20988000000000e+00 3.46336169739929e-01 3.66240023141992e-03
1.22180000000000e+00 3.41589227516195e-01 3.62995388369417e-03
1.23372000000000e+00 3.36907347686875e-01 3.59762374423380e-03
1.24564000000000e+00 3.32289638495767e-01 3.56541510597009e-03
1.25756000000000e+00 3.27735220409232e-01 3.53333301697687e-03
1.26948000000000e+00 3.23243225948666e-01 3.50138228920364e-03
1.28140000000000e+00 3.18812799525276e-01 3.46956750687770e-03
1.29332000000000e+00 3.14443097277111e-01 3.43789303458924e-03
1.30524000000000e+00 3.10133286908338e-01 3.40636302507413e-03
1.31716000000000e+00 3.05882547530709e-01 3.37498142670791e-03
1.32908000000000e+00 3.01690069507212e-01 3.34375199072287e-03
1.34100000000000e+00 2.97555054297855e-01 3.31267827816020e-03
1.35292000000000e+00 2.93476714307572e-01 3.28176366656927e-03
1.36484000000000e+00 2.89454272736207e-01 3.25101135646387e-03
1.37676000000000e+00 2.85486963430559e-01 3.22042437754606e-03
1.38868000000000e+00 2.81574030738453e-01 3.19000559470699e-03
1.40060000000000e+00 2.77714729364811e-01 3.15975771381412e-03
1.41252000000000e+00 2.73908324229695e-01 3.12968328729380e-03
1.42444000000000e+00 2.70154090328296e-01 3.09978471951688e-03
1.43636000000000e+00 2.66451312592847e-01 3.07006427199558e-03
1.44828000000000e+00 2.62799285756418e-01 3.04052406839921e-03
1.46020000000000e+00 2.59197314218588e-01 3.01116609939627e-03
1.47212000000000e+00 2.55644711912953e-01 2.98199222732878e-03
1.48404000000000e+00 2.52140802176453e-01 2.95300419072619e-03
1.49596000000000e+00 2.48684917620484e-01 2.92420360866481e-03
1.50788000000000e+00 2.45276400003786e-01 2.89559198497868e-03
1.51980000000000e+00 2.41914600107062e-01 2.86717071232753e-03
1.53172000000000e+00 2.38598877609328e-01 2.83894107612753e-03
1.54364000000000e+00 2.35328600965945e-01 2.81090425834937e-03
1.55556000000000e+00 2.32103147288333e-01 2.78306134118905e-03
1.56748000000000e+00 2.28921902225330e-01 2.75541331061636e-03
1.57940000000000e+00 2.25784259846173e-01 2.72796105980482e-03
1.59132000000000e+00 2.22689622525089e-01 2.70070539244813e-03
1.60324000000000e+00 2.19637400827467e-01 2.67364702596688e-03
1.61516000000000e+00 2.16627013397583e-01 2.64678659460935e-03
1.62708000000000e+00 2.13657886847877e-01 2.62012465245059e-03
1.63900000000000e+00 2.10729455649734e-01 2.59366167629316e-03
1.65092000000000e+00 2.07841162025769e-01 2.56739806847320e-03
1.66284000000000e+00 2.04992455843591e-01 2.54133415957503e-03
1.67476000000000e+00 2.02182794511015e-01 2.51547021105727e-03
1.68668000000000e+00 1.99411642872716e-01 2.48980641779403e-03
1.69860000000000e+00 1.96678473108301e-01 2.46434291053395e-03
1.71052000000000e+00 1.93982764631770e-01 2.43907975827973e-03
1.72244000000000e+00 1.91324003992364e-01 2.41401697059095e-03
1.73436000000000e+00 1.88701684776767e-01 2.38915449981288e-03
1.74628000000000e+00 1.86115307512651e-01 2.36449224323397e-03
1.75820000000000e+00 1.83564379573538e-01 2.34003004517405e-03
1.77012000000000e+00 1.81048415084973e-01 2.31576769900566e-03
1.78204000000000e+00 1.78566934831980e-01 2.29170494911105e-03
1.79396000000000e+00 1.76119466167783e-01 2.26784149277663e-03
1.80588000000000e+00 1.73705542923783e-01 2.24417698202697e-03
1.81780000000000e+00 1.71324705320766e-01 2.22071102540089e-03
1.82972000000000e+00 1.68976499881333e-01 2.19744318967059e-03
1.84164000000000e+00 1.66660479343519e-01 2.17437300150648e-03
1.85356000000000e+00 1.64376202575611e-01 2.15149994908920e-03
1.86548000000000e+00 1.62123234492118e-01 2.12882348367051e-03
1.87740000000000e+00 1.59901145970908e-01 2.10634302108472e-03
1.88932000000000e+00 1.57709513771468e-01 2.08405794321208e-03
1.90124000000000e+00 1.55547920454292e-01 2.06196759939625e-03
1.91316000000000e+00 1.53415954301369e-01 2.04007130781663e-03
1.92508000000000e+00 1.51313209237767e-01 2.01836835681725e-03
1.93700000000000e+00 1.49239284754284e-01 1.99685800619386e-03
1.94892000000000e+00 1.47193785831166e-01 1.97553948844011e-03
1.96084000000000e+00 1.45176322862866e-01 1.95441200995427e-03
1.97276000000000e+00 1.43186511583837e-01 1.93347475220793e-03
1.98468000000000e+00 1.41223972995341e-01 1.91272687287741e-03
1.99660000000000e+00 1.39288333293261e-01 1.89216750693964e-03
2.00852000000000e+00 1.37379223796901e-01 1.87179576773319e-03
2.02044000000000e+00 1.35496280878768e-01 1.85161074798550e-03
2.03236000000000e+00 1.33639145895306e-01 1.83161152080766e-03
2.04428000000000e+00 1.31807465118590e-01 1.81179714065750e-03
2.05620000000000e+00 1.30000889668949e-01 1.79216664427189e-03
2.06812000000000e+00 1.28219075448518e-01 1.77271905156965e-03
2.08004000000000e+00 1.26461683075692e-01 1.75345336652557e-03
2.09196000000000e+00 1.24728377820491e-01 1.73436857801616e-03
2.10388000000000e+00 1.23018829540799e-01 1.71546366063882e-03
2.11580000000000e+00 1.21332712619485e-01 1.69673757550444e-03
2.12772000000000e+00 1.19669705902381e-01 1.67818927100457e-03
2.13964000000000e+00 1.18029492637112e-01 1.65981768355403e-03
2.15156000000000e+00 1.16411760412766e-01 1.64162173830951e-03
2.16348000000000e+00 1.14816201100386e-01 1.62360034986501e-03
2.17540000000000e+00 1.13242510794284e-01 1.60575242292444e-03
2.18732000000000e+00 1.11690389754155e-01 1.58807685295279e-03
2.19924000000000e+00 1.10159542347985e-01 1.57057252680588e-03
2.21116000000000e+00 1.08649676995742e-01 1.55323832333947e-03
2.22308000000000e+00 1.07160506113840e-01 1.53607311399871e-03
2.23500000000000e+00 1.05691746060362e-01 1.51907576338791e-03
2.24692000000000e+00 1.04243117081036e-01 1.50224512982158e-03
2.25884000000000e+00 1.02814343255948e-01 1.48558006585741e-03
2.27076000000000e+00 1.01405152446990e-01 1.46907941881144e-03
2.28268000000000e+00 1.00015276246025e-01 1.45274203125608e-03
2.29460000000000e+00 9.86444499237638e-02 1.43656674150142e-03
2.30652000000000e+00 9.72924123793405e-02 1.42055238406046e-03
2.31844000000000e+00 9.59589060905827e-02 1.40469779009870e-03
2.33036000000000e+00 9.46436770649606e-02 1.38900178786832e-03
2.34228000000000e+00 9.33464747912088e-02 1.37346320312762e-03
2.35420000000000e+00 9.20670521916118e-02 1.35808085954632e-03
2.36612000000000e+00 9.08051655749431e-02 1.34285357909673e-03
2.37804000000000e+00 8.95605745900496e-02 1.32778018243146e-03
2.38996000000000e+00 8.83330421800716e-02 1.31285948924799e-03
2.40188000000000e+00 8.71223345372911e-02 1.29809031864059e-03
2.41380000000000e+00 8.59282210585981e-02 1.28347148943982e-03
2.42572000000000e+00 8.47504743015681e-02 1.26900182053995e-03
2.43764000000000e+00 8.35888699411408e-02 1.25468013121503e-03
2.44956000000000e+00 8.24431867268933e-02 1.24050524142323e-03
2.46148000000000e+00 8.13132064408984e-02 1.22647597210051e-03
2.47340000000000e+00 8.01987138561611e-02 1.21259114544366e-03
2.48532000000000e+00 7.90994966956236e-02 1.19884958518281e-03
2.49724000000000e+00 7.80153455917337e-02 1.18525011684392e-03
2.50916000000000e+00 7.69460540465662e-02 1.17179156800173e-03
2.52108000000000e+00 7.58914183924916e-02 1.15847276852307e-03
2.53300000000000e+00 7.48512377533834e-02 1.14529255080108e-03
2.54492000000000e+00 7.38253140063573e-02 1.13224974998046e-03
2.55684000000000e+00 7.28134517440347e-02 1.11934320417409e-03
2.56876000000000e+00 7.18154582373238e-02 1.10657175467129e-03
2.58068000000000e+00 7.08311433987104e-02 1.09393424613789e-03
2.59260000000000e+00 6.98603197460518e-02 1.08142952680844e-03
2.60452000000000e+00 6.89028023668676e-02 1.06905644867072e-03
2.61644000000000e+00 6.79584088831189e-02 1.05681386764280e-03
2.62836000000000e+00 6.70269594164712e-02 1.04470064374278e-03
2.64028000000000e+00 6.61082765540331e-02 1.03271564125171e-03
2.65220000000000e+00 6.52021853145640e-02 1.02085772886963e-03
2.66412000000000e+00 6.43085131151462e-02 1.00912577986482e-03
2.67604000000000e+00 6.34270897383124e-02 9.97518672216882e-04
2.68796000000000e+00 6.25577472996251e-02 9.86035288753572e-04
2.69988000000000e+00 6.17003202156989e-02 9.74674517281423e-04
2.71180000000000e+00 6.08546451726627e-02 9.63435250710655e-04
2.72372000000000e+00 6.00205610950529e-02 9.52316387174437e-04
2.73564000000000e+00 5.91979091151334e-02 9.41316830142476e-04
2.74756000000000e+00 5.83865325426362e-02 9.30435488529409e-04
2.75948000000000e+00 5.75862768349168e-02 9.19671276797940e-04
2.77140000000000e+00 5.67969895675184e-02 9.09023115057020e-04
2.78332000000000e+00 5.60185204051394e-02 8.98489929155043e-04
2.79524000000000e+00 5.52507210729994e-02 8.88070650768317e-04
2.80716000000000e+00 5.44934453285973e-02 8.77764217485041e-04
2.81908000000000e+00 5.37465489338567e-02 8.67569572884800e-04
2.83100000000000e+00 5.30098896276523e-02 8.57485666613710e-04
2.84292000000000e+00 5.22833270987143e-02 8.47511454455382e-04
2.85484000000000e+00 5.15667229589026e-02 8.37645898397856e-04
2.86676000000000e+00 5.08599407168486e-02 8.27887966696622e-04
2.87868000000000e+00 5.01628457519574e-02 8.18236633933772e-04
2.89060000000000e+00 4.94753052887670e-02 8.08690881073526e-04
2.90252000000000e+00 4.87971883716581e-02 7.99249695514153e-04
2.91444000000000e+00 4.81283658399115e-02 7.89912071136360e-04
2.92636000000000e+00 4.74687103031065e-02 7.80677008348445e-04
2.93828000000000e+00 4.68180961168573e-02 7.71543514128168e-04
2.95020000000000e+00 4.61763993588814e-02 7.62510602061398e-04
2.96212000000000e+00 4.55434978053958e-02 7.53577292377753e-04
2.97404000000000e+00 4.49192709078375e-02 7.44742611983274e-04
2.98596000000000e+00 4.43035997699028e-02 7.36005594490309e-04
2.99788000000000e+00 4.36963671249005e-02 7.27365280244512e-04
3.00980000000000e+00 4.30974573134167e-02 7.18820716349209e-04
3.02172000000000e+00 4.25067562612851e-02 7.10370956687255e-04
3.03364000000000e+00 4.19241514578591e-02 7.02015061940217e-04
3.04556000000000e+00 4.13495319345822e-02 6.93752099605239e-04
3.05748000000000e+00 4.07827882438517e-02 6.85581144009545e-04
3.06940000000000e+00 4.02238124381722e-02 6.77501276322669e-04
3.08132000000000e+00 3.96724980495951e-02 6.69511584566470e-04
3.09324000000000e+00 3.91287400694395e-02 6.61611163622995e-04
3.10516000000000e+00 3.85924349282912e-02 6.53799115240367e-04
3.11708000000000e+00 3.80634804762761e-02 6.46074548036638e-04
3.12900000000000e+00 3.75417759636033e-02 6.38436577501700e-04
3.14092000000000e+00 3.70272220213760e-02 6.30884325997392e-04
3.15284000000000e+00 3.65197206426641e-02 6.23416922755846e-04
3.16476000000000e+00 3.60191751638369e-02 6.16033503876002e-04
3.17668000000000e+00 3.55254902461522e-02 6.08733212318526e-04
3.18860000000000e+00 3.50385718575965e-02 6.01515197899161e-04
3.20052000000000e+00 3.45583272549751e-02 5.94378617280409e-04
3.21244000000000e+00 3.40846649662472e-02 5.87322633961831e-04
3.22436000000000e+00 3.36174947731034e-02 5.80346418268868e-04
3.23628000000000e+00 3.31567276937815e-02 5.73449147340190e-04
3.24820000000000e+00 3.27022759661185e-02 5.66630005113827e-04
3.26012000000000e+00 3.22540530308347e-02 5.59888182311967e-04
3.27204000000000e+00 3.18119735150464e-02 5.53222876424455e-04
3.28396000000000e+00 3.13759532160049e-02 5.46633291691180e-04
3.29588000000000e+00 3.09459090850589e-02 5.40118639083263e-04
3.30780000000000e+00 3.05217592118360e-02 5.33678136283133e-04
3.31972000000000e+00 3.01034228086411e-02 5.27311007663546e-04
3.33164000000000e+00 2.96908201950690e-02 5.21016484265589e-04
3.34356000000000e+00 2.92838727828275e-02 5.14793803775716e-04
3.35548000000000e+00 2.88825030607692e-02 5.08642210501820e-04
3.36740000000000e+00 2.84866345801273e-02 5.02560955348373e-04
3.37932000000000e+00 2.80961919399548e-02 4.96549295790721e-04
3.39124000000000e+00 2.77111007727630e-02 4.90606495848601e-04
3.40316000000000e+00 2.73312877303563e-02 4.84731826058766e-04
3.41508000000000e+00 2.69566804698623e-02 4.78924563446897e-04
3.42700000000000e+00 2.65872076399521e-02 4.73183991498775e-04
3.43892000000000e+00 2.62227988672500e-02 4.67509400130779e-04
3.45084000000000e+00 2.58633847429299e-02 4.61900085659679e-04
3.46276000000000e+00 2.55088968094949e-02 4.56355350771772e-04
3.47468000000000e+00 2.51592675477381e-02 4.50874504491482e-04
3.48660000000000e+00 2.48144303638821e-02 4.45456862149360e-04
3.49852000000000e+00 2.44743195768953e-02 4.40101745349460e-04
3.51044000000000e+00 2.41388704059814e-02 4.34808481936259e-04
3.52236000000000e+00 2.38080189582408e-02 4.29576405961088e-04
3.53428000000000e+00 2.34817022165005e-02 4.24404857648074e-04
3.54620000000000e+00 2.31598580273118e-02 4.19293183359574e-04
3.55812000000000e+00 2.28424250891116e-02 4.14240735561243e-04
3.57004000000000e+00 2.25293429405465e-02 4.09246872786731e-04
3.58196000000000e+00 2.22205519489565e-02 4.04310959601937e-04
3.59388000000000e+00 2.19159932990171e-02 3.99432366568893e-04
3.60580000000000e+00 2.16156089815365e-02 3.94610470209384e-04
3.61772000000000e+00 2.13193417824067e-02 3.89844652968222e-04
3.62964000000000e+00 2.10271352717060e-02 3.85134303176187e-04
3.64156000000000e+00 2.07389337929509e-02 3.80478815012722e-04
3.65348000000000e+00 2.04546824524948e-02 3.75877588468387e-04
3.66540000000000e+00 2.01743271090730e-02 3.71330029307060e-04
3.67732000000000e+00 1.98978143634900e-02 3.66835549027877e-04
3.68924000000000e+00 1.96250915484488e-02 3.62393564827011e-04
3.70116000000000e+00 1.93561067185191e-02 3.58003499559275e-04
3.71308000000000e+00 1.90908086402438e-02 3.53664781699513e-04
3.72500000000000e+00 1.88291467823799e-02 3.49376845303819e-04
3.73692000000000e+00 1.85710713062744e-02 3.45139129970689e-04
3.74884000000000e+00 1.83165330563713e-02 3.40951080802003e-04
3.76076000000000e+00 1.80654835508490e-02 3.36812148363859e-04
