Energy (eV)          EEDF (eV^-(3/2))     First Anisotropy
3.79166666666667e-02 9.27882978322061e-02 7.07602086991459e-05
1.13750000000000e-01 9.14607797869170e-02 1.16400683518491e-04
1.89583333333333e-01 9.01522544781539e-02 1.52488932111007e-04
2.65416666666667e-01 8.88624501874294e-02 1.79201927645917e-04
3.41250000000000e-01 8.75910990704291e-02 2.00906214499804e-04
4.17083333333333e-01 8.63379371148017e-02 2.19271567297721e-04
4.92916666666667e-01 8.51027040927605e-02 2.35171444956281e-04
5.68750000000000e-01 8.38851434952491e-02 2.49138837443583e-04
6.44583333333333e-01 8.26850024815909e-02 2.61530858359460e-04
7.20416666666667e-01 8.15020318326978e-02 2.72602444135980e-04
7.96250000000000e-01 8.03359858926770e-02 2.82544167781994e-04
8.72083333333333e-01 7.91866225190426e-02 2.91503572621628e-04
9.47916666666667e-01 7.80537030365057e-02 2.99598088124714e-04
1.02375000000000e+00 7.69369921829142e-02 3.06923287824728e-04
1.09958333333333e+00 7.58362580578210e-02 3.13558402816394e-04
1.17541666666667e+00 7.47512720904535e-02 3.19570140306492e-04
1.25125000000000e+00 7.36818089717847e-02 3.25015407297865e-04
1.32708333333333e+00 7.26276466087447e-02 3.29943298949122e-04
1.40291666666667e+00 7.15885661025133e-02 3.34396589684980e-04
1.47875000000000e+00 7.05643516770711e-02 3.38412869784859e-04
1.55458333333333e+00 6.95547906372795e-02 3.42025421153521e-04
1.63041666666667e+00 6.85596733446106e-02 3.45263910833312e-04
1.70625000000000e+00 6.75787931526123e-02 3.48154943762253e-04
1.78208333333333e+00 6.66119463660865e-02 3.50722504085128e-04
1.85791666666667e+00 6.56589322153732e-02 3.52988319182154e-04
1.93375000000000e+00 6.47195527972650e-02 3.54972159370176e-04
2.00958333333333e+00 6.37936130354880e-02 3.56692082767804e-04
2.08541666666667e+00 6.28809206542473e-02 3.58164644217979e-04
2.16125000000000e+00 6.19812861236257e-02 3.59405071571689e-04
2.23708333333333e+00 6.10945226214545e-02 3.60427411760866e-04
2.31291666666667e+00 6.02204460065884e-02 3.61244659236834e-04
2.38875000000000e+00 5.93588747681108e-02 3.61868866455191e-04
2.46458333333333e+00 5.85096299886212e-02 3.62311236065615e-04
2.54041666666667e+00 5.76725353175588e-02 3.62582204312312e-04
2.61625000000000e+00 5.68474169237142e-02 3.62691513900955e-04
2.69208333333333e+00 5.60341034599288e-02 3.62648274855836e-04
2.76791666666667e+00 5.52324260366877e-02 3.62461021148259e-04
2.84375000000000e+00 5.44422181775547e-02 3.62137760809511e-04
2.91958333333333e+00 5.36633157852605e-02 3.61686017599070e-04
2.99541666666667e+00 5.28955571157198e-02 3.61112870910654e-04
3.07125000000000e+00 5.21387827360857e-02 3.60424991466062e-04
3.14708333333333e+00 5.13928354921937e-02 3.59628670717851e-04
3.22291666666667e+00 5.06575604831111e-02 3.58729849868395e-04
3.29875000000000e+00 4.99328050215643e-02 3.57734146061462e-04
3.37458333333333e+00 4.92184186026987e-02 3.56646873658296e-04
3.45041666666667e+00 4.85142528792365e-02 3.55473065914700e-04
3.52625000000000e+00 4.78201616240713e-02 3.54217494697588e-04
3.60208333333333e+00 4.71360007003015e-02 3.52884686210011e-04
3.67791666666667e+00 4.64616280370478e-02 3.51478937564381e-04
3.75375000000000e+00 4.57969035940406e-02 3.50004331957256e-04
3.82958333333333e+00 4.51416893328841e-02 3.48464750501990e-04
3.90541666666667e+00 4.44958491935658e-02 3.46863885158882e-04
3.98125000000000e+00 4.38592490608884e-02 3.45205250642638e-04
4.05708333333333e+00 4.32317567369184e-02 3.43492193462997e-04
4.13291666666667e+00 4.26132419182094e-02 3.41727902193277e-04
4.20875000000000e+00 4.20035761639468e-02 3.39915416974249e-04
4.28458333333333e+00 4.14026328695373e-02 3.38057636512034e-04
4.36041666666667e+00 4.08102872445559e-02 3.36157326361524e-04
4.43625000000000e+00 4.02264162824880e-02 3.34217126626608e-04
4.51208333333333e+00 3.96508987354165e-02 3.32239557437274e-04
4.58791666666667e+00 3.90836150926946e-02 3.30227025724903e-04
4.66375000000000e+00 3.85244475521837e-02 3.28181831544820e-04
4.73958333333333e+00 3.79732799959935e-02 3.26106172403649e-04
4.81541666666667e+00 3.74299979698793e-02 3.24002148869707e-04
4.89125000000000e+00 3.68944886558818e-02 3.21871769826285e-04
4.96708333333333e+00 3.63666408490798e-02 3.19716955917867e-04
5.04291666666667e+00 3.58463449377037e-02 3.17539544247182e-04
5.11875000000000e+00 3.53334928770938e-02 3.15341292786453e-04
5.19458333333333e+00 3.48279781674248e-02 3.13123883140142e-04
5.27041666666667e+00 3.43296958345251e-02 3.10888924516133e-04
5.34625000000000e+00 3.38385424050772e-02 3.08637957465112e-04
5.42208333333333e+00 3.33544158852747e-02 3.06372456107422e-04
5.49791666666667e+00 3.28772157423342e-02 3.04093831520183e-04
5.57375000000000e+00 3.24068428808680e-02 3.01803434934177e-04
5.64958333333333e+00 3.19431996224353e-02 2.99502559536396e-04
5.72541666666667e+00 3.14861896877318e-02 2.97192443381922e-04
5.80125000000000e+00 3.10357181740703e-02 2.94874272147951e-04
5.87708333333333e+00 3.05916915357893e-02 2.92549180597529e-04
5.95291666666667e+00 3.01540175671046e-02 2.90218255100674e-04
6.02875000000000e+00 2.97226053806369e-02 2.87882536023251e-04
6.10458333333333e+00 2.92973653886442e-02 2.85543018918077e-04
6.18041666666667e+00 2.88782092865158e-02 2.83200656721737e-04
6.25625000000000e+00 2.84650500322942e-02 2.80856361839587e-04
6.33208333333333e+00 2.80578018286946e-02 2.78511007115963e-04
6.40791666666667e+00 2.76563801072260e-02 2.76165427759501e-04
6.48375000000000e+00 2.72607015086531e-02 2.73820423173125e-04
6.55958333333333e+00 2.68706838657731e-02 2.71476757744195e-04
6.63541666666667e+00 2.64862461881426e-02 2.69135162540709e-04
6.71125000000000e+00 2.61073086434341e-02 2.66796336925618e-04
6.78708333333333e+00 2.57337925409360e-02 2.64460949199401e-04
6.86291666666667e+00 2.53656203168690e-02 2.62129638101488e-04
6.93875000000000e+00 2.50027155165904e-02 2.59803014240858e-04
7.01458333333333e+00 2.46450027787887e-02 2.57481660617090e-04
7.09041666666667e+00 2.42924078213696e-02 2.55166133955089e-04
7.16625000000000e+00 2.39448574244661e-02 2.52856965978148e-04
7.24208333333333e+00 2.36022794152989e-02 2.50554663828511e-04
7.31791666666667e+00 2.32646026546132e-02 2.48259711258532e-04
7.39375000000000e+00 2.29317570204552e-02 2.45972569767860e-04
7.46958333333333e+00 2.26036733936706e-02 2.43693678940565e-04
7.54541666666667e+00 2.22802836448726e-02 2.41423457511956e-04
7.62125000000000e+00 2.19615206189490e-02 2.39162304387887e-04
7.69708333333333e+00 2.16473181211706e-02 2.36910598912442e-04
7.77291666666667e+00 2.13376109046739e-02 2.34668701826468e-04
7.84875000000000e+00 2.10323346556614e-02 2.32436956184053e-04
7.92458333333333e+00 2.07314259800966e-02 2.30215687562300e-04
8.00041666666667e+00 2.04348223916815e-02 2.28005204925077e-04
8.07625000000000e+00 2.01424622977183e-02 2.25805801449434e-04
8.15208333333333e+00 1.98542849863651e-02 2.23617754686881e-04
8.22791666666667e+00 1.95702306150919e-02 2.21441327343854e-04
8.30375000000000e+00 1.92902401971716e-02 2.19276768028850e-04
8.37958333333333e+00 1.90142555894732e-02 2.17124311373142e-04
8.45541666666667e+00 1.87422194813785e-02 2.14984178737665e-04
8.53125000000000e+00 1.84740753818729e-02 2.12856578890105e-04
8.60708333333333e+00 1.82097676078541e-02 2.10741708091605e-04
8.68291666666667e+00 1.79492412734919e-02 2.08639750738456e-04
8.75875000000000e+00 1.76924422778917e-02 2.06550879977045e-04
8.83458333333333e+00 1.74393172938956e-02 2.04475257762017e-04
8.91041666666667e+00 1.71898137578704e-02 2.02413035440009e-04
8.98625000000000e+00 1.69438798579157e-02 2.00364354309265e-04
9.06208333333333e+00 1.67014645231383e-02 1.98329345653868e-04
9.13791666666667e+00 1.64625174138509e-02 1.96308131275746e-04
9.21375000000000e+00 1.62269889103007e-02 1.94300824004871e-04
9.28958333333333e+00 1.59948301023966e-02 1.92307527713455e-04
9.36541666666667e+00 1.57659927803033e-02 1.90328337801638e-04
9.44125000000000e+00 1.55404294236666e-02 1.88363341663404e-04
9.51708333333333e+00 1.53180931917737e-02 1.86412618684027e-04
9.59291666666667e+00 1.50989379145284e-02 1.84476240684190e-04
9.66875000000000e+00 1.48829180821501e-02 1.82554272346122e-04
9.74458333333333e+00 1.46699888357491e-02 1.80646771197065e-04
9.82041666666667e+00 1.44601059586682e-02 1.78753788015946e-04
9.89625000000000e+00 1.42532258666332e-02 1.76875367223706e-04
9.97208333333333e+00 1.40493055987268e-02 1.75011546855141e-04
1.00479166666667e+01 1.38483028090816e-02 1.73162358808413e-04
1.01237500000000e+01 1.36501757580413e-02 1.71327829820875e-04
1.01995833333333e+01 1.34548833006188e-02 1.69507980320752e-04
1.02754166666667e+01 1.32623848843255e-02 1.67702825255995e-04
1.03512500000000e+01 1.30726405349056e-02 1.65912375661541e-04
1.04270833333333e+01 1.28856108482456e-02 1.64136636410213e-04
1.05029166666667e+01 1.27012569875812e-02 1.62375607626973e-04
1.05787500000000e+01 1.25195406699575e-02 1.60629286036365e-04
1.06545833333333e+01 1.23404241584756e-02 1.58897662823262e-04
1.07304166666667e+01 1.21638702595069e-02 1.57180724963798e-04
1.08062500000000e+01 1.19898423098389e-02 1.55478456493863e-04
1.08820833333333e+01 1.18183041692450e-02 1.53790836474353e-04
1.09579166666667e+01 1.16492202177144e-02 1.52117840244359e-04
1.10337500000000e+01 1.14825553432463e-02 1.50459440615960e-04
1.11095833333333e+01 1.13182749347286e-02 1.48815605938841e-04
1.11854166666667e+01 1.11563448791921e-02 1.47186301280865e-04
1.12612500000000e+01 1.09967315502160e-02 1.45571489554007e-04
1.13370833333333e+01 1.08394018011038e-02 1.43971129673419e-04
1.14129166666667e+01 1.06843229621679e-02 1.42385177670140e-04
1.14887500000000e+01 1.05314628297130e-02 1.40813587752602e-04
1.15645833333333e+01 1.03807896594969e-02 1.39256310555486e-04
1.16404166666667e+01 1.02322721640509e-02 1.37713294188910e-04
1.17162500000000e+01 1.00858795022101e-02 1.36184485239627e-04
1.17920833333333e+01 9.94158127284703e-03 1.34669827105231e-04
1.18679166666667e+01 9.79934751223271e-03 1.33169260983856e-04
1.19437500000000e+01 9.65914868408438e-03 1.31682726818858e-04
1.20195833333333e+01 9.52095567356032e-03 1.30210161714135e-04
1.20954166666667e+01 9.38473978466633e-03 1.28751500868062e-04
1.21712500000000e+01 9.25047273079235e-03 1.27306678465199e-04
1.22470833333333e+01 9.11812662895843e-03 1.25875626168680e-04
1.23229166666667e+01 8.98767399726929e-03 1.24458274001852e-04
1.23987500000000e+01 8.85908774591424e-03 1.23054551190270e-04
1.24745833333333e+01 8.73234117165374e-03 1.21664384727325e-04
1.25504166666667e+01 8.60740795532488e-03 1.20287700206804e-04
1.26262500000000e+01 8.48426215328000e-03 1.18924422618204e-04
1.27020833333333e+01 8.36287819210402e-03 1.17574474981949e-04
1.27779166666667e+01 8.24323086617297e-03 1.16237779135868e-04
1.28537500000000e+01 8.12529532950834e-03 1.14914256486641e-04
1.29295833333333e+01 8.00904709071561e-03 1.13603826711171e-04
1.30054166666667e+01 7.89446201059753e-03 1.12306408499711e-04
1.30812500000000e+01 7.78151629440265e-03 1.11021920266102e-04
1.31570833333333e+01 7.67018648697576e-03 1.09750278911997e-04
1.32329166666667e+01 7.56044947042737e-03 1.08491400529264e-04
1.33087500000000e+01 7.45228245675589e-03 1.07245201071425e-04
1.33845833333333e+01 7.34566298320131e-03 1.06011595177617e-04
1.34604166666667e+01 7.24056890997177e-03 1.04790496836682e-04
1.35362500000000e+01 7.13697841322020e-03 1.03581820022106e-04
1.36120833333333e+01 7.03486998059278e-03 1.02385477572754e-04
1.36879166666667e+01 6.93422240901327e-03 1.01201381820893e-04
1.37637500000000e+01 6.83501479799599e-03 1.00029445192762e-04
1.38395833333333e+01 6.73722654538089e-03 9.88695791432595e-05
1.39154166666667e+01 6.64083734517616e-03 9.77216947500115e-05
1.39912500000000e+01 6.54582718119029e-03 9.65857032815809e-05
1.40670833333333e+01 6.45217632294610e-03 9.54615151834284e-05
1.41429166666667e+01 6.35986532358167e-03 9.43490406399856e-05
1.42187500000000e+01 6.26887501378540e-03 9.32481901123706e-05
1.42945833333333e+01 6.17918649788150e-03 9.21588733730845e-05
1.43704166666667e+01 6.09078115178920e-03 9.10810000379381e-05
1.44462500000000e+01 6.00364061724552e-03 9.00144800750159e-05
1.45220833333333e+01 5.91774679805510e-03 8.89592228857057e-05
1.45979166666667e+01 5.83308185810741e-03 8.79151378081990e-05
1.46737500000000e+01 5.74962821587285e-03 8.68821345993407e-05
1.47495833333333e+01 5.66736854080998e-03 8.58601225597041e-05
1.48254166666667e+01 5.58628575144043e-03 8.48490110102840e-05
1.49012500000000e+01 5.50636301010452e-03 8.38487097487594e-05
1.49770833333333e+01 5.42758371951954e-03 8.28591282164498e-05
1.50529166666667e+01 5.34993152091159e-03 8.18801759497161e-05
1.51287500000000e+01 5.27339028901800e-03 8.09117630120795e-05
1.52045833333333e+01 5.19794412879022e-03 7.99537992009957e-05
1.52804166666667e+01 5.12357737358195e-03 7.90061944753754e-05
1.53562500000000e+01 5.05027458038622e-03 7.80688593649189e-05
1.54320833333333e+01 4.97802052667673e-03 7.71417042147534e-05
1.55079166666667e+01 4.90680020865164e-03 7.62246395904116e-05
1.55837500000000e+01 4.83659883669357e-03 7.53175766656409e-05
1.56595833333333e+01 4.76740183234375e-03 7.44204265030462e-05
1.57354166666667e+01 4.69919482660053e-03 7.35331004377879e-05
1.58112500000000e+01 4.63196365559137e-03 7.26555104450620e-05
1.58870833333333e+01 4.56569435767426e-03 7.17875684549794e-05
1.59629166666667e+01 4.50037317178995e-03 7.09291867161542e-05
1.60387500000000e+01 4.43598653333567e-03 7.00802781439744e-05
1.61145833333333e+01 4.37252107138837e-03 6.92407556680545e-05
1.61904166666667e+01 4.30996360710977e-03 6.84105325768243e-05
1.62662500000000e+01 4.24830114981189e-03 6.75895228476441e-05
1.63420833333333e+01 4.18752089429710e-03 6.67776405252272e-05
1.64179166666667e+01 4.12761021931488e-03 6.59748000482746e-05
1.64937500000000e+01 4.06855668380983e-03 6.51809165624322e-05
1.65695833333333e+01 4.01034802437372e-03 6.43959053281746e-05
1.66454166666667e+01 3.95297215375274e-03 6.36196820304684e-05
1.67212500000000e+01 3.89641715726929e-03 6.28521630754961e-05
1.67970833333333e+01 3.84067129038120e-03 6.20932650265740e-05
1.68729166666667e+01 3.78572297723847e-03 6.13429048977629e-05
1.69487500000000e+01 3.73156080727037e-03 6.06010004352421e-05
1.70245833333333e+01 3.67817353284743e-03 5.98674695798994e-05
1.71004166666667e+01 3.62555006788640e-03 5.91422307457559e-05
1.71762500000000e+01 3.57367948459481e-03 5.84252030868222e-05
1.72520833333333e+01 3.52255101123132e-03 5.77163059850641e-05
1.73279166666667e+01 3.47215403075784e-03 5.70154593144623e-05
1.74037500000000e+01 3.42247807773393e-03 5.63225836941301e-05
1.74795833333333e+01 3.37351283617143e-03 5.56376000004284e-05
1.75554166666667e+01 3.32524813823250e-03 5.49604296174301e-05
1.76312500000000e+01 3.27767396126672e-03 5.42909946770397e-05
1.77070833333333e+01 3.23078042575607e-03 5.36292175940832e-05
1.77829166666667e+01 3.18455779405769e-03 5.29750213039107e-05
1.78587500000000e+01 3.13899646757685e-03 5.23283294902102e-05
1.79345833333333e+01 3.09408698479848e-03 5.16890661419655e-05
1.80104166666667e+01 3.04982002007350e-03 5.10571557788843e-05
1.80862500000000e+01 3.00618638092119e-03 5.04325236675554e-05
1.81620833333333e+01 2.96317700614365e-03 4.98150953992259e-05
1.82379166666667e+01 2.92078296465442e-03 4.92047971036985e-05
1.83137500000000e+01 2.87899545290422e-03 4.86015556544545e-05
1.83895833333333e+01 2.83780579307480e-03 4.80052982662477e-05
1.84654166666667e+01 2.79720543194870e-03 4.74159526980828e-05
1.85412500000000e+01 2.75718593845248e-03 4.68334474478887e-05
1.86170833333333e+01 2.71773900192667e-03 4.62577113689723e-05
1.86929166666667e+01 2.67885643103546e-03 4.56886738626576e-05
1.87687500000000e+01 2.64053015142191e-03 4.51262650630632e-05
1.88445833333333e+01 2.60275220405074e-03 4.45704154715090e-05
1.89204166666667e+01 2.56551474415687e-03 4.40210561393600e-05
1.89962500000000e+01 2.52881003900725e-03 4.34781188434278e-05
1.90720833333333e+01 2.49263046631355e-03 4.29415357374745e-05
1.91479166666667e+01 2.45696851321824e-03 4.24112395257793e-05
1.92237500000000e+01 2.42181677415814e-03 4.18871636296454e-05
1.92995833333333e+01 2.38716794934405e-03 4.13692418551869e-05
1.93754166666667e+01 2.35301484378323e-03 4.08574085581033e-05
1.94512500000000e+01 2.31935036523991e-03 4.03515988017646e-05
1.95270833333333e+01 2.28616752277899e-03 3.98517480404959e-05
1.96029166666667e+01 2.25345942582391e-03 3.93577922760212e-05
1.96787500000000e+01 2.22121928220951e-03 3.88696682075677e-05
1.97545833333333e+01 2.18944039678715e-03 3.83873129299109e-05
1.98304166666667e+01 2.15811617051679e-03 3.79106640819205e-05
1.99062500000000e+01 2.12724009860797e-03 3.74396599890935e-05
1.99820833333333e+01 2.09680576918374e-03 3.69742393756612e-05
2.00579166666667e+01 2.06680686240587e-03 3.65143415056461e-05
2.01337500000000e+01 2.03723714869987e-03 3.60599063182240e-05
2.02095833333333e+01 2.00809048747521e-03 3.56108741532167e-05
2.02854166666667e+01 1.97936082628263e-03 3.51671858850519e-05
2.03612500000000e+01 1.95104219911928e-03 3.47287830513246e-05
2.04370833333333e+01 1.92312872520290e-03 3.42956075910399e-05
2.05129166666667e+01 1.89561460816017e-03 3.38676019718430e-05
2.05887500000000e+01 1.86849413440822e-03 3.34447093121300e-05
2.06645833333333e+01 1.84176167198053e-03 3.30268731314398e-05
2.07404166666667e+01 1.81541166974532e-03 3.26140374712978e-05
2.08162500000000e+01 1.78943865585989e-03 3.22061470112101e-05
2.08920833333333e+01 1.76383723664605e-03 3.18031468306300e-05
2.09679166666667e+01 1.73860209583753e-03 3.14049825237475e-05
2.10437500000000e+01 1.71372799310383e-03 3.10116003096757e-05
2.11195833333333e+01 1.68920976297311e-03 3.06229468054457e-05
2.11954166666667e+01 1.66504231410758e-03 3.02389691350537e-05
2.12712500000000e+01 1.64122062789374e-03 2.98596150341399e-05
2.13470833333333e+01 1.61773975741065e-03 2.94848326334885e-05
2.14229166666667e+01 1.59459482673245e-03 2.91145705626274e-05
2.14987500000000e+01 1.57178102958183e-03 2.87487780492851e-05
2.15745833333333e+01 1.54929362834185e-03 2.83874047128964e-05
2.16504166666667e+01 1.52712795338462e-03 2.80304006630331e-05
2.17262500000000e+01 1.50527940178514e-03 2.76777165939052e-05
2.18020833333333e+01 1.48374343637482e-03 2.73293035874060e-05
2.18779166666667e+01 1.46251558509539e-03 2.69851132066359e-05
2.19537500000000e+01 1.44159143977039e-03 2.66450975857001e-05
2.20295833333333e+01 1.42096665519856e-03 2.63092092418413e-05
2.21054166666667e+01 1.40063694853224e-03 2.59774011643114e-05
2.21812500000000e+01 1.38059809810372e-03 2.56496268997047e-05
2.22570833333333e+01 1.36084594255696e-03 2.53258403727485e-05
2.23329166666667e+01 1.34137638024947e-03 2.50059959707590e-05
2.24087500000000e+01 1.32218536813121e-03 2.46900486247404e-05
2.24845833333333e+01 1.30326892091282e-03 2.43779536384281e-05
2.25604166666667e+01 1.28462311049034e-03 2.40696667685508e-05
2.26362500000000e+01 1.26624406487408e-03 2.37651443019087e-05
2.27120833333333e+01 1.24812796739201e-03 2.34643428922822e-05
2.27879166666667e+01 1.23027105613636e-03 2.31672196367168e-05
2.28637500000000e+01 1.21266962294029e-03 2.28737321487812e-05
2.29395833333333e+01 1.19532001261489e-03 2.25838384029757e-05
2.30154166666667e+01 1.17821862241692e-03 2.22974968072382e-05
2.30912500000000e+01 1.16136190107109e-03 2.20146662725779e-05
2.31670833333333e+01 1.14474634803925e-03 2.17353060646307e-05
2.32429166666667e+01 1.12836851300854e-03 2.14593758725791e-05
2.33187500000000e+01 1.11222499495716e-03 2.11868358753439e-05
2.33945833333333e+01 1.09631244145446e-03 2.09176465999528e-05
2.34704166666667e+01 1.08062754816870e-03 2.06517689870544e-05
2.35462500000000e+01 1.06516705797440e-03 2.03891644538416e-05
2.36220833333333e+01 1.04992776028199e-03 2.01297947589156e-05
2.36979166666667e+01 1.03490649056445e-03 1.98736220645667e-05
2.37737500000000e+01 1.02010012950442e-03 1.96206089965935e-05
2.38495833333333e+01 1.00550560235208e-03 1.93707185153598e-05
2.39254166666667e+01 9.91119878470119e-04 1.91239139750020e-05
