Energy (eV)          EEDF (eV^-(3/2))     First Anisotropy
1.88000000000000e-02 2.72153196426598e+00 4.33256884443709e-03
5.64000000000000e-02 2.53942103560085e+00 6.93826311347381e-03
9.40000000000000e-02 2.36949603411739e+00 8.60425234975975e-03
1.31600000000000e-01 2.21094154021197e+00 9.57187624262195e-03
1.69200000000000e-01 2.06299669796902e+00 1.01584477186705e-02
2.06800000000000e-01 1.92495156403956e+00 1.04953247498623e-02
2.44400000000000e-01 1.79614370083398e+00 1.06555955913336e-02
2.82000000000000e-01 1.67595499768080e+00 1.06859750721767e-02
3.19600000000000e-01 1.56380870469722e+00 1.06187951711080e-02
3.57200000000000e-01 1.45916666513772e+00 1.04775955800775e-02
3.94800000000000e-01 1.36152673293975e+00 1.02801112447878e-02
4.32400000000000e-01 1.27042036307389e+00 1.00400281462391e-02
4.70000000000000e-01 1.18541036313550e+00 9.76809034119697e-03
5.07600000000000e-01 1.10608879538819e+00 9.47283674589779e-03
5.45200000000000e-01 1.03207501919187e+00 9.16111291164440e-03
5.82800000000000e-01 9.63013864421305e-01 8.83843897391741e-03
6.20400000000000e-01 8.98573927110283e-01 8.50928176346766e-03
6.58000000000000e-01 8.38445979142367e-01 8.17726079524286e-03
6.95600000000000e-01 7.82341484357050e-01 7.84530727185203e-03
7.33200000000000e-01 7.29991213950429e-01 7.51578884624267e-03
7.70800000000000e-01 6.81143954526151e-01 7.19060888186804e-03
8.08400000000000e-01 6.35565302596956e-01 6.87128635609759e-03
8.46000000000000e-01 5.93036539751968e-01 6.55902082732060e-03
8.83600000000000e-01 5.53353583092016e-01 6.25474570912787e-03
9.21200000000000e-01 5.16326005896430e-01 5.95917227389931e-03
9.58800000000000e-01 4.81776123821772e-01 5.67282622386053e-03
9.96400000000000e-01 4.49538142247457e-01 5.39607824435300e-03
1.03400000000000e+00 4.19457360676625e-01 5.12916964229477e-03
1.07160000000000e+00 3.91389430374405e-01 4.87223393975245e-03
1.10920000000000e+00 3.65199661681220e-01 4.62531511594237e-03
1.14680000000000e+00 3.40762377677125e-01 4.38838305547356e-03
1.18440000000000e+00 3.17960311095597e-01 4.16134665548009e-03
1.22200000000000e+00 2.96684041592762e-01 3.94406496180670e-03
1.25960000000000e+00 2.76831470671670e-01 3.73635663909034e-03
1.29720000000000e+00 2.58307331741935e-01 3.53800802738511e-03
1.33480000000000e+00 2.41022732963671e-01 3.34877999592860e-03
1.37240000000000e+00 2.24894730681955e-01 3.16841377051268e-03
1.41000000000000e+00 2.09845931404871e-01 2.99663588301814e-03
1.44760000000000e+00 1.95804120415131e-01 2.83316236871379e-03
1.48520000000000e+00 1.82701915233097e-01 2.67770231791917e-03
1.52280000000000e+00 1.70476442268282e-01 2.52996087281577e-03
1.56040000000000e+00 1.59069035107663e-01 2.38964174696406e-03
1.59800000000000e+00 1.48424952992996e-01 2.25644933396792e-03
1.63560000000000e+00 1.38493118136176e-01 2.13009046234593e-03
1.67320000000000e+00 1.29225870612106e-01 2.01027584572035e-03
1.71080000000000e+00 1.20578739652874e-01 1.89672127067426e-03
1.74840000000000e+00 1.12510230245751e-01 1.78914855885950e-03
1.78600000000000e+00 1.04981624010946e-01 1.68728633500177e-03
1.82360000000000e+00 9.79567934036110e-02 1.59087062821263e-03
1.86120000000000e+00 9.14020283484775e-02 1.49964533037264e-03
1.89880000000000e+00 8.52858744752246e-02 1.41336253220618e-03
1.93640000000000e+00 7.95789821782980e-02 1.33178275495132e-03
1.97400000000000e+00 7.42539657768713e-02 1.25467509317547e-03
2.01160000000000e+00 6.92852720990995e-02 1.18181728224659e-03
2.04920000000000e+00 6.46490578600384e-02 1.11299570219719e-03
2.08680000000000e+00 6.03230752448025e-02 1.04800532817576e-03
2.12440000000000e+00 5.62865651479107e-02 9.86649636337487e-04
2.16200000000000e+00 5.25201575565060e-02 9.28740472854696e-04
2.19960000000000e+00 4.90057785994178e-02 8.74097892705777e-04
2.23720000000000e+00 4.57265638160230e-02 8.22549974008826e-04
2.27480000000000e+00 4.26667772287097e-02 7.73932612886506e-04
2.31240000000000e+00 3.98117358305947e-02 7.28089303166973e-04
2.35000000000000e+00 3.71477391261358e-02 6.84870904629621e-04
2.38760000000000e+00 3.46620033865232e-02 6.44135402983089e-04
2.42520000000000e+00 3.23426003043627e-02 6.05747664307028e-04
2.46280000000000e+00 3.01783997532719e-02 5.69579186290387e-04
2.50040000000000e+00 2.81590163777101e-02 5.35507848250422e-04
2.53800000000000e+00 2.62747597567422e-02 5.03417661612044e-04
2.57560000000000e+00 2.45165879025871e-02 4.73198522261069e-04
2.61320000000000e+00 2.28760638708046e-02 4.44745965952804e-04
2.65080000000000e+00 2.13453152739051e-02 4.17960927755085e-04
2.68840000000000e+00 1.99169965041010e-02 3.92749506328602e-04
2.72600000000000e+00 1.85842534839168e-02 3.69022733694215e-04
2.76360000000000e+00 1.73406907755072e-02 3.46696351003870e-04
2.80120000000000e+00 1.61803408908510e-02 3.25690590716575e-04
2.83880000000000e+00 1.50976356555490e-02 3.05929965481270e-04
2.87640000000000e+00 1.40873794888084e-02 2.87343063942565e-04
2.91400000000000e+00 1.31447244713950e-02 2.69862353611523e-04
2.95160000000000e+00 1.22651470819081e-02 2.53423990880491e-04
2.98920000000000e+00 1.14444264897455e-02 2.37967638207101e-04
3.02680000000000e+00 1.06786243005912e-02 2.23436288446831e-04
3.06440000000000e+00 9.96406565723088e-03 2.09776096274999e-04
3.10200000000000e+00 9.29732160500404e-03 1.96936216606742e-04
3.13960000000000e+00 8.67519263726907e-03 1.84868649896744e-04
3.17720000000000e+00 8.09469334192133e-03 1.73528094178485e-04
3.21480000000000e+00 7.55303807528732e-03 1.62871803684904e-04
3.25240000000000e+00 7.04762759464822e-03 1.52859453878223e-04
3.29000000000000e+00 6.57603658524621e-03 1.43453012705596e-04
3.32760000000000e+00 6.13600202191943e-03 1.34616617888976e-04
3.36520000000000e+00 5.72541230951647e-03 1.26316460051642e-04
3.40280000000000e+00 5.34229714997854e-03 1.18520671479940e-04
3.44040000000000e+00 4.98481808746436e-03 1.11199220316642e-04
3.47800000000000e+00 4.65125968614676e-03 1.04323809981681e-04
3.51560000000000e+00 4.34002129834566e-03 9.78677836166308e-05
3.55320000000000e+00 4.04960938349544e-03 9.18060333510161e-05
3.59080000000000e+00 3.77863034108737e-03 8.61149141911078e-05
3.62840000000000e+00 3.52578382319479e-03 8.07721623352373e-05
3.66600000000000e+00 3.28985649448969e-03 7.57568177236107e-05
3.70360000000000e+00 3.06971620980690e-03 7.10491506350834e-05
3.74120000000000e+00 2.86430658131577e-03 6.66305921482194e-05
3.77880000000000e+00 2.67264190922877e-03 6.24836682891515e-05
3.81640000000000e+00 2.49380245172105e-03 5.85919376941721e-05
3.85400000000000e+00 2.32693001136262e-03 5.49399326205732e-05
3.89160000000000e+00 2.17122381688384e-03 5.15131031449626e-05
3.92920000000000e+00 2.02593668051195e-03 4.82977643940444e-05
3.96680000000000e+00 1.89037141243895e-03 4.52810466586377e-05
4.00440000000000e+00 1.76387747521477e-03 4.24508482474852e-05
4.04200000000000e+00 1.64584786201136e-03 3.97957909431253e-05
4.07960000000000e+00 1.53571618377719e-03 3.73051779277603e-05
4.11720000000000e+00 1.43295395130446e-03 3.49689540526151e-05
4.15480000000000e+00 1.33706803916639e-03 3.27776683297368e-05
4.19240000000000e+00 1.24759831935479e-03 3.07224385305122e-05
4.23000000000000e+00 1.16411545326244e-03 2.87949177803780e-05
4.26760000000000e+00 1.08621883141463e-03 2.69872630442411e-05
4.30520000000000e+00 1.01353465106332e-03 2.52921054020278e-05
4.34280000000000e+00 9.45714122418782e-04 2.37025220185170e-05
4.38040000000000e+00 8.82431794911028e-04 2.22120097161939e-05
4.41800000000000e+00 8.23383995449188e-04 2.08144600642738e-05
4.45560000000000e+00 7.68287371184562e-04 1.95041359013028e-05
4.49320000000000e+00 7.16877529784475e-04 1.82756492128312e-05
4.53080000000000e+00 6.68907770692011e-04 1.71239402895820e-05
4.56840000000000e+00 6.24147901283327e-04 1.60442580953098e-05
4.60600000000000e+00 5.82383132241633e-04 1.50321417771529e-05
4.64360000000000e+00 5.43413046847068e-04 1.40834032547397e-05
4.68120000000000e+00 5.07050639236395e-04 1.31941108276176e-05
4.71880000000000e+00 4.73121417017416e-04 1.23605737437270e-05
4.75640000000000e+00 4.41462563931821e-04 1.15793276746630e-05
4.79400000000000e+00 4.11922158548327e-04 1.08471210463407e-05
4.83160000000000e+00 3.84358445236861e-04 1.01609021764201e-05
4.86920000000000e+00 3.58639153925402e-04 9.51780717246179e-06
4.90680000000000e+00 3.34640865375196e-04 8.91514854726655e-06
4.94440000000000e+00 3.12248418928495e-04 8.35040451021794e-06
4.98200000000000e+00 2.91354359886770e-04 7.82120889569507e-06
5.01960000000000e+00 2.71858423867532e-04 7.32534169175805e-06
5.05720000000000e+00 2.53667055665347e-04 6.86072013433820e-06
5.09480000000000e+00 2.36692960308194e-04 6.42539033408994e-06
5.13240000000000e+00 2.20854684154833e-04 6.01751940488887e-06
5.17000000000000e+00 2.06076224022968e-04 5.63538806469287e-06
5.20760000000000e+00 1.92286662472561e-04 5.27738368112597e-06
5.24520000000000e+00 1.79419827494101e-04 4.94199373570097e-06
5.28280000000000e+00 1.67413974968787e-04 4.62779968207081e-06
5.32040000000000e+00 1.56211492376846e-04 4.33347117509514e-06
5.35800000000000e+00 1.45758622332161e-04 4.05776064882952e-06
5.39560000000000e+00 1.36005204616550e-04 3.79949822279448e-06
5.43320000000000e+00 1.26904435475775e-04 3.55758691706497e-06
5.47080000000000e+00 1.18412643022233e-04 3.33099815783821e-06
5.50840000000000e+00 1.10489077666535e-04 3.11876755619539e-06
5.54600000000000e+00 1.03095716572338e-04 2.91999094377158e-06
5.58360000000000e+00 9.61970811960461e-05 2.73382064999179e-06
5.62120000000000e+00 8.97600670358172e-05 2.55946200642299e-06
5.65880000000000e+00 8.37537847728956e-05 2.39617006463318e-06
5.69640000000000e+00 7.81494120429457e-05 2.24324651474388e-06
5.73400000000000e+00 7.29200551260887e-05 2.10003679261209e-06
5.77160000000000e+00 6.80406198919291e-05 1.96592736428575e-06
5.80920000000000e+00 6.34876913802780e-05 1.84034317704447e-06
5.84680000000000e+00 5.92394214397147e-05 1.72274526696728e-06
5.88440000000000e+00 5.52754238847985e-05 1.61262851356296e-06
5.92200000000000e+00 5.15766766688204e-05 1.50951953255865e-06
5.95960000000000e+00 4.81254306026519e-05 1.41297469847047e-06
5.99720000000000e+00 4.49051241816592e-05 1.32257828907723e-06
6.03480000000000e+00 4.19003041119620e-05 1.23794074438752e-06
6.07240000000000e+00 3.90965511546666e-05 1.15869703313190e-06
6.11000000000000e+00 3.64804109322225e-05 1.08450512022847e-06
6.14760000000000e+00 3.40393293648606e-05 1.01504452906168e-06
6.18520000000000e+00 3.17615924272943e-05 9.50014992783717e-07
6.22280000000000e+00 2.96362699365916e-05 8.89135189195150e-07
6.26040000000000e+00 2.76531631014743e-05 8.32141554088773e-07
6.29800000000000e+00 2.58027555813486e-05 7.78787168248757e-07
6.33560000000000e+00 2.40761678202130e-05 7.28840713586864e-07
6.37320000000000e+00 2.24651144363071e-05 6.82085494170472e-07
6.41080000000000e+00 2.09618644630261e-05 6.38318518153814e-07
6.44840000000000e+00 1.95592042503081e-05 5.97349636865265e-07
6.48600000000000e+00 1.82504028484708e-05 5.59000737530809e-07
6.52360000000000e+00 1.70291797083833e-05 5.23104986327372e-07
6.56120000000000e+00 1.58896745429765e-05 4.89506118660799e-07
6.59880000000000e+00 1.48264192054666e-05 4.58057773752147e-07
6.63640000000000e+00 1.38343114493427e-05 4.28622870793670e-07
6.67400000000000e+00 1.29085904442017e-05 4.01073024102991e-07
6.71160000000000e+00 1.20448139299374e-05 3.75287994860940e-07
6.74920000000000e+00 1.12388368996539e-05 3.51155177166204e-07
6.78680000000000e+00 1.04867917090089e-05 3.28569116278667e-07
6.82440000000000e+00 9.78506951653727e-06 3.07431057053712e-07
6.86200000000000e+00 9.13030296589308e-06 2.87648520692305e-07
6.89960000000000e+00 8.51935002690673e-06 2.69134908046809e-07
6.93720000000000e+00 7.94927891791555e-06 2.51809127830630e-07
6.97480000000000e+00 7.41735403701455e-06 2.35595248181462e-07
7.01240000000000e+00 6.92102283471550e-06 2.20422170123333e-07
7.05000000000000e+00 6.45790356502021e-06 2.06223321562311e-07
7.08760000000000e+00 6.02577385612905e-06 1.92936370534974e-07
7.12520000000000e+00 5.62256004593879e-06 1.80502956507843e-07
7.16280000000000e+00 5.24632723115426e-06 1.68868438600211e-07
7.20040000000000e+00 4.89526998226216e-06 1.57981659672586e-07
7.23800000000000e+00 4.56770367981118e-06 1.47794725288438e-07
7.27560000000000e+00 4.26205643042372e-06 1.38262796618405e-07
7.31320000000000e+00 3.97686152374645e-06 1.29343896413856e-07
7.35080000000000e+00 3.71075039414310e-06 1.20998727230864e-07
7.38840000000000e+00 3.46244605335448e-06 1.13190501136528e-07
7.42600000000000e+00 3.23075696261118e-06 1.05884780177296e-07
7.46360000000000e+00 3.01457131479299e-06 9.90493269337656e-08
7.50120000000000e+00 2.81285169919680e-06 9.26539645284515e-08
7.53880000000000e+00 2.62463012331080e-06 8.66704454925143e-08
7.57640000000000e+00 2.44900336770598e-06 8.10723289344264e-08
7.61400000000000e+00 2.28512865175442e-06 7.58348654883210e-08
7.65160000000000e+00 2.13221958937538e-06 7.09348895523561e-08
7.68920000000000e+00 1.98954241540214e-06 6.63507183580084e-08
7.72680000000000e+00 1.85641246446091e-06 6.20620574399073e-08
7.76440000000000e+00 1.73219088546511e-06 5.80499121027313e-08
7.80200000000000e+00 1.61628157595878e-06 5.42965045069366e-08
7.83960000000000e+00 1.50812832159797e-06 5.07851960187743e-08
7.87720000000000e+00 1.40721212704334e-06 4.75004144922614e-08
7.91480000000000e+00 1.31304872545568e-06 4.44275861716059e-08
7.95240000000000e+00 1.22518625464325e-06 4.15530719221266e-08
7.99000000000000e+00 1.14320308870931e-06 3.88641075160330e-08
8.02760000000000e+00 1.06670581479471e-06 3.63487477166092e-08
8.06520000000000e+00 9.95327345206445e-07 3.39958139204662e-08
8.10280000000000e+00 9.28725155872865e-07 3.17948451326304e-08
8.14040000000000e+00 8.66579642672408e-07 2.97360520634079e-08
8.17800000000000e+00 8.08592587748359e-07 2.78102741492432e-08
8.21560000000000e+00 7.54485728449948e-07 2.60089393122457e-08
8.25320000000000e+00 7.03999422032550e-07 2.43240262847336e-08
8.29080000000000e+00 6.56891399709284e-07 2.27480293360889e-08
8.32840000000000e+00 6.12935604075070e-07 2.12739252494775e-08
8.36600000000000e+00 5.71921104324304e-07 1.98951424056062e-08
8.40360000000000e+00 5.33651084056573e-07 1.86055318397055e-08
8.44120000000000e+00 4.97941896813220e-07 1.73993401463756e-08
8.47880000000000e+00 4.64622184812544e-07 1.62711841148531e-08
8.51640000000000e+00 4.33532056654709e-07 1.52160269846830e-08
8.55400000000000e+00 4.04522320050412e-07 1.42291562187323e-08
8.59160000000000e+00 3.77453765891409e-07 1.33061626970059e-08
8.62920000000000e+00 3.52196500227360e-07 1.24429212408349e-08
8.66680000000000e+00 3.28629320943341e-07 1.16355723827318e-08
8.70440000000000e+00 3.06639136146906e-07 1.08805053025748e-08
8.74200000000000e+00 2.86120421473689e-07 1.01743418558107e-08
8.77960000000000e+00 2.66974713707324e-07 9.51392162407648e-09
8.81720000000000e+00 2.49110138283723e-07 8.89628792305524e-09
8.85480000000000e+00 2.32440968412332e-07 8.31867470651627e-09
8.89240000000000e+00 2.16887213698733e-07 7.77849430936647e-09
8.93000000000000e+00 2.02374236294500e-07 7.27332597616905e-09
8.96760000000000e+00 1.88832392732341e-07 6.80090512498697e-09
9.00520000000000e+00 1.76196699727781e-07 6.35911329959587e-09
9.04280000000000e+00 1.64406522343689e-07 5.94596876609534e-09
9.08040000000000e+00 1.53405283021224e-07 5.55961771274419e-09
9.11800000000000e+00 1.43140190080939e-07 5.19832601446433e-09
9.15560000000000e+00 1.33561984391194e-07 4.86047152591196e-09
9.19320000000000e+00 1.24624702988214e-07 4.54453686931291e-09
9.23080000000000e+00 1.16285458513482e-07 4.24910268541143e-09
9.26840000000000e+00 1.08504233410046e-07 3.97284131789841e-09
9.30600000000000e+00 1.01243687890147e-07 3.71451090357336e-09
9.34360000000000e+00 9.44689807526770e-08 3.47294984226304e-09
9.38120000000000e+00 8.81476021905969e-08 3.24707162217641e-09
9.41880000000000e+00 8.22492177860354e-08 3.03585997792686e-09
9.45640000000000e+00 7.67455229444271e-08 2.83836435990555e-09
9.49400000000000e+00 7.16101070691713e-08 2.65369569505039e-09
9.53160000000000e+00 6.68183268250249e-08 2.48102242032914e-09
9.56920000000000e+00 6.23471878820570e-08 2.31956677144848e-09
9.60680000000000e+00 5.81752345726904e-08 2.16860131041811e-09
9.64440000000000e+00 5.42824469323266e-08 2.02744567664535e-09
9.68200000000000e+00 5.06501446294827e-08 1.89546354721488e-09
9.71960000000000e+00 4.72608973244301e-08 1.77205979292616e-09
9.75720000000000e+00 4.40984410261720e-08 1.65667781751963e-09
9.79480000000000e+00 4.11476000463819e-08 1.54879706832685e-09
9.83240000000000e+00 3.83942141757835e-08 1.44793070733311e-09
9.87000000000000e+00 3.58250707335130e-08 1.35362343234546e-09
9.90760000000000e+00 3.34278411633886e-08 1.26544943861950e-09
9.94520000000000e+00 3.11910218728313e-08 1.18301051191608e-09
9.98280000000000e+00 2.91038790305423e-08 1.10593424453736e-09
1.00204000000000e+01 2.71563970580342e-08 1.03387236643342e-09
1.00580000000000e+01 2.53392305678460e-08 9.66499183977574e-10
1.00956000000000e+01 2.36436595178043e-08 9.03510119483073e-10
1.01332000000000e+01 2.20615473661313e-08 8.44620344978255e-10
1.01708000000000e+01 2.05853020265982e-08 7.89563504172973e-10
1.02084000000000e+01 1.92078394363585e-08 7.38090516938612e-10
1.02460000000000e+01 1.79225495616349e-08 6.89968460988293e-10
1.02836000000000e+01 1.67232646781306e-08 6.44979525785033e-10
1.03212000000000e+01 1.56042297739530e-08 6.02920034024925e-10
1.03588000000000e+01 1.45600749330208e-08 5.63599526341222e-10
1.03964000000000e+01 1.35857895664321e-08 5.26839905155028e-10
1.04340000000000e+01 1.26766983681369e-08 4.92474633859975e-10
1.04716000000000e+01 1.18284388795319e-08 4.60347987773453e-10
1.05092000000000e+01 1.10369405553179e-08 4.30314353516260e-10
1.05468000000000e+01 1.02984052301618e-08 4.02237573697164e-10
1.05844000000000e+01 9.60928889242980e-09 3.75990333979798e-10
1.06220000000000e+01 8.96628467752806e-09 3.51453589797351e-10
1.06596000000000e+01 8.36630699924206e-09 3.28516030156419e-10
1.06972000000000e+01 7.80647674292491e-09 3.07073576136082e-10
1.07348000000000e+01 7.28410744948140e-09 2.87028911842398e-10
1.07724000000000e+01 6.79669242384890e-09 2.68291045722701e-10
1.08100000000000e+01 6.34189270611240e-09 2.50774900279033e-10
1.08476000000000e+01 5.91752584753066e-09 2.34400928346375e-10
1.08852000000000e+01 5.52155543761305e-09 2.19094754219489e-10
1.09228000000000e+01 5.15208133199055e-09 2.04786838022799e-10
1.09604000000000e+01 4.80733053418737e-09 1.91412161821193e-10
1.09980000000000e+01 4.48564868753756e-09 1.78909936066506e-10
1.10356000000000e+01 4.18549213641885e-09 1.67223325065007e-10
1.10732000000000e+01 3.90542051870783e-09 1.56299190236028e-10
1.11108000000000e+01 3.64408985391002e-09 1.46087850011201e-10
1.11484000000000e+01 3.40024609379675e-09 1.36542855297970e-10
1.11860000000000e+01 3.17271910460020e-09 1.27620779500531e-10
1.12236000000000e+01 2.96041705188906e-09 1.19281022156321e-10
1.12612000000000e+01 2.76232116117947e-09 1.11485625306968e-10
1.12988000000000e+01 2.57748082913889e-09 1.04199101779519e-10
1.13364000000000e+01 2.40500906192307e-09 9.73882746069563e-11
1.13740000000000e+01 2.24407821875614e-09 9.10221268668476e-11
1.14116000000000e+01 2.09391604032833e-09 8.50716612635209e-11
1.14492000000000e+01 1.95380194295302e-09 7.95097688227630e-11
1.14868000000000e+01 1.82306356069960e-09 7.43111061088132e-11
1.15244000000000e+01 1.70107351890920e-09 6.94519804115658e-11
1.15620000000000e+01 1.58724642360998e-09 6.49102423875846e-11
1.15996000000000e+01 1.48103605238543e-09 6.06651856719271e-11
1.16372000000000e+01 1.38193273321522e-09 5.66974530089950e-11
1.16748000000000e+01 1.28946089871058e-09 5.29889484798564e-11
1.17124000000000e+01 1.20317680400768e-09 4.95227554308196e-11
1.17500000000000e+01 1.12266639736787e-09 4.62830597335982e-11
1.17876000000000e+01 1.04754333326635e-09 4.32550780313326e-11
1.18252000000000e+01 9.77447118434767e-10 4.04249906471104e-11
1.18628000000000e+01 9.12041381961152e-10 3.77798788525507e-11
