Energy (eV)          EEDF (eV^-(3/2))     First Anisotropy
1.05714285714286e-03 1.23625608953647e+02 1.08341370823995e-01
3.17142857142857e-03 1.17686306148053e+02 1.75193891404369e-01
5.28571428571429e-03 1.12032343229889e+02 2.21655007813263e-01
7.40000000000000e-03 1.06650011718582e+02 2.51569332825981e-01
9.51428571428571e-03 1.01526261715868e+02 2.72385627003346e-01
1.16285714285714e-02 9.66486702752299e+01 2.87110405980238e-01
1.37428571428571e-02 9.20054112940738e+01 2.97390434997444e-01
1.58571428571429e-02 8.75852268168791e+01 3.04270352748299e-01
1.79714285714286e-02 8.33773997505571e+01 3.08472845387273e-01
2.00857142857143e-02 7.93717278803483e+01 3.10527124463496e-01
2.22000000000000e-02 7.55584991331143e+01 3.10836449184700e-01
2.43142857142857e-02 7.19284680235571e+01 3.09717160953757e-01
2.64285714285714e-02 6.84728332570500e+01 3.07422904508752e-01
2.85428571428571e-02 6.51832163695188e+01 3.04160505421526e-01
3.06571428571429e-02 6.20516414206361e+01 3.00100845405568e-01
3.27714285714286e-02 5.90705156554401e+01 2.95386583121198e-01
3.48857142857143e-02 5.62326110952002e+01 2.90137801937603e-01
3.70000000000000e-02 5.35310470125142e+01 2.84456246704102e-01
3.91142857142857e-02 5.09592732458120e+01 2.78428571384532e-01
4.12285714285714e-02 4.85110543262191e+01 2.72128874732673e-01
4.33428571428571e-02 4.61804543504308e+01 2.65620712312529e-01
4.54571428571429e-02 4.39618225917278e+01 2.58958715707722e-01
4.75714285714286e-02 4.18497797993139e+01 2.52189911470112e-01
4.96857142857143e-02 3.98392051559292e+01 2.45354807305087e-01
5.18000000000000e-02 3.79252238619908e+01 2.38488295112048e-01
5.39142857142857e-02 3.61031953149138e+01 2.31620408269564e-01
5.60285714285714e-02 3.43687018617926e+01 2.24776961275009e-01
5.81428571428571e-02 3.27175380840398e+01 2.17980093764468e-01
6.02571428571429e-02 3.11457006025588e+01 2.11248736055824e-01
6.23714285714286e-02 2.96493783712217e+01 2.04599009510423e-01
6.44857142857143e-02 2.82249434366973e+01 1.98044572561693e-01
6.66000000000000e-02 2.68689421421770e+01 1.91596921026179e-01
6.87142857142857e-02 2.55780867529671e+01 1.85265649808354e-01
7.08285714285714e-02 2.43492474874282e+01 1.79058681597751e-01
7.29428571428571e-02 2.31794449261441e+01 1.72982467412531e-01
7.50571428571429e-02 2.20658427889280e+01 1.67042162973006e-01
7.71714285714286e-02 2.10057410580295e+01 1.61241784095175e-01
7.92857142857143e-02 1.99965694317326e+01 1.55584343940696e-01
8.14000000000000e-02 1.90358810924478e+01 1.50071974446920e-01
8.35142857142857e-02 1.81213467737766e+01 1.44706033986869e-01
8.56285714285714e-02 1.72507491143628e+01 1.39487202863033e-01
8.77428571428572e-02 1.64219772803177e+01 1.34415568170039e-01
8.98571428571429e-02 1.56330218478238e+01 1.29490699310886e-01
9.19714285714286e-02 1.48819699311231e+01 1.24711715191552e-01
9.40857142857143e-02 1.41670005445763e+01 1.20077344082065e-01
9.62000000000000e-02 1.34863801875344e+01 1.15585976956084e-01
9.83142857142857e-02 1.28384586410688e+01 1.11235715067713e-01
1.00428571428571e-01 1.22216649676900e+01 1.07024412351308e-01
1.02542857142857e-01 1.16345037023074e+01 1.02949713138965e-01
1.04657142857143e-01 1.10755512239534e+01 9.90090859478811e-02
1.06771428571429e-01 1.05434523075950e+01 9.51998535599432e-02
1.08885714285714e-01 1.00369168386520e+01 9.15192195272634e-02
1.11000000000000e-01 9.55471667930243e+00 8.79642921094301e-02
1.13114285714286e-01 9.09568269665900e+00 8.45321054736278e-02
1.15228571428571e-01 8.65870192607997e+00 8.12196383978085e-02
1.17342857142857e-01 8.24271487410174e+00 7.80238308251985e-02
1.19457142857143e-01 7.84671294525875e+00 7.49415986966259e-02
1.21571428571429e-01 7.46973600116194e+00 7.19698470428101e-02
1.23685714285714e-01 7.11087003216713e+00 6.91054812567998e-02
1.25800000000000e-01 6.76924493773372e+00 6.63454172862494e-02
1.27914285714286e-01 6.44403242046427e+00 6.36865904983895e-02
1.30028571428571e-01 6.13444397656647e+00 6.11259633391822e-02
1.32142857142857e-01 5.83972898494406e+00 5.86605319673724e-02
1.34257142857143e-01 5.55917288452330e+00 5.62873321085089e-02
1.36371428571429e-01 5.29209544456633e+00 5.40034440773005e-02
1.38485714285714e-01 5.03784911515082e+00 5.18059968843759e-02
1.40600000000000e-01 4.79581745489005e+00 4.96921718922300e-02
1.42714285714286e-01 4.56541363863833e+00 4.76592058279323e-02
1.44828571428571e-01 4.34607903388759e+00 4.57043932129080e-02
1.46942857142857e-01 4.13728184687880e+00 4.38250883085241e-02
1.49057142857143e-01 3.93851583148759e+00 4.20187067249916e-02
1.51171428571429e-01 3.74929906358582e+00 4.02827266409743e-02
1.53285714285714e-01 3.56917277242334e+00 3.86146895638096e-02
1.55400000000000e-01 3.39770022686785e+00 3.70122009292640e-02
1.57514285714286e-01 3.23446567799614e+00 3.54729303986071e-02
1.59628571428571e-01 3.07907335056699e+00 3.39946118838233e-02
1.61742857142857e-01 2.93114648379274e+00 3.25750433566712e-02
1.63857142857143e-01 2.79032641673568e+00 3.12120865329817e-02
1.65971428571429e-01 2.65627171986006e+00 2.99036663877991e-02
1.68085714285714e-01 2.52865736711061e+00 2.86477704472821e-02
1.70200000000000e-01 2.40717394693561e+00 2.74424480525113e-02
1.72314285714286e-01 2.29152691304948e+00 2.62858094925422e-02
1.74428571428571e-01 2.18143586995226e+00 2.51760250225666e-02
1.76542857142857e-01 2.07663389332185e+00 2.41113237992397e-02
1.78657142857143e-01 1.97686688211054e+00 2.30899927908715e-02
1.80771428571429e-01 1.88189294320491e+00 2.21103756276550e-02
1.82885714285714e-01 1.79148180487353e+00 2.11708713516665e-02
1.85000000000000e-01 1.70541425785285e+00 2.02699331953575e-02
1.87114285714286e-01 1.62348162447848e+00 1.94060673152963e-02
1.89228571428571e-01 1.54548525251512e+00 1.85778314892092e-02
1.91342857142857e-01 1.47123603366088e+00 1.77838337949712e-02
1.93457142857143e-01 1.40055394456624e+00 1.70227313084330e-02
1.95571428571429e-01 1.33326761084158e+00 1.62932287937342e-02
1.97685714285714e-01 1.26921389150544e+00 1.55940773566703e-02
1.99800000000000e-01 1.20823748304196e+00 1.49240731466515e-02
2.01914285714286e-01 1.15019054326226e+00 1.42820560553299e-02
2.04028571428571e-01 1.09493233270878e+00 1.36669084158088e-02
2.06142857142857e-01 1.04232887352148e+00 1.30775537133265e-02
2.08257142857143e-01 9.92252624287130e-01 1.25129553312082e-02
2.10371428571429e-01 9.44582171125905e-01 1.19721153125398e-02
2.12485714285714e-01 8.99201933287107e-01 1.14540731162755e-02
2.14600000000000e-01 8.56001882654765e-01 1.09579044249419e-02
2.16714285714286e-01 8.14877277243816e-01 1.04827199672538e-02
2.18828571428571e-01 7.75728407152323e-01 1.00276643573710e-02
2.20942857142857e-01 7.38460352873046e-01 9.59191495714750e-03
2.23057142857143e-01 7.02982754948290e-01 9.17468077681328e-03
2.25171428571429e-01 6.69209595098201e-01 8.77520139976825e-03
2.27285714285714e-01 6.37058987645061e-01 8.39274591618428e-03
2.29400000000000e-01 6.06452980803075e-01 8.02661190378250e-03
2.31514285714286e-01 5.77317367855526e-01 7.67612442991862e-03
2.33628571428571e-01 5.49581507173451e-01 7.34063507557121e-03
2.35742857142857e-01 5.23178150983289e-01 7.01952098490981e-03
2.37857142857143e-01 4.98043282183103e-01 6.71218395050516e-03
2.39971428571429e-01 4.74115959268692e-01 6.41804952377266e-03
2.42085714285714e-01 4.51338168564481e-01 6.13656613968757e-03
2.44200000000000e-01 4.29654683450491e-01 5.86720428161546e-03
2.46314285714286e-01 4.09012930578976e-01 5.60945566803491e-03
2.48428571428571e-01 3.89362862365452e-01 5.36283246118701e-03
2.50542857142857e-01 3.70656835673588e-01 5.12686649974833e-03
2.52657142857143e-01 3.52849496209894e-01 4.90110856210601e-03
2.54771428571429e-01 3.35897668652333e-01 4.68512765270782e-03
2.56885714285714e-01 3.19760251960648e-01 4.47851030365615e-03
2.59000000000000e-01 3.04398119647361e-01 4.28085990900306e-03
2.61114285714286e-01 2.89774024991223e-01 4.09179607891482e-03
2.63228571428571e-01 2.75852510702407e-01 3.91095401348728e-03
2.65342857142857e-01 2.62599822973035e-01 3.73798389737894e-03
2.67457142857143e-01 2.49983829577719e-01 3.57255031957173e-03
2.69571428571429e-01 2.37973942029074e-01 3.41433171283690e-03
2.71685714285714e-01 2.26541041408391e-01 3.26301980731923e-03
2.73800000000000e-01 2.15657407713438e-01 3.11831911006050e-03
2.75914285714286e-01 2.05296652701825e-01 2.97994640142835e-03
2.78028571428571e-01 1.95433655892421e-01 2.84763024813977e-03
2.80142857142857e-01 1.86044503671860e-01 2.72111053350416e-03
2.82257142857143e-01 1.77106431273387e-01 2.60013800771378e-03
2.84371428571429e-01 1.68597767623896e-01 2.48447385428421e-03
2.86485714285714e-01 1.60497882797269e-01 2.37388926866428e-03
2.88600000000000e-01 1.52787137961192e-01 2.26816505703566e-03
2.90714285714286e-01 1.45446837796644e-01 2.16709124894147e-03
2.92828571428571e-01 1.38459185157390e-01 2.07046672342325e-03
2.94942857142857e-01 1.31807237928204e-01 1.97809884897943e-03
2.97057142857143e-01 1.25474867919988e-01 1.88980313920172e-03
2.99171428571429e-01 1.19446721793964e-01 1.80540292129412e-03
3.01285714285714e-01 1.13708183833989e-01 1.72472901463987e-03
3.03400000000000e-01 1.08245340486496e-01 1.64761942486755e-03
3.05514285714286e-01 1.03044946649818e-01 1.57391904893701e-03
3.07628571428571e-01 9.80943935521558e-02 1.50347939095209e-03
3.09742857142857e-01 9.33816781865560e-02 1.43615828883828e-03
3.11857142857143e-01 8.88953741902042e-02 1.37181965310400e-03
3.13971428571429e-01 8.46246041593618e-02 1.31033321568353e-03
3.16085714285714e-01 8.05590132746949e-02 1.25157428684400e-03
3.18200000000000e-01 7.66887441796004e-02 1.19542352386689e-03
3.20314285714286e-01 7.30044130963560e-02 1.14176670834876e-03
3.22428571428571e-01 6.94970870688485e-02 1.09049453187039e-03
3.24542857142857e-01 6.61582623079310e-02 1.04150239007739e-03
3.26657142857143e-01 6.29798435608315e-02 9.94690185971982e-04
3.28771428571429e-01 5.99541244964528e-02 9.49962140983968e-04
3.30885714285714e-01 5.70737690197209e-02 9.07226612384899e-04
3.33000000000000e-01 5.43317934740910e-02 8.66395919574514e-04
3.35114285714286e-01 5.17215497200056e-02 8.27386177016222e-04
3.37228571428571e-01 4.92367090121926e-02 7.90117133615162e-04
3.39342857142857e-01 4.68712466578411e-02 7.54512018533262e-04
3.41457142857143e-01 4.46194274008026e-02 7.20497393965740e-04
3.43571428571429e-01 4.24757915247326e-02 6.88003013855406e-04
3.45685714285714e-01 4.04351416148727e-02 6.56961687523223e-04
3.47800000000000e-01 3.84925299493537e-02 6.27309149940713e-04
3.49914285714286e-01 3.66432465104324e-02 5.98983937077222e-04
3.52028571428571e-01 3.48828075621305e-02 5.71927266156604e-04
3.54142857142857e-01 3.32069447809077e-02 5.46082920795506e-04
3.56257142857143e-01 3.16115949010352e-02 5.21397141366730e-04
3.58371428571429e-01 3.00928898688071e-02 4.97818519856440e-04
3.60485714285714e-01 2.86471474636619e-02 4.75297898488503e-04
3.62600000000000e-01 2.72708623654876e-02 4.53788273294572e-04
3.64714285714286e-01 2.59606976607092e-02 4.33244701525102e-04
3.66828571428571e-01 2.47134767499445e-02 4.13624212771190e-04
3.68942857142857e-01 2.35261756473427e-02 3.94885723761689e-04
3.71057142857143e-01 2.23959156447896e-02 3.76989957060146e-04
3.73171428571429e-01 2.13199563362778e-02 3.59899363139467e-04
3.75285714285714e-01 2.02956889732516e-02 3.43578045317419e-04
3.77400000000000e-01 1.93206301361836e-02 3.27991688358632e-04
3.79514285714286e-01 1.83924157167384e-02 3.13107489963924e-04
3.81628571428571e-01 1.75087951846252e-02 2.98894095046100e-04
3.83742857142857e-01 1.66676261318645e-02 2.85321532756415e-04
3.85857142857143e-01 1.58668690756923e-02 2.72361156408164e-04
3.87971428571429e-01 1.51045825164150e-02 2.59985585924863e-04
3.90085714285714e-01 1.43789182298688e-02 2.48168652445256e-04
3.92200000000000e-01 1.36881167840018e-02 2.36885345636414e-04
3.94314285714286e-01 1.30305032753153e-02 2.26111763165171e-04
3.96428571428571e-01 1.24044832671242e-02 2.15825062250580e-04
3.98542857142857e-01 1.18085389243023e-02 2.06003413264930e-04
4.00657142857143e-01 1.12412253313581e-02 1.96625955478563e-04
4.02771428571429e-01 1.07011669909928e-02 1.87672754682722e-04
4.04885714285714e-01 1.01870544889484e-02 1.79124762428867e-04
4.07000000000000e-01 9.69764131769125e-03 1.70963777261819e-04
4.09114285714286e-01 9.23174085574229e-03 1.63172407558786e-04
4.11228571428571e-01 8.78822349007085e-03 1.55734035915506e-04
4.13342857142857e-01 8.36601387765635e-03 1.48632785051712e-04
4.15457142857143e-01 7.96408833699641e-03 1.41853485297658e-04
4.17571428571429e-01 7.58147236738677e-03 1.35381643472156e-04
4.19685714285714e-01 7.21723828606506e-03 1.29203412966082e-04
4.21800000000000e-01 6.87050297791976e-03 1.23305565289829e-04
4.23914285714286e-01 6.54042575539147e-03 1.17675462810870e-04
4.26028571428571e-01 6.22620631978467e-03 1.12301032637062e-04
4.28142857142857e-01 5.92708282115228e-03 1.07170741622783e-04
4.30257142857143e-01 5.64233001028373e-03 1.02273572537743e-04
4.32371428571429e-01 5.37125748115398e-03 9.75990012633201e-05
4.34485714285714e-01 5.11320799690965e-03 9.31369748840799e-05
4.36600000000000e-01 4.86755589562728e-03 8.88778908516369e-05
4.38714285714286e-01 4.63370557408807e-03 8.48125770274999e-05
4.40828571428571e-01 4.41109004343421e-03 8.09322725716101e-05
4.42942857142857e-01 4.19916955464584e-03 7.72286096581500e-05
4.45057142857143e-01 3.99743028929734e-03 7.36935960442195e-05
4.47171428571429e-01 3.80538311436156e-03 7.03195983950224e-05
4.49285714285714e-01 3.62256239622043e-03 6.70993262714265e-05
4.51400000000000e-01 3.44852487120687e-03 6.40258169013828e-05
4.53514285714286e-01 3.28284857138486e-03 6.10924205986218e-05
4.55628571428571e-01 3.12513180127914e-03 5.82927868037827e-05
4.57742857142857e-01 2.97499216406038e-03 5.56208507334387e-05
4.59857142857143e-01 2.83206563399658e-03 5.30708206533454e-05
4.61971428571429e-01 2.69600567425354e-03 5.06371657072415e-05
4.64085714285714e-01 2.56648239665628e-03 4.83146042342402e-05
4.66200000000000e-01 2.44318176151120e-03 4.60980926581376e-05
4.68314285714286e-01 2.32580481654037e-03 4.39828148521560e-05
4.70428571428571e-01 2.21406697192755e-03 4.19641719606465e-05
4.72542857142857e-01 2.10769731039530e-03 4.00377726664407e-05
4.74657142857143e-01 2.00643793007194e-03 3.81994239141953e-05
4.76771428571429e-01 1.91004331946922e-03 3.64451220407919e-05
4.78885714285714e-01 1.81827976219791e-03 3.47710442651531e-05
4.81000000000000e-01 1.73092477007197e-03 3.31735405946620e-05
4.83114285714286e-01 1.64776654390751e-03 3.16491260800000e-05
4.85228571428571e-01 1.56860345991613e-03 3.01944734047233e-05
4.87342857142857e-01 1.49324358091232e-03 2.88064058008695e-05
4.89457142857143e-01 1.42150419075926e-03 2.74818902970890e-05
4.91571428571429e-01 1.35321135155218e-03 2.62180312644292e-05
4.93685714285714e-01 1.28819948187681e-03 2.50120642258836e-05
4.95800000000000e-01 1.22631095518477e-03 2.38613499689580e-05
4.97914285714286e-01 1.16739571777984e-03 2.27633689130659e-05
5.00028571428571e-01 1.11131092494403e-03 2.17157157216444e-05
5.02142857142857e-01 1.05792059464065e-03 2.07160941523540e-05
5.04257142857143e-01 1.00709527768632e-03 1.97623121493904e-05
5.06371428571429e-01 9.58711744023957e-04 1.88522771530619e-05
5.08485714285714e-01 9.12652683931202e-04 1.79839916025246e-05
5.10600000000000e-01 8.68806423484080e-04 1.71555486586291e-05
5.12714285714286e-01 8.27066653907761e-04 1.63651281128086e-05
5.14828571428571e-01 7.87332173783414e-04 1.56109924745677e-05
5.16942857142857e-01 7.49506643705806e-04 1.48914832325442e-05
5.19057142857143e-01 7.13498352612215e-04 1.42050172916066e-05
5.21171428571429e-01 6.79219995513031e-04 1.35500835682889e-05
5.23285714285714e-01 6.46588461806646e-04 1.29252397274082e-05
5.25400000000000e-01 6.15524633695774e-04 1.23291090783802e-05
5.27514285714286e-01 5.85953194437877e-04 1.17603776071386e-05
5.29628571428571e-01 5.57802445706839e-04 1.12177911381944e-05
5.31742857142857e-01 5.31004133774299e-04 1.07001526230505e-05
5.33857142857143e-01 5.05493283962072e-04 1.02063195564477e-05
5.35971428571429e-01 4.81208043168803e-04 9.73520150783523e-06
5.38085714285714e-01 4.58089529897233e-04 9.28575775586079e-06
5.40200000000000e-01 4.36081691439370e-04 8.85699503859937e-06
5.42314285714286e-01 4.15131168025846e-04 8.44796540248142e-06
5.44428571428571e-01 3.95187163432394e-04 8.05776414591253e-06
5.46542857142857e-01 3.76201321833874e-04 7.68552785475312e-06
5.48657142857143e-01 3.58127610519709e-04 7.33043253051908e-06
5.50771428571429e-01 3.40922208327277e-04 6.99169180232264e-06
5.52885714285714e-01 3.24543399390604e-04 6.66855521387210e-06
5.55000000000000e-01 3.08951471961099e-04 6.36030659426738e-06
5.57114285714286e-01 2.94108622160225e-04 6.06626250053950e-06
5.59228571428571e-01 2.79978862308215e-04 5.78577072900062e-06
5.61342857142857e-01 2.66527933678406e-04 5.51820889329479e-06
5.63457142857143e-01 2.53723223405241e-04 5.26298306963196e-06
5.65571428571429e-01 2.41533685441695e-04 5.01952650280929e-06
5.67685714285714e-01 2.29929765283306e-04 4.78729836684302e-06
5.69800000000000e-01 2.18883328286216e-04 4.56578258621460e-06
5.71914285714286e-01 2.08367591477983e-04 4.35448670920438e-06
5.74028571428571e-01 1.98357058611324e-04 4.15294083117041e-06
5.76142857142857e-01 1.88827458352872e-04 3.96069656620531e-06
5.78257142857143e-01 1.79755685415390e-04 3.77732606742594e-06
5.80371428571429e-01 1.71119744557807e-04 3.60242109134099e-06
5.82485714285714e-01 1.62898697254379e-04 3.43559210190158e-06
5.84600000000000e-01 1.55072610910509e-04 3.27646741836085e-06
5.86714285714286e-01 1.47622510552184e-04 3.12469240090898e-06
5.88828571428571e-01 1.40530332813562e-04 2.97992867252108e-06
5.90942857142857e-01 1.33778882145345e-04 2.84185337585824e-06
5.93057142857143e-01 1.27351789108988e-04 2.71015846534208e-06
5.95171428571429e-01 1.21233470701947e-04 2.58455003115895e-06
5.97285714285714e-01 1.15409092574326e-04 2.46474765206701e-06
5.99400000000000e-01 1.09864533050034e-04 2.35048377984189e-06
6.01514285714286e-01 1.04586348899813e-04 2.24150315109059e-06
6.03628571428571e-01 9.95617427428565e-05 2.13756222529604e-06
6.05742857142857e-01 9.47785320216174e-05 2.03842864823619e-06
6.07857142857143e-01 9.02251194546739e-05 1.94388074082156e-06
6.09971428571429e-01 8.58904649280531e-05 1.85370701104112e-06
6.12085714285714e-01 8.17640587268206e-05 1.76770568679217e-06
6.14200000000000e-01 7.78358960452919e-05 1.68568427154288e-06
6.16314285714286e-01 7.40964527379915e-05 1.60745911980505e-06
6.18428571428571e-01 7.05366622246990e-05 1.53285503158951e-06
6.20542857142857e-01 6.71478935099279e-05 1.46170486521413e-06
6.22657142857143e-01 6.39219302497863e-05 1.39384916846682e-06
6.24771428571429e-01 6.08509508376109e-05 1.32913582647879e-06
6.26885714285714e-01 5.79275094393235e-05 1.26741972472510e-06
6.29000000000000e-01 5.51445179347776e-05 1.20856242849217e-06
6.31114285714286e-01 5.24952287378616e-05 1.15243187667238e-06
6.33228571428571e-01 4.99732184344297e-05 1.09890208928478e-06
6.35342857142857e-01 4.75723722096927e-05 1.04785288825896e-06
6.37457142857143e-01 4.52868690177935e-05 9.99169631464061e-07
6.39571428571429e-01 4.31111674729325e-05 9.52742958811895e-07
6.41685714285714e-01 4.10399924134668e-05 9.08468549308001e-07
6.43800000000000e-01 3.90683221079590e-05 8.66246889971080e-07
6.45914285714286e-01 3.71913760836151e-05 8.25983055106093e-07
6.48028571428572e-01 3.54046035342563e-05 7.87586495494663e-07
6.50142857142857e-01 3.37036722875447e-05 7.50970837163572e-07
6.52257142857143e-01 3.20844582981231e-05 7.16053689704977e-07
6.54371428571429e-01 3.05430356518026e-05 6.82756463314414e-07
6.56485714285714e-01 2.90756670466152e-05 6.51004193745477e-07
6.58600000000000e-01 2.76787947287260e-05 6.20725375813746e-07
6.60714285714286e-01 2.63490318691629e-05 5.91851804377284e-07
6.62828571428571e-01 2.50831543512167e-05 5.64318422477466e-07
6.64942857142857e-01 2.38780929540186e-05 5.38063176391967e-07
6.67057142857143e-01 2.27309259087780e-05 5.13026877571710e-07
