Energy (eV)          EEDF (eV^-(3/2))     First Anisotropy
1.71666666666667e-03 6.84647213688846e+00 4.46920391014716e-03
5.15000000000000e-03 6.76841952017181e+00 7.36261049071250e-03
8.58333333333333e-03 6.69125673549474e+00 9.67371637689458e-03
1.20166666666667e-02 6.61497363856249e+00 1.14018792301561e-02
1.54500000000000e-02 6.53956020065576e+00 1.28205265588642e-02
1.88833333333333e-02 6.46500650686589e+00 1.40337438444775e-02
2.23166666666667e-02 6.39130275620509e+00 1.50957447564798e-02
2.57500000000000e-02 6.31843925889769e+00 1.60394740162513e-02
2.91833333333333e-02 6.24640643545389e+00 1.68869166672777e-02
3.26166666666667e-02 6.17519481610625e+00 1.76537063623529e-02
3.60500000000000e-02 6.10479503875819e+00 1.83514858271451e-02
3.94833333333333e-02 6.03519784789932e+00 1.89892363331159e-02
4.29166666666667e-02 5.96639409388905e+00 1.95740812914501e-02
4.63500000000000e-02 5.89837473120255e+00 2.01117991773039e-02
4.97833333333333e-02 5.83113081732193e+00 2.06071654467562e-02
5.32166666666667e-02 5.76465351194298e+00 2.10641888813607e-02
5.66500000000000e-02 5.69893407540124e+00 2.14862798632489e-02
6.00833333333333e-02 5.63396386757373e+00 2.18763731950954e-02
6.35166666666667e-02 5.56973434704809e+00 2.22370198367557e-02
6.69500000000000e-02 5.50623706967551e+00 2.25704566914450e-02
7.03833333333333e-02 5.44346368749542e+00 2.28786605255117e-02
7.38166666666667e-02 5.38140594788885e+00 2.31633903555595e-02
7.72500000000000e-02 5.32005569222918e+00 2.34262211667092e-02
8.06833333333333e-02 5.25940485483493e+00 2.36685709990583e-02
8.41166666666667e-02 5.19944546212018e+00 2.38917230386572e-02
8.75500000000000e-02 5.14016963132559e+00 2.40968437673277e-02
9.09833333333333e-02 5.08156956950120e+00 2.42849979566167e-02
9.44166666666667e-02 5.02363757266224e+00 2.44571612461272e-02
9.78500000000000e-02 4.96636602458839e+00 2.46142307339732e-02
1.01283333333333e-01 4.90974739583749e+00 2.47570339087780e-02
1.04716666666667e-01 4.85377424291189e+00 2.48863363011353e-02
1.08150000000000e-01 4.79843920725598e+00 2.50028481331400e-02
1.11583333333333e-01 4.74373501360687e+00 2.51072298266683e-02
1.15016666666667e-01 4.68965447056706e+00 2.52000969913227e-02
1.18450000000000e-01 4.63619046824270e+00 2.52820248598018e-02
1.21883333333333e-01 4.58333597740687e+00 2.53535517632160e-02
1.25316666666667e-01 4.53108404978420e+00 2.54151825705674e-02
1.28750000000000e-01 4.47942781588918e+00 2.54673917267305e-02
1.32183333333333e-01 4.42836048420439e+00 2.55106255784621e-02
1.35616666666667e-01 4.37787534136337e+00 2.55453048000576e-02
1.39050000000000e-01 4.32796575015939e+00 2.55718265588905e-02
1.42483333333333e-01 4.27862514874132e+00 2.55905661128457e-02
1.45916666666667e-01 4.22984705071433e+00 2.56018785778788e-02
1.49350000000000e-01 4.18162504329597e+00 2.56061005203846e-02
1.52783333333333e-01 4.13395278653144e+00 2.56035510764436e-02
1.56216666666667e-01 4.08682401332733e+00 2.55945332767534e-02
1.59650000000000e-01 4.04023252773675e+00 2.55793352495258e-02
1.63083333333333e-01 3.99417220419483e+00 2.55582310165932e-02
1.66516666666667e-01 3.94863698749788e+00 2.55314815113555e-02
1.69950000000000e-01 3.90362089120246e+00 2.54993355091645e-02
1.73383333333333e-01 3.85911799688176e+00 2.54620301996047e-02
1.76816666666667e-01 3.81512245406001e+00 2.54197919857383e-02
1.80250000000000e-01 3.77162847871311e+00 2.53728372188460e-02
1.83683333333333e-01 3.72863035254616e+00 2.53213726123873e-02
1.87116666666667e-01 3.68612242289112e+00 2.52655958816872e-02
1.90550000000000e-01 3.64409910129873e+00 2.52056963349808e-02
1.93983333333333e-01 3.60255486283714e+00 2.51418551733687e-02
1.97416666666667e-01 3.56148424595947e+00 2.50742460116027e-02
2.00850000000000e-01 3.52088185117820e+00 2.50030353614143e-02
2.04283333333333e-01 3.48074234038492e+00 2.49283828481146e-02
2.07716666666667e-01 3.44106043669303e+00 2.48504416410745e-02
2.11150000000000e-01 3.40183092318739e+00 2.47693588548077e-02
2.14583333333333e-01 3.36304864226467e+00 2.46852757038380e-02
2.18016666666667e-01 3.32470849545600e+00 2.45983278633996e-02
2.21450000000000e-01 3.28680544224523e+00 2.45086458066676e-02
2.24883333333333e-01 3.24933449942969e+00 2.44163549134105e-02
2.28316666666667e-01 3.21229074092648e+00 2.43215757759196e-02
2.31750000000000e-01 3.17566929665383e+00 2.42244244859060e-02
2.35183333333333e-01 3.13946535191184e+00 2.41250127082487e-02
2.38616666666667e-01 3.10367414717566e+00 2.40234479433135e-02
2.42050000000000e-01 3.06829097703498e+00 2.39198337736214e-02
2.45483333333333e-01 3.03331118959435e+00 2.38142699110451e-02
2.48916666666667e-01 2.99873018625593e+00 2.37068524239448e-02
2.52350000000000e-01 2.96454342071283e+00 2.35976739512719e-02
2.55783333333333e-01 2.93074639836851e+00 2.34868237294593e-02
2.59216666666667e-01 2.89733467611142e+00 2.33743877908298e-02
2.62650000000000e-01 2.86430386135832e+00 2.32604491510249e-02
2.66083333333333e-01 2.83164961149228e+00 2.31450878203160e-02
2.69516666666667e-01 2.79936763363120e+00 2.30283809782913e-02
2.72950000000000e-01 2.76745368371762e+00 2.29104031391942e-02
2.76383333333333e-01 2.73590356597488e+00 2.27912261512607e-02
2.79816666666667e-01 2.70471313267112e+00 2.26709193516192e-02
2.83250000000000e-01 2.67387828325259e+00 2.25495497131534e-02
2.86683333333333e-01 2.64339496381736e+00 2.24271818346395e-02
2.90116666666667e-01 2.61325916687634e+00 2.23038780789802e-02
2.93550000000000e-01 2.58346693052717e+00 2.21796987044750e-02
2.96983333333333e-01 2.55401433794512e+00 2.20547018479061e-02
3.00416666666667e-01 2.52489751714221e+00 2.19289436486137e-02
3.03850000000000e-01 2.49611264017929e+00 2.18024783664882e-02
3.07283333333333e-01 2.46765592267351e+00 2.16753583596870e-02
3.10716666666667e-01 2.43952362355669e+00 2.15476341965806e-02
3.14150000000000e-01 2.41171204432318e+00 2.14193547623487e-02
3.17583333333333e-01 2.38421752855349e+00 2.12905672326484e-02
3.21016666666667e-01 2.35703646167275e+00 2.11613171750927e-02
3.24450000000000e-01 2.33016527023231e+00 2.10316486459905e-02
3.27883333333333e-01 2.30360042144896e+00 2.09016041610065e-02
3.31316666666667e-01 2.27733842296433e+00 2.07712247875423e-02
3.34750000000000e-01 2.25137582215820e+00 2.06405502328960e-02
3.38183333333333e-01 2.22570920570296e+00 2.05096188127390e-02
3.41616666666667e-01 2.20033519932444e+00 2.03784675355365e-02
3.45050000000000e-01 2.17525046714533e+00 2.02471321831899e-02
3.48483333333333e-01 2.15045171125424e+00 2.01156472779842e-02
3.51916666666667e-01 2.12593567146870e+00 1.99840461600052e-02
3.55350000000000e-01 2.10169912470685e+00 1.98523610611570e-02
3.58783333333333e-01 2.07773888457084e+00 1.97206230710954e-02
3.62216666666667e-01 2.05405180111227e+00 1.95888622084490e-02
3.65650000000000e-01 2.03063476023082e+00 1.94571074889669e-02
3.69083333333333e-01 2.00748468327140e+00 1.93253868908569e-02
3.72516666666667e-01 1.98459852679257e+00 1.91937274204927e-02
3.75950000000000e-01 1.96197328199054e+00 1.90621551753315e-02
3.79383333333333e-01 1.93960597430976e+00 1.89306953089869e-02
3.82816666666667e-01 1.91749366321457e+00 1.87993720920067e-02
3.86250000000000e-01 1.89563344163735e+00 1.86682089701150e-02
3.89683333333333e-01 1.87402243560207e+00 1.85372285292823e-02
3.93116666666667e-01 1.85265780399943e+00 1.84064525520759e-02
3.96550000000000e-01 1.83153673805802e+00 1.82759020716978e-02
3.99983333333333e-01 1.81065646098029e+00 1.81455973372606e-02
4.03416666666667e-01 1.79001422772156e+00 1.80155578661519e-02
4.06850000000000e-01 1.76960732448293e+00 1.78858024942756e-02
4.10283333333333e-01 1.74943306835938e+00 1.77563493416979e-02
4.13716666666667e-01 1.72948880712274e+00 1.76272158614033e-02
4.17150000000000e-01 1.70977191873532e+00 1.74984188860997e-02
4.20583333333333e-01 1.69027981100975e+00 1.73699745943625e-02
4.24016666666667e-01 1.67100992139607e+00 1.72418985561130e-02
4.27450000000000e-01 1.65195971651511e+00 1.71142057763022e-02
4.30883333333333e-01 1.63312669182965e+00 1.69869106616538e-02
4.34316666666667e-01 1.61450837143576e+00 1.68600270631563e-02
4.37750000000000e-01 1.59610230761496e+00 1.67335683168975e-02
4.41183333333333e-01 1.57790608051644e+00 1.66075472114870e-02
4.44616666666667e-01 1.55991729795260e+00 1.64819760278192e-02
4.48050000000000e-01 1.54213359496926e+00 1.63568665773023e-02
4.51483333333333e-01 1.52455263353840e+00 1.62322301700158e-02
4.54916666666667e-01 1.50717210235819e+00 1.61080776519744e-02
4.58350000000000e-01 1.48998971644023e+00 1.59844194409671e-02
4.61783333333333e-01 1.47300321681259e+00 1.58612654954933e-02
4.65216666666667e-01 1.45621037032429e+00 1.57386253497277e-02
4.68650000000000e-01 1.43960896924882e+00 1.56165081471651e-02
4.72083333333333e-01 1.42319683099718e+00 1.54949226103650e-02
4.75516666666667e-01 1.40697179792679e+00 1.53738770737978e-02
4.78950000000000e-01 1.39093173696061e+00 1.52533795154657e-02
4.82383333333333e-01 1.37507453930980e+00 1.51334375274764e-02
4.85816666666667e-01 1.35939812028705e+00 1.50140583469360e-02
4.89250000000000e-01 1.34390041894071e+00 1.48952488856989e-02
4.92683333333333e-01 1.32857939778661e+00 1.47770157017813e-02
4.96116666666667e-01 1.31343304262601e+00 1.46593650284468e-02
4.99550000000000e-01 1.29845936219382e+00 1.45423028022248e-02
5.02983333333333e-01 1.28365638789954e+00 1.44258346351692e-02
5.06416666666667e-01 1.26902217364957e+00 1.43099658422680e-02
5.09850000000000e-01 1.25455479550913e+00 1.41947014678547e-02
5.13283333333333e-01 1.24025235145183e+00 1.40800462587135e-02
5.16716666666667e-01 1.22611296118644e+00 1.39660046899309e-02
5.20150000000000e-01 1.21213476583184e+00 1.38525809898150e-02
5.23583333333333e-01 1.19831592767501e+00 1.37397791138398e-02
5.27016666666667e-01 1.18465463000216e+00 1.36276027690495e-02
5.30450000000000e-01 1.17114907678620e+00 1.35160554375888e-02
5.33883333333333e-01 1.15779749245280e+00 1.34051403514763e-02
5.37316666666667e-01 1.14459812171594e+00 1.32948605156607e-02
5.40750000000000e-01 1.13154922927725e+00 1.31852187302563e-02
5.44183333333333e-01 1.11864909960001e+00 1.30762175661332e-02
5.47616666666667e-01 1.10589603674892e+00 1.29678593867158e-02
5.51050000000000e-01 1.09328836410096e+00 1.28601463690102e-02
5.54483333333333e-01 1.08082442412693e+00 1.27530804799981e-02
5.57916666666667e-01 1.06850257823548e+00 1.26466634972572e-02
5.61350000000000e-01 1.05632120649495e+00 1.25408970288609e-02
5.64783333333333e-01 1.04427870742222e+00 1.24357824905582e-02
5.68216666666667e-01 1.03237349783096e+00 1.23313211252947e-02
5.71650000000000e-01 1.02060401256397e+00 1.22275140220554e-02
5.75083333333333e-01 1.00896870428915e+00 1.21243620938135e-02
5.78516666666667e-01 9.97466043351789e-01 1.20218660960212e-02
5.81950000000000e-01 9.86094517517075e-01 1.19200266444608e-02
5.85383333333333e-01 9.74852631772871e-01 1.18188441939466e-02
5.88816666666667e-01 9.63738908186099e-01 1.17183190558482e-02
5.92250000000000e-01 9.52751885654856e-01 1.16184514150123e-02
5.95683333333333e-01 9.41890119717877e-01 1.15192413091958e-02
5.99116666666667e-01 9.31152182414861e-01 1.14206886456824e-02
6.02550000000000e-01 9.20536662047885e-01 1.13227932173321e-02
6.05983333333333e-01 9.10042162997261e-01 1.12255546827262e-02
6.09416666666667e-01 8.99667305585770e-01 1.11289725819313e-02
6.12850000000000e-01 8.89410725848975e-01 1.10330463517279e-02
6.16283333333333e-01 8.79271075357278e-01 1.09377753064483e-02
6.19716666666667e-01 8.69247021083974e-01 1.08431586529381e-02
6.23150000000000e-01 8.59337245184106e-01 1.07491955050130e-02
6.26583333333333e-01 8.49540444822523e-01 1.06558848649684e-02
6.30016666666667e-01 8.39855332045659e-01 1.05632256377860e-02
6.33450000000000e-01 8.30280633568616e-01 1.04712166448645e-02
6.36883333333333e-01 8.20815090608990e-01 1.03798566061801e-02
6.40316666666667e-01 8.11457458762327e-01 1.02891441537822e-02
6.43750000000000e-01 8.02206507797079e-01 1.01990778448380e-02
6.47183333333333e-01 7.93061021494033e-01 1.01096561444256e-02
6.50616666666667e-01 7.84019797525340e-01 1.00208774383583e-02
6.54050000000000e-01 7.75081647257048e-01 9.93274004558391e-03
6.57483333333333e-01 7.66245395593939e-01 9.84524220158874e-03
6.60916666666667e-01 7.57509880862054e-01 9.75838207058885e-03
6.64350000000000e-01 7.48873954618507e-01 9.67215775731954e-03
6.67783333333333e-01 7.40336481501543e-01 9.58656729103139e-03
6.71216666666667e-01 7.31896339116485e-01 9.50160863708476e-03
6.74650000000000e-01 7.23552417852537e-01 9.41727970816165e-03
6.78083333333333e-01 7.15303620737896e-01 9.33357834883506e-03
6.81516666666667e-01 7.07148863329033e-01 9.25050234659875e-03
6.84950000000000e-01 6.99087073534225e-01 9.16804944253442e-03
6.88383333333333e-01 6.91117191473533e-01 9.08621731643477e-03
6.91816666666667e-01 6.83238169371357e-01 9.00500359729927e-03
6.95250000000000e-01 6.75448971386413e-01 8.92440587348629e-03
6.98683333333333e-01 6.67748573476443e-01 8.84442167837137e-03
7.02116666666667e-01 6.60135963293934e-01 8.76504850033780e-03
7.05550000000000e-01 6.52610140022318e-01 8.68628379244112e-03
7.08983333333333e-01 6.45170114245232e-01 8.60812495858468e-03
7.12416666666667e-01 6.37814907845339e-01 8.53056936303179e-03
7.15850000000000e-01 6.30543553846498e-01 8.45361433960917e-03
7.19283333333333e-01 6.23355096287436e-01 8.37725717838130e-03
7.22716666666667e-01 6.16248590123580e-01 8.30149513470986e-03
7.26150000000000e-01 6.09223101074980e-01 8.22632543801998e-03
7.29583333333333e-01 6.02277705504228e-01 8.15174527895605e-03
7.33016666666667e-01 5.95411490321245e-01 8.07775181801258e-03
7.36450000000000e-01 5.88623552836717e-01 8.00434219388619e-03
7.39883333333333e-01 5.81913000644138e-01 7.93151351109728e-03
7.43316666666667e-01 5.75278951527455e-01 7.85926284821301e-03
7.46750000000000e-01 5.68720533319825e-01 7.78758726580661e-03
7.50183333333333e-01 5.62236883789629e-01 7.71648379452818e-03
7.53616666666667e-01 5.55827150550910e-01 7.64594944294133e-03
7.57050000000000e-01 5.49490490927245e-01 7.57598120511045e-03
7.60483333333333e-01 5.43226071841598e-01 7.50657604910417e-03
7.63916666666667e-01 5.37033069729477e-01 7.43773092446643e-03
7.67350000000000e-01 5.30910670407722e-01 7.36944276945010e-03
7.70783333333333e-01 5.24858068968077e-01 7.30170849993734e-03
7.74216666666667e-01 5.18874469692983e-01 7.23452501656299e-03
7.77650000000000e-01 5.12959085929110e-01 7.16788921161397e-03
7.81083333333333e-01 5.07111139984507e-01 7.10179795835128e-03
7.84516666666667e-01 5.01329863046974e-01 7.03624811780392e-03
7.87950000000000e-01 4.95614495062146e-01 6.97123654534851e-03
7.91383333333333e-01 4.89964284634113e-01 6.90676008042049e-03
7.94816666666667e-01 4.84378488946296e-01 6.84281555299505e-03
7.98250000000000e-01 4.78856373643906e-01 6.77939978986293e-03
8.01683333333333e-01 4.73397212737928e-01 6.71650960471623e-03
8.05116666666667e-01 4.68000288528419e-01 6.65414180433112e-03
8.08550000000000e-01 4.62664891491196e-01 6.59229319455691e-03
8.11983333333333e-01 4.57390320185055e-01 6.53096057076183e-03
8.15416666666667e-01 4.52175881177430e-01 6.47014072373299e-03
8.18850000000000e-01 4.47020888935150e-01 6.40983044539148e-03
8.22283333333333e-01 4.41924665734785e-01 6.35002651958616e-03
8.25716666666667e-01 4.36886541590604e-01 6.29072572772446e-03
8.29150000000000e-01 4.31905854149244e-01 6.23192485422707e-03
8.32583333333333e-01 4.26981948603081e-01 6.17362067765714e-03
8.36016666666667e-01 4.22114177620418e-01 6.11580997609472e-03
8.39450000000000e-01 4.17301901243927e-01 6.05848953234444e-03
8.42883333333333e-01 4.12544486806937e-01 6.00165612538749e-03
8.46316666666667e-01 4.07841308865794e-01 5.94530653551222e-03
8.49750000000000e-01 4.03191749101930e-01 5.88943754928621e-03
8.53183333333333e-01 3.98595196240975e-01 5.83404595132002e-03
8.56616666666667e-01 3.94051045987227e-01 5.77912852916581e-03
8.60050000000000e-01 3.89558700929210e-01 5.72468207806509e-03
8.63483333333333e-01 3.85117570461519e-01 5.67070339301211e-03
8.66916666666667e-01 3.80727070721332e-01 5.61718927343227e-03
8.70350000000000e-01 3.76386624497340e-01 5.56413652771602e-03
8.73783333333333e-01 3.72095661154222e-01 5.51154196557144e-03
8.77216666666667e-01 3.67853616571150e-01 5.45940240249278e-03
8.80650000000000e-01 3.63659933053953e-01 5.40771466409093e-03
8.84083333333333e-01 3.59514059262150e-01 5.35647557872433e-03
8.87516666666667e-01 3.55415450149374e-01 5.30568198176706e-03
8.90950000000000e-01 3.51363566878665e-01 5.25533071974625e-03
8.94383333333333e-01 3.47357876751965e-01 5.20541864324072e-03
8.97816666666667e-01 3.43397853152409e-01 5.15594261095912e-03
9.01250000000000e-01 3.39482975462635e-01 5.10689949369239e-03
9.04683333333333e-01 3.35612728996649e-01 5.05828616747057e-03
9.08116666666667e-01 3.31786604943943e-01 5.01009951745983e-03
9.11550000000000e-01 3.28004100290690e-01 4.96233644173861e-03
9.14983333333333e-01 3.24264717753925e-01 4.91499384470416e-03
9.18416666666667e-01 3.20567965727410e-01 4.86806864079587e-03
9.21850000000000e-01 3.16913358205636e-01 4.82155775810399e-03
9.25283333333333e-01 3.13300414720213e-01 4.77545813201585e-03
9.28716666666667e-01 3.09728660287455e-01 4.72976670877423e-03
9.32150000000000e-01 3.06197625335066e-01 4.68448044892648e-03
9.35583333333333e-01 3.02706845640685e-01 4.63959632120194e-03
9.39016666666667e-01 2.99255862281123e-01 4.59511130591251e-03
9.42450000000000e-01 2.95844221561646e-01 4.55102239824977e-03
9.45883333333333e-01 2.92471474956595e-01 4.50732660238470e-03
9.49316666666667e-01 2.89137179060227e-01 4.46402093471833e-03
9.52750000000000e-01 2.85840895518509e-01 4.42110242703406e-03
9.56183333333333e-01 2.82582190971729e-01 4.37856812081112e-03
9.59616666666667e-01 2.79360637006908e-01 4.33641507033248e-03
9.63050000000000e-01 2.76175810091995e-01 4.29464034569837e-03
9.66483333333333e-01 2.73027291520425e-01 4.25324102734646e-03
9.69916666666667e-01 2.69914667365033e-01 4.21221420902307e-03
9.73350000000000e-01 2.66837528414582e-01 4.17155700066454e-03
9.76783333333333e-01 2.63795470120184e-01 4.13126652311674e-03
9.80216666666667e-01 2.60788092550687e-01 4.09133991097550e-03
9.83650000000000e-01 2.57815000331438e-01 4.05177431534206e-03
9.87083333333333e-01 2.54875802592514e-01 4.01256689873395e-03
9.90516666666667e-01 2.51970112925535e-01 3.97371483780183e-03
9.93950000000000e-01 2.49097549324575e-01 3.93521532596420e-03
9.97383333333333e-01 2.46257734136155e-01 3.89706556850252e-03
1.00081666666667e+00 2.43450294017419e-01 3.85926278283479e-03
1.00425000000000e+00 2.40674859886667e-01 3.82180421266887e-03
1.00768333333333e+00 2.37931066837379e-01 3.78468710237938e-03
1.01111666666667e+00 2.35218554173052e-01 3.74790870860808e-03
1.01455000000000e+00 2.32536965284063e-01 3.71146632611966e-03
1.01798333333333e+00 2.29885947602657e-01 3.67535724155244e-03
1.02141666666667e+00 2.27265152628249e-01 3.63957875653647e-03
1.02485000000000e+00 2.24674235809194e-01 3.60412821013983e-03
1.02828333333333e+00 2.22112856499281e-01 3.56900293439807e-03
1.03171666666667e+00 2.19580677981476e-01 3.53420027652584e-03
1.03515000000000e+00 2.17077367354400e-01 3.49971762048510e-03
1.03858333333333e+00 2.14602595490270e-01 3.46555234422279e-03
1.04201666666667e+00 2.12156037057181e-01 3.43170184101274e-03
1.04545000000000e+00 2.09737370410093e-01 3.39816354018119e-03
1.04888333333333e+00 2.07346277550168e-01 3.36493486598549e-03
1.05231666666667e+00 2.04982444145678e-01 3.33201325812109e-03
1.05575000000000e+00 2.02645559427314e-01 3.29939619163855e-03
1.05918333333333e+00 2.00335316148869e-01 3.26708113739829e-03
1.06261666666667e+00 1.98051410606861e-01 3.23506558177638e-03
1.06605000000000e+00 1.95793542539967e-01 3.20334704580592e-03
1.06948333333333e+00 1.93561415091028e-01 3.17192304714542e-03
1.07291666666667e+00 1.91354734825444e-01 3.14079111901585e-03
1.07635000000000e+00 1.89173211634575e-01 3.10994882859702e-03
1.07978333333333e+00 1.87016558699018e-01 3.07939374045036e-03
1.08321666666667e+00 1.84884492505844e-01 3.04912343471831e-03
