Energy (eV)          EEDF (eV^-(3/2))     First Anisotropy
4.30263157894737e-02 3.85483174308562e-02 2.34327821690880e-05
1.29078947368421e-01 3.81995809547313e-02 3.86490862606774e-05
2.15131578947368e-01 3.78539994059832e-02 5.09018426111457e-05
3.01184210526316e-01 3.75115442417856e-02 6.01380495196815e-05
3.87236842105263e-01 3.71721871799953e-02 6.77815525240947e-05
4.73289473684211e-01 3.68359001918128e-02 7.43724249825091e-05
5.59342105263158e-01 3.65026555038156e-02 8.01910111032279e-05
6.45394736842105e-01 3.61724255925051e-02 8.54071078685766e-05
7.31447368421053e-01 3.58451831840171e-02 9.01336589302528e-05
8.17500000000000e-01 3.55209012516915e-02 9.44507232503770e-05
9.03552631578947e-01 3.51995530124419e-02 9.84177358684365e-05
9.89605263157895e-01 3.48811119262850e-02 1.02080405050474e-04
1.07565789473684e+00 3.45655516923164e-02 1.05474875333423e-04
1.16171052631579e+00 3.42528462491603e-02 1.08630381437837e-04
1.24776315789474e+00 3.39429697701692e-02 1.11571015566510e-04
1.33381578947368e+00 3.36358966623957e-02 1.14316946977332e-04
1.41986842105263e+00 3.33316015622406e-02 1.16885288629172e-04
1.50592105263158e+00 3.30300593401346e-02 1.19290730069882e-04
1.59197368421053e+00 3.27312450914611e-02 1.21546009294638e-04
1.67802631578947e+00 3.24351341369180e-02 1.23662270236602e-04
1.76407894736842e+00 3.21417020204571e-02 1.25649339640182e-04
1.85013157894737e+00 3.18509245073077e-02 1.27515943945812e-04
1.93618421052632e+00 3.15627775819483e-02 1.29269881738216e-04
2.02223684210526e+00 3.12772374447011e-02 1.30918161739808e-04
2.10828947368421e+00 3.09942805141283e-02 1.32467115655891e-04
2.19434210526316e+00 3.07138834206147e-02 1.33922490806261e-04
2.28039473684211e+00 3.04360230059598e-02 1.35289526014489e-04
2.36644736842105e+00 3.01606763214765e-02 1.36573015524645e-04
2.45250000000000e+00 2.98878206260948e-02 1.37777362727503e-04
2.53855263157895e+00 2.96174333834063e-02 1.38906625108902e-04
2.62460526315789e+00 2.93494922630826e-02 1.39964553171579e-04
2.71065789473684e+00 2.90839751356835e-02 1.40954623827040e-04
2.79671052631579e+00 2.88208600719672e-02 1.41880068501830e-04
2.88276315789474e+00 2.85601253410796e-02 1.42743897992606e-04
2.96881578947368e+00 2.83017494087660e-02 1.43548924090443e-04
3.05486842105263e+00 2.80457109347440e-02 1.44297778027002e-04
3.14092105263158e+00 2.77919887735148e-02 1.44992927221382e-04
3.22697368421053e+00 2.75405619699963e-02 1.45636690069901e-04
3.31302631578947e+00 2.72914097586820e-02 1.46231248452052e-04
3.39907894736842e+00 2.70445115619222e-02 1.46778659283029e-04
3.48513157894737e+00 2.67998469882333e-02 1.47280864696755e-04
3.57118421052632e+00 2.65573958306085e-02 1.47739701248343e-04
3.65723684210526e+00 2.63171380641921e-02 1.48156907768770e-04
3.74328947368421e+00 2.60790538466271e-02 1.48534132905422e-04
3.82934210526316e+00 2.58431235143825e-02 1.48872941940684e-04
3.91539473684211e+00 2.56093275818164e-02 1.49174822455899e-04
4.00144736842105e+00 2.53776467395704e-02 1.49441189852755e-04
4.08750000000000e+00 2.51480618529739e-02 1.49673392362149e-04
4.17355263157895e+00 2.49205539599176e-02 1.49872715253367e-04
4.25960526315789e+00 2.46951042709474e-02 1.50040385101590e-04
4.34565789473684e+00 2.44716941660278e-02 1.50177573705736e-04
4.43171052631579e+00 2.42503051935732e-02 1.50285401233106e-04
4.51776315789474e+00 2.40309190689245e-02 1.50364939453045e-04
4.60381578947368e+00 2.38135176728408e-02 1.50417214704491e-04
4.68986842105263e+00 2.35980830495418e-02 1.50443210315944e-04
4.77592105263158e+00 2.33845974066225e-02 1.50443869222095e-04
4.86197368421053e+00 2.31730431121667e-02 1.50420096395464e-04
4.94802631578947e+00 2.29634026937697e-02 1.50372760699028e-04
5.03407894736842e+00 2.27556588370933e-02 1.50302696915890e-04
5.12013157894737e+00 2.25497943844399e-02 1.50210707556868e-04
5.20618421052632e+00 2.23457923333330e-02 1.50097564611573e-04
5.29223684210526e+00 2.21436358347323e-02 1.49964010901024e-04
5.37828947368421e+00 2.19433081927996e-02 1.49810761679067e-04
5.46434210526316e+00 2.17447928623470e-02 1.49638506137747e-04
5.55039473684211e+00 2.15480734478661e-02 1.49447908461783e-04
5.63644736842105e+00 2.13531337021750e-02 1.49239609092501e-04
5.72250000000000e+00 2.11599575250761e-02 1.49014225906928e-04
5.80855263157895e+00 2.09685289616975e-02 1.48772355072387e-04
5.89460526315789e+00 2.07788322021735e-02 1.48514572157600e-04
5.98065789473684e+00 2.05908515793284e-02 1.48241433185825e-04
6.06671052631579e+00 2.04045715677228e-02 1.47953475306319e-04
6.15276315789474e+00 2.02199767823716e-02 1.47651217678210e-04
6.23881578947368e+00 2.00370519774748e-02 1.47335162299031e-04
6.32486842105263e+00 1.98557820448705e-02 1.47005794558370e-04
6.41092105263158e+00 1.96761520136566e-02 1.46663584041703e-04
6.49697368421053e+00 1.94981470480752e-02 1.46308985297673e-04
6.58302631578947e+00 1.93217524465832e-02 1.45942438273637e-04
6.66907894736842e+00 1.91469536406383e-02 1.45564368956994e-04
6.75513157894737e+00 1.89737361934965e-02 1.45175189926185e-04
6.84118421052632e+00 1.88020857990195e-02 1.44775300924888e-04
6.92723684210526e+00 1.86319882802483e-02 1.44365089202148e-04
7.01328947368421e+00 1.84634295889743e-02 1.43944930087930e-04
7.09934210526316e+00 1.82963958038287e-02 1.43515187546310e-04
7.18539473684211e+00 1.81308731293853e-02 1.43076214441124e-04
7.27144736842105e+00 1.79668478950219e-02 1.42628352994725e-04
7.35750000000000e+00 1.78043065537909e-02 1.42171935220923e-04
7.44355263157895e+00 1.76432356810848e-02 1.41707283150412e-04
7.52960526315789e+00 1.74836219741814e-02 1.41234709276871e-04
7.61565789473684e+00 1.73254522504843e-02 1.40754516988024e-04
7.70171052631579e+00 1.71687134466559e-02 1.40267000738854e-04
7.78776315789474e+00 1.70133926175394e-02 1.39772446405613e-04
7.87381578947368e+00 1.68594769350899e-02 1.39271131620523e-04
7.95986842105263e+00 1.67069536871230e-02 1.38763325920461e-04
8.04592105263158e+00 1.65558102768449e-02 1.38249291101239e-04
8.13197368421053e+00 1.64060342212264e-02 1.37729281561516e-04
8.21802631578947e+00 1.62576131501687e-02 1.37203544413721e-04
8.30407894736842e+00 1.61105348054817e-02 1.36672319763337e-04
8.39013157894737e+00 1.59647870398726e-02 1.36135840933742e-04
8.47618421052632e+00 1.58203578159417e-02 1.35594334720941e-04
8.56223684210526e+00 1.56772352050223e-02 1.35048021482810e-04
8.64828947368421e+00 1.55354073866997e-02 1.34497115416895e-04
8.73434210526316e+00 1.53948626473252e-02 1.33941824831274e-04
8.82039473684211e+00 1.52555893792202e-02 1.33382352207085e-04
8.90644736842105e+00 1.51175760797180e-02 1.32818894415508e-04
8.99250000000000e+00 1.49808113502134e-02 1.32251642923330e-04
9.07855263157895e+00 1.48452838950731e-02 1.31680783847921e-04
9.16460526315790e+00 1.47109825211525e-02 1.31106498187070e-04
9.25065789473684e+00 1.45778961364170e-02 1.30528962043861e-04
9.33671052631579e+00 1.44460137491783e-02 1.29948346661289e-04
9.42276315789474e+00 1.43153244671872e-02 1.29364818600012e-04
9.50881578947368e+00 1.41858174967340e-02 1.28778539906817e-04
9.59486842105263e+00 1.40574821416233e-02 1.28189668145561e-04
9.68092105263158e+00 1.39303078026951e-02 1.27598356590104e-04
9.76697368421053e+00 1.38042839765409e-02 1.27004754413696e-04
9.85302631578947e+00 1.36794002547740e-02 1.26409006703997e-04
9.93907894736842e+00 1.35556463231690e-02 1.25811254610736e-04
1.00251315789474e+01 1.34330119608115e-02 1.25211635485666e-04
1.01111842105263e+01 1.33114870391325e-02 1.24610282806796e-04
1.01972368421053e+01 1.31910615217877e-02 1.24007326821094e-04
1.02832894736842e+01 1.30717254615860e-02 1.23402893808184e-04
1.03693421052632e+01 1.29534690036636e-02 1.22797106498630e-04
1.04553947368421e+01 1.28362823811272e-02 1.22190085185012e-04
1.05414473684211e+01 1.27201559143466e-02 1.21581946028891e-04
1.06275000000000e+01 1.26050800134808e-02 1.20972802038156e-04
1.07135526315789e+01 1.24910451743228e-02 1.20362763735327e-04
1.07996052631579e+01 1.23780419786481e-02 1.19751938621734e-04
1.08856578947368e+01 1.22660610924170e-02 1.19140430740586e-04
1.09717105263158e+01 1.21550932680959e-02 1.18528341301332e-04
1.10577631578947e+01 1.20451293407675e-02 1.17915769564197e-04
1.11438157894737e+01 1.19361602274576e-02 1.17302811291830e-04
1.12298684210526e+01 1.18281769293269e-02 1.16689559628550e-04
1.13159210526316e+01 1.17211705279519e-02 1.16076105947490e-04
1.14019736842105e+01 1.16151321846705e-02 1.15462538356371e-04
1.14880263157895e+01 1.15100531426497e-02 1.14848942541117e-04
1.15740789473684e+01 1.14059247233310e-02 1.14235402577670e-04
1.16601315789474e+01 1.13027383257913e-02 1.13621999490111e-04
1.17461842105263e+01 1.12004854286968e-02 1.13008812059965e-04
1.18322368421053e+01 1.10991575869031e-02 1.12395917605281e-04
1.19182894736842e+01 1.09987464308306e-02 1.11783390589202e-04
1.20043421052632e+01 1.08992436683118e-02 1.11171303396043e-04
1.20903947368421e+01 1.08006410813389e-02 1.10559727079894e-04
1.21764473684211e+01 1.07029305254524e-02 1.09948730021670e-04
1.22625000000000e+01 1.06061039314887e-02 1.09338378673683e-04
1.23485526315789e+01 1.05101533024677e-02 1.08728738064607e-04
1.24346052631579e+01 1.04150707137561e-02 1.08119871363810e-04
1.25206578947368e+01 1.03208483116670e-02 1.07511839520858e-04
1.26067105263158e+01 1.02274783150719e-02 1.06904701738764e-04
1.26927631578947e+01 1.01349530124738e-02 1.06298516153049e-04
1.27788157894737e+01 1.00432647614286e-02 1.05693338601525e-04
1.28648684210526e+01 9.95240599007022e-03 1.05089223299763e-04
1.29509210526316e+01 9.86236919430564e-03 1.04486223493496e-04
1.30369736842105e+01 9.77314693725089e-03 1.03884390270902e-04
1.31230263157895e+01 9.68473185067530e-03 1.03283773212548e-04
1.32090789473684e+01 9.59711663231139e-03 1.02684421018409e-04
1.32951315789474e+01 9.51029404530607e-03 1.02086380361191e-04
1.33811842105263e+01 9.42425691958753e-03 1.01489696511553e-04
1.34672368421053e+01 9.33899814928642e-03 1.00894413941411e-04
1.35532894736842e+01 9.25451069219948e-03 1.00300575216821e-04
1.36393421052632e+01 9.17078757108496e-03 9.97082215990754e-05
1.37253947368421e+01 9.08782187118942e-03 9.91173936257890e-05
1.38114473684211e+01 9.00560673972348e-03 9.85281300417825e-05
1.38975000000000e+01 8.92413538709002e-03 9.79404683771905e-05
1.39835526315789e+01 8.84340108451126e-03 9.73544453375183e-05
1.40696052631579e+01 8.76339716408312e-03 9.67700964517053e-05
1.41556578947368e+01 8.68411701766906e-03 9.61874557780114e-05
1.42417105263158e+01 8.60555409803662e-03 9.56065562702742e-05
1.43277631578947e+01 8.52770191661772e-03 9.50274303079393e-05
1.44138157894737e+01 8.45055404301402e-03 9.44501087147526e-05
1.44998684210526e+01 8.37410410607425e-03 9.38746212860590e-05
1.45859210526316e+01 8.29834579174301e-03 9.33009972990442e-05
1.46719736842105e+01 8.22327284257922e-03 9.27292645647898e-05
1.47580263157895e+01 8.14887905877760e-03 9.21594499365718e-05
1.48440789473684e+01 8.07515829610184e-03 9.15915798012068e-05
1.49301315789474e+01 8.00210446541585e-03 9.10256791633156e-05
1.50161842105263e+01 7.92971153365219e-03 9.04617721351447e-05
1.51022368421053e+01 7.85797352182676e-03 8.98998824101520e-05
1.51882894736842e+01 7.78688450458109e-03 8.93400323783250e-05
1.52743421052632e+01 7.71643861110159e-03 8.87822435979593e-05
1.53603947368421e+01 7.64663002321182e-03 8.82265372524893e-05
1.54464473684211e+01 7.57745297492560e-03 8.76729332956809e-05
1.55325000000000e+01 7.50890175331982e-03 8.71214509061222e-05
1.56185526315789e+01 7.44097069670063e-03 8.65721087928103e-05
1.57046052631579e+01 7.37365419459420e-03 8.60249249110321e-05
1.57906578947368e+01 7.30694668686428e-03 8.54799162232667e-05
1.58767105263158e+01 7.24084266452166e-03 8.49370989864694e-05
1.59627631578947e+01 7.17533666798849e-03 8.43964891703612e-05
1.60488157894737e+01 7.11042328667721e-03 8.38581016713825e-05
1.61348684210526e+01 7.04609715975885e-03 8.33219507287864e-05
1.62209210526316e+01 6.98235297449313e-03 8.27880503278912e-05
1.63069736842105e+01 6.91918546581864e-03 8.22564134403206e-05
1.63930263157895e+01 6.85658941708216e-03 8.17270524256262e-05
1.64790789473684e+01 6.79455965843173e-03 8.11999794201133e-05
1.65651315789474e+01 6.73309106641776e-03 8.06752056024842e-05
1.66511842105263e+01 6.67217856468532e-03 8.01527415813539e-05
1.67372368421053e+01 6.61181712242804e-03 7.96325977704844e-05
1.68232894736842e+01 6.55200175399895e-03 7.91147836789174e-05
1.69093421052632e+01 6.49272751956832e-03 7.85993082846870e-05
1.69953947368421e+01 6.43398952363568e-03 7.80861803971856e-05
1.70814473684211e+01 6.37578291465015e-03 7.75754079708875e-05
1.71675000000000e+01 6.31810288563562e-03 7.70669984658104e-05
1.72535526315789e+01 6.26094467275835e-03 7.65609590892717e-05
1.73396052631579e+01 6.20430355528189e-03 7.60572965662269e-05
1.74256578947368e+01 6.14817485485761e-03 7.55560169449511e-05
1.75117105263158e+01 6.09255393610541e-03 7.50571258245091e-05
1.75977631578947e+01 6.03743620525496e-03 7.45606286874945e-05
1.76838157894737e+01 5.98281710978827e-03 7.40665302678958e-05
1.77698684210526e+01 5.92869213899137e-03 7.35748348820318e-05
1.78559210526316e+01 5.87505682264524e-03 7.30855467496698e-05
1.79419736842105e+01 5.82190673067804e-03 7.25986693827143e-05
1.80280263157895e+01 5.76923747368918e-03 7.21142059049296e-05
1.81140789473684e+01 5.71704470168803e-03 7.16321593618854e-05
1.82001315789474e+01 5.66532410375538e-03 7.11525321297714e-05
1.82861842105263e+01 5.61407140854141e-03 7.06753262241920e-05
1.83722368421053e+01 5.56328238305046e-03 7.02005435995386e-05
1.84582894736842e+01 5.51295283231102e-03 6.97281855772318e-05
1.85443421052632e+01 5.46307859984916e-03 6.92582531438100e-05
1.86303947368421e+01 5.41365556651762e-03 6.87907472402750e-05
1.87164473684211e+01 5.36467965017390e-03 6.83256682090573e-05
1.88025000000000e+01 5.31614680613056e-03 6.78630160817950e-05
1.88885526315789e+01 5.26805302602668e-03 6.74027907719857e-05
1.89746052631579e+01 5.22039433776398e-03 6.69449918889441e-05
1.90606578947368e+01 5.17316680493298e-03 6.64896185797308e-05
1.91467105263158e+01 5.12636652723169e-03 6.60366697105364e-05
1.92327631578947e+01 5.07998963939304e-03 6.55861441329479e-05
1.93188157894737e+01 5.03403231088210e-03 6.51380401737985e-05
1.94048684210526e+01 4.98849074629405e-03 6.46923558999588e-05
1.94909210526316e+01 4.94336118431977e-03 6.42490893755158e-05
1.95769736842105e+01 4.89863989745115e-03 6.38082381681972e-05
1.96630263157895e+01 4.85432319235947e-03 6.33697996053862e-05
1.97490789473684e+01 4.81040740889755e-03 6.29337710225402e-05
1.98351315789474e+01 4.76688891981302e-03 6.25001492856398e-05
1.99211842105263e+01 4.72376413110793e-03 6.20689310386371e-05
2.00072368421053e+01 4.68102948107643e-03 6.16401129435867e-05
2.00932894736842e+01 4.63868144002524e-03 6.12136912185718e-05
2.01793421052632e+01 4.59671651061577e-03 6.07896618767423e-05
2.02653947368421e+01 4.55513122693587e-03 6.03680209585585e-05
2.03514473684211e+01 4.51392215422733e-03 5.99487640846608e-05
2.04375000000000e+01 4.47308588921139e-03 5.95318866868039e-05
2.05235526315789e+01 4.43261905919315e-03 5.91173841622279e-05
2.06096052631579e+01 4.39251832198964e-03 5.87052517226291e-05
2.06956578947368e+01 4.35278036546330e-03 5.82954842653791e-05
2.07817105263158e+01 4.31340190782476e-03 5.78880765189309e-05
2.08677631578947e+01 4.27437969678043e-03 5.74830232569030e-05
2.09538157894737e+01 4.23571050927635e-03 5.70803188851083e-05
2.10398684210526e+01 4.19739115178602e-03 5.66799576544136e-05
2.11259210526316e+01 4.15941845948764e-03 5.62819338676547e-05
2.12119736842105e+01 4.12178929601477e-03 5.58862414799088e-05
2.12980263157895e+01 4.08450055373007e-03 5.54928743044165e-05
2.13840789473684e+01 4.04754915293092e-03 5.51018262125862e-05
2.14701315789474e+01 4.01093204160681e-03 5.47130907470911e-05
2.15561842105263e+01 3.97464619569956e-03 5.43266613210103e-05
2.16422368421053e+01 3.93868861833652e-03 5.39425314112647e-05
2.17282894736842e+01 3.90305633959418e-03 5.35606941841077e-05
2.18143421052632e+01 3.86774641674573e-03 5.31811426876261e-05
2.19003947368421e+01 3.83275593352075e-03 5.28038700389200e-05
2.19864473684211e+01 3.79808199987485e-03 5.24288690615543e-05
2.20725000000000e+01 3.76372175222524e-03 5.20561324716543e-05
2.21585526315789e+01 3.72967235273591e-03 5.16856530021357e-05
2.22446052631579e+01 3.69593098924401e-03 5.13174232798298e-05
2.23306578947368e+01 3.66249487487911e-03 5.09514357204047e-05
2.24167105263158e+01 3.62936124828232e-03 5.05876826454317e-05
2.25027631578947e+01 3.59652737292508e-03 5.02261564551789e-05
2.25888157894737e+01 3.56399053689263e-03 4.98668492933811e-05
2.26748684210526e+01 3.53174805309240e-03 4.95097532190174e-05
2.27609210526316e+01 3.49979725859590e-03 4.91548603734015e-05
2.28469736842105e+01 3.46813551442800e-03 4.88021626555957e-05
2.29330263157895e+01 3.43676020576509e-03 4.84516518886652e-05
2.30190789473684e+01 3.40566874129925e-03 4.81033199812738e-05
2.31051315789474e+01 3.37485855303316e-03 4.77571586133934e-05
2.31911842105263e+01 3.34432709646852e-03 4.74131593971627e-05
2.32772368421053e+01 3.31407184999178e-03 4.70713140332563e-05
2.33632894736842e+01 3.28409031467435e-03 4.67316140065556e-05
2.34493421052632e+01 3.25438001445186e-03 4.63940507417208e-05
2.35353947368421e+01 3.22493849553069e-03 4.60586157545615e-05
2.36214473684211e+01 3.19576332619327e-03 4.57253003573303e-05
2.37075000000000e+01 3.16685209696870e-03 4.53940958091940e-05
2.37935526315789e+01 3.13820242005919e-03 4.50649934165729e-05
2.38796052631579e+01 3.10981192926876e-03 4.47379844329664e-05
2.39656578947368e+01 3.08167827969135e-03 4.44130599730739e-05
2.40517105263158e+01 3.05379914786940e-03 4.40902111073744e-05
2.41377631578947e+01 3.02617223124675e-03 4.37694290020345e-05
2.42238157894737e+01 2.99879524798575e-03 4.34507046461399e-05
2.43098684210526e+01 2.97166593711806e-03 4.31340289907585e-05
2.43959210526316e+01 2.94478205801570e-03 4.28193930842890e-05
2.44819736842105e+01 2.91814139021316e-03 4.25067878082668e-05
2.45680263157895e+01 2.89174173355065e-03 4.21962040120118e-05
2.46540789473684e+01 2.86558090766284e-03 4.18876326435817e-05
2.47401315789474e+01 2.83965675180563e-03 4.15810644938832e-05
2.48261842105263e+01 2.81396712499237e-03 4.12764903269998e-05
2.49122368421053e+01 2.78850990549962e-03 4.09739010069588e-05
2.49982894736842e+01 2.76328299069840e-03 4.06732872498723e-05
2.50843421052632e+01 2.73828429718376e-03 4.03746397500385e-05
2.51703947368421e+01 2.71351176029695e-03 4.00779493027113e-05
2.52564473684211e+01 2.68896333396102e-03 3.97832065639952e-05
2.53425000000000e+01 2.66463699080410e-03 3.94904021728622e-05
2.54285526315789e+01 2.64053072169732e-03 3.91995268324439e-05
2.55146052631579e+01 2.61664253568789e-03 3.89105712282062e-05
2.56006578947368e+01 2.59297045974291e-03 3.86235259576507e-05
2.56867105263158e+01 2.56951253886390e-03 3.83383816069557e-05
2.57727631578947e+01 2.54626683564555e-03 3.80551288645606e-05
2.58588157894737e+01 2.52323143012140e-03 3.77737582987500e-05
2.59448684210526e+01 2.50040441987260e-03 3.74942604705312e-05
2.60309210526316e+01 2.47778391960117e-03 3.72166260435640e-05
2.61169736842105e+01 2.45536806097980e-03 3.69408455686767e-05
2.62030263157895e+01 2.43315499275516e-03 3.66669095931981e-05
2.62890789473684e+01 2.41114288033515e-03 3.63948087673541e-05
2.63751315789474e+01 2.38932990564270e-03 3.61245336354987e-05
2.64611842105263e+01 2.36771426721391e-03 3.58560747419749e-05
2.65472368421053e+01 2.34629417979884e-03 3.55894227341459e-05
2.66332894736842e+01 2.32506787421911e-03 3.53245681601256e-05
2.67193421052632e+01 2.30403359746118e-03 3.50615015712415e-05
2.68053947368421e+01 2.28318961229019e-03 3.48002136218415e-05
2.68914473684211e+01 2.26253419711125e-03 3.45406948733079e-05
2.69775000000000e+01 2.24206564605814e-03 3.42829358932370e-05
2.70635526315789e+01 2.22178226861968e-03 3.40269273214541e-05
2.71496052631579e+01 2.20168238957832e-03 3.37726598030746e-05
