Energy (eV)          EEDF (eV^-(3/2))     First Anisotropy
9.62962962962963e-05 2.15091688510036e+02 4.14204359896145e-02
2.88888888888889e-04 2.13721047394585e+02 6.84089654492311e-02
4.81481481481481e-04 2.12359140495584e+02 9.03395220202934e-02
6.74074074074074e-04 2.11005912154086e+02 1.07019795261602e-01
8.66666666666667e-04 2.09661307067473e+02 1.20947468409532e-01
1.05925925925926e-03 2.08325270284989e+02 1.33066184781411e-01
1.25185185185185e-03 2.06997747205589e+02 1.43863938275145e-01
1.44444444444444e-03 2.05678683578267e+02 1.53635212073065e-01
1.63703703703704e-03 2.04368025496196e+02 1.62575179834680e-01
1.82962962962963e-03 2.03065719396110e+02 1.70821693153336e-01
2.02222222222222e-03 2.01771712055202e+02 1.78476728507672e-01
2.21481481481481e-03 2.00485950591841e+02 1.85618434083834e-01
2.40740740740741e-03 1.99208382460282e+02 1.92308390738116e-01
2.60000000000000e-03 1.97938955449636e+02 1.98596234782647e-01
2.79259259259259e-03 1.96677617681093e+02 2.04522731839139e-01
2.98518518518519e-03 1.95424317607807e+02 2.10121894859733e-01
3.17777777777778e-03 1.94179004010676e+02 2.15422487892753e-01
3.37037037037037e-03 1.92941625996996e+02 2.20449121822248e-01
3.56296296296296e-03 1.91712132997880e+02 2.25223069906883e-01
3.75555555555556e-03 1.90490474767719e+02 2.29762886108056e-01
3.94814814814815e-03 1.89276601380543e+02 2.34084881939044e-01
4.14074074074074e-03 1.88070463228535e+02 2.38203500227425e-01
4.33333333333333e-03 1.86872011019607e+02 2.42131611528887e-01
4.52592592592593e-03 1.85681195776595e+02 2.45880751716440e-01
4.71851851851852e-03 1.84497968834006e+02 2.49461314652086e-01
4.91111111111111e-03 1.83322281836469e+02 2.52882710427135e-01
5.10370370370370e-03 1.82154086736426e+02 2.56153496094198e-01
5.29629629629630e-03 1.80993335793167e+02 2.59281484285653e-01
5.48888888888889e-03 1.79839981569851e+02 2.62273834247045e-01
5.68148148148148e-03 1.78693976931641e+02 2.65137129541974e-01
5.87407407407407e-03 1.77555275044651e+02 2.67877443427356e-01
6.06666666666667e-03 1.76423829373136e+02 2.70500394824268e-01
6.25925925925926e-03 1.75299593677888e+02 2.73011196816879e-01
6.45185185185185e-03 1.74182522014108e+02 2.75414698561059e-01
6.64444444444444e-03 1.73072568730284e+02 2.77715421425063e-01
6.83703703703704e-03 1.71969688465548e+02 2.79917590497854e-01
7.02962962962963e-03 1.70873836148089e+02 2.82025162521153e-01
7.22222222222222e-03 1.69784966993096e+02 2.84041850444930e-01
7.41481481481482e-03 1.68703036501584e+02 2.85971144862843e-01
7.60740740740741e-03 1.67628000457903e+02 2.87816332985073e-01
7.80000000000000e-03 1.66559814928163e+02 2.89580515801770e-01
7.99259259259259e-03 1.65498436258250e+02 2.91266623376317e-01
8.18518518518519e-03 1.64443821072613e+02 2.92877428294114e-01
8.37777777777778e-03 1.63395926271910e+02 2.94415557710010e-01
8.57037037037037e-03 1.62354709031442e+02 2.95883504456779e-01
8.76296296296296e-03 1.61320126799239e+02 2.97283637050647e-01
8.95555555555556e-03 1.60292137294828e+02 2.98618208518709e-01
9.14814814814815e-03 1.59270698506988e+02 2.99889364383755e-01
9.34074074074074e-03 1.58255768692209e+02 3.01099150167308e-01
9.53333333333333e-03 1.57247306372837e+02 3.02249518207398e-01
9.72592592592593e-03 1.56245270335831e+02 3.03342333670778e-01
9.91851851851852e-03 1.55249619630623e+02 3.04379380088351e-01
1.01111111111111e-02 1.54260313567730e+02 3.05362364447782e-01
1.03037037037037e-02 1.53277311716547e+02 3.06292922052752e-01
1.04962962962963e-02 1.52300573904389e+02 3.07172620962306e-01
1.06888888888889e-02 1.51330060214562e+02 3.08002965704961e-01
1.08814814814815e-02 1.50365730984740e+02 3.08785401064951e-01
1.10740740740741e-02 1.49407546805338e+02 3.09521315476514e-01
1.12666666666667e-02 1.48455468517901e+02 3.10212044167662e-01
1.14592592592593e-02 1.47509457213509e+02 3.10858872072173e-01
1.16518518518519e-02 1.46569474231180e+02 3.11463037005207e-01
1.18444444444444e-02 1.45635481157421e+02 3.12025730754047e-01
1.20370370370370e-02 1.44707439821248e+02 3.12548102349968e-01
1.22296296296296e-02 1.43785312296067e+02 3.13031261222480e-01
1.24222222222222e-02 1.42869060896963e+02 3.13476277778213e-01
1.26148148148148e-02 1.41958648179165e+02 3.13884185780087e-01
1.28074074074074e-02 1.41054036936512e+02 3.14255984119570e-01
1.30000000000000e-02 1.40155190199934e+02 3.14592638475012e-01
1.31925925925926e-02 1.39262071235941e+02 3.14895082866240e-01
1.33851851851852e-02 1.38374643545121e+02 3.15164221113176e-01
1.35777777777778e-02 1.37492870860649e+02 3.15400928203833e-01
1.37703703703704e-02 1.36616717146808e+02 3.15606051580449e-01
1.39629629629630e-02 1.35746146597510e+02 3.15780412350246e-01
1.41555555555556e-02 1.34881123634839e+02 3.15924806425103e-01
1.43481481481481e-02 1.34021612907592e+02 3.16040005986969e-01
1.45407407407407e-02 1.33167579290674e+02 3.16126759326431e-01
1.47333333333333e-02 1.32318987881131e+02 3.16185792578015e-01
1.49259259259259e-02 1.31475803999274e+02 3.16217811423785e-01
1.51185185185185e-02 1.30637993186407e+02 3.16223500755834e-01
1.53111111111111e-02 1.29805521203417e+02 3.16203525883246e-01
1.55037037037037e-02 1.28978354029373e+02 3.16158533298551e-01
1.56962962962963e-02 1.28156457860140e+02 3.16089151403765e-01
1.58888888888889e-02 1.27339799106990e+02 3.15995991200588e-01
1.60814814814815e-02 1.26528344395241e+02 3.15879646944660e-01
1.62740740740741e-02 1.25722060562880e+02 3.15740696766050e-01
1.64666666666667e-02 1.24920914659220e+02 3.15579703260571e-01
1.66592592592593e-02 1.24124873943543e+02 3.15397214051763e-01
1.68518518518519e-02 1.23333905883769e+02 3.15193762658437e-01
1.70444444444444e-02 1.22547978155780e+02 3.14969868005105e-01
1.72370370370370e-02 1.21767058640114e+02 3.14726035572006e-01
1.74296296296296e-02 1.20991115422655e+02 3.14462758532889e-01
1.76222222222222e-02 1.20220116792653e+02 3.14180517187013e-01
1.78148148148148e-02 1.19454031241432e+02 3.13879779718070e-01
1.80074074074074e-02 1.18692827461098e+02 3.13561002597006e-01
1.82000000000000e-02 1.17936474343266e+02 3.13224630967054e-01
1.83925925925926e-02 1.17184940977781e+02 3.12871099012235e-01
1.85851851851852e-02 1.16438196651459e+02 3.12500830310068e-01
1.87777777777778e-02 1.15696210846833e+02 3.12114238168612e-01
1.89703703703704e-02 1.14958953240904e+02 3.11711725949348e-01
1.91629629629630e-02 1.14226393703899e+02 3.11293687377035e-01
1.93555555555556e-02 1.13498502298048e+02 3.10860506836584e-01
1.95481481481481e-02 1.12775249276349e+02 3.10412559940677e-01
1.97407407407407e-02 1.12056605081882e+02 3.09950212952907e-01
1.99333333333333e-02 1.11342540345028e+02 3.09473823617025e-01
2.01259259259259e-02 1.10633025883846e+02 3.08983741979634e-01
2.03185185185185e-02 1.09928032702355e+02 3.08480309775959e-01
2.05111111111111e-02 1.09227531989347e+02 3.07963860948478e-01
2.07037037037037e-02 1.08531495117207e+02 3.07434721870766e-01
2.08962962962963e-02 1.07839893640748e+02 3.06893211562605e-01
2.10888888888889e-02 1.07152699296043e+02 3.06339641897800e-01
2.12814814814815e-02 1.06469883999275e+02 3.05774317803780e-01
2.14740740740741e-02 1.05791419845587e+02 3.05197537453309e-01
2.16666666666667e-02 1.05117279107940e+02 3.04609592450036e-01
2.18592592592593e-02 1.04447434235983e+02 3.04010768007080e-01
2.20518518518519e-02 1.03781857854927e+02 3.03401343364453e-01
2.22444444444444e-02 1.03120522764843e+02 3.02781591218184e-01
2.24370370370370e-02 1.02463401938284e+02 3.02151778373099e-01
2.26296296296296e-02 1.01810468520456e+02 3.01512166390295e-01
2.28222222222222e-02 1.01161695827696e+02 3.00863010995904e-01
2.30148148148148e-02 1.00517057346378e+02 3.00204562472825e-01
2.32074074074074e-02 9.98765267318284e+01 2.99537065800210e-01
2.34000000000000e-02 9.92400778072540e+01 2.98860760788242e-01
2.35925925925926e-02 9.86076845626679e+01 2.98175882208679e-01
2.37851851851852e-02 9.79793211538283e+01 2.97482659921140e-01
2.39777777777778e-02 9.73549619011823e+01 2.96781318994912e-01
2.41703703703704e-02 9.67345812888163e+01 2.96072079826952e-01
2.43629629629630e-02 9.61181539634134e+01 2.95355158256349e-01
2.45555555555556e-02 9.55056547332167e+01 2.94630765675014e-01
2.47481481481481e-02 9.48970585670005e+01 2.93899109346819e-01
2.49407407407407e-02 9.42923405933913e+01 2.93160391874429e-01
2.51333333333333e-02 9.36914760988113e+01 2.92414811726385e-01
2.53259259259259e-02 9.30944405275156e+01 2.91662563759059e-01
2.55185185185185e-02 9.25012094802374e+01 2.90903838672319e-01
2.57111111111111e-02 9.19117587131906e+01 2.90138823314812e-01
2.59037037037037e-02 9.13260641370789e+01 2.89367700773031e-01
2.60962962962963e-02 9.07441018161122e+01 2.88590650457637e-01
2.62888888888889e-02 9.01658479670269e+01 2.87807848187669e-01
2.64814814814815e-02 8.95912789581155e+01 2.87019466271990e-01
2.66740740740741e-02 8.90203713082601e+01 2.86225673588124e-01
2.68666666666667e-02 8.84531016859728e+01 2.85426635659265e-01
2.70592592592593e-02 8.78894469084422e+01 2.84622514728916e-01
2.72518518518519e-02 8.73293839405861e+01 2.83813470019304e-01
2.74444444444444e-02 8.67728898943981e+01 2.82999657243033e-01
2.76370370370370e-02 8.62199420271428e+01 2.82181229046202e-01
2.78296296296296e-02 8.56705177413011e+01 2.81358335446245e-01
2.80222222222222e-02 8.51245945833536e+01 2.80531123337121e-01
2.82148148148148e-02 8.45821502428625e+01 2.79699736739414e-01
2.84074074074074e-02 8.40431625515601e+01 2.78864316861681e-01
2.86000000000000e-02 8.35076094824431e+01 2.78025002160212e-01
2.87925925925926e-02 8.29754691488716e+01 2.77181928397210e-01
2.89851851851852e-02 8.24467198036754e+01 2.76335228697555e-01
2.91777777777778e-02 8.19213398382653e+01 2.75485033603856e-01
2.93703703703704e-02 8.13993077817494e+01 2.74631471130044e-01
2.95629629629630e-02 8.08806023000562e+01 2.73774666813793e-01
2.97555555555556e-02 8.03652021950624e+01 2.72914743767497e-01
2.99481481481481e-02 7.98530864037268e+01 2.72051822890226e-01
3.01407407407407e-02 7.93442339974692e+01 2.71186022428145e-01
3.03333333333333e-02 7.88386241805913e+01 2.70317458349080e-01
3.05259259259259e-02 7.83362362901550e+01 2.69446244711865e-01
3.07185185185185e-02 7.78370497948942e+01 2.68572493223219e-01
3.09111111111111e-02 7.73410442943748e+01 2.67696313444608e-01
3.11037037037037e-02 7.68481995181621e+01 2.66817812834962e-01
3.12962962962963e-02 7.63584953249914e+01 2.65937096792220e-01
3.14888888888889e-02 7.58719117019454e+01 2.65054268694219e-01
3.16814814814815e-02 7.53884287636364e+01 2.64169429938412e-01
3.18740740740741e-02 7.49080267513935e+01 2.63282679980352e-01
3.20666666666667e-02 7.44306860324550e+01 2.62394116371648e-01
3.22592592592593e-02 7.39563870991662e+01 2.61503834796915e-01
3.24518518518518e-02 7.34851105681823e+01 2.60611929253250e-01
3.26444444444444e-02 7.30168371798793e+01 2.59718491653950e-01
3.28370370370370e-02 7.25515477969532e+01 2.58823612152698e-01
3.30296296296296e-02 7.20892234042558e+01 2.57927379462503e-01
3.32222222222222e-02 7.16298451078099e+01 2.57029880457443e-01
3.34148148148148e-02 7.11733941340376e+01 2.56131200348843e-01
3.36074074074074e-02 7.07198518289929e+01 2.55231422716655e-01
3.38000000000000e-02 7.02691996575996e+01 2.54330629540119e-01
3.39925925925926e-02 6.98214192028933e+01 2.53428901227779e-01
3.41851851851852e-02 6.93764921652691e+01 2.52526316646877e-01
3.43777777777778e-02 6.89344003617340e+01 2.51622953151915e-01
3.45703703703704e-02 6.84951257251633e+01 2.50718886612686e-01
3.47629629629630e-02 6.80586503035626e+01 2.49814191441783e-01
3.49555555555556e-02 6.76249562593339e+01 2.48908940621354e-01
3.51481481481482e-02 6.71940258685469e+01 2.48003205855499e-01
3.53407407407407e-02 6.67658415203863e+01 2.47097057216564e-01
3.55333333333333e-02 6.63403857159135e+01 2.46190563425219e-01
3.57259259259259e-02 6.59176410678731e+01 2.45283792125490e-01
3.59185185185185e-02 6.54975902998079e+01 2.44376809530163e-01
3.61111111111111e-02 6.50802162453520e+01 2.43469680570959e-01
3.63037037037037e-02 6.46655018475299e+01 2.42562468921578e-01
3.64962962962963e-02 6.42534301580594e+01 2.41655237020264e-01
3.66888888888889e-02 6.38439843366584e+01 2.40748046092059e-01
3.68814814814815e-02 6.34371476503574e+01 2.39840956170444e-01
3.70740740740741e-02 6.30329034728152e+01 2.38934026118458e-01
3.72666666666667e-02 6.26312352836398e+01 2.38027313649549e-01
3.74592592592593e-02 6.22321266677128e+01 2.37120875347950e-01
3.76518518518519e-02 6.18355613145191e+01 2.36214766800785e-01
3.78444444444444e-02 6.14415230176273e+01 2.35309042280214e-01
3.80370370370370e-02 6.10499956735826e+01 2.34403754989425e-01
3.82296296296296e-02 6.06609632816961e+01 2.33498957303832e-01
3.84222222222222e-02 6.02744099432414e+01 2.32594700453008e-01
3.86148148148148e-02 5.98903198608041e+01 2.31691034651185e-01
3.88074074074074e-02 5.95086773376368e+01 2.30788009114952e-01
3.90000000000000e-02 5.91294667770172e+01 2.29885672080558e-01
3.91925925925926e-02 5.87526726816111e+01 2.28984070820951e-01
3.93851851851852e-02 5.83782796528386e+01 2.28083251662497e-01
3.95777777777778e-02 5.80062723902452e+01 2.27183260001258e-01
3.97703703703704e-02 5.76366356908763e+01 2.26284140318989e-01
3.99629629629630e-02 5.72693544486561e+01 2.25385936198908e-01
4.01555555555556e-02 5.69044136537700e+01 2.24488690341112e-01
4.03481481481481e-02 5.65417983920513e+01 2.23592444676806e-01
4.05407407407407e-02 5.61814938444977e+01 2.22697240084931e-01
4.07333333333333e-02 5.58234852862855e+01 2.21803116607325e-01
4.09259259259259e-02 5.54677580865503e+01 2.20910113659370e-01
4.11185185185185e-02 5.51142977076607e+01 2.20018269746794e-01
4.13111111111111e-02 5.47630897046242e+01 2.19127622578757e-01
4.15037037037037e-02 5.44141197244973e+01 2.18238209081395e-01
4.16962962962963e-02 5.40673735057981e+01 2.17350065411003e-01
4.18888888888889e-02 5.37228368779242e+01 2.16463226967136e-01
4.20814814814815e-02 5.33804957605733e+01 2.15577728405371e-01
4.22740740740741e-02 5.30403361631680e+01 2.14693603649738e-01
4.24666666666667e-02 5.27023441842835e+01 2.13810885905093e-01
4.26592592592593e-02 5.23665060110802e+01 2.12929607669180e-01
4.28518518518518e-02 5.20328079187387e+01 2.12049800833006e-01
4.30444444444444e-02 5.17012362700081e+01 2.11171496426163e-01
4.32370370370370e-02 5.13717775143197e+01 2.10294724807507e-01
4.34296296296296e-02 5.10444181875640e+01 2.09419515851505e-01
4.36222222222222e-02 5.07191449114297e+01 2.08545898694070e-01
4.38148148148148e-02 5.03959443928568e+01 2.07673901832024e-01
4.40074074074074e-02 5.00748034234935e+01 2.06803553133768e-01
4.42000000000000e-02 4.97557088791563e+01 2.05934879849724e-01
4.43925925925926e-02 4.94386477192937e+01 2.05067908622577e-01
4.45851851851852e-02 4.91236069864532e+01 2.04202665497458e-01
4.47777777777778e-02 4.88105738057519e+01 2.03339175931797e-01
4.49703703703704e-02 4.84995353843502e+01 2.02477464805039e-01
4.51629629629630e-02 4.81904790109290e+01 2.01617556428233e-01
4.53555555555556e-02 4.78833920551705e+01 2.00759474553422e-01
4.55481481481482e-02 4.75782619672414e+01 1.99903242461437e-01
4.57407407407407e-02 4.72750762773748e+01 1.99048882734643e-01
4.59333333333333e-02 4.69738225950764e+01 1.98196417425009e-01
4.61259259259259e-02 4.66744886089037e+01 1.97345868218094e-01
4.63185185185185e-02 4.63770620858670e+01 1.96497256206449e-01
4.65111111111111e-02 4.60815308709296e+01 1.95650601976753e-01
4.67037037037037e-02 4.57878828865111e+01 1.94805925618127e-01
4.68962962962963e-02 4.54961061319936e+01 1.93963246730314e-01
4.70888888888889e-02 4.52061886832315e+01 1.93122584431765e-01
4.72814814814815e-02 4.49181186920642e+01 1.92283957367578e-01
4.74740740740741e-02 4.46318843858317e+01 1.91447383717211e-01
4.76666666666667e-02 4.43474740668937e+01 1.90612881202159e-01
4.78592592592593e-02 4.40648761121513e+01 1.89780467093494e-01
4.80518518518519e-02 4.37840789725723e+01 1.88950158289587e-01
4.82444444444444e-02 4.35050711728009e+01 1.88121971111668e-01
4.84370370370370e-02 4.32278413104417e+01 1.87295921453625e-01
4.86296296296296e-02 4.29523780558422e+01 1.86472024927978e-01
4.88222222222222e-02 4.26786701515465e+01 1.85650296662155e-01
4.90148148148148e-02 4.24067064118353e+01 1.84830751375748e-01
4.92074074074074e-02 4.21364757222684e+01 1.84013403387182e-01
4.94000000000000e-02 4.18679670392312e+01 1.83198266620296e-01
4.95925925925926e-02 4.16011693894826e+01 1.82385354610854e-01
4.97851851851852e-02 4.13360718697072e+01 1.81574680512921e-01
4.99777777777778e-02 4.10726636460692e+01 1.80766257105102e-01
5.01703703703704e-02 4.08109339537700e+01 1.79960096796701e-01
5.03629629629630e-02 4.05508720966080e+01 1.79156211633807e-01
5.05555555555556e-02 4.02924674465419e+01 1.78354613305251e-01
5.07481481481481e-02 4.00357094432558e+01 1.77555313211102e-01
5.09407407407407e-02 3.97805875937990e+01 1.76758322279959e-01
5.11333333333333e-02 3.95270914719429e+01 1.75963651101668e-01
5.13259259259259e-02 3.92752107179704e+01 1.75171310056515e-01
5.15185185185185e-02 3.90249350381801e+01 1.74381309133252e-01
5.17111111111111e-02 3.87762542044657e+01 1.73593657997215e-01
5.19037037037037e-02 3.85291580538982e+01 1.72808365995684e-01
5.20962962962963e-02 3.82836364883101e+01 1.72025442163064e-01
5.22888888888889e-02 3.80396794738835e+01 1.71244895226107e-01
5.24814814814815e-02 3.77972770407391e+01 1.70466733609001e-01
5.26740740740741e-02 3.75564192825295e+01 1.69690965438294e-01
5.28666666666667e-02 3.73170963560341e+01 1.68917598547881e-01
5.30592592592593e-02 3.70792984807568e+01 1.68146640483815e-01
5.32518518518518e-02 3.68430159385262e+01 1.67378098565331e-01
5.34444444444444e-02 3.66082390731608e+01 1.66611979720231e-01
5.36370370370370e-02 3.63749582898868e+01 1.65848290603631e-01
5.38296296296296e-02 3.61431640551346e+01 1.65087037713473e-01
5.40222222222222e-02 3.59128468960857e+01 1.64328227226670e-01
5.42148148148148e-02 3.56839974002859e+01 1.63571865059802e-01
5.44074074074074e-02 3.54566062152605e+01 1.62817956873458e-01
5.46000000000000e-02 3.52306640481323e+01 1.62066508076493e-01
5.47925925925926e-02 3.50061616652412e+01 1.61317523830241e-01
5.49851851851852e-02 3.47830898917677e+01 1.60571009052692e-01
5.51777777777778e-02 3.45614396113573e+01 1.59826968422519e-01
5.53703703703704e-02 3.43412017657483e+01 1.59085406383075e-01
5.55629629629630e-02 3.41223673544013e+01 1.58346327146389e-01
5.57555555555556e-02 3.39049274341318e+01 1.57609734697029e-01
5.59481481481481e-02 3.36888731187443e+01 1.56875632846131e-01
5.61407407407407e-02 3.34741955787234e+01 1.56144025084077e-01
5.63333333333333e-02 3.32608860407100e+01 1.55414914686086e-01
5.65259259259259e-02 3.30489357873063e+01 1.54688304814823e-01
5.67185185185185e-02 3.28383361566651e+01 1.53964198373845e-01
5.69111111111111e-02 3.26290785421355e+01 1.53242598061367e-01
5.71037037037037e-02 3.24211543919113e+01 1.52523506373750e-01
5.72962962962963e-02 3.22145552086814e+01 1.51806925608907e-01
5.74888888888889e-02 3.20092725492825e+01 1.51092857869748e-01
5.76814814814815e-02 3.18052980243546e+01 1.50381305067508e-01
5.78740740740741e-02 3.16026232979971e+01 1.49672268924989e-01
5.80666666666667e-02 3.14012400874291e+01 1.48965750979804e-01
5.82592592592593e-02 3.12011401626506e+01 1.48261752587576e-01
5.84518518518519e-02 3.10023153461058e+01 1.47560274970257e-01
5.86444444444444e-02 3.08047575123972e+01 1.46861319083191e-01
5.88370370370370e-02 3.06084585878092e+01 1.46164885709891e-01
5.90296296296296e-02 3.04134105501231e+01 1.45470975554074e-01
5.92222222222222e-02 3.02196054282403e+01 1.44779589107493e-01
5.94148148148148e-02 3.00270353018574e+01 1.44090726698014e-01
5.96074074074074e-02 2.98356923011417e+01 1.43404388492495e-01
5.98000000000000e-02 2.96455686064099e+01 1.42720574499599e-01
5.99925925925926e-02 2.94566564478085e+01 1.42039284572561e-01
6.01851851851852e-02 2.92689481049964e+01 1.41360518411958e-01
6.03777777777778e-02 2.90824359068292e+01 1.40684275568393e-01
6.05703703703704e-02 2.88971122310457e+01 1.40010555445136e-01
6.07629629629630e-02 2.87129695039566e+01 1.39339357300739e-01
