Energy (eV)          EEDF (eV^-(3/2))     First Anisotropy
4.61538461538462e-03 4.92090175881790e-01 2.27852633440141e-04
1.38461538461538e-02 4.89480225187728e-01 3.76517461733204e-04
2.30769230769231e-02 4.86884117155511e-01 4.97756201055475e-04
3.23076923076923e-02 4.84301778383640e-01 5.90295941833118e-04
4.15384615384615e-02 4.81733135837161e-01 6.67835122529772e-04
5.07692307692308e-02 4.79178116867409e-01 7.35541142537082e-04
6.00000000000000e-02 4.76636649224059e-01 7.96082360795637e-04
6.92307692307692e-02 4.74108661032676e-01 8.51066725930730e-04
7.84615384615385e-02 4.71594080800421e-01 9.01558435466543e-04
8.76923076923077e-02 4.69092837411047e-01 9.48308082067611e-04
9.69230769230769e-02 4.66604860131627e-01 9.91870145197900e-04
1.06153846153846e-01 4.64130078588299e-01 1.03266894668269e-03
1.15384615384615e-01 4.61668422811992e-01 1.07103838865716e-03
1.24615384615385e-01 4.59219823185075e-01 1.10724723657170e-03
1.33846153846154e-01 4.56784210458948e-01 1.14151591509287e-03
1.43076923076923e-01 4.54361515753056e-01 1.17402808437284e-03
1.52307692307692e-01 4.51951670536494e-01 1.20493884692885e-03
1.61538461538462e-01 4.49554606674771e-01 1.23438072955631e-03
1.70769230769231e-01 4.47170256377386e-01 1.26246813437107e-03
1.80000000000000e-01 4.44798552213607e-01 1.28930070629471e-03
1.89230769230769e-01 4.42439427098030e-01 1.31496592946889e-03
1.98461538461538e-01 4.40092814326881e-01 1.33954116457066e-03
2.07692307692308e-01 4.37758647536734e-01 1.36309526449215e-03
2.16923076923077e-01 4.35436860716148e-01 1.38568986387294e-03
2.26153846153846e-01 4.33127388193726e-01 1.40738042492239e-03
2.35384615384615e-01 4.30830164667457e-01 1.42821709908087e-03
2.44615384615385e-01 4.28545125170820e-01 1.44824543914349e-03
2.53846153846154e-01 4.26272205081773e-01 1.46750698488158e-03
2.63076923076923e-01 4.24011340121172e-01 1.48603976124146e-03
2.72307692307692e-01 4.21762466342637e-01 1.50387869265140e-03
2.81538461538462e-01 4.19525520155718e-01 1.52105596134454e-03
2.90769230769231e-01 4.17300438298580e-01 1.53760131407714e-03
3.00000000000000e-01 4.15087157844968e-01 1.55354232059583e-03
3.09230769230769e-01 4.12885616195349e-01 1.56890459721598e-03
3.18461538461539e-01 4.10695751096665e-01 1.58371200549436e-03
3.27692307692308e-01 4.08517500618620e-01 1.59798682578659e-03
3.36923076923077e-01 4.06350803159377e-01 1.61174990440193e-03
3.46153846153846e-01 4.04195597437685e-01 1.62502078321261e-03
3.55384615384615e-01 4.02051822509958e-01 1.63781781831912e-03
3.64615384615385e-01 3.99919417749394e-01 1.65015828539060e-03
3.73846153846154e-01 3.97798322850699e-01 1.66205846768319e-03
3.83076923076923e-01 3.95688477828489e-01 1.67353373990893e-03
3.92307692307692e-01 3.93589823010251e-01 1.68459863812804e-03
4.01538461538462e-01 3.91502299050728e-01 1.69526692734784e-03
4.10769230769231e-01 3.89425846913910e-01 1.70555166249998e-03
4.20000000000000e-01 3.87360407876925e-01 1.71546523929407e-03
4.29230769230769e-01 3.85305923523635e-01 1.72501944035155e-03
4.38461538461539e-01 3.83262335757368e-01 1.73422548067184e-03
4.47692307692308e-01 3.81229586784674e-01 1.74309404907693e-03
4.56923076923077e-01 3.79207619118621e-01 1.75163534203676e-03
4.66153846153846e-01 3.77196375572926e-01 1.75985909467281e-03
4.75384615384615e-01 3.75195799273305e-01 1.76777461256415e-03
4.84615384615385e-01 3.73205833642706e-01 1.77539080100255e-03
4.93846153846154e-01 3.71226422404128e-01 1.78271618728220e-03
5.03076923076923e-01 3.69257509579084e-01 1.78975894557923e-03
5.12307692307692e-01 3.67299039482218e-01 1.79652691564686e-03
5.21538461538462e-01 3.65350956731170e-01 1.80302762411877e-03
5.30769230769231e-01 3.63413206233420e-01 1.80926830429734e-03
5.40000000000000e-01 3.61485733188660e-01 1.81525591105589e-03
5.49230769230769e-01 3.59568483083792e-01 1.82099713477429e-03
5.58461538461539e-01 3.57661401701839e-01 1.82649841732330e-03
5.67692307692308e-01 3.55764435109829e-01 1.83176596701224e-03
5.76923076923077e-01 3.53877529660834e-01 1.83680576926052e-03
5.86153846153846e-01 3.52000631989309e-01 1.84162359666165e-03
5.95384615384615e-01 3.50133689019167e-01 1.84622502128411e-03
6.04615384615385e-01 3.48276647952576e-01 1.85061542624480e-03
6.13846153846154e-01 3.46429456271717e-01 1.85480001272649e-03
6.23076923076923e-01 3.44592061737334e-01 1.85878381023772e-03
6.32307692307692e-01 3.42764412384391e-01 1.86257168267686e-03
6.41538461538462e-01 3.40946456529234e-01 1.86616833746544e-03
6.50769230769231e-01 3.39138142759397e-01 1.86957833420072e-03
6.60000000000000e-01 3.37339419935104e-01 1.87280608991806e-03
6.69230769230769e-01 3.35550237185182e-01 1.87585588415279e-03
6.78461538461539e-01 3.33770543913608e-01 1.87873186631065e-03
6.87692307692308e-01 3.32000289790005e-01 1.88143806268509e-03
6.96923076923077e-01 3.30239424750937e-01 1.88397838033472e-03
7.06153846153846e-01 3.28487898996050e-01 1.88635661085104e-03
7.15384615384615e-01 3.26745662994083e-01 1.88857643641373e-03
7.24615384615385e-01 3.25012667473970e-01 1.89064143558114e-03
7.33846153846154e-01 3.23288863425960e-01 1.89255508553087e-03
7.43076923076923e-01 3.21574202100252e-01 1.89432076734356e-03
7.52307692307692e-01 3.19868635003372e-01 1.89594176796765e-03
7.61538461538462e-01 3.18172113903560e-01 1.89742128505098e-03
7.70769230769231e-01 3.16484590822582e-01 1.89876243158583e-03
7.80000000000000e-01 3.14806018036674e-01 1.89996823785883e-03
7.89230769230769e-01 3.13136348073106e-01 1.90104165340214e-03
7.98461538461539e-01 3.11475533715153e-01 1.90198555109967e-03
8.07692307692308e-01 3.09823527994383e-01 1.90280273114911e-03
8.16923076923077e-01 3.08180284191476e-01 1.90349592247547e-03
8.26153846153846e-01 3.06545755832953e-01 1.90406778417000e-03
8.35384615384616e-01 3.04919896695769e-01 1.90452090902586e-03
8.44615384615385e-01 3.03302660800042e-01 1.90485782696076e-03
8.53846153846154e-01 3.01694002409754e-01 1.90508100548443e-03
8.63076923076923e-01 3.00093876031469e-01 1.90519285288558e-03
8.72307692307692e-01 2.98502236411242e-01 1.90519571863656e-03
8.81538461538462e-01 2.96919038538778e-01 1.90509189636465e-03
8.90769230769231e-01 2.95344237640667e-01 1.90488362673919e-03
9.00000000000000e-01 2.93777789180975e-01 1.90457309809805e-03
9.09230769230769e-01 2.92219648858290e-01 1.90416244713198e-03
9.18461538461539e-01 2.90669772609576e-01 1.90365376150557e-03
9.27692307692308e-01 2.89128116603777e-01 1.90304908241169e-03
9.36923076923077e-01 2.87594637242305e-01 1.90235040496557e-03
9.46153846153846e-01 2.86069291156227e-01 1.90155967866526e-03
9.55384615384615e-01 2.84552035209838e-01 1.90067880972474e-03
9.64615384615385e-01 2.83042826494597e-01 1.89970966335395e-03
9.73846153846154e-01 2.81541622329539e-01 1.89865406350542e-03
9.83076923076923e-01 2.80048380260075e-01 1.89751379502791e-03
9.92307692307692e-01 2.78563058055312e-01 1.89629060342398e-03
1.00153846153846e+00 2.77085613711316e-01 1.89498619870831e-03
1.01076923076923e+00 2.75616005439655e-01 1.89360225235416e-03
1.02000000000000e+00 2.74154191683753e-01 1.89214039522496e-03
1.02923076923077e+00 2.72700131116993e-01 1.89060223613938e-03
1.03846153846154e+00 2.71253782603860e-01 1.88898934918445e-03
1.04769230769231e+00 2.69815105241152e-01 1.88730326699895e-03
1.05692307692308e+00 2.68384058342606e-01 1.88554549525367e-03
1.06615384615385e+00 2.66960601437754e-01 1.88371750894057e-03
1.07538461538462e+00 2.65544694270771e-01 1.88182075318824e-03
1.08461538461538e+00 2.64136296799343e-01 1.87985664405265e-03
1.09384615384615e+00 2.62735369193518e-01 1.87782656926740e-03
1.10307692307692e+00 2.61341871834606e-01 1.87573188897665e-03
1.11230769230769e+00 2.59955765314048e-01 1.87357393645099e-03
1.12153846153846e+00 2.58577010432299e-01 1.87135401876623e-03
1.13076923076923e+00 2.57205568197718e-01 1.86907341746397e-03
1.14000000000000e+00 2.55841399825469e-01 1.86673338526651e-03
1.14923076923077e+00 2.54484466748078e-01 1.86433515851835e-03
1.15846153846154e+00 2.53134730579169e-01 1.86187994986927e-03
1.16769230769231e+00 2.51792153147765e-01 1.85936894087821e-03
1.17692307692308e+00 2.50456696485334e-01 1.85680329457951e-03
1.18615384615385e+00 2.49128322824726e-01 1.85418415200255e-03
1.19538461538462e+00 2.47806994599096e-01 1.85151263269562e-03
1.20461538461538e+00 2.46492674440850e-01 1.84878983523665e-03
1.21384615384615e+00 2.45185325180569e-01 1.84601683771791e-03
1.22307692307692e+00 2.43884909845988e-01 1.84319469822227e-03
1.23230769230769e+00 2.42591391660931e-01 1.84032445529198e-03
1.24153846153846e+00 2.41304734044278e-01 1.83740712837286e-03
1.25076923076923e+00 2.40024900608926e-01 1.83444371824856e-03
1.26000000000000e+00 2.38751855160763e-01 1.83143520397861e-03
1.26923076923077e+00 2.37485561707484e-01 1.82838255380373e-03
1.27846153846154e+00 2.36225984427880e-01 1.82528671851908e-03
1.28769230769231e+00 2.34973087700691e-01 1.82214862478038e-03
1.29692307692308e+00 2.33726836093583e-01 1.81896918613598e-03
1.30615384615385e+00 2.32487194362149e-01 1.81574929982118e-03
1.31538461538462e+00 2.31254127448910e-01 1.81248984711123e-03
1.32461538461538e+00 2.30027600482326e-01 1.80919169366681e-03
1.33384615384615e+00 2.28807578775800e-01 1.80585568986206e-03
1.34307692307692e+00 2.27594027826712e-01 1.80248267110859e-03
1.35230769230769e+00 2.26386913315441e-01 1.79907345817625e-03
1.36153846153846e+00 2.25186201104385e-01 1.79562885749674e-03
1.37076923076923e+00 2.23991857237004e-01 1.79214966146195e-03
1.38000000000000e+00 2.22803847936856e-01 1.78863664560744e-03
1.38923076923077e+00 2.21622139615031e-01 1.78509057825470e-03
1.39846153846154e+00 2.20446698843896e-01 1.78151221452437e-03
1.40769230769231e+00 2.19277492381596e-01 1.77790229029078e-03
1.41692307692308e+00 2.18114487162583e-01 1.77426153194521e-03
1.42615384615385e+00 2.16957650296683e-01 1.77059065346758e-03
1.43538461538462e+00 2.15806949068163e-01 1.76689035667439e-03
1.44461538461538e+00 2.14662350934809e-01 1.76316133146130e-03
1.45384615384615e+00 2.13523823526998e-01 1.75940425603312e-03
1.46307692307692e+00 2.12391334646796e-01 1.75561979713309e-03
1.47230769230769e+00 2.11264852267038e-01 1.75180861027005e-03
1.48153846153846e+00 2.10144344530427e-01 1.74797133993373e-03
1.49076923076923e+00 2.09029779748628e-01 1.74410861980705e-03
1.50000000000000e+00 2.07921126401377e-01 1.74022107019174e-03
1.50923076923077e+00 2.06818353142788e-01 1.73630930658876e-03
1.51846153846154e+00 2.05721428778747e-01 1.73237393429114e-03
1.52769230769231e+00 2.04630322287864e-01 1.72841554292389e-03
1.53692307692308e+00 2.03545002813285e-01 1.72443471513799e-03
1.54615384615385e+00 2.02465439661810e-01 1.72043202394561e-03
1.55538461538462e+00 2.01391602303033e-01 1.71640803289850e-03
1.56461538461538e+00 2.00323460368473e-01 1.71236329626452e-03
1.57384615384615e+00 1.99260983650713e-01 1.70829835919447e-03
1.58307692307692e+00 1.98204142102556e-01 1.70421375788860e-03
1.59230769230769e+00 1.97152905836168e-01 1.70011001976278e-03
1.60153846153846e+00 1.96107245122235e-01 1.69598766360570e-03
1.61076923076923e+00 1.95067130389120e-01 1.69184719973410e-03
1.62000000000000e+00 1.94032532222028e-01 1.68768912764724e-03
1.62923076923077e+00 1.93003421368402e-01 1.68351394369915e-03
1.63846153846154e+00 1.91979768718317e-01 1.67932213621155e-03
1.64769230769231e+00 1.90961545322533e-01 1.67511418054024e-03
1.65692307692308e+00 1.89948722385349e-01 1.67089054685186e-03
1.66615384615385e+00 1.88941271263793e-01 1.66665169770229e-03
1.67538461538462e+00 1.87939163466809e-01 1.66239808816939e-03
1.68461538461538e+00 1.86942370654450e-01 1.65813016598441e-03
1.69384615384615e+00 1.85950864637078e-01 1.65384837165581e-03
1.70307692307692e+00 1.84964617374567e-01 1.64955313859339e-03
1.71230769230769e+00 1.83983600975513e-01 1.64524489323337e-03
1.72153846153846e+00 1.83007787696441e-01 1.64092405515564e-03
1.73076923076923e+00 1.82037149941024e-01 1.63659103720026e-03
1.74000000000000e+00 1.81071660259297e-01 1.63224624333289e-03
1.74923076923077e+00 1.80111291352298e-01 1.62789007553123e-03
1.75846153846154e+00 1.79156016054975e-01 1.62352292936402e-03
1.76769230769231e+00 1.78205807351822e-01 1.61914518952715e-03
1.77692307692308e+00 1.77260638370617e-01 1.61475723682628e-03
1.78615384615385e+00 1.76320482381661e-01 1.61035944597735e-03
1.79538461538462e+00 1.75385312797027e-01 1.60595218570720e-03
1.80461538461538e+00 1.74455103169802e-01 1.60153581885338e-03
1.81384615384615e+00 1.73529827193342e-01 1.59711070245845e-03
1.82307692307692e+00 1.72609458700529e-01 1.59267718786485e-03
1.83230769230769e+00 1.71693971663031e-01 1.58823562081023e-03
1.84153846153846e+00 1.70783340190565e-01 1.58378634151703e-03
1.85076923076923e+00 1.69877538530165e-01 1.57932968478189e-03
1.86000000000000e+00 1.68976541065455e-01 1.57486597803326e-03
1.86923076923077e+00 1.68080322320643e-01 1.57039554753222e-03
1.87846153846154e+00 1.67188856945566e-01 1.56591871436783e-03
1.88769230769231e+00 1.66302119729282e-01 1.56143579041357e-03
1.89692307692308e+00 1.65420085594563e-01 1.55694708461584e-03
1.90615384615385e+00 1.64542729597185e-01 1.55245290099546e-03
1.91538461538462e+00 1.63670026925223e-01 1.54795353872563e-03
1.92461538461538e+00 1.62801952898351e-01 1.54344929220917e-03
1.93384615384615e+00 1.61938482967139e-01 1.53894045115144e-03
1.94307692307692e+00 1.61079592712363e-01 1.53442730063388e-03
1.95230769230769e+00 1.60225257844318e-01 1.52991012118848e-03
1.96153846153846e+00 1.59375454202124e-01 1.52538918886758e-03
1.97076923076923e+00 1.58530157753044e-01 1.52086477531304e-03
1.98000000000000e+00 1.57689344591809e-01 1.51633714598887e-03
1.98923076923077e+00 1.56852990944079e-01 1.51180656577910e-03
1.99846153846154e+00 1.56021073153286e-01 1.50727329535541e-03
2.00769230769231e+00 1.55193567692514e-01 1.50273758750982e-03
2.01692307692308e+00 1.54370451159626e-01 1.49819969283262e-03
2.02615384615385e+00 1.53551700276610e-01 1.49365985789532e-03
2.03538461538462e+00 1.52737291888911e-01 1.48911832531168e-03
2.04461538461538e+00 1.51927202964785e-01 1.48457533379887e-03
2.05384615384615e+00 1.51121410594639e-01 1.48003111823465e-03
2.06307692307692e+00 1.50319891990392e-01 1.47548590971516e-03
2.07230769230769e+00 1.49522624484826e-01 1.47093993561405e-03
2.08153846153846e+00 1.48729585530944e-01 1.46639341963731e-03
2.09076923076923e+00 1.47940752701335e-01 1.46184658187834e-03
2.10000000000000e+00 1.47156103687540e-01 1.45729963720840e-03
2.10923076923077e+00 1.46375616303060e-01 1.45275280034109e-03
2.11846153846154e+00 1.45599268471751e-01 1.44820628253431e-03
2.12769230769231e+00 1.44827038238232e-01 1.44366028825924e-03
2.13692307692308e+00 1.44058903763570e-01 1.43911502033825e-03
2.14615384615385e+00 1.43294843324660e-01 1.43457067829197e-03
2.15538461538462e+00 1.42534835313614e-01 1.43002745838761e-03
2.16461538461538e+00 1.41778858237147e-01 1.42548555368770e-03
2.17384615384615e+00 1.41026890715968e-01 1.42094515409572e-03
2.18307692307692e+00 1.40278911484180e-01 1.41640644640241e-03
2.19230769230769e+00 1.39534899388675e-01 1.41186961433270e-03
2.20153846153846e+00 1.38794833388539e-01 1.40733483858990e-03
2.21076923076923e+00 1.38058692554453e-01 1.40280229689975e-03
2.22000000000000e+00 1.37326456068103e-01 1.39827216254343e-03
2.22923076923077e+00 1.36598103224810e-01 1.39374460894909e-03
2.23846153846154e+00 1.35873613423243e-01 1.38921980669291e-03
2.24769230769231e+00 1.35152966174584e-01 1.38469792047040e-03
2.25692307692308e+00 1.34436141098685e-01 1.38017911375425e-03
2.26615384615385e+00 1.33723117923487e-01 1.37566354728934e-03
2.27538461538462e+00 1.33013876484453e-01 1.37115137913136e-03
2.28461538461538e+00 1.32308396723993e-01 1.36664276468623e-03
2.29384615384615e+00 1.31606658690897e-01 1.36213785674697e-03
2.30307692307692e+00 1.30908642539775e-01 1.35763680553082e-03
2.31230769230769e+00 1.30214328530492e-01 1.35313975871756e-03
2.32153846153846e+00 1.29523697027612e-01 1.34864686148504e-03
2.33076923076923e+00 1.28836728499839e-01 1.34415825654462e-03
2.34000000000000e+00 1.28153403519470e-01 1.33967408280382e-03
2.34923076923077e+00 1.27473702764690e-01 1.33519447953545e-03
2.35846153846154e+00 1.26797607010440e-01 1.33071958364778e-03
2.36769230769231e+00 1.26125097136502e-01 1.32624952692753e-03
2.37692307692308e+00 1.25456154124067e-01 1.32178444026956e-03
2.38615384615385e+00 1.24790759055200e-01 1.31732445230494e-03
2.39538461538462e+00 1.24128893112300e-01 1.31286968943268e-03
2.40461538461539e+00 1.23470537577572e-01 1.30842027585186e-03
2.41384615384615e+00 1.22815673832497e-01 1.30397633359107e-03
2.42307692307692e+00 1.22164283357305e-01 1.29953798253931e-03
2.43230769230769e+00 1.21516347730449e-01 1.29510534047708e-03
2.44153846153846e+00 1.20871848628090e-01 1.29067852310511e-03
2.45076923076923e+00 1.20230767823573e-01 1.28625764407370e-03
2.46000000000000e+00 1.19593087186913e-01 1.28184281376198e-03
2.46923076923077e+00 1.18958788686813e-01 1.27743414306936e-03
2.47846153846154e+00 1.18327854382531e-01 1.27303174092783e-03
2.48769230769231e+00 1.17700266431029e-01 1.26863571178956e-03
2.49692307692308e+00 1.17076007083906e-01 1.26424615947375e-03
2.50615384615385e+00 1.16455058686893e-01 1.25986318591474e-03
2.51538461538462e+00 1.15837403679359e-01 1.25548689118839e-03
2.52461538461538e+00 1.15223024593808e-01 1.25111737353817e-03
2.53384615384615e+00 1.14611904055390e-01 1.24675472939944e-03
2.54307692307692e+00 1.14004024781406e-01 1.24239905342484e-03
2.55230769230769e+00 1.13399369580823e-01 1.23805043850965e-03
2.56153846153846e+00 1.12797921353785e-01 1.23370897581575e-03
2.57076923076923e+00 1.12199663091130e-01 1.22937475479571e-03
2.58000000000000e+00 1.11604577873910e-01 1.22504786207771e-03
2.58923076923077e+00 1.11012648875162e-01 1.22072838491804e-03
2.59846153846154e+00 1.10423859352651e-01 1.21641640893192e-03
2.60769230769231e+00 1.09838192655206e-01 1.21211201580191e-03
2.61692307692308e+00 1.09255632219974e-01 1.20781528678070e-03
2.62615384615385e+00 1.08676161571946e-01 1.20352630154799e-03
2.63538461538462e+00 1.08099764323494e-01 1.19924513823241e-03
2.64461538461538e+00 1.07526424173907e-01 1.19497187343321e-03
2.65384615384615e+00 1.06956124908928e-01 1.19070658224023e-03
2.66307692307692e+00 1.06388850400299e-01 1.18644933825480e-03
2.67230769230769e+00 1.05824584605303e-01 1.18220021361105e-03
2.68153846153846e+00 1.05263311566310e-01 1.17795927899557e-03
2.69076923076923e+00 1.04705015410326e-01 1.17372660366714e-03
2.70000000000000e+00 1.04149680348545e-01 1.16950225443775e-03
2.70923076923077e+00 1.03597290677907e-01 1.16528629882045e-03
2.71846153846154e+00 1.03047830774611e-01 1.16107880295727e-03
2.72769230769231e+00 1.02501285099740e-01 1.15687982952649e-03
2.73692307692308e+00 1.01957638196797e-01 1.15268944093665e-03
2.74615384615385e+00 1.01416874691262e-01 1.14850769828192e-03
2.75538461538462e+00 1.00878979290156e-01 1.14433466136019e-03
2.76461538461538e+00 1.00343936781615e-01 1.14017038869114e-03
2.77384615384615e+00 9.98117320344506e-02 1.13601493753284e-03
2.78307692307692e+00 9.92823499977318e-02 1.13186836389922e-03
2.79230769230769e+00 9.87557757003530e-02 1.12773072257782e-03
2.80153846153846e+00 9.82319942506124e-02 1.12360206714610e-03
2.81076923076923e+00 9.77109908357911e-02 1.11948244998792e-03
2.82000000000000e+00 9.71927507217341e-02 1.11537192136146e-03
2.82923076923077e+00 9.66772592542266e-02 1.11127053227221e-03
2.83846153846154e+00 9.61645018531755e-02 1.10717833257925e-03
2.84769230769231e+00 9.56544640176259e-02 1.10309536908302e-03
2.85692307692308e+00 9.51471313235331e-02 1.09902168844026e-03
2.86615384615385e+00 9.46424894233545e-02 1.09495733620878e-03
2.87538461538462e+00 9.41405240456444e-02 1.09090235686240e-03
2.88461538461539e+00 9.36412209946497e-02 1.08685679380647e-03
2.89384615384615e+00 9.31445661499084e-02 1.08282068939147e-03
2.90307692307692e+00 9.26505454658512e-02 1.07879408492751e-03
2.91230769230769e+00 9.21591449714036e-02 1.07477702069941e-03
