Energy (eV)          EEDF (eV^-(3/2))     First Anisotropy
1.54166666666667e-01 3.17132660722210e-02 3.39795119714866e-05
4.62500000000000e-01 3.08134646587770e-02 5.55004108630853e-05
7.70833333333333e-01 2.99391933354858e-02 7.16699102380958e-05
1.07916666666667e+00 2.90897277384649e-02 8.30231265545287e-05
1.38750000000000e+00 2.82643640552097e-02 9.17503327621615e-05
1.69583333333333e+00 2.74624184357067e-02 9.87084808553035e-05
2.00416666666667e+00 2.66832264444352e-02 1.04355322446319e-04
2.31250000000000e+00 2.59261424910714e-02 1.08975612879774e-04
2.62083333333333e+00 2.51905393004579e-02 1.12763538537411e-04
2.92916666666667e+00 2.44758074014927e-02 1.15859959254298e-04
3.23750000000000e+00 2.37813546120224e-02 1.18371688608260e-04
3.54583333333333e+00 2.31066055502130e-02 1.20382469330252e-04
3.85416666666667e+00 2.24510011637184e-02 1.21959679095471e-04
4.16250000000000e+00 2.18139982599056e-02 1.23158657632749e-04
4.47083333333333e+00 2.11950690568870e-02 1.24025623298763e-04
4.77916666666667e+00 2.05937007505144e-02 1.24599711936446e-04
5.08750000000000e+00 2.00093950848343e-02 1.24914445250775e-04
5.39583333333333e+00 1.94416679399364e-02 1.24998815158233e-04
5.70416666666667e+00 1.88900489340856e-02 1.24878103302343e-04
6.01250000000000e+00 1.83540810305048e-02 1.24574512008202e-04
6.32083333333333e+00 1.78333201591524e-02 1.24107657842964e-04
6.62916666666667e+00 1.73273348513279e-02 1.23494964317036e-04
6.93750000000000e+00 1.68357058794828e-02 1.22751978161936e-04
7.24583333333333e+00 1.63580259101939e-02 1.21892626711476e-04
7.55416666666667e+00 1.58938991686952e-02 1.20929430331886e-04
7.86250000000000e+00 1.54429411088212e-02 1.19873679145374e-04
8.17083333333333e+00 1.50047780946310e-02 1.18735581008258e-04
8.47916666666667e+00 1.45790470924792e-02 1.17524387050893e-04
8.78750000000000e+00 1.41653953684977e-02 1.16248498683699e-04
9.09583333333333e+00 1.37634801965209e-02 1.14915559123753e-04
9.40416666666667e+00 1.33729685754755e-02 1.13532532723120e-04
9.71250000000000e+00 1.29935369520573e-02 1.12105773863734e-04
1.00208333333333e+01 1.26248709527942e-02 1.10641086845618e-04
1.03291666666667e+01 1.22666651246991e-02 1.09143778617388e-04
1.06375000000000e+01 1.19186226819729e-02 1.07618705678108e-04
1.09458333333333e+01 1.15804552554094e-02 1.06070314381723e-04
1.12541666666667e+01 1.12518826640544e-02 1.04502677845660e-04
1.15625000000000e+01 1.09326326732208e-02 1.02919529334145e-04
1.18708333333333e+01 1.06224407698112e-02 1.01324289996621e-04
1.21791666666667e+01 1.03210499511193e-02 9.97200957611074e-05
1.24875000000000e+01 1.00282105035932e-02 9.81098215262103e-05
1.27958333333333e+01 9.74367979665192e-03 9.64961011860484e-05
1.31041666666667e+01 9.46722208842634e-03 9.48813475197551e-05
1.34125000000000e+01 9.19860832339191e-03 9.32677702178327e-05
1.37208333333333e+01 8.93761594317483e-03 9.16573906652256e-05
1.40291666666667e+01 8.68402870793958e-03 9.00520569776687e-05
1.43375000000000e+01 8.43763651121250e-03 8.84534577127150e-05
1.46458333333333e+01 8.19823520628721e-03 8.68631329827213e-05
1.49541666666667e+01 7.96562644204978e-03 8.52824860289185e-05
1.52625000000000e+01 7.73961749347978e-03 8.37127938277541e-05
1.55708333333333e+01 7.52002110237665e-03 8.21552155687209e-05
1.58791666666667e+01 7.30665532649335e-03 8.06108016965796e-05
1.61875000000000e+01 7.09934338434810e-03 7.90805022310506e-05
1.64958333333333e+01 6.89791350909590e-03 7.75651733117032e-05
1.68041666666667e+01 6.70219880992051e-03 7.60655843492737e-05
1.71125000000000e+01 6.51203712991887e-03 7.45824246271695e-05
1.74208333333333e+01 6.32727091203676e-03 7.31163084024812e-05
1.77291666666667e+01 6.14774707174542e-03 7.16677806193840e-05
1.80375000000000e+01 5.97331686687419e-03 7.02373221972770e-05
1.83458333333333e+01 5.80383577461756e-03 6.88253540363723e-05
1.86541666666667e+01 5.63916337459475e-03 6.74322416206013e-05
1.89625000000000e+01 5.47916322960829e-03 6.60582992869601e-05
1.92708333333333e+01 5.32370277281030e-03 6.47037933889595e-05
1.95791666666667e+01 5.17265320031192e-03 6.33689460304193e-05
1.98875000000000e+01 5.02588936193668e-03 6.20539385344673e-05
2.01958333333333e+01 4.88328965770861e-03 6.07589139522150e-05
2.05041666666667e+01 4.74473593924223e-03 5.94839801085359e-05
2.08125000000000e+01 4.61011340964199e-03 5.82292124354458e-05
2.11208333333333e+01 4.47931052854335e-03 5.69946559667650e-05
2.14291666666667e+01 4.35221892157394e-03 5.57803278338546e-05
2.17375000000000e+01 4.22873328862450e-03 5.45862195894557e-05
2.20458333333333e+01 4.10875131673731e-03 5.34122987955468e-05
2.23541666666667e+01 3.99217359698461e-03 5.22585110755985e-05
2.26625000000000e+01 3.87890354040402e-03 5.11247820266306e-05
2.29708333333333e+01 3.76884729808649e-03 5.00110184829096e-05
2.32791666666667e+01 3.66191368486994e-03 4.89171102080264e-05
2.35875000000000e+01 3.55801410229288e-03 4.78429314718684e-05
2.38958333333333e+01 3.45706246528776e-03 4.67883420545393e-05
2.42041666666667e+01 3.35897513213519e-03 4.57531886440824e-05
2.45125000000000e+01 3.26367083384555e-03 4.47373061391584e-05
2.48208333333333e+01 3.17107060691197e-03 4.37405184438189e-05
2.51291666666667e+01 3.08109772901530e-03 4.27626396233847e-05
2.54375000000000e+01 2.99367765429354e-03 4.18034749814531e-05
2.57458333333333e+01 2.90873795165406e-03 4.08628216856721e-05
2.60541666666667e+01 2.82620824576005e-03 3.99404697240070e-05
2.63625000000000e+01 2.74602015769389e-03 3.90362027952906e-05
2.66708333333333e+01 2.66810724836933e-03 3.81497987980608e-05
2.69791666666667e+01 2.59240496436798e-03 3.72810306214492e-05
2.72875000000000e+01 2.51885058354468e-03 3.64296668811138e-05
2.75958333333333e+01 2.44738316311819e-03 3.55954722969102e-05
2.79041666666667e+01 2.37794348996124e-03 3.47782083463294e-05
2.82125000000000e+01 2.31047403073406e-03 3.39776338718367e-05
2.85208333333333e+01 2.24491888426720e-03 3.31935053682034e-05
2.88291666666667e+01 2.18122373594037e-03 3.24255775214074e-05
2.91375000000000e+01 2.11933581196570e-03 3.16736037087652e-05
2.94458333333333e+01 2.05920383570774e-03 3.09373362128366e-05
2.97541666666667e+01 2.00077798581634e-03 3.02165266646862e-05
3.00625000000000e+01 1.94400985431273e-03 2.95109264544719e-05
3.03708333333333e+01 1.88885240652144e-03 2.88202868857101e-05
3.06791666666667e+01 1.83525994264935e-03 2.81443595385516e-05
3.09875000000000e+01 1.78318805935716e-03 2.74828966054806e-05
3.12958333333333e+01 1.73259361300463e-03 2.68356509972180e-05
3.16041666666667e+01 1.68343468439306e-03 2.62023766390349e-05
3.19125000000000e+01 1.63567054353143e-03 2.55828287437592e-05
3.22208333333333e+01 1.58926161592095e-03 2.49767638785681e-05
3.25291666666667e+01 1.54416945020145e-03 2.43839402052066e-05
3.28375000000000e+01 1.50035668584560e-03 2.38041177004906e-05
3.31458333333333e+01 1.45778702223171e-03 2.32370581915957e-05
3.34541666666667e+01 1.41642518895537e-03 2.26825255492766e-05
3.37625000000000e+01 1.37623691620785e-03 2.21402858644021e-05
3.40708333333333e+01 1.33718890640653e-03 2.16101074580025e-05
3.43791666666667e+01 1.29924880695285e-03 2.10917610351259e-05
3.46875000000000e+01 1.26238518307127e-03 2.05850198245666e-05
3.49958333333333e+01 1.22656749178585e-03 2.00896595688370e-05
3.53041666666667e+01 1.19176605692346e-03 1.96054586450791e-05
3.56125000000000e+01 1.15795204420840e-03 1.91321981740176e-05
3.59208333333333e+01 1.12509743739113e-03 1.86696619941135e-05
3.62291666666667e+01 1.09317501531210e-03 1.82176367549384e-05
3.65375000000000e+01 1.06215832906427e-03 1.77759120004319e-05
3.68458333333333e+01 1.03202168009611e-03 1.73442801307498e-05
3.71541666666667e+01 1.00274009916644e-03 1.69225364726638e-05
3.74625000000000e+01 9.74289325402847e-04 1.65104793414106e-05
3.77708333333333e+01 9.46645786215705e-04 1.61079099931284e-05
3.80791666666667e+01 9.19786577988384e-04 1.57146326761362e-05
3.83875000000000e+01 8.93689446873916e-04 1.53304546749938e-05
3.86958333333333e+01 8.68332770370191e-04 1.49551862559100e-05
3.90041666666667e+01 8.43695539602795e-04 1.45886407021586e-05
3.93125000000000e+01 8.19757341715301e-04 1.42306343434082e-05
3.96208333333333e+01 7.96498342968345e-04 1.38809864960608e-05
3.99291666666667e+01 7.73899272483888e-04 1.35395194855578e-05
4.02375000000000e+01 7.51941406096704e-04 1.32060586635648e-05
4.05458333333333e+01 7.30606550851302e-04 1.28804323448462e-05
4.08541666666667e+01 7.09877030087251e-04 1.25624718187893e-05
4.11625000000000e+01 6.89735668630427e-04 1.22520113566308e-05
4.14708333333333e+01 6.70165778572188e-04 1.19488881461768e-05
4.17791666666667e+01 6.51151145585280e-04 1.16529422945128e-05
4.20875000000000e+01 6.32676015343533e-04 1.13640168271207e-05
4.23958333333333e+01 6.14725080477246e-04 1.10819576215068e-05
4.27041666666667e+01 5.97283468018273e-04 1.08066134027629e-05
4.30125000000000e+01 5.80336726946128e-04 1.05378357361331e-05
4.33208333333333e+01 5.63870816222308e-04 1.02754789604098e-05
4.36291666666667e+01 5.47872093271491e-04 1.00194001777491e-05
4.39375000000000e+01 5.32327302560508e-04 9.76945924100431e-06
4.42458333333333e+01 5.17223564622368e-04 9.52551868757813e-06
4.45541666666667e+01 5.02548365488166e-04 9.28744372467737e-06
4.48625000000000e+01 4.88289546213156e-04 9.05510221252137e-06
4.51708333333333e+01 4.74435292808627e-04 8.82836459919618e-06
4.54791666666667e+01 4.60974126546136e-04 8.60710390234608e-06
4.57875000000000e+01 4.47894894352058e-04 8.39119568918900e-06
4.60958333333333e+01 4.35186759572234e-04 8.18051801280027e-06
4.64041666666667e+01 4.22839193076586e-04 7.97495139107813e-06
4.67125000000000e+01 4.10841964450069e-04 7.77437878434875e-06
4.70208333333333e+01 3.99185133521201e-04 7.57868553340823e-06
4.73291666666667e+01 3.87859042201070e-04 7.38775933646388e-06
4.76375000000000e+01 3.76854306404574e-04 7.20149022498296e-06
4.79458333333333e+01 3.66161808279670e-04 7.01977050374004e-06
4.82541666666667e+01 3.55772688720187e-04 6.84249472632038e-06
4.85625000000000e+01 3.45678339956762e-04 6.66955966975733e-06
4.88708333333333e+01 3.35870398428847e-04 6.50086427676459e-06
4.91791666666667e+01 3.26340737915746e-04 6.33630963028924e-06
4.94875000000000e+01 3.17081462741683e-04 6.17579892739031e-06
4.97958333333333e+01 3.08084901237408e-04 6.01923742377960e-06
5.01041666666667e+01 2.99343599438444e-04 5.86653240782778e-06
5.04125000000000e+01 2.90850314853348e-04 5.71759317405840e-06
5.07208333333333e+01 2.82598010466145e-04 5.57233097007416e-06
5.10291666666667e+01 2.74579848954985e-04 5.43065897034852e-06
5.13375000000000e+01 2.66789186976878e-04 5.29249224964205e-06
5.16458333333333e+01 2.59219569666228e-04 5.15774773235389e-06
5.19541666666667e+01 2.51864725330953e-04 5.02634416637105e-06
5.22625000000000e+01 2.44718560210853e-04 4.89820209665604e-06
5.25708333333333e+01 2.37775153431219e-04 4.77324381703322e-06
5.28791666666667e+01 2.31028752137001e-04 4.65139334431567e-06
5.31875000000000e+01 2.24473766685545e-04 4.53257639226597e-06
5.34958333333333e+01 2.18104766017617e-04 4.41672032580176e-06
5.38041666666667e+01 2.11916473193480e-04 4.30375413557691e-06
5.41125000000000e+01 2.05903760983970e-04 4.19360841247563e-06
5.44208333333333e+01 2.00061647624421e-04 4.08621530420239e-06
5.47291666666667e+01 1.94385292719461e-04 3.98150849045692e-06
5.50375000000000e+01 1.88869993199409e-04 3.87942315808747e-06
5.53458333333333e+01 1.83511179425420e-04 3.77989596001428e-06
5.56541666666667e+01 1.78304411432576e-04 3.68286499110690e-06
5.59625000000000e+01 1.73245375221302e-04 3.58826976409337e-06
5.62708333333333e+01 1.68329879184690e-04 3.49605117075456e-06
5.65791666666667e+01 1.63553850661946e-04 3.40615145858575e-06
5.68875000000000e+01 1.58913332537060e-04 3.31851420753377e-06
5.71958333333333e+01 1.54404479961657e-04 3.23308429339052e-06
5.75041666666667e+01 1.50023557193174e-04 3.14980786529891e-06
5.78125000000000e+01 1.45766934475313e-04 3.06863232336912e-06
5.81208333333333e+01 1.41631085031980e-04 2.98950628419311e-06
5.84291666666667e+01 1.37612582166677e-04 2.91237955923635e-06
5.87375000000000e+01 1.33708096401384e-04 2.83720313336734e-06
5.90458333333333e+01 1.29914392719157e-04 2.76392913241005e-06
5.93541666666667e+01 1.26228327903173e-04 2.69251080244763e-06
5.96625000000000e+01 1.22646847912615e-04 2.62290248928507e-06
5.99708333333333e+01 1.19166985353367e-04 2.55505960795337e-06
6.02791666666667e+01 1.15785857036911e-04 2.48893862293871e-06
6.05875000000000e+01 1.12500661573585e-04 2.42449702858631e-06
6.08958333333333e+01 1.09308677052497e-04 2.36169332046865e-06
6.12041666666667e+01 1.06207258802127e-04 2.30048697654275e-06
6.15125000000000e+01 1.03193837182933e-04 2.24083843849385e-06
6.18208333333333e+01 1.00265915459189e-04 2.18270908487933e-06
6.21291666666667e+01 9.74210677446208e-05 2.12606121320844e-06
6.24375000000000e+01 9.46569369778544e-05 2.07085802221622e-06
6.27458333333333e+01 9.19712329702884e-05 2.01706358669548e-06
6.30541666666667e+01 8.93617305214922e-05 1.96464284048602e-06
6.33625000000000e+01 8.68262675623370e-05 1.91356155966299e-06
6.36708333333333e+01 8.43627433643489e-05 1.86378633897031e-06
6.39791666666667e+01 8.19691168108423e-05 1.81528457570122e-06
6.42875000000000e+01 7.96434046938404e-05 1.76802445378022e-06
6.45958333333333e+01 7.73836800715525e-05 1.72197492171272e-06
6.49041666666667e+01 7.51880706823774e-05 1.67710567733434e-06
6.52125000000000e+01 7.30547573828722e-05 1.63338715276163e-06
6.55208333333333e+01 7.09819726411003e-05 1.59079049377531e-06
6.58291666666667e+01 6.89679990817030e-05 1.54928754541211e-06
6.61375000000000e+01 6.70111680532301e-05 1.50885083775665e-06
6.64458333333333e+01 6.51098582461205e-05 1.46945356667769e-06
6.67541666666667e+01 6.32624943580132e-05 1.43106958023417e-06
6.70625000000000e+01 6.14675457797233e-05 1.39367336527810e-06
6.73708333333333e+01 5.97235253275457e-05 1.35724002946640e-06
6.76791666666667e+01 5.80289880188710e-05 1.32174528845068e-06
6.79875000000000e+01 5.63825298669792e-05 1.28716545325972e-06
6.82958333333333e+01 5.47827867182084e-05 1.25347741351220e-06
6.86041666666667e+01 5.32284331287635e-05 1.22065862535854e-06
6.89125000000000e+01 5.17181812593126e-05 1.18868709961053e-06
6.92208333333333e+01 5.02507798083466e-05 1.15754138608346e-06
6.95291666666667e+01 4.88250129818199e-05 1.12720056225764e-06
6.98375000000000e+01 4.74396994792818e-05 1.09764422212214e-06
7.01458333333333e+01 4.60936915154709e-05 1.06885246157784e-06
7.04541666666667e+01 4.47858738751167e-05 1.04080586778611e-06
7.07625000000000e+01 4.35151629830244e-05 1.01348550869338e-06
7.10708333333333e+01 4.22805060066054e-05 9.86872919429876e-07
7.13791666666667e+01 4.10808799888024e-05 9.60950092312850e-07
7.16875000000000e+01 3.99152909951750e-05 9.35699467018926e-07
7.19958333333333e+01 3.87827732906701e-05 9.11103917916550e-07
7.23041666666667e+01 3.76823885442157e-05 8.87146744691285e-07
7.26125000000000e+01 3.66132250464290e-05 8.63811663133444e-07
7.29208333333333e+01 3.55743969544861e-05 8.41082793345237e-07
7.32291666666667e+01 3.45650435624623e-05 8.18944650956363e-07
7.35375000000000e+01 3.35843285838128e-05 7.97382138494948e-07
7.38458333333333e+01 3.26314394587094e-05 7.76380534413498e-07
7.41541666666667e+01 3.17055866846931e-05 7.55925484863629e-07
7.44625000000000e+01 3.08060031585641e-05 7.36002995619173e-07
7.47708333333333e+01 2.99319435410173e-05 7.16599421868102e-07
7.50791666666667e+01 2.90826836426234e-05 6.97701460516090e-07
7.53875000000000e+01 2.82575198202080e-05 6.79296142631471e-07
7.56958333333333e+01 2.74557683940457e-05 6.61370823953160e-07
7.60041666666667e+01 2.66767650845980e-05 6.43913177693781e-07
7.63125000000000e+01 2.59198644588683e-05 6.26911187477194e-07
7.66208333333333e+01 2.51844393958074e-05 6.10353138515276e-07
7.69291666666667e+01 2.44698805696128e-05 5.94227610882285e-07
7.72375000000000e+01 2.37755959419216e-05 5.78523472916730e-07
7.75458333333333e+01 2.31010102714388e-05 5.63229873022690e-07
7.78541666666667e+01 2.24455646399504e-05 5.48336233388120e-07
7.81625000000000e+01 2.18087159865574e-05 5.33832243823978e-07
7.84708333333333e+01 2.11899366578699e-05 5.19707854148321e-07
7.87791666666667e+01 2.05887139732028e-05 5.05953268322435e-07
7.90875000000000e+01 2.00045497973703e-05 4.92558938701277e-07
7.93958333333333e+01 1.94369601280894e-05 4.79515558961042e-07
7.97041666666667e+01 1.88854746971201e-05 4.66814058628156e-07
8.00125000000000e+01 1.83496365784275e-05 4.54445597716264e-07
8.03208333333333e+01 1.78290018097164e-05 4.42401560160385e-07
8.06291666666667e+01 1.73231390265451e-05 4.30673548714922e-07
8.09375000000000e+01 1.68316291029267e-05 4.19253379953551e-07
8.12458333333333e+01 1.63540648041714e-05 4.08133078175404e-07
8.15541666666667e+01 1.58900504512482e-05 3.97304870649396e-07
8.18625000000000e+01 1.54392015911396e-05 3.86761182954520e-07
8.21708333333333e+01 1.50011446784015e-05 3.76494633325643e-07
8.24791666666667e+01 1.45755167672732e-05 3.66498028222557e-07
8.27875000000000e+01 1.41619652093213e-05 3.56764357989406e-07
8.30958333333333e+01 1.37601473613419e-05 3.47286791609662e-07
8.34041666666667e+01 1.33697303029252e-05 3.38058672579456e-07
8.37125000000000e+01 1.29903905591289e-05 3.29073514865914e-07
8.40208333333333e+01 1.26218138325442e-05 3.20324998042908e-07
8.43291666666667e+01 1.22636947442102e-05 3.11806963449280e-07
8.46375000000000e+01 1.19157365792451e-05 3.03513410426941e-07
8.49458333333333e+01 1.15776510410763e-05 2.95438491810802e-07
8.52541666666667e+01 1.12491580137755e-05 2.87576510353583e-07
8.55625000000000e+01 1.09299853287460e-05 2.79921915225599e-07
8.58708333333333e+01 1.06198685392840e-05 2.72469297834012e-07
8.61791666666667e+01 1.03185507025632e-05 2.65213388496910e-07
8.64875000000000e+01 1.00257821656352e-05 2.58149053187729e-07
8.67958333333333e+01 9.74132035864065e-06 2.51271289660612e-07
8.71041666666667e+01 9.46492959481787e-06 2.44575224357443e-07
8.74125000000000e+01 9.19638087421863e-06 2.38056109380792e-07
8.77208333333333e+01 8.93545169402490e-06 2.31709318903735e-07
8.80291666666667e+01 8.68192586509325e-06 2.25530346294458e-07
8.83375000000000e+01 8.43559333191794e-06 2.19514801302599e-07
8.86458333333333e+01 8.19624999863920e-06 2.13658406733290e-07
8.89541666666667e+01 7.96369756075566e-06 2.07956995774862e-07
8.92625000000000e+01 7.73774333999021e-06 2.02406509384337e-07
8.95708333333333e+01 7.51820012469151e-06 1.97002993206849e-07
8.98791666666667e+01 7.30488601546063e-06 1.91742595092845e-07
9.01875000000000e+01 7.09762427368582e-06 1.86621562669333e-07
9.04958333333333e+01 6.89624317514667e-06 1.81636240487104e-07
9.08041666666667e+01 6.70057586840465e-06 1.76783067714653e-07
9.11125000000000e+01 6.51046023587518e-06 1.72058575882632e-07
9.14208333333333e+01 6.32573875954233e-06 1.67459386242485e-07
9.17291666666667e+01 6.14625839105795e-06 1.62982207625099e-07
9.20375000000000e+01 5.97187042431324e-06 1.58623834346671e-07
9.23458333333333e+01 5.80243037226209e-06 1.54381143763508e-07
9.26541666666667e+01 5.63779784776088e-06 1.50251094284168e-07
9.29625000000000e+01 5.47783644668758e-06 1.46230723425700e-07
9.32708333333333e+01 5.32241363495471e-06 1.42317145550398e-07
9.35791666666667e+01 5.17140063920192e-06 1.38507550020910e-07
9.38875000000000e+01 5.02467233958941e-06 1.34799199396478e-07
9.41958333333333e+01 4.88210716615768e-06 1.31189427338469e-07
9.45041666666667e+01 4.74358699855821e-06 1.27675636898567e-07
9.48125000000000e+01 4.60899706772040e-06 1.24255298845340e-07
9.51208333333333e+01 4.47822586078488e-06 1.20925949726250e-07
9.54291666666667e+01 4.35116502912509e-06 1.17685190279702e-07
9.57375000000000e+01 4.22770929815319e-06 1.14530683882879e-07
9.60458333333333e+01 4.10775638011768e-06 1.11460154758804e-07
9.63541666666667e+01 3.99120688973041e-06 1.08471386503618e-07
9.66625000000000e+01 3.87796426143772e-06 1.05562220647217e-07
9.69708333333333e+01 3.76793466943182e-06 1.02730554994743e-07
9.72791666666667e+01 3.66102695025442e-06 9.99743422610249e-08
