Energy (eV)          EEDF (eV^-(3/2))     First Anisotropy
1.78600000000000e-04 2.69572603997505e+02 0.00000000000000e+00
5.35800000000000e-04 2.65873443494035e+02 0.00000000000000e+00
8.93000000000000e-04 2.62225044040673e+02 0.00000000000000e+00
1.25020000000000e-03 2.58626709078157e+02 0.00000000000000e+00
1.60740000000000e-03 2.55077751605701e+02 0.00000000000000e+00
1.96460000000000e-03 2.51577494049767e+02 0.00000000000000e+00
2.32180000000000e-03 2.48125268134702e+02 0.00000000000000e+00
2.67900000000000e-03 2.44720414755143e+02 0.00000000000000e+00
3.03620000000000e-03 2.41362283850178e+02 0.00000000000000e+00
3.39340000000000e-03 2.38050234279239e+02 0.00000000000000e+00
3.75060000000000e-03 2.34783633699689e+02 0.00000000000000e+00
4.10780000000000e-03 2.31561858446100e+02 0.00000000000000e+00
4.46500000000000e-03 2.28384293411175e+02 0.00000000000000e+00
4.82220000000000e-03 2.25250331928316e+02 0.00000000000000e+00
5.17940000000000e-03 2.22159375655796e+02 0.00000000000000e+00
5.53660000000000e-03 2.19110834462521e+02 0.00000000000000e+00
5.89380000000000e-03 2.16104126315362e+02 0.00000000000000e+00
6.25100000000000e-03 2.13138677168036e+02 0.00000000000000e+00
6.60820000000000e-03 2.10213920851500e+02 0.00000000000000e+00
6.96540000000000e-03 2.07329298965866e+02 0.00000000000000e+00
7.32260000000000e-03 2.04484260773783e+02 0.00000000000000e+00
7.67980000000000e-03 2.01678263095292e+02 0.00000000000000e+00
8.03700000000000e-03 1.98910770204123e+02 0.00000000000000e+00
8.39420000000000e-03 1.96181253725409e+02 0.00000000000000e+00
8.75140000000000e-03 1.93489192534813e+02 0.00000000000000e+00
9.10860000000000e-03 1.90834072659028e+02 0.00000000000000e+00
9.46580000000000e-03 1.88215387177652e+02 0.00000000000000e+00
9.82300000000000e-03 1.85632636126407e+02 0.00000000000000e+00
1.01802000000000e-02 1.83085326401679e+02 0.00000000000000e+00
1.05374000000000e-02 1.80572971666382e+02 0.00000000000000e+00
1.08946000000000e-02 1.78095092257098e+02 0.00000000000000e+00
1.12518000000000e-02 1.75651215092505e+02 0.00000000000000e+00
1.16090000000000e-02 1.73240873583048e+02 0.00000000000000e+00
1.19662000000000e-02 1.70863607541867e+02 0.00000000000000e+00
1.23234000000000e-02 1.68518963096927e+02 0.00000000000000e+00
1.26806000000000e-02 1.66206492604371e+02 0.00000000000000e+00
1.30378000000000e-02 1.63925754563051e+02 0.00000000000000e+00
1.33950000000000e-02 1.61676313530240e+02 0.00000000000000e+00
1.37522000000000e-02 1.59457740038491e+02 0.00000000000000e+00
1.41094000000000e-02 1.57269610513646e+02 0.00000000000000e+00
1.44666000000000e-02 1.55111507193965e+02 0.00000000000000e+00
1.48238000000000e-02 1.52983018050369e+02 0.00000000000000e+00
1.51810000000000e-02 1.50883736707769e+02 0.00000000000000e+00
1.55382000000000e-02 1.48813262367486e+02 0.00000000000000e+00
1.58954000000000e-02 1.46771199730726e+02 0.00000000000000e+00
1.62526000000000e-02 1.44757158923110e+02 0.00000000000000e+00
1.66098000000000e-02 1.42770755420239e+02 0.00000000000000e+00
1.69670000000000e-02 1.40811609974279e+02 0.00000000000000e+00
1.73242000000000e-02 1.38879348541556e+02 0.00000000000000e+00
1.76814000000000e-02 1.36973602211138e+02 0.00000000000000e+00
1.80386000000000e-02 1.35094007134410e+02 0.00000000000000e+00
1.83958000000000e-02 1.33240204455599e+02 0.00000000000000e+00
1.87530000000000e-02 1.31411840243268e+02 0.00000000000000e+00
1.91102000000000e-02 1.29608565422735e+02 0.00000000000000e+00
1.94674000000000e-02 1.27830035709434e+02 0.00000000000000e+00
1.98246000000000e-02 1.26075911543180e+02 0.00000000000000e+00
2.01818000000000e-02 1.24345858023339e+02 0.00000000000000e+00
2.05390000000000e-02 1.22639544844893e+02 0.00000000000000e+00
2.08962000000000e-02 1.20956646235368e+02 0.00000000000000e+00
2.12534000000000e-02 1.19296840892649e+02 0.00000000000000e+00
2.16106000000000e-02 1.17659811923626e+02 0.00000000000000e+00
2.19678000000000e-02 1.16045246783699e+02 0.00000000000000e+00
2.23250000000000e-02 1.14452837217101e+02 0.00000000000000e+00
2.26822000000000e-02 1.12882279198051e+02 0.00000000000000e+00
2.30394000000000e-02 1.11333272872705e+02 0.00000000000000e+00
2.33966000000000e-02 1.09805522501907e+02 0.00000000000000e+00
2.37538000000000e-02 1.08298736404729e+02 0.00000000000000e+00
2.41110000000000e-02 1.06812626902780e+02 0.00000000000000e+00
2.44682000000000e-02 1.05346910265282e+02 0.00000000000000e+00
2.48254000000000e-02 1.03901306654902e+02 0.00000000000000e+00
2.51826000000000e-02 1.02475540074323e+02 0.00000000000000e+00
2.55398000000000e-02 1.01069338313550e+02 0.00000000000000e+00
2.58970000000000e-02 9.96824328979391e+01 0.00000000000000e+00
2.62542000000000e-02 9.83145590369418e+01 0.00000000000000e+00
2.66114000000000e-02 9.69654555735483e+01 0.00000000000000e+00
2.69686000000000e-02 9.56348649344278e+01 0.00000000000000e+00
2.73258000000000e-02 9.43225330807526e+01 0.00000000000000e+00
2.76830000000000e-02 9.30282094596959e+01 0.00000000000000e+00
2.80402000000000e-02 9.17516469565959e+01 0.00000000000000e+00
2.83974000000000e-02 9.04926018477764e+01 0.00000000000000e+00
2.87546000000000e-02 8.92508337540148e+01 0.00000000000000e+00
2.91118000000000e-02 8.80261055946477e+01 0.00000000000000e+00
2.94690000000000e-02 8.68181835423080e+01 0.00000000000000e+00
2.98262000000000e-02 8.56268369782813e+01 0.00000000000000e+00
3.01834000000000e-02 8.44518384484764e+01 0.00000000000000e+00
3.05406000000000e-02 8.32929636199988e+01 0.00000000000000e+00
3.08978000000000e-02 8.21499912383211e+01 0.00000000000000e+00
3.12550000000000e-02 8.10227030850404e+01 0.00000000000000e+00
3.16122000000000e-02 7.99108839362158e+01 0.00000000000000e+00
3.19694000000000e-02 7.88143215212771e+01 0.00000000000000e+00
3.23266000000000e-02 7.77328064824983e+01 0.00000000000000e+00
3.26838000000000e-02 7.66661323350262e+01 0.00000000000000e+00
3.30410000000000e-02 7.56140954274579e+01 0.00000000000000e+00
3.33982000000000e-02 7.45764949029597e+01 0.00000000000000e+00
3.37554000000000e-02 7.35531326609186e+01 0.00000000000000e+00
3.41126000000000e-02 7.25438133191210e+01 0.00000000000000e+00
3.44698000000000e-02 7.15483441764499e+01 0.00000000000000e+00
3.48270000000000e-02 7.05665351760938e+01 0.00000000000000e+00
3.51842000000000e-02 6.95981988692609e+01 0.00000000000000e+00
3.55414000000000e-02 6.86431503793909e+01 0.00000000000000e+00
3.58986000000000e-02 6.77012073668582e+01 0.00000000000000e+00
3.62558000000000e-02 6.67721899941594e+01 0.00000000000000e+00
3.66130000000000e-02 6.58559208915778e+01 0.00000000000000e+00
3.69702000000000e-02 6.49522251233202e+01 0.00000000000000e+00
3.73274000000000e-02 6.40609301541177e+01 0.00000000000000e+00
3.76846000000000e-02 6.31818658162850e+01 0.00000000000000e+00
3.80418000000000e-02 6.23148642772313e+01 0.00000000000000e+00
3.83990000000000e-02 6.14597600074180e+01 0.00000000000000e+00
3.87562000000000e-02 6.06163897487548e+01 0.00000000000000e+00
3.91134000000000e-02 5.97845924834309e+01 0.00000000000000e+00
3.94706000000000e-02 5.89642094031726e+01 0.00000000000000e+00
3.98278000000000e-02 5.81550838789236e+01 0.00000000000000e+00
4.01850000000000e-02 5.73570614309410e+01 0.00000000000000e+00
4.05422000000000e-02 5.65699896993018e+01 0.00000000000000e+00
4.08994000000000e-02 5.57937184148140e+01 0.00000000000000e+00
4.12566000000000e-02 5.50280993703270e+01 0.00000000000000e+00
4.16138000000000e-02 5.42729863924356e+01 0.00000000000000e+00
4.19710000000000e-02 5.35282353135722e+01 0.00000000000000e+00
4.23282000000000e-02 5.27937039444823e+01 0.00000000000000e+00
4.26854000000000e-02 5.20692520470771e+01 0.00000000000000e+00
4.30426000000000e-02 5.13547413076593e+01 0.00000000000000e+00
4.33998000000000e-02 5.06500353105160e+01 0.00000000000000e+00
4.37570000000000e-02 4.99549995118736e+01 0.00000000000000e+00
4.41142000000000e-02 4.92695012142109e+01 0.00000000000000e+00
4.44714000000000e-02 4.85934095409239e+01 0.00000000000000e+00
4.48286000000000e-02 4.79265954113389e+01 0.00000000000000e+00
4.51858000000000e-02 4.72689315160678e+01 0.00000000000000e+00
4.55430000000000e-02 4.66202922927024e+01 0.00000000000000e+00
4.59002000000000e-02 4.59805539018415e+01 0.00000000000000e+00
4.62574000000000e-02 4.53495942034472e+01 0.00000000000000e+00
4.66146000000000e-02 4.47272927335259e+01 0.00000000000000e+00
4.69718000000000e-02 4.41135306811290e+01 0.00000000000000e+00
4.73290000000000e-02 4.35081908656693e+01 0.00000000000000e+00
4.76862000000000e-02 4.29111577145488e+01 0.00000000000000e+00
4.80434000000000e-02 4.23223172410929e+01 0.00000000000000e+00
4.84006000000000e-02 4.17415570227886e+01 0.00000000000000e+00
4.87578000000000e-02 4.11687661798198e+01 0.00000000000000e+00
4.91150000000000e-02 4.06038353538985e+01 0.00000000000000e+00
4.94722000000000e-02 4.00466566873857e+01 0.00000000000000e+00
4.98294000000000e-02 3.94971238026990e+01 0.00000000000000e+00
5.01866000000000e-02 3.89551317820027e+01 0.00000000000000e+00
5.05438000000000e-02 3.84205771471769e+01 0.00000000000000e+00
5.09010000000000e-02 3.78933578400614e+01 0.00000000000000e+00
5.12582000000000e-02 3.73733732029699e+01 0.00000000000000e+00
5.16154000000000e-02 3.68605239594731e+01 0.00000000000000e+00
5.19726000000000e-02 3.63547121954440e+01 0.00000000000000e+00
5.23298000000000e-02 3.58558413403643e+01 0.00000000000000e+00
5.26870000000000e-02 3.53638161488869e+01 0.00000000000000e+00
5.30442000000000e-02 3.48785426826514e+01 0.00000000000000e+00
5.34014000000000e-02 3.43999282923494e+01 0.00000000000000e+00
5.37586000000000e-02 3.39278816000354e+01 0.00000000000000e+00
5.41158000000000e-02 3.34623124816813e+01 0.00000000000000e+00
5.44730000000000e-02 3.30031320499690e+01 0.00000000000000e+00
5.48302000000000e-02 3.25502526373205e+01 0.00000000000000e+00
5.51874000000000e-02 3.21035877791601e+01 0.00000000000000e+00
5.55446000000000e-02 3.16630521974062e+01 0.00000000000000e+00
5.59018000000000e-02 3.12285617841900e+01 0.00000000000000e+00
5.62590000000000e-02 3.08000335857976e+01 0.00000000000000e+00
5.66162000000000e-02 3.03773857868321e+01 0.00000000000000e+00
5.69734000000000e-02 2.99605376945932e+01 0.00000000000000e+00
5.73306000000000e-02 2.95494097236717e+01 0.00000000000000e+00
5.76878000000000e-02 2.91439233807541e+01 0.00000000000000e+00
5.80450000000000e-02 2.87440012496375e+01 0.00000000000000e+00
5.84022000000000e-02 2.83495669764480e+01 0.00000000000000e+00
5.87594000000000e-02 2.79605452550643e+01 0.00000000000000e+00
5.91166000000000e-02 2.75768618127391e+01 0.00000000000000e+00
5.94738000000000e-02 2.71984433959194e+01 0.00000000000000e+00
5.98310000000000e-02 2.68252177562605e+01 0.00000000000000e+00
6.01882000000000e-02 2.64571136368324e+01 0.00000000000000e+00
6.05454000000000e-02 2.60940607585152e+01 0.00000000000000e+00
6.09026000000000e-02 2.57359898065814e+01 0.00000000000000e+00
6.12598000000000e-02 2.53828324174619e+01 0.00000000000000e+00
6.16170000000000e-02 2.50345211656943e+01 0.00000000000000e+00
6.19742000000000e-02 2.46909895510497e+01 0.00000000000000e+00
6.23314000000000e-02 2.43521719858362e+01 0.00000000000000e+00
6.26886000000000e-02 2.40180037823771e+01 0.00000000000000e+00
6.30458000000000e-02 2.36884211406605e+01 0.00000000000000e+00
6.34030000000000e-02 2.33633611361582e+01 0.00000000000000e+00
6.37602000000000e-02 2.30427617078125e+01 0.00000000000000e+00
6.41174000000000e-02 2.27265616461870e+01 0.00000000000000e+00
6.44746000000000e-02 2.24147005817807e+01 0.00000000000000e+00
6.48318000000000e-02 2.21071189735018e+01 0.00000000000000e+00
6.51890000000000e-02 2.18037580973004e+01 0.00000000000000e+00
6.55462000000000e-02 2.15045600349564e+01 0.00000000000000e+00
6.59034000000000e-02 2.12094676630218e+01 0.00000000000000e+00
6.62606000000000e-02 2.09184246419148e+01 0.00000000000000e+00
6.66178000000000e-02 2.06313754051630e+01 0.00000000000000e+00
6.69750000000000e-02 2.03482651487948e+01 0.00000000000000e+00
6.73322000000000e-02 2.00690398208760e+01 0.00000000000000e+00
6.76894000000000e-02 1.97936461111900e+01 0.00000000000000e+00
6.80466000000000e-02 1.95220314410600e+01 0.00000000000000e+00
6.84038000000000e-02 1.92541439533105e+01 0.00000000000000e+00
6.87610000000000e-02 1.89899325023664e+01 0.00000000000000e+00
6.91182000000000e-02 1.87293466444883e+01 0.00000000000000e+00
6.94754000000000e-02 1.84723366281419e+01 0.00000000000000e+00
6.98326000000000e-02 1.82188533844991e+01 0.00000000000000e+00
7.01898000000000e-02 1.79688485180698e+01 0.00000000000000e+00
7.05470000000000e-02 1.77222742974621e+01 0.00000000000000e+00
7.09042000000000e-02 1.74790836462695e+01 0.00000000000000e+00
7.12614000000000e-02 1.72392301340825e+01 0.00000000000000e+00
7.16186000000000e-02 1.70026679676246e+01 0.00000000000000e+00
7.19758000000000e-02 1.67693519820092e+01 0.00000000000000e+00
7.23330000000000e-02 1.65392376321163e+01 0.00000000000000e+00
7.26902000000000e-02 1.63122809840883e+01 0.00000000000000e+00
7.30474000000000e-02 1.60884387069418e+01 0.00000000000000e+00
7.34046000000000e-02 1.58676680642949e+01 0.00000000000000e+00
7.37618000000000e-02 1.56499269062079e+01 0.00000000000000e+00
7.41190000000000e-02 1.54351736611358e+01 0.00000000000000e+00
7.44762000000000e-02 1.52233673279914e+01 0.00000000000000e+00
7.48334000000000e-02 1.50144674683177e+01 0.00000000000000e+00
7.51906000000000e-02 1.48084341985666e+01 0.00000000000000e+00
7.55478000000000e-02 1.46052281824849e+01 0.00000000000000e+00
7.59050000000000e-02 1.44048106236040e+01 0.00000000000000e+00
7.62622000000000e-02 1.42071432578323e+01 0.00000000000000e+00
7.66194000000000e-02 1.40121883461507e+01 0.00000000000000e+00
7.69766000000000e-02 1.38199086674063e+01 0.00000000000000e+00
7.73338000000000e-02 1.36302675112072e+01 0.00000000000000e+00
7.76910000000000e-02 1.34432286709125e+01 0.00000000000000e+00
7.80482000000000e-02 1.32587564367208e+01 0.00000000000000e+00
7.84054000000000e-02 1.30768155888515e+01 0.00000000000000e+00
7.87626000000000e-02 1.28973713908213e+01 0.00000000000000e+00
7.91198000000000e-02 1.27203895828117e+01 0.00000000000000e+00
7.94770000000000e-02 1.25458363751282e+01 0.00000000000000e+00
7.98342000000000e-02 1.23736784417493e+01 0.00000000000000e+00
8.01914000000000e-02 1.22038829139638e+01 0.00000000000000e+00
8.05486000000000e-02 1.20364173740950e+01 0.00000000000000e+00
8.09058000000000e-02 1.18712498493123e+01 0.00000000000000e+00
8.12630000000000e-02 1.17083488055259e+01 0.00000000000000e+00
8.16202000000000e-02 1.15476831413670e+01 0.00000000000000e+00
8.19774000000000e-02 1.13892221822497e+01 0.00000000000000e+00
8.23346000000000e-02 1.12329356745143e+01 0.00000000000000e+00
8.26918000000000e-02 1.10787937796514e+01 0.00000000000000e+00
8.30490000000000e-02 1.09267670686052e+01 0.00000000000000e+00
8.34062000000000e-02 1.07768265161544e+01 0.00000000000000e+00
8.37634000000000e-02 1.06289434953714e+01 0.00000000000000e+00
8.41206000000000e-02 1.04830897721560e+01 0.00000000000000e+00
8.44778000000000e-02 1.03392374998454e+01 0.00000000000000e+00
8.48350000000000e-02 1.01973592138974e+01 0.00000000000000e+00
8.51922000000000e-02 1.00574278266472e+01 0.00000000000000e+00
8.55494000000000e-02 9.91941662213510e+00 0.00000000000000e+00
8.59066000000000e-02 9.78329925100661e+00 0.00000000000000e+00
8.62638000000000e-02 9.64904972548120e+00 0.00000000000000e+00
8.66210000000000e-02 9.51664241439097e+00 0.00000000000000e+00
8.69782000000000e-02 9.38605203828697e+00 0.00000000000000e+00
8.73354000000000e-02 9.25725366461286e+00 0.00000000000000e+00
8.76926000000000e-02 9.13022270294471e+00 0.00000000000000e+00
8.80498000000000e-02 9.00493490029618e+00 0.00000000000000e+00
8.84070000000000e-02 8.88136633648806e+00 0.00000000000000e+00
8.87642000000000e-02 8.75949341958141e+00 0.00000000000000e+00
8.91214000000000e-02 8.63929288137333e+00 0.00000000000000e+00
8.94786000000000e-02 8.52074177295456e+00 0.00000000000000e+00
8.98358000000000e-02 8.40381746032802e+00 0.00000000000000e+00
9.01930000000000e-02 8.28849762008752e+00 0.00000000000000e+00
9.05502000000000e-02 8.17476023515568e+00 0.00000000000000e+00
9.09074000000000e-02 8.06258359058041e+00 0.00000000000000e+00
9.12646000000000e-02 7.95194626938911e+00 0.00000000000000e+00
9.16218000000000e-02 7.84282714849959e+00 0.00000000000000e+00
9.19790000000000e-02 7.73520539468729e+00 0.00000000000000e+00
9.23362000000000e-02 7.62906046060778e+00 0.00000000000000e+00
9.26934000000000e-02 7.52437208087373e+00 0.00000000000000e+00
9.30506000000000e-02 7.42112026818590e+00 0.00000000000000e+00
9.34078000000000e-02 7.31928530951709e+00 0.00000000000000e+00
9.37650000000000e-02 7.21884776234847e+00 0.00000000000000e+00
9.41222000000000e-02 7.11978845095762e+00 0.00000000000000e+00
9.44794000000000e-02 7.02208846275743e+00 0.00000000000000e+00
9.48366000000000e-02 6.92572914468530e+00 0.00000000000000e+00
9.51938000000000e-02 6.83069209964185e+00 0.00000000000000e+00
9.55510000000000e-02 6.73695918297852e+00 0.00000000000000e+00
9.59082000000000e-02 6.64451249903335e+00 0.00000000000000e+00
9.62654000000000e-02 6.55333439771430e+00 0.00000000000000e+00
9.66226000000000e-02 6.46340747112949e+00 0.00000000000000e+00
9.69798000000000e-02 6.37471455026364e+00 0.00000000000000e+00
9.73370000000000e-02 6.28723870170011e+00 0.00000000000000e+00
9.76942000000000e-02 6.20096322438796e+00 0.00000000000000e+00
9.80514000000000e-02 6.11587164645336e+00 0.00000000000000e+00
9.84086000000000e-02 6.03194772205473e+00 0.00000000000000e+00
9.87658000000000e-02 5.94917542828107e+00 0.00000000000000e+00
9.91230000000000e-02 5.86753896209284e+00 0.00000000000000e+00
9.94802000000000e-02 5.78702273730480e+00 0.00000000000000e+00
9.98374000000000e-02 5.70761138161025e+00 0.00000000000000e+00
1.00194600000000e-01 5.62928973364617e+00 0.00000000000000e+00
1.00551800000000e-01 5.55204284009855e+00 0.00000000000000e+00
1.00909000000000e-01 5.47585595284748e+00 0.00000000000000e+00
1.01266200000000e-01 5.40071452615141e+00 0.00000000000000e+00
1.01623400000000e-01 5.32660421387007e+00 0.00000000000000e+00
1.01980600000000e-01 5.25351086672543e+00 0.00000000000000e+00
1.02337800000000e-01 5.18142052960037e+00 0.00000000000000e+00
1.02695000000000e-01 5.11031943887427e+00 0.00000000000000e+00
1.03052200000000e-01 5.04019401979528e+00 0.00000000000000e+00
1.03409400000000e-01 4.97103088388856e+00 0.00000000000000e+00
1.03766600000000e-01 4.90281682640019e+00 0.00000000000000e+00
1.04123800000000e-01 4.83553882377603e+00 0.00000000000000e+00
1.04481000000000e-01 4.76918403117529e+00 0.00000000000000e+00
1.04838200000000e-01 4.70373978001813e+00 0.00000000000000e+00
1.05195400000000e-01 4.63919357556697e+00 0.00000000000000e+00
1.05552600000000e-01 4.57553309454098e+00 0.00000000000000e+00
1.05909800000000e-01 4.51274618276327e+00 0.00000000000000e+00
1.06267000000000e-01 4.45082085284043e+00 0.00000000000000e+00
1.06624200000000e-01 4.38974528187383e+00 0.00000000000000e+00
1.06981400000000e-01 4.32950780920241e+00 0.00000000000000e+00
1.07338600000000e-01 4.27009693417637e+00 0.00000000000000e+00
1.07695800000000e-01 4.21150131396148e+00 0.00000000000000e+00
1.08053000000000e-01 4.15370976137346e+00 0.00000000000000e+00
1.08410200000000e-01 4.09671124274212e+00 0.00000000000000e+00
1.08767400000000e-01 4.04049487580475e+00 0.00000000000000e+00
1.09124600000000e-01 3.98504992762853e+00 0.00000000000000e+00
1.09481800000000e-01 3.93036581256131e+00 0.00000000000000e+00
1.09839000000000e-01 3.87643209021061e+00 0.00000000000000e+00
1.10196200000000e-01 3.82323846345033e+00 0.00000000000000e+00
1.10553400000000e-01 3.77077477645479e+00 0.00000000000000e+00
1.10910600000000e-01 3.71903101275973e+00 0.00000000000000e+00
1.11267800000000e-01 3.66799729335001e+00 0.00000000000000e+00
1.11625000000000e-01 3.61766387477345e+00 0.00000000000000e+00
1.11982200000000e-01 3.56802114728061e+00 0.00000000000000e+00
1.12339400000000e-01 3.51905963299005e+00 0.00000000000000e+00
1.12696600000000e-01 3.47076998407884e+00 0.00000000000000e+00
