Energy (eV)          EEDF (eV^-(3/2))     First Anisotropy
3.48039215686275e-02 3.40694147103264e-02 1.78907758250903e-05
1.04411764705882e-01 3.38397197419746e-02 2.95424838293708e-05
1.74019607843137e-01 3.36115733705264e-02 3.89987055125721e-05
2.43627450980392e-01 3.33849651550961e-02 4.61822341970905e-05
3.13235294117647e-01 3.31598847246353e-02 5.21730259711761e-05
3.82843137254902e-01 3.29363217798773e-02 5.73793162468260e-05
4.52450980392157e-01 3.27142660898947e-02 6.20123269892783e-05
5.22058823529412e-01 3.24937074927778e-02 6.61995850270492e-05
5.91666666666667e-01 3.22746358951386e-02 7.00256526855171e-05
6.61274509803922e-01 3.20570412716564e-02 7.35502857821314e-05
7.30882352941177e-01 3.18409136646075e-02 7.68177105026166e-05
8.00490196078431e-01 3.16262431831255e-02 7.98618353515258e-05
8.70098039215686e-01 3.14130200036184e-02 8.27093933587157e-05
9.39705882352941e-01 3.12012343684109e-02 8.53819427010755e-05
1.00931372549020e+00 3.09908765856159e-02 8.78971972381401e-05
1.07892156862745e+00 3.07819370280614e-02 9.02699434125937e-05
1.14852941176471e+00 3.05744061353646e-02 9.25126918691568e-05
1.21813725490196e+00 3.03682744102170e-02 9.46361522159162e-05
1.28774509803922e+00 3.01635324178033e-02 9.66495853403985e-05
1.35735294117647e+00 2.99601707902747e-02 9.85610719713882e-05
1.42696078431373e+00 2.97581802211608e-02 1.00377719983608e-04
1.49656862745098e+00 2.95575514654185e-02 1.02105825181860e-04
1.56617647058824e+00 2.93582753431587e-02 1.03751000309714e-04
1.63578431372549e+00 2.91603427349041e-02 1.05318278652458e-04
1.70539215686275e+00 2.89637445815103e-02 1.06812196683315e-04
1.77500000000000e+00 2.87684718873360e-02 1.08236863124760e-04
1.84460784313726e+00 2.85745157161299e-02 1.09596015922057e-04
1.91421568627451e+00 2.83818671918952e-02 1.10893069098717e-04
1.98382352941176e+00 2.81905174975281e-02 1.12131152140387e-04
2.05343137254902e+00 2.80004578773455e-02 1.13313143789691e-04
2.12303921568627e+00 2.78116796336720e-02 1.14441700956777e-04
2.19264705882353e+00 2.76241741266299e-02 1.15519282280210e-04
2.26225490196078e+00 2.74379327763462e-02 1.16548169534121e-04
2.33186274509804e+00 2.72529470598837e-02 1.17530486160310e-04
2.40147058823529e+00 2.70692085110131e-02 1.18468212264365e-04
2.47107843137255e+00 2.68867087221555e-02 1.19363198779368e-04
2.54068627450980e+00 2.67054393416024e-02 1.20217179894985e-04
2.61029411764706e+00 2.65253920732702e-02 1.21031782950432e-04
2.67990196078431e+00 2.63465586784252e-02 1.21808538189996e-04
2.74950980392157e+00 2.61689309731482e-02 1.22548887423107e-04
2.81911764705882e+00 2.59925008280729e-02 1.23254190736847e-04
2.88872549019608e+00 2.58172601699284e-02 1.23925733448763e-04
2.95833333333333e+00 2.56432009792133e-02 1.24564732238722e-04
3.02794117647059e+00 2.54703152904958e-02 1.25172340215763e-04
3.09754901960784e+00 2.52985951914990e-02 1.25749651507654e-04
3.16715686274510e+00 2.51280328244137e-02 1.26297705776980e-04
3.23676470588235e+00 2.49586203838331e-02 1.26817492417507e-04
3.30637254901961e+00 2.47903501164708e-02 1.27309953492576e-04
3.37598039215686e+00 2.46232143223464e-02 1.27775987250216e-04
3.44558823529412e+00 2.44572053528630e-02 1.28216451332327e-04
3.51519607843137e+00 2.42923156105265e-02 1.28632164877689e-04
3.58480392156863e+00 2.41285375500188e-02 1.29023911252704e-04
3.65441176470588e+00 2.39658636764025e-02 1.29392440558518e-04
3.72401960784314e+00 2.38042865448420e-02 1.29738471144246e-04
3.79362745098039e+00 2.36437987615773e-02 1.30062691770713e-04
3.86323529411765e+00 2.34843929822452e-02 1.30365763607673e-04
3.93284313725490e+00 2.33260619115977e-02 1.30648321322839e-04
4.00245098039216e+00 2.31687983043914e-02 1.30910974826763e-04
4.07205882352941e+00 2.30125949638118e-02 1.31154310892367e-04
4.14166666666667e+00 2.28574447411908e-02 1.31378893933805e-04
4.21127450980392e+00 2.27033405368207e-02 1.31585267436617e-04
4.28088235294118e+00 2.25502752984712e-02 1.31773955216650e-04
4.35049019607843e+00 2.23982420214581e-02 1.31945462271005e-04
4.42009803921569e+00 2.22472337479838e-02 1.32100275590457e-04
4.48970588235294e+00 2.20972435678507e-02 1.32238865199386e-04
4.55931372549020e+00 2.19482646170973e-02 1.32361685205843e-04
4.62892156862745e+00 2.18002900777227e-02 1.32469174136003e-04
4.69852941176471e+00 2.16533131783389e-02 1.32561755883353e-04
4.76813725490196e+00 2.15073271928810e-02 1.32639840600612e-04
4.83774509803922e+00 2.13623254403339e-02 1.32703824914838e-04
4.90735294117647e+00 2.12183012853324e-02 1.32754092741204e-04
4.97696078431373e+00 2.10752481369379e-02 1.32791016049656e-04
5.04656862745098e+00 2.09331594483676e-02 1.32814954988784e-04
5.11617647058824e+00 2.07920287175480e-02 1.32826258590764e-04
5.18578431372549e+00 2.06518494859518e-02 1.32825265437751e-04
5.25539215686275e+00 2.05126153383310e-02 1.32812303715484e-04
5.32500000000000e+00 2.03743199032266e-02 1.32787691829915e-04
5.39460784313725e+00 2.02369568518630e-02 1.32751738931973e-04
5.46421568627451e+00 2.01005198981330e-02 1.32704745158209e-04
5.53382352941177e+00 1.99650027980678e-02 1.32647001873482e-04
5.60343137254902e+00 1.98303993502881e-02 1.32578792128659e-04
5.67303921568627e+00 1.96967033949738e-02 1.32500391157084e-04
5.74264705882353e+00 1.95639088136050e-02 1.32412066323183e-04
5.81225490196078e+00 1.94320095293788e-02 1.32314077588391e-04
5.88186274509804e+00 1.93009995062250e-02 1.32206677954971e-04
5.95147058823529e+00 1.91708727485517e-02 1.32090113384425e-04
6.02107843137255e+00 1.90416233016304e-02 1.31964623216725e-04
6.09068627450980e+00 1.89132452506547e-02 1.31830440569962e-04
6.16029411764706e+00 1.87857327204905e-02 1.31687792235447e-04
6.22990196078431e+00 1.86590798760316e-02 1.31536899057200e-04
6.29950980392157e+00 1.85332809212997e-02 1.31377976294395e-04
6.36911764705882e+00 1.84083300991976e-02 1.31211233498506e-04
6.43872549019608e+00 1.82842216918389e-02 1.31036874858729e-04
6.50833333333333e+00 1.81609500196860e-02 1.30855099483603e-04
6.57794117647059e+00 1.80385094414929e-02 1.30666101461554e-04
6.64754901960784e+00 1.79168943538652e-02 1.30470069930596e-04
6.71715686274510e+00 1.77960991915541e-02 1.30267189332444e-04
6.78676470588235e+00 1.76761184266454e-02 1.30057639706645e-04
6.85637254901961e+00 1.75569465683213e-02 1.29841596542848e-04
6.92598039215686e+00 1.74385781631328e-02 1.29619231063204e-04
6.99558823529412e+00 1.73210077942207e-02 1.29390710493666e-04
7.06519607843137e+00 1.72042300810819e-02 1.29156197909181e-04
7.13480392156863e+00 1.70882396798217e-02 1.28915852495346e-04
7.20441176470588e+00 1.69730312824045e-02 1.28669829799701e-04
7.27401960784314e+00 1.68585996164256e-02 1.28418281571896e-04
7.34362745098039e+00 1.67449394453434e-02 1.28161356007001e-04
7.41323529411765e+00 1.66320455677605e-02 1.27899197979347e-04
7.48284313725490e+00 1.65199128171981e-02 1.27631948879293e-04
7.55245098039216e+00 1.64085360623116e-02 1.27359746840094e-04
7.62205882352941e+00 1.62979102061992e-02 1.27082726956438e-04
7.69166666666667e+00 1.61880301861795e-02 1.26801021119115e-04
7.76127450980392e+00 1.60788909739923e-02 1.26514758227224e-04
7.83088235294118e+00 1.59704875751318e-02 1.26224064353606e-04
7.90049019607843e+00 1.58628150287649e-02 1.25929062736707e-04
7.97009803921569e+00 1.57558684073713e-02 1.25629873781946e-04
8.03970588235294e+00 1.56496428169215e-02 1.25326615214580e-04
8.10931372549020e+00 1.55441333962448e-02 1.25019402267549e-04
8.17892156862745e+00 1.54393353168174e-02 1.24708347516479e-04
8.24852941176471e+00 1.53352437829268e-02 1.24393561063132e-04
8.31813725490196e+00 1.52318540310626e-02 1.24075150712402e-04
8.38774509803922e+00 1.51291613297083e-02 1.23753221807984e-04
8.45735294117647e+00 1.50271609794936e-02 1.23427877405701e-04
8.52696078431373e+00 1.49258483126063e-02 1.23099218440795e-04
8.59656862745098e+00 1.48252186925883e-02 1.22767343564787e-04
8.66617647058824e+00 1.47252675144760e-02 1.22432349309481e-04
8.73578431372549e+00 1.46259902042331e-02 1.22094330245553e-04
8.80539215686275e+00 1.45273822185499e-02 1.21753378820967e-04
8.87500000000000e+00 1.44294390449729e-02 1.21409585516475e-04
8.94460784313726e+00 1.43321562013579e-02 1.21063038963090e-04
9.01421568627451e+00 1.42355292357788e-02 1.20713825915296e-04
9.08382352941176e+00 1.41395537262198e-02 1.20362031232725e-04
9.15343137254902e+00 1.40442252806898e-02 1.20007737989961e-04
9.22303921568627e+00 1.39495395367014e-02 1.19651027616880e-04
9.29264705882353e+00 1.38554921610785e-02 1.19291979743083e-04
9.36225490196079e+00 1.37620788500625e-02 1.18930672335869e-04
9.43186274509804e+00 1.36692953288077e-02 1.18567181833879e-04
9.50147058823529e+00 1.35771373511930e-02 1.18201582993936e-04
9.57107843137255e+00 1.34856006999194e-02 1.17833949022746e-04
9.64068627450980e+00 1.33946811860223e-02 1.17464351704416e-04
9.71029411764706e+00 1.33043746486866e-02 1.17092861249875e-04
9.77990196078431e+00 1.32146769553362e-02 1.16719546422667e-04
9.84950980392157e+00 1.31255840011624e-02 1.16344474660848e-04
9.91911764705882e+00 1.30370917089419e-02 1.15967711929125e-04
9.98872549019608e+00 1.29491960291196e-02 1.15589322810899e-04
1.00583333333333e+01 1.28618929394380e-02 1.15209370850804e-04
1.01279411764706e+01 1.27751784440702e-02 1.14827917816396e-04
1.01975490196078e+01 1.26890485755901e-02 1.14445024267510e-04
1.02671568627451e+01 1.26034993924475e-02 1.14060750282264e-04
1.03367647058824e+01 1.25185269788522e-02 1.13675153887090e-04
1.04063725490196e+01 1.24341274470615e-02 1.13288292190885e-04
1.04759803921569e+01 1.23502969339164e-02 1.12900221158134e-04
1.05455882352941e+01 1.22670316039106e-02 1.12510995599750e-04
1.06151960784314e+01 1.21843276458084e-02 1.12120669230501e-04
1.06848039215686e+01 1.21021812756388e-02 1.11729294402811e-04
1.07544117647059e+01 1.20205887341487e-02 1.11336923189945e-04
1.08240196078431e+01 1.19395462866890e-02 1.10943605839083e-04
1.08936274509804e+01 1.18590502252890e-02 1.10549391825201e-04
1.09632352941176e+01 1.17790968654952e-02 1.10154329637141e-04
1.10328431372549e+01 1.16996825491588e-02 1.09758466766867e-04
1.11024509803922e+01 1.16208036413471e-02 1.09361849760520e-04
1.11720588235294e+01 1.15424565330639e-02 1.08964523968149e-04
1.12416666666667e+01 1.14646376389223e-02 1.08566534551430e-04
1.13112745098039e+01 1.13873433970318e-02 1.08167925039336e-04
1.13808823529412e+01 1.13105702708837e-02 1.07768738308659e-04
1.14504901960784e+01 1.12343147464607e-02 1.07369016382622e-04
1.15200980392157e+01 1.11585733347728e-02 1.06968800419127e-04
1.15897058823529e+01 1.10833425690321e-02 1.06568130756412e-04
1.16593137254902e+01 1.10086190071291e-02 1.06167046677834e-04
1.17289215686275e+01 1.09343992295015e-02 1.05765587350660e-04
1.17985294117647e+01 1.08606798390233e-02 1.05363790476465e-04
1.18681372549020e+01 1.07874574627218e-02 1.04961693204582e-04
1.19377450980392e+01 1.07147287491292e-02 1.04559331942664e-04
1.20073529411765e+01 1.06424903705947e-02 1.04156742344298e-04
1.20769607843137e+01 1.05707390206948e-02 1.03753959350072e-04
1.21465686274510e+01 1.04994714164917e-02 1.03351016966583e-04
1.22161764705882e+01 1.04286842965782e-02 1.02947949141991e-04
1.22857843137255e+01 1.03583744209692e-02 1.02544788504051e-04
1.23553921568627e+01 1.02885385726678e-02 1.02141567212039e-04
1.24250000000000e+01 1.02191735552346e-02 1.01738316778597e-04
1.24946078431373e+01 1.01502761948993e-02 1.01335068057070e-04
1.25642156862745e+01 1.00818433381826e-02 1.00931851278598e-04
1.26338235294118e+01 1.00138718539601e-02 1.00528696039444e-04
1.27034313725490e+01 9.94635863113513e-03 1.00125631337248e-04
1.27730392156863e+01 9.87930058065579e-03 9.97226853663503e-05
1.28426470588235e+01 9.81269463375668e-03 9.93198863211941e-05
1.29122549019608e+01 9.74653774185397e-03 9.89172612352425e-05
1.29818627450980e+01 9.68082687794356e-03 9.85148367628209e-05
1.30514705882353e+01 9.61555903441429e-03 9.81126390138110e-05
1.31210784313725e+01 9.55073122493607e-03 9.77106935409746e-05
1.31906862745098e+01 9.48634048231969e-03 9.73090253728635e-05
1.32602941176471e+01 9.42238386036245e-03 9.69076588216161e-05
1.33299019607843e+01 9.35885843222947e-03 9.65066182337821e-05
1.33995098039216e+01 9.29576129035177e-03 9.61059269030300e-05
1.34691176470588e+01 9.23308954770594e-03 9.57056078010376e-05
1.35387254901961e+01 9.17084033580016e-03 9.53056834219742e-05
1.36083333333333e+01 9.10901080640439e-03 9.49061757699822e-05
1.36779411764706e+01 9.04759812957873e-03 9.45071063891385e-05
1.37475490196078e+01 8.98659949536524e-03 9.41084961829625e-05
1.38171568627451e+01 8.92601211229517e-03 9.37103661166539e-05
1.38867647058824e+01 8.86583320729047e-03 9.33127361982800e-05
1.39563725490196e+01 8.80606002683631e-03 9.29156261626500e-05
1.40259803921569e+01 8.74668983512398e-03 9.25190553249559e-05
1.40955882352941e+01 8.68771991563835e-03 9.21230425685111e-05
1.41651960784314e+01 8.62914756933911e-03 9.17276063721362e-05
1.42348039215686e+01 8.57097011621369e-03 9.13327646405917e-05
1.43044117647059e+01 8.51318489389877e-03 9.09385353619027e-05
1.43740196078431e+01 8.45578925758520e-03 9.05449356521849e-05
1.44436274509804e+01 8.39878058109380e-03 9.01519823959598e-05
1.45132352941176e+01 8.34215625516063e-03 8.97596921084325e-05
1.45828431372549e+01 8.28591368889536e-03 8.93680809235519e-05
1.46524509803922e+01 8.23005030810157e-03 8.89771646191341e-05
1.47220588235294e+01 8.17456355670361e-03 8.85869584574339e-05
1.47916666666667e+01 8.11945089547262e-03 8.81974778009546e-05
1.48612745098039e+01 8.06470980193426e-03 8.78087372164625e-05
1.49308823529412e+01 8.01033777135729e-03 8.74207510748304e-05
1.50004901960784e+01 7.95633231516835e-03 8.70335334215110e-05
1.50700980392157e+01 7.90269096229330e-03 8.66470979649387e-05
1.51397058823529e+01 7.84941125760407e-03 8.62614580996319e-05
1.52093137254902e+01 7.79649076323135e-03 8.58766267562469e-05
1.52789215686275e+01 7.74392705738570e-03 8.54926169788992e-05
1.53485294117647e+01 7.69171773426829e-03 8.51094410842612e-05
1.54181372549020e+01 7.63986040498020e-03 8.47271112238283e-05
1.54877450980392e+01 7.58835269605541e-03 8.43456392620887e-05
1.55573529411765e+01 7.53719225069577e-03 8.39650367653247e-05
1.56269607843137e+01 7.48637672733339e-03 8.35853150228594e-05
1.56965686274510e+01 7.43590380083956e-03 8.32064849060327e-05
1.57661764705882e+01 7.38577116143262e-03 8.28285574097499e-05
1.58357843137255e+01 7.33597651459185e-03 8.24515428628658e-05
1.59053921568627e+01 7.28651758189462e-03 8.20754514555980e-05
1.59750000000000e+01 7.23739209965734e-03 8.17002931248716e-05
1.60446078431373e+01 7.18859782007379e-03 8.13260775435204e-05
1.61142156862745e+01 7.14013250988295e-03 8.09528141399150e-05
1.61838235294118e+01 7.09199395148361e-03 8.05805120873166e-05
1.62534313725490e+01 7.04417994162845e-03 8.02091803231354e-05
1.63230392156863e+01 6.99668829251528e-03 7.98388274181786e-05
1.63926470588235e+01 6.94951683079423e-03 7.94694620766586e-05
1.64622549019608e+01 6.90266339748573e-03 7.91010924063724e-05
1.65318627450980e+01 6.85612584873558e-03 7.87337264056816e-05
1.66014705882353e+01 6.80990205457954e-03 7.83673718571071e-05
1.66710784313725e+01 6.76398989997165e-03 7.80020363171139e-05
1.67406862745098e+01 6.71838728357299e-03 7.76377271339094e-05
1.68102941176471e+01 6.67309211875874e-03 7.72744513244566e-05
1.68799019607843e+01 6.62810233269639e-03 7.69122160439619e-05
1.69495098039216e+01 6.58341586626692e-03 7.65510278999095e-05
1.70191176470588e+01 6.53903067476131e-03 7.61908934094486e-05
1.70887254901961e+01 6.49494472673369e-03 7.58318188991726e-05
1.71583333333333e+01 6.45115600495112e-03 7.54738104953320e-05
1.72279411764706e+01 6.40766250526894e-03 7.51168741403085e-05
1.72975490196078e+01 6.36446223756108e-03 7.47610154768818e-05
1.73671568627451e+01 6.32155322486345e-03 7.44062402892744e-05
1.74367647058824e+01 6.27893350329828e-03 7.40525538581655e-05
1.75063725490196e+01 6.23660112271704e-03 7.36999613904842e-05
1.75759803921569e+01 6.19455414563500e-03 7.33484679249709e-05
1.76455882352941e+01 6.15279064810915e-03 7.29980783228237e-05
1.77151960784314e+01 6.11130871869312e-03 7.26487972829730e-05
1.77848039215686e+01 6.07010645929729e-03 7.23006292331305e-05
1.78544117647059e+01 6.02918198439208e-03 7.19535787443253e-05
1.79240196078431e+01 5.98853342093532e-03 7.16076499242041e-05
1.79936274509804e+01 5.94815890896627e-03 7.12628468210516e-05
1.80632352941176e+01 5.90805660061499e-03 7.09191733347948e-05
1.81328431372549e+01 5.86822466091441e-03 7.05766332080876e-05
1.82024509803922e+01 5.82866126682849e-03 7.02352300404890e-05
1.82720588235294e+01 5.78936460804800e-03 6.98949671858309e-05
1.83416666666667e+01 5.75033288624909e-03 6.95558481420430e-05
1.84112745098039e+01 5.71156431502340e-03 6.92178759802613e-05
1.84808823529412e+01 5.67305712042743e-03 6.88810537247492e-05
1.85504901960784e+01 5.63480954006071e-03 6.85453842690392e-05
1.86200980392157e+01 5.59681982381761e-03 6.82108703674224e-05
1.86897058823529e+01 5.55908623298288e-03 6.78775146481303e-05
1.87593137254902e+01 5.52160704096841e-03 6.75453195166297e-05
1.88289215686275e+01 5.48438053262279e-03 6.72142875223678e-05
1.88985294117647e+01 5.44740500416414e-03 6.68844208213703e-05
1.89681372549020e+01 5.41067876368844e-03 6.65557215336354e-05
1.90377450980392e+01 5.37420013031123e-03 6.62281916641290e-05
1.91073529411765e+01 5.33796743486399e-03 6.59018330946363e-05
1.91769607843137e+01 5.30197901905188e-03 6.55766475960434e-05
1.92465686274510e+01 5.26623323613640e-03 6.52526367371982e-05
1.93161764705882e+01 5.23072845029181e-03 6.49298022300529e-05
1.93857843137255e+01 5.19546303654076e-03 6.46081454236447e-05
1.94553921568627e+01 5.16043538122488e-03 6.42876676404099e-05
1.95250000000000e+01 5.12564388120511e-03 6.39683701017120e-05
1.95946078431373e+01 5.09108694450721e-03 6.36502539200895e-05
1.96642156862745e+01 5.05676298953686e-03 6.33333201106893e-05
1.97338235294118e+01 5.02267044571255e-03 6.30175695836341e-05
1.98034313725490e+01 4.98880775269517e-03 6.27030031552698e-05
1.98730392156863e+01 4.95517336100840e-03 6.23896214635033e-05
1.99426470588235e+01 4.92176573144973e-03 6.20774252876391e-05
2.00122549019608e+01 4.88858333502934e-03 6.17664150792082e-05
2.00818627450980e+01 4.85562465339745e-03 6.14565912736246e-05
2.01514705882353e+01 4.82288817811245e-03 6.11479542209596e-05
2.02210784313726e+01 4.79037241122799e-03 6.08405041786772e-05
2.02906862745098e+01 4.75807586457451e-03 6.05342413221170e-05
2.03602941176471e+01 4.72599706033487e-03 6.02291656646918e-05
2.04299019607843e+01 4.69413453049458e-03 5.99252773590650e-05
2.04995098039216e+01 4.66248681678328e-03 5.96225762550850e-05
2.05691176470588e+01 4.63105247107093e-03 5.93210621933358e-05
2.06387254901961e+01 4.59983005468495e-03 5.90207349398030e-05
2.07083333333333e+01 4.56881813895514e-03 5.87215941789722e-05
2.07779411764706e+01 4.53801530454331e-03 5.84236395236101e-05
2.08475490196078e+01 4.50742014197760e-03 5.81268704395177e-05
2.09171568627451e+01 4.47703125113912e-03 5.78312865292457e-05
2.09867647058824e+01 4.44684724120585e-03 5.75368871154265e-05
2.10563725490196e+01 4.41686673102018e-03 5.72436715173540e-05
2.11259803921569e+01 4.38708834845138e-03 5.69516389893395e-05
2.11955882352941e+01 4.35751073090178e-03 5.66607887141345e-05
2.12651960784314e+01 4.32813252468072e-03 5.63711198120636e-05
2.13348039215686e+01 4.29895238550104e-03 5.60826312700602e-05
2.14044117647059e+01 4.26996897799924e-03 5.57953222090119e-05
2.14740196078431e+01 4.24118097568186e-03 5.55091914909368e-05
2.15436274509804e+01 4.21258706126657e-03 5.52242379796354e-05
2.16132352941176e+01 4.18418592608664e-03 5.49404604825069e-05
2.16828431372549e+01 4.15597627056133e-03 5.46578577443027e-05
2.17524509803922e+01 4.12795680361109e-03 5.43764284556614e-05
2.18220588235294e+01 4.10012624311891e-03 5.40961711861452e-05
2.18916666666667e+01 4.07248331548178e-03 5.38170846362555e-05
2.19612745098039e+01 4.04502675555933e-03 5.35391672669850e-05
