Energy (eV)          EEDF (eV^-(3/2))     First Anisotropy
1.04000000000000e-04 2.15035955567530e+02 4.30232597759838e-02
3.12000000000000e-04 2.13556423850494e+02 7.10380423465531e-02
5.20000000000000e-04 2.12087071892365e+02 9.37634636115898e-02
7.28000000000000e-04 2.10627829652118e+02 1.11019140482668e-01
9.36000000000000e-04 2.09178627570873e+02 1.25403142234693e-01
1.14400000000000e-03 2.07739396568380e+02 1.37897766909582e-01
1.35200000000000e-03 2.06310068039697e+02 1.49011355311672e-01
1.56000000000000e-03 2.04890573851915e+02 1.59050879596434e-01
1.76800000000000e-03 2.03480846340910e+02 1.68219928987033e-01
1.97600000000000e-03 2.02080818308113e+02 1.76662395928240e-01
2.18400000000000e-03 2.00690423017309e+02 1.84484796851948e-01
2.39200000000000e-03 1.99309594191454e+02 1.91768813615543e-01
2.60000000000000e-03 1.97938266009515e+02 1.98578854851279e-01
2.80800000000000e-03 1.96576373103338e+02 2.04966870531859e-01
3.01600000000000e-03 1.95223850554522e+02 2.10975554297001e-01
3.22400000000000e-03 1.93880633891334e+02 2.16640550951019e-01
3.43200000000000e-03 1.92546659085631e+02 2.21992024319433e-01
3.64000000000000e-03 1.91221862549808e+02 2.27055799400597e-01
3.84800000000000e-03 1.89906181133769e+02 2.31854212746234e-01
4.05600000000000e-03 1.88599552121913e+02 2.36406757733480e-01
4.26400000000000e-03 1.87301913230150e+02 2.40730582427664e-01
4.47200000000000e-03 1.86013202602928e+02 2.44840879422302e-01
4.68000000000000e-03 1.84733358810283e+02 2.48751195140370e-01
4.88800000000000e-03 1.83462320844917e+02 2.52473678154480e-01
5.09600000000000e-03 1.82200028119284e+02 2.56019280689038e-01
5.30400000000000e-03 1.80946420462704e+02 2.59397923724079e-01
5.51200000000000e-03 1.79701438118496e+02 2.62618633476843e-01
5.72000000000000e-03 1.78465021741127e+02 2.65689655140137e-01
5.92800000000000e-03 1.77237112393387e+02 2.68618548375512e-01
6.13600000000000e-03 1.76017651543574e+02 2.71412268040653e-01
6.34400000000000e-03 1.74806581062709e+02 2.74077232869291e-01
6.55200000000000e-03 1.73603843221763e+02 2.76619384247313e-01
6.76000000000000e-03 1.72409380688904e+02 2.79044236790480e-01
6.96800000000000e-03 1.71223136526768e+02 2.81356922090785e-01
7.17600000000000e-03 1.70045054189740e+02 2.83562226736205e-01
7.38400000000000e-03 1.68875077521263e+02 2.85664625502465e-01
7.59200000000000e-03 1.67713150751157e+02 2.87668310452390e-01
7.80000000000000e-03 1.66559218492964e+02 2.89577216549257e-01
8.00800000000000e-03 1.65413225741307e+02 2.91395044286434e-01
8.21600000000000e-03 1.64275117869267e+02 2.93125279751870e-01
8.42400000000000e-03 1.63144840625779e+02 2.94771212477895e-01
8.63200000000000e-03 1.62022340133047e+02 2.96335951371406e-01
8.84000000000000e-03 1.60907562883977e+02 2.97822438973748e-01
9.04800000000000e-03 1.59800455739622e+02 2.99233464262119e-01
9.25600000000000e-03 1.58700965926653e+02 3.00571674173016e-01
9.46400000000000e-03 1.57609041034844e+02 3.01839584002285e-01
9.67200000000000e-03 1.56524629014568e+02 3.03039586814670e-01
9.88000000000000e-03 1.55447678174324e+02 3.04173961977234e-01
1.00880000000000e-02 1.54378137178266e+02 3.05244882915873e-01
1.02960000000000e-02 1.53315955043760e+02 3.06254424180899e-01
1.05040000000000e-02 1.52261081138953e+02 3.07204567896597e-01
1.07120000000000e-02 1.51213465180356e+02 3.08097209660191e-01
1.09200000000000e-02 1.50173057230454e+02 3.08934163947556e-01
1.11280000000000e-02 1.49139807695320e+02 3.09717169075918e-01
1.13360000000000e-02 1.48113667322253e+02 3.10447891767991e-01
1.15440000000000e-02 1.47094587197428e+02 3.11127931356688e-01
1.17520000000000e-02 1.46082518743569e+02 3.11758823664884e-01
1.19600000000000e-02 1.45077413717630e+02 3.12342044591132e-01
1.21680000000000e-02 1.44079224208495e+02 3.12879013428570e-01
1.23760000000000e-02 1.43087902634696e+02 3.13371095941354e-01
1.25840000000000e-02 1.42103401742145e+02 3.13819607220479e-01
1.27920000000000e-02 1.41125674601879e+02 3.14225814338219e-01
1.30000000000000e-02 1.40154674607825e+02 3.14590938818781e-01
1.32080000000000e-02 1.39190355474579e+02 3.14916158940884e-01
1.34160000000000e-02 1.38232671235198e+02 3.15202611886145e-01
1.36240000000000e-02 1.37281576239011e+02 3.15451395746130e-01
1.38320000000000e-02 1.36337025149439e+02 3.15663571399557e-01
1.40400000000000e-02 1.35398972941838e+02 3.15840164269920e-01
1.42480000000000e-02 1.34467374901352e+02 3.15982165972995e-01
1.44560000000000e-02 1.33542186620779e+02 3.16090535862781e-01
1.46640000000000e-02 1.32623363998457e+02 3.16166202483538e-01
1.48720000000000e-02 1.31710863236160e+02 3.16210064935077e-01
1.50800000000000e-02 1.30804640837011e+02 3.16222994157641e-01
1.52880000000000e-02 1.29904653603411e+02 3.16205834142260e-01
1.54960000000000e-02 1.29010858634974e+02 3.16159403071999e-01
1.57040000000000e-02 1.28123213326487e+02 3.16084494398924e-01
1.59120000000000e-02 1.27241675365878e+02 3.15981877861340e-01
1.61200000000000e-02 1.26366202732197e+02 3.15852300445358e-01
1.63280000000000e-02 1.25496753693617e+02 3.15696487294633e-01
1.65360000000000e-02 1.24633286805441e+02 3.15515142571703e-01
1.67440000000000e-02 1.23775760908127e+02 3.15308950274170e-01
1.69520000000000e-02 1.22924135125329e+02 3.15078575008683e-01
1.71600000000000e-02 1.22078368861944e+02 3.14824662725412e-01
1.73680000000000e-02 1.21238421802180e+02 3.14547841415507e-01
1.75760000000000e-02 1.20404253907634e+02 3.14248721773893e-01
1.77840000000000e-02 1.19575825415383e+02 3.13927897829643e-01
1.79920000000000e-02 1.18753096836088e+02 3.13585947545752e-01
1.82000000000000e-02 1.17936028952112e+02 3.13223433390231e-01
1.84080000000000e-02 1.17124582815651e+02 3.12840902880322e-01
1.86160000000000e-02 1.16318719746876e+02 3.12438889101296e-01
1.88240000000000e-02 1.15518401332093e+02 3.12017911201380e-01
1.90320000000000e-02 1.14723589421908e+02 3.11578474864181e-01
1.92400000000000e-02 1.13934246129408e+02 3.11121072759879e-01
1.94480000000000e-02 1.13150333828360e+02 3.10646184976439e-01
1.96560000000000e-02 1.12371815151412e+02 3.10154279431800e-01
1.98640000000000e-02 1.11598652988314e+02 3.09645812268332e-01
2.00720000000000e-02 1.10830810484151e+02 3.09121228230332e-01
2.02800000000000e-02 1.10068251037582e+02 3.08580961025491e-01
2.04880000000000e-02 1.09310938299099e+02 3.08025433671280e-01
2.06960000000000e-02 1.08558836169293e+02 3.07455058826983e-01
2.09040000000000e-02 1.07811908797132e+02 3.06870239112183e-01
2.11120000000000e-02 1.07070120578254e+02 3.06271367412238e-01
2.13200000000000e-02 1.06333436153268e+02 3.05658827171603e-01
2.15280000000000e-02 1.05601820406071e+02 3.05032992675569e-01
2.17360000000000e-02 1.04875238462172e+02 3.04394229320878e-01
2.19440000000000e-02 1.04153655687029e+02 3.03742893875911e-01
2.21520000000000e-02 1.03437037684401e+02 3.03079334730841e-01
2.23600000000000e-02 1.02725350294705e+02 3.02403892138315e-01
2.25680000000000e-02 1.02018559593391e+02 3.01716898445129e-01
2.27760000000000e-02 1.01316631889322e+02 3.01018678315219e-01
2.29840000000000e-02 1.00619533723169e+02 3.00309548944489e-01
2.31920000000000e-02 9.99272318658175e+01 2.99589820267781e-01
2.34000000000000e-02 9.92396933167815e+01 2.98859795158399e-01
2.36080000000000e-02 9.85568853026316e+01 2.98119769620519e-01
2.38160000000000e-02 9.78787752754323e+01 2.97370032974763e-01
2.40240000000000e-02 9.72053309111909e+01 2.96610868037277e-01
2.42320000000000e-02 9.65365201083160e+01 2.95842551292580e-01
2.44400000000000e-02 9.58723109860882e+01 2.95065353060505e-01
2.46480000000000e-02 9.52126718831397e+01 2.94279537657433e-01
2.48560000000000e-02 9.45575713559454e+01 2.93485363552079e-01
2.50640000000000e-02 9.39069781773239e+01 2.92683083516109e-01
2.52720000000000e-02 9.32608613349493e+01 2.91872944769756e-01
2.54800000000000e-02 9.26191900298723e+01 2.91055189122593e-01
2.56880000000000e-02 9.19819336750528e+01 2.90230053109805e-01
2.58960000000000e-02 9.13490618939013e+01 2.89397768124070e-01
2.61040000000000e-02 9.07205445188312e+01 2.88558560543168e-01
2.63120000000000e-02 9.00963515898209e+01 2.87712651853580e-01
2.65200000000000e-02 8.94764533529851e+01 2.86860258770175e-01
2.67280000000000e-02 8.88608202591574e+01 2.86001593352252e-01
2.69360000000000e-02 8.82494229624810e+01 2.85136863115931e-01
2.71440000000000e-02 8.76422323190099e+01 2.84266271143084e-01
2.73520000000000e-02 8.70392193853204e+01 2.83390016187043e-01
2.75600000000000e-02 8.64403554171303e+01 2.82508292775021e-01
2.77680000000000e-02 8.58456118679299e+01 2.81621291307578e-01
2.79760000000000e-02 8.52549603876204e+01 2.80729198155068e-01
2.81840000000000e-02 8.46683728211627e+01 2.79832195751263e-01
2.83920000000000e-02 8.40858212072356e+01 2.78930462684290e-01
2.86000000000000e-02 8.35072777769027e+01 2.78024173784878e-01
2.88080000000000e-02 8.29327149522888e+01 2.77113500212135e-01
2.90160000000000e-02 8.23621053452652e+01 2.76198609536808e-01
2.92240000000000e-02 8.17954217561444e+01 2.75279665822249e-01
2.94320000000000e-02 8.12326371723833e+01 2.74356829703133e-01
2.96400000000000e-02 8.06737247672958e+01 2.73430258461886e-01
2.98480000000000e-02 8.01186578987737e+01 2.72500106103056e-01
3.00560000000000e-02 7.95674101080174e+01 2.71566523425711e-01
3.02640000000000e-02 7.90199551182737e+01 2.70629658093761e-01
3.04720000000000e-02 7.84762668335841e+01 2.69689654704412e-01
3.06800000000000e-02 7.79363193375405e+01 2.68746654854823e-01
3.08880000000000e-02 7.74000868920497e+01 2.67800797206941e-01
3.10960000000000e-02 7.68675439361068e+01 2.66852217550632e-01
3.13040000000000e-02 7.63386650845766e+01 2.65901048865143e-01
3.15120000000000e-02 7.58134251269836e+01 2.64947421379007e-01
3.17200000000000e-02 7.52917990263103e+01 2.63991462628352e-01
3.19280000000000e-02 7.47737619178036e+01 2.63033297513700e-01
3.21360000000000e-02 7.42592891077897e+01 2.62073048355353e-01
3.23440000000000e-02 7.37483560724970e+01 2.61110834947341e-01
3.25520000000000e-02 7.32409384568870e+01 2.60146774610013e-01
3.27600000000000e-02 7.27370120734935e+01 2.59180982241340e-01
3.29680000000000e-02 7.22365529012695e+01 2.58213570366911e-01
3.31760000000000e-02 7.17395370844422e+01 2.57244649188655e-01
3.33840000000000e-02 7.12459409313759e+01 2.56274326632454e-01
3.35920000000000e-02 7.07557409134426e+01 2.55302708394537e-01
3.38000000000000e-02 7.02689136639007e+01 2.54329897986735e-01
3.40080000000000e-02 6.97854359767806e+01 2.53355996780677e-01
3.42160000000000e-02 6.93052848057792e+01 2.52381104050888e-01
3.44240000000000e-02 6.88284372631608e+01 2.51405317016911e-01
3.46320000000000e-02 6.83548706186664e+01 2.50428730884403e-01
3.48400000000000e-02 6.78845622984300e+01 2.49451438885231e-01
3.50480000000000e-02 6.74174898839028e+01 2.48473532316675e-01
3.52560000000000e-02 6.69536311107842e+01 2.47495100579705e-01
3.54640000000000e-02 6.64929638679610e+01 2.46516231216340e-01
3.56720000000000e-02 6.60354661964528e+01 2.45537009946213e-01
3.58800000000000e-02 6.55811162883660e+01 2.44557520702242e-01
3.60880000000000e-02 6.51298924858534e+01 2.43577845665482e-01
3.62960000000000e-02 6.46817732800827e+01 2.42598065299238e-01
3.65040000000000e-02 6.42367373102105e+01 2.41618258382351e-01
3.67120000000000e-02 6.37947633623646e+01 2.40638502041811e-01
3.69200000000000e-02 6.33558303686324e+01 2.39658871784569e-01
3.71280000000000e-02 6.29199174060568e+01 2.38679441528661e-01
3.73360000000000e-02 6.24870036956391e+01 2.37700283633716e-01
3.75440000000000e-02 6.20570686013479e+01 2.36721468930677e-01
3.77520000000000e-02 6.16300916291361e+01 2.35743066750945e-01
3.79600000000000e-02 6.12060524259634e+01 2.34765144954898e-01
3.81680000000000e-02 6.07849307788267e+01 2.33787769959771e-01
3.83760000000000e-02 6.03667066137960e+01 2.32811006766907e-01
3.85840000000000e-02 5.99513599950580e+01 2.31834918988496e-01
3.87920000000000e-02 5.95388711239656e+01 2.30859568873703e-01
3.90000000000000e-02 5.91292203380942e+01 2.29885017334201e-01
3.92080000000000e-02 5.87223881103041e+01 2.28911323969241e-01
3.94160000000000e-02 5.83183550478104e+01 2.27938547090150e-01
3.96240000000000e-02 5.79171018912578e+01 2.26966743744335e-01
3.98320000000000e-02 5.75186095138033e+01 2.25995969738800e-01
4.00400000000000e-02 5.71228589202036e+01 2.25026279663120e-01
4.02480000000000e-02 5.67298312459105e+01 2.24057726911977e-01
4.04560000000000e-02 5.63395077561713e+01 2.23090363707270e-01
4.06640000000000e-02 5.59518698451354e+01 2.22124241119732e-01
4.08720000000000e-02 5.55668990349682e+01 2.21159409090080e-01
4.10800000000000e-02 5.51845769749694e+01 2.20195916449785e-01
4.12880000000000e-02 5.48048854406991e+01 2.19233810941417e-01
4.14960000000000e-02 5.44278063331085e+01 2.18273139238562e-01
4.17040000000000e-02 5.40533216776774e+01 2.17313946965361e-01
4.19120000000000e-02 5.36814136235573e+01 2.16356278715619e-01
4.21200000000000e-02 5.33120644427206e+01 2.15400178071591e-01
4.23280000000000e-02 5.29452565291154e+01 2.14445687622351e-01
4.25360000000000e-02 5.25809723978264e+01 2.13492848981804e-01
4.27440000000000e-02 5.22191946842415e+01 2.12541702806404e-01
4.29520000000000e-02 5.18599061432237e+01 2.11592288812457e-01
4.31600000000000e-02 5.15030896482896e+01 2.10644645793085e-01
4.33680000000000e-02 5.11487281907923e+01 2.09698811634912e-01
4.35760000000000e-02 5.07968048791115e+01 2.08754823334389e-01
4.37840000000000e-02 5.04473029378476e+01 2.07812717013822e-01
4.39920000000000e-02 5.01002057070225e+01 2.06872527937104e-01
4.42000000000000e-02 4.97554966412851e+01 2.05934290525091e-01
4.44080000000000e-02 4.94131593091229e+01 2.04998038370738e-01
4.46160000000000e-02 4.90731773920787e+01 2.04063804253953e-01
4.48240000000000e-02 4.87355346839727e+01 2.03131620156145e-01
4.50320000000000e-02 4.84002150901298e+01 2.02201517274480e-01
4.52400000000000e-02 4.80672026266127e+01 2.01273526035914e-01
4.54480000000000e-02 4.77364814194600e+01 2.00347676110948e-01
4.56560000000000e-02 4.74080357039290e+01 1.99423996427085e-01
4.58640000000000e-02 4.70818498237450e+01 1.98502515182117e-01
4.60720000000000e-02 4.67579082303544e+01 1.97583259857080e-01
4.62800000000000e-02 4.64361954821838e+01 1.96666257229042e-01
4.64880000000000e-02 4.61166962439038e+01 1.95751533383610e-01
4.66960000000000e-02 4.57993952856983e+01 1.94839113727211e-01
4.69040000000000e-02 4.54842774825381e+01 1.93929022999182e-01
4.71120000000000e-02 4.51713278134602e+01 1.93021285283591e-01
4.73200000000000e-02 4.48605313608517e+01 1.92115924020893e-01
4.75280000000000e-02 4.45518733097389e+01 1.91212962019341e-01
4.77360000000000e-02 4.42453389470806e+01 1.90312421466170e-01
4.79440000000000e-02 4.39409136610674e+01 1.89414323938636e-01
4.81520000000000e-02 4.36385829404246e+01 1.88518690414833e-01
4.83600000000000e-02 4.33383323737211e+01 1.87625541284292e-01
4.85680000000000e-02 4.30401476486818e+01 1.86734896358427e-01
4.87760000000000e-02 4.27440145515057e+01 1.85846774880757e-01
4.89840000000000e-02 4.24499189661886e+01 1.84961195536973e-01
4.91920000000000e-02 4.21578468738497e+01 1.84078176464848e-01
4.94000000000000e-02 4.18677843520635e+01 1.83197735263900e-01
4.96080000000000e-02 4.15797175741966e+01 1.82319889004956e-01
4.98160000000000e-02 4.12936328087479e+01 1.81444654239503e-01
5.00240000000000e-02 4.10095164186946e+01 1.80572047008882e-01
5.02320000000000e-02 4.07273548608421e+01 1.79702082853388e-01
5.04400000000000e-02 4.04471346851779e+01 1.78834776821084e-01
5.06480000000000e-02 4.01688425342311e+01 1.77970143476545e-01
5.08560000000000e-02 3.98924651424356e+01 1.77108196909474e-01
5.10640000000000e-02 3.96179893354973e+01 1.76248950743075e-01
5.12720000000000e-02 3.93454020297666e+01 1.75392418142374e-01
5.14800000000000e-02 3.90746902316144e+01 1.74538611822353e-01
5.16880000000000e-02 3.88058410368130e+01 1.73687544055922e-01
5.18960000000000e-02 3.85388416299207e+01 1.72839226681821e-01
5.21040000000000e-02 3.82736792836714e+01 1.71993671112317e-01
5.23120000000000e-02 3.80103413583670e+01 1.71150888340790e-01
5.25200000000000e-02 3.77488153012761e+01 1.70310888949222e-01
5.27280000000000e-02 3.74890886460346e+01 1.69473683115530e-01
5.29360000000000e-02 3.72311490120521e+01 1.68639280620758e-01
5.31440000000000e-02 3.69749841039213e+01 1.67807690856185e-01
5.33520000000000e-02 3.67205817108323e+01 1.66978922830280e-01
5.35600000000000e-02 3.64679297059903e+01 1.66152985175557e-01
5.37680000000000e-02 3.62170160460377e+01 1.65329886155326e-01
5.39760000000000e-02 3.59678287704797e+01 1.64509633670284e-01
5.41840000000000e-02 3.57203560011147e+01 1.63692235265058e-01
5.43920000000000e-02 3.54745859414675e+01 1.62877698134583e-01
5.46000000000000e-02 3.52305068762275e+01 1.62066029130396e-01
5.48080000000000e-02 3.49881071706898e+01 1.61257234766837e-01
5.50160000000000e-02 3.47473752702011e+01 1.60451321227127e-01
5.52240000000000e-02 3.45082996996084e+01 1.59648294369352e-01
5.54320000000000e-02 3.42708690627124e+01 1.58848159732330e-01
5.56400000000000e-02 3.40350720417241e+01 1.58050922541417e-01
5.58480000000000e-02 3.38008973967253e+01 1.57256587714193e-01
5.60560000000000e-02 3.35683339651329e+01 1.56465159866055e-01
5.62640000000000e-02 3.33373706611667e+01 1.55676643315717e-01
5.64720000000000e-02 3.31079964753210e+01 1.54891042090622e-01
5.66800000000000e-02 3.28802004738398e+01 1.54108359932263e-01
5.68880000000000e-02 3.26539717981957e+01 1.53328600301408e-01
5.70960000000000e-02 3.24292996645722e+01 1.52551766383269e-01
5.73040000000000e-02 3.22061733633498e+01 1.51777861092560e-01
5.75120000000000e-02 3.19845822585951e+01 1.51006887078456e-01
5.77200000000000e-02 3.17645157875543e+01 1.50238846729513e-01
5.79280000000000e-02 3.15459634601495e+01 1.49473742178486e-01
5.81360000000000e-02 3.13289148584786e+01 1.48711575307056e-01
5.83440000000000e-02 3.11133596363188e+01 1.47952347750502e-01
5.85520000000000e-02 3.08992875186331e+01 1.47196060902279e-01
5.87600000000000e-02 3.06866883010813e+01 1.46442715918536e-01
5.89680000000000e-02 3.04755518495326e+01 1.45692313722554e-01
5.91760000000000e-02 3.02658680995833e+01 1.44944855009097e-01
5.93840000000000e-02 3.00576270560764e+01 1.44200340248727e-01
5.95920000000000e-02 2.98508187926259e+01 1.43458769692022e-01
5.98000000000000e-02 2.96454334511430e+01 1.42720143373716e-01
6.00080000000000e-02 2.94414612413664e+01 1.41984461116822e-01
6.02160000000000e-02 2.92388924403958e+01 1.41251722536626e-01
6.04240000000000e-02 2.90377173922281e+01 1.40521927044646e-01
6.06320000000000e-02 2.88379265072973e+01 1.39795073852538e-01
6.08400000000000e-02 2.86395102620175e+01 1.39071161975911e-01
6.10480000000000e-02 2.84424591983287e+01 1.38350190238126e-01
6.12560000000000e-02 2.82467639232462e+01 1.37632157273971e-01
6.14640000000000e-02 2.80524151084125e+01 1.36917061533328e-01
6.16720000000000e-02 2.78594034896530e+01 1.36204901284762e-01
6.18800000000000e-02 2.76677198665342e+01 1.35495674619036e-01
6.20880000000000e-02 2.74773551019253e+01 1.34789379452617e-01
6.22960000000000e-02 2.72883001215624e+01 1.34086013531066e-01
6.25040000000000e-02 2.71005459136162e+01 1.33385574432411e-01
6.27120000000000e-02 2.69140835282623e+01 1.32688059570473e-01
6.29200000000000e-02 2.67289040772545e+01 1.31993466198102e-01
6.31280000000000e-02 2.65449987335013e+01 1.31301791410398e-01
6.33360000000000e-02 2.63623587306452e+01 1.30613032147856e-01
6.35440000000000e-02 2.61809753626443e+01 1.29927185199466e-01
6.37520000000000e-02 2.60008399833581e+01 1.29244247205777e-01
6.39600000000000e-02 2.58219440061347e+01 1.28564214661903e-01
6.41680000000000e-02 2.56442789034018e+01 1.27887083920473e-01
6.43760000000000e-02 2.54678362062601e+01 1.27212851194543e-01
6.45840000000000e-02 2.52926075040797e+01 1.26541512560452e-01
6.47920000000000e-02 2.51185844440991e+01 1.25873063960648e-01
6.50000000000000e-02 2.49457587310270e+01 1.25207501206457e-01
6.52080000000000e-02 2.47741221266472e+01 1.24544819980816e-01
6.54160000000000e-02 2.46036664494254e+01 1.23885015840948e-01
6.56240000000000e-02 2.44343835741196e+01 1.23228084221015e-01
