Energy (eV)          EEDF (eV^-(3/2))     First Anisotropy
8.97727272727273e-03 3.24910899609493e-01 1.82884219294532e-04
2.69318181818182e-02 3.22370366239382e-01 3.01827842084208e-04
4.48863636363636e-02 3.19849697741222e-01 3.98007477193745e-04
6.28409090909091e-02 3.17348738774371e-01 4.70808966623016e-04
8.07954545454545e-02 3.14867335232098e-01 5.31305802559203e-04
9.87500000000000e-02 3.12405334203058e-01 5.83690532940017e-04
1.16704545454545e-01 3.09962583970992e-01 6.30135658085969e-04
1.34659090909091e-01 3.07538934026861e-01 6.71954771344686e-04
1.52613636363636e-01 3.05134235002432e-01 7.10020172515461e-04
1.70568181818182e-01 3.02748338734843e-01 7.44949158714591e-04
1.88522727272727e-01 3.00381098186703e-01 7.77199255273084e-04
2.06477272727273e-01 2.98032367499771e-01 8.07121748609696e-04
2.24431818181818e-01 2.95702001940482e-01 8.34993982891426e-04
2.42386363636364e-01 2.93389857898731e-01 8.61039925763399e-04
2.60340909090909e-01 2.91095792906932e-01 8.85443861885714e-04
2.78295454545455e-01 2.88819665593190e-01 9.08359833634601e-04
2.96250000000000e-01 2.86561335708068e-01 9.29918349853405e-04
3.14204545454545e-01 2.84320664082766e-01 9.50231275886474e-04
3.32159090909091e-01 2.82097512651685e-01 9.69395475794511e-04
3.50113636363636e-01 2.79891744414621e-01 9.87495577861784e-04
3.68068181818182e-01 2.77703223455965e-01 1.00460610901676e-03
3.86022727272727e-01 2.75531814910188e-01 1.02079316735775e-03
4.03977272727273e-01 2.73377384978311e-01 1.03611574884960e-03
4.21931818181818e-01 2.71239800901244e-01 1.05062681629478e-03
4.39886363636364e-01 2.69118930953453e-01 1.06437416121894e-03
4.57840909090909e-01 2.67014644449114e-01 1.07740111608883e-03
4.75795454545455e-01 2.64926811714932e-01 1.08974714078302e-03
4.93750000000000e-01 2.62855304100490e-01 1.10144831189514e-03
5.11704545454545e-01 2.60799993952723e-01 1.11253773401378e-03
5.29659090909091e-01 2.58760754624954e-01 1.12304588735795e-03
5.47613636363636e-01 2.56737460452842e-01 1.13300092392804e-03
5.65568181818182e-01 2.54729986762274e-01 1.14242892086655e-03
5.83522727272727e-01 2.52738209846625e-01 1.15135409882079e-03
6.01477272727273e-01 2.50762006973647e-01 1.15979901024449e-03
6.19431818181818e-01 2.48801256367080e-01 1.16778470560518e-03
6.37386363636364e-01 2.46855837199938e-01 1.17533087398638e-03
6.55340909090909e-01 2.44925629596121e-01 1.18245597081528e-03
6.73295454545455e-01 2.43010514610932e-01 1.18917732830585e-03
6.91250000000000e-01 2.41110374235467e-01 1.19551125336021e-03
7.09204545454545e-01 2.39225091377982e-01 1.20147311459176e-03
7.27159090909091e-01 2.37354549867695e-01 1.20707741962622e-03
7.45113636363636e-01 2.35498634436941e-01 1.21233788429252e-03
7.63068181818182e-01 2.33657230724441e-01 1.21726749444040e-03
7.81022727272727e-01 2.31830225258183e-01 1.22187856162337e-03
7.98977272727273e-01 2.30017505458212e-01 1.22618277273674e-03
8.16931818181818e-01 2.28218959622385e-01 1.23019123679978e-03
8.34886363636364e-01 2.26434476919920e-01 1.23391452362732e-03
8.52840909090909e-01 2.24663947390907e-01 1.23736270247749e-03
8.70795454545455e-01 2.22907261931073e-01 1.24054537552764e-03
8.88750000000000e-01 2.21164312293302e-01 1.24347170861654e-03
9.06704545454545e-01 2.19434991072929e-01 1.24615045944990e-03
9.24659090909091e-01 2.17719191708956e-01 1.24859000329240e-03
9.42613636363636e-01 2.16016808469849e-01 1.25079835664764e-03
9.60568181818182e-01 2.14327736454466e-01 1.25278319889401e-03
9.78522727272727e-01 2.12651871578335e-01 1.25455189231245e-03
9.96477272727273e-01 2.10989110574322e-01 1.25611150165877e-03
1.01443181818182e+00 2.09339350972802e-01 1.25746880602053e-03
1.03238636363636e+00 2.07702491129910e-01 1.25863032267096e-03
1.05034090909091e+00 2.06078430164318e-01 1.25960231615039e-03
1.06829545454545e+00 2.04467068014857e-01 1.26039081273862e-03
1.08625000000000e+00 2.02868305372257e-01 1.26100161363710e-03
1.10420454545455e+00 2.01282043733447e-01 1.26144030601844e-03
1.12215909090909e+00 1.99708185336674e-01 1.26171227449856e-03
1.14011363636364e+00 1.98146633212744e-01 1.26182271068525e-03
1.15806818181818e+00 1.96597291123267e-01 1.26177662321550e-03
1.17602272727273e+00 1.95060063609075e-01 1.26157884604474e-03
1.19397727272727e+00 1.93534855931371e-01 1.26123404980197e-03
1.21193181818182e+00 1.92021574105152e-01 1.26074673888601e-03
1.22988636363636e+00 1.90520124892644e-01 1.26012127435724e-03
1.24784090909091e+00 1.89030415760410e-01 1.25936187060588e-03
1.26579545454545e+00 1.87552354922653e-01 1.25847260394051e-03
1.28375000000000e+00 1.86085851287743e-01 1.25745741913203e-03
1.30170454545455e+00 1.84630814499273e-01 1.25632013461767e-03
1.31965909090909e+00 1.83187154884929e-01 1.25506444834411e-03
1.33761363636364e+00 1.81754783495460e-01 1.25369394236389e-03
1.35556818181818e+00 1.80333612055732e-01 1.25221208807300e-03
1.37352272727273e+00 1.78923553001751e-01 1.25062225028362e-03
1.39147727272727e+00 1.77524519433777e-01 1.24892769408596e-03
1.40943181818182e+00 1.76136425141767e-01 1.24713157985365e-03
1.42738636363636e+00 1.74759184599490e-01 1.24523698033711e-03
1.44534090909091e+00 1.73392712929997e-01 1.24324687565488e-03
1.46329545454545e+00 1.72036925939041e-01 1.24116415860153e-03
1.48125000000000e+00 1.70691740072088e-01 1.23899163832801e-03
1.49920454545455e+00 1.69357072446145e-01 1.23673204305934e-03
1.51715909090909e+00 1.68032840808471e-01 1.23438802344336e-03
1.53511363636364e+00 1.66718963566921e-01 1.23196215498830e-03
1.55306818181818e+00 1.65415359750255e-01 1.22945694111807e-03
1.57102272727273e+00 1.64121949037081e-01 1.22687481536344e-03
1.58897727272727e+00 1.62838651717683e-01 1.22421814600389e-03
1.60693181818182e+00 1.61565388713801e-01 1.22148923064363e-03
1.62488636363636e+00 1.60302081573309e-01 1.21869030980712e-03
1.64284090909091e+00 1.59048652441870e-01 1.21582356163420e-03
1.66079545454545e+00 1.57805024089231e-01 1.21289110551241e-03
1.67875000000000e+00 1.56571119873995e-01 1.20989500434742e-03
1.69670454545455e+00 1.55346863768757e-01 1.20683726608974e-03
1.71465909090909e+00 1.54132180326159e-01 1.20371984583001e-03
1.73261363636364e+00 1.52926994702919e-01 1.20054464718297e-03
1.75056818181818e+00 1.51731232627103e-01 1.19731352422525e-03
1.76852272727273e+00 1.50544820421118e-01 1.19402828275259e-03
1.78647727272727e+00 1.49367684970137e-01 1.19069068367354e-03
1.80443181818182e+00 1.48199753737703e-01 1.18730243775040e-03
1.82238636363636e+00 1.47040954760908e-01 1.18386521681665e-03
1.84034090909091e+00 1.45891216626763e-01 1.18038064867570e-03
1.85829545454545e+00 1.44750468493200e-01 1.17685031977125e-03
1.87625000000000e+00 1.43618640059783e-01 1.17327577669062e-03
1.89420454545455e+00 1.42495661587830e-01 1.16965852706743e-03
1.91215909090909e+00 1.41381463872121e-01 1.16600004098379e-03
1.93011363636364e+00 1.40275978260183e-01 1.16230175179531e-03
1.94806818181818e+00 1.39179136624941e-01 1.15856505744146e-03
1.96602272727273e+00 1.38090871383217e-01 1.15479132120033e-03
1.98397727272727e+00 1.37011115469281e-01 1.15098187430636e-03
2.00193181818182e+00 1.35939802347309e-01 1.14713801106723e-03
2.01988636363636e+00 1.34876866006996e-01 1.14326099833034e-03
2.03784090909091e+00 1.33822240943629e-01 1.13935207076101e-03
2.05579545454545e+00 1.32775862175054e-01 1.13541243290789e-03
2.07375000000000e+00 1.31737665217044e-01 1.13144326025359e-03
2.09170454545455e+00 1.30707586099582e-01 1.12744569976838e-03
2.10965909090909e+00 1.29685561343025e-01 1.12342087089856e-03
2.12761363636364e+00 1.28671527973734e-01 1.11936986607501e-03
2.14556818181818e+00 1.27665423500994e-01 1.11529375164457e-03
2.16352272727273e+00 1.26667185932030e-01 1.11119356833776e-03
2.18147727272727e+00 1.25676753749644e-01 1.10707033336458e-03
2.19943181818182e+00 1.24694065922237e-01 1.10292503596697e-03
2.21738636363636e+00 1.23719061899818e-01 1.09875864552718e-03
2.23534090909091e+00 1.22751681597044e-01 1.09457210727289e-03
2.25329545454545e+00 1.21791865407045e-01 1.09036634393256e-03
2.27125000000000e+00 1.20839554180515e-01 1.08614225650199e-03
2.28920454545455e+00 1.19894689239017e-01 1.08190072459180e-03
2.30715909090909e+00 1.18957212354702e-01 1.07764260715331e-03
2.32511363636364e+00 1.18027065763104e-01 1.07336874279890e-03
2.34306818181818e+00 1.17104192143474e-01 1.06907995049035e-03
2.36102272727273e+00 1.16188534631086e-01 1.06477702983418e-03
2.37897727272727e+00 1.15280036798154e-01 1.06046076280457e-03
2.39693181818182e+00 1.14378642661964e-01 1.05613190973032e-03
2.41488636363636e+00 1.13484296681239e-01 1.05179121631143e-03
2.43284090909091e+00 1.12596943741577e-01 1.04743940974545e-03
2.45079545454545e+00 1.11716529166815e-01 1.04307720008883e-03
2.46875000000000e+00 1.10842998701141e-01 1.03870528083518e-03
2.48670454545455e+00 1.09976298520036e-01 1.03432432913616e-03
2.50465909090909e+00 1.09116375212898e-01 1.02993500635214e-03
2.52261363636364e+00 1.08263175793587e-01 1.02553795825585e-03
2.54056818181818e+00 1.07416647683545e-01 1.02113381555721e-03
2.55852272727273e+00 1.06576738721953e-01 1.01672319409159e-03
2.57647727272727e+00 1.05743397149332e-01 1.01230669626309e-03
2.59443181818182e+00 1.04916571614186e-01 1.00788490744019e-03
2.61238636363636e+00 1.04096211169670e-01 1.00345840207268e-03
2.63034090909091e+00 1.03282265261029e-01 9.99027740212625e-04
2.64829545454545e+00 1.02474683734981e-01 9.94593468655201e-04
2.66625000000000e+00 1.01673416824319e-01 9.90156121386801e-04
2.68420454545455e+00 1.00878415156962e-01 9.85716219725398e-04
2.70215909090909e+00 1.00089629740983e-01 9.81274272749092e-04
2.72011363636364e+00 9.93070119733358e-02 9.76830777425605e-04
2.73806818181818e+00 9.85305136252934e-02 9.72386219022289e-04
2.75602272727273e+00 9.77600868508672e-02 9.67941071225525e-04
2.77397727272727e+00 9.69956841726400e-02 9.63495797367040e-04
2.79193181818182e+00 9.62372584872068e-02 9.59050847193580e-04
2.80988636363636e+00 9.54847630621396e-02 9.54606662229591e-04
2.82784090909091e+00 9.47381515250703e-02 9.50163672658577e-04
2.84579545454545e+00 9.39973778714930e-02 9.45722298292439e-04
2.86375000000000e+00 9.32623964514291e-02 9.41282948926455e-04
2.88170454545455e+00 9.25331619769574e-02 9.36846024427264e-04
2.89965909090909e+00 9.18096295092343e-02 9.32411915073219e-04
2.91761363636364e+00 9.10917544657624e-02 9.27981001635348e-04
2.93556818181818e+00 9.03794926077542e-02 9.23553655704249e-04
2.95352272727273e+00 8.96728000471491e-02 9.19130239764364e-04
2.97147727272727e+00 8.89716332343094e-02 9.14711108246920e-04
2.98943181818182e+00 8.82759489624970e-02 9.10296604636963e-04
3.00738636363636e+00 8.75857043650997e-02 9.05887066195758e-04
3.02534090909091e+00 8.69008569061049e-02 9.01482821167318e-04
3.04329545454545e+00 8.62213643866111e-02 8.97084189610814e-04
3.06125000000000e+00 8.55471849332284e-02 8.92691483686442e-04
3.07920454545455e+00 8.48782770043664e-02 8.88305007708690e-04
3.09715909090909e+00 8.42145993789344e-02 8.83925058421536e-04
3.11511363636364e+00 8.35561111624154e-02 8.79551925046885e-04
3.13306818181818e+00 8.29027717758558e-02 8.75185889549445e-04
3.15102272727273e+00 8.22545409617335e-02 8.70827226680804e-04
3.16897727272727e+00 8.16113787732280e-02 8.66476204890944e-04
3.18693181818182e+00 8.09732455779141e-02 8.62133083737978e-04
3.20488636363636e+00 8.03401020552242e-02 8.57798118061050e-04
3.22284090909091e+00 7.97119091881040e-02 8.53471555478445e-04
3.24079545454545e+00 7.90886282684654e-02 8.49153637108127e-04
3.25875000000000e+00 7.84702208870551e-02 8.44844597801433e-04
3.27670454545455e+00 7.78566489387248e-02 8.40544666172959e-04
3.29465909090909e+00 7.72478746125533e-02 8.36254064825918e-04
3.31261363636364e+00 7.66438603969408e-02 8.31973010378904e-04
3.33056818181818e+00 7.60445690699772e-02 8.27701713683265e-04
3.34852272727273e+00 7.54499637043664e-02 8.23440379846920e-04
3.36647727272727e+00 7.48600076580331e-02 8.19189209028463e-04
3.38443181818182e+00 7.42746645771766e-02 8.14948394117003e-04
3.40238636363636e+00 7.36938983939499e-02 8.10718124430438e-04
3.42034090909091e+00 7.31176733191233e-02 8.06498583473881e-04
3.43829545454545e+00 7.25459538466657e-02 8.02289949567552e-04
3.45625000000000e+00 7.19787047448631e-02 7.98092396039928e-04
3.47420454545455e+00 7.14158910607496e-02 7.93906091241789e-04
3.49215909090909e+00 7.08574781114419e-02 7.89731198733011e-04
3.51011363636364e+00 7.03034314884247e-02 7.85567877294364e-04
3.52806818181818e+00 6.97537170490953e-02 7.81416281108022e-04
3.54602272727273e+00 6.92083009209087e-02 7.77276559767534e-04
3.56397727272727e+00 6.86671494931263e-02 7.73148858973176e-04
3.58193181818182e+00 6.81302294193457e-02 7.69033318452721e-04
3.59988636363636e+00 6.75975076153760e-02 7.64930075247094e-04
3.61784090909091e+00 6.70689512527682e-02 7.60839261701040e-04
3.63579545454545e+00 6.65445277626737e-02 7.56761006012824e-04
3.65375000000000e+00 6.60242048280352e-02 7.52695432395529e-04
3.67170454545455e+00 6.55079503873199e-02 7.48642661080487e-04
3.68965909090909e+00 6.49957326268952e-02 7.44602808473297e-04
3.70761363636364e+00 6.44875199846420e-02 7.40575987155739e-04
3.72556818181818e+00 6.39832811425102e-02 7.36562306036933e-04
3.74352272727273e+00 6.34829850300152e-02 7.32561870353795e-04
3.76147727272727e+00 6.29866008169692e-02 7.28574782282548e-04
3.77943181818182e+00 6.24940979155784e-02 7.24601139074154e-04
3.79738636363636e+00 6.20054459784983e-02 7.20641035979558e-04
3.81534090909091e+00 6.15206148931120e-02 7.16694564447153e-04
3.83329545454545e+00 6.10395747847879e-02 7.12761812606283e-04
3.85125000000000e+00 6.05622960099927e-02 7.08842865403048e-04
3.86920454545455e+00 6.00887491594450e-02 7.04937804596343e-04
3.88715909090909e+00 5.96189050513876e-02 7.01046708889418e-04
3.90511363636364e+00 5.91527347346405e-02 6.97169653924914e-04
3.92306818181818e+00 5.86902094820295e-02 6.93306712412446e-04
3.94102272727273e+00 5.82313007933405e-02 6.89457954122759e-04
3.95897727272727e+00 5.77759803889002e-02 6.85623446427237e-04
3.97693181818182e+00 5.73242202113155e-02 6.81803252624786e-04
3.99488636363636e+00 5.68759924236926e-02 6.77997434550692e-04
4.01284090909091e+00 5.64312694045650e-02 6.74206050958602e-04
4.03079545454545e+00 5.59900237506485e-02 6.70429157947313e-04
4.04875000000000e+00 5.55522282707527e-02 6.66666809075835e-04
4.06670454545455e+00 5.51178559884491e-02 6.62919055354486e-04
4.08465909090909e+00 5.46868801361206e-02 6.59185945356510e-04
4.10261363636364e+00 5.42592741575453e-02 6.55467525208635e-04
4.12056818181818e+00 5.38350117020813e-02 6.51763838699328e-04
4.13852272727273e+00 5.34140666271680e-02 6.48074927268853e-04
4.15647727272727e+00 5.29964129926425e-02 6.44400830486662e-04
4.17443181818182e+00 5.25820250621832e-02 6.40741584548789e-04
4.19238636363636e+00 5.21708773016778e-02 6.37097224608397e-04
4.21034090909091e+00 5.17629443747178e-02 6.33467783322388e-04
4.22829545454545e+00 5.13582011449317e-02 6.29853291229087e-04
4.24625000000000e+00 5.09566226705903e-02 6.26253776846280e-04
4.26420454545455e+00 5.05581842068674e-02 6.22669266659149e-04
4.28215909090909e+00 5.01628612005652e-02 6.19099785215491e-04
4.30011363636364e+00 4.97706292923036e-02 6.15545355113363e-04
4.31806818181818e+00 4.93814643113638e-02 6.12005997093485e-04
4.33602272727273e+00 4.89953422778081e-02 6.08481730026505e-04
4.35397727272727e+00 4.86122393974380e-02 6.04972571336619e-04
4.37193181818182e+00 4.82321320629904e-02 6.01478535651147e-04
4.38988636363636e+00 4.78549968526436e-02 5.97999636885237e-04
4.40784090909091e+00 4.74808105260053e-02 5.94535886935473e-04
4.42579545454545e+00 4.71095500260923e-02 5.91087296014921e-04
4.44375000000000e+00 4.67411924745405e-02 5.87653872737141e-04
4.46170454545455e+00 4.63757151735223e-02 5.84235624102065e-04
4.47965909090909e+00 4.60130956010618e-02 5.80832555577662e-04
4.49761363636364e+00 4.56533114128927e-02 5.77444671085732e-04
4.51556818181818e+00 4.52963404378758e-02 5.74071973081146e-04
4.53352272727273e+00 4.49421606797988e-02 5.70714462537559e-04
4.55147727272727e+00 4.45907503128938e-02 5.67372139323868e-04
4.56943181818182e+00 4.42420876828281e-02 5.64045000989739e-04
4.58738636363636e+00 4.38961513053360e-02 5.60733044632875e-04
4.60534090909091e+00 4.35529198626405e-02 5.57436265723876e-04
4.62329545454546e+00 4.32123722051338e-02 5.54154658403989e-04
4.64125000000000e+00 4.28744873471167e-02 5.50888215557444e-04
4.65920454545455e+00 4.25392444684268e-02 5.47636928796282e-04
4.67715909090909e+00 4.22066229102697e-02 5.44400788530491e-04
4.69511363636364e+00 4.18766021767964e-02 5.41179783952841e-04
4.71306818181818e+00 4.15491619310250e-02 5.37973903107158e-04
4.73102272727273e+00 4.12242819963684e-02 5.34783132873046e-04
4.74897727272727e+00 4.09019423526437e-02 5.31607459301183e-04
4.76693181818182e+00 4.05821231368913e-02 5.28446866520426e-04
4.78488636363636e+00 4.02648046421206e-02 5.25301338412008e-04
4.80284090909091e+00 3.99499673141144e-02 5.22170857551769e-04
4.82079545454545e+00 3.96375917528566e-02 5.19055405475516e-04
4.83875000000000e+00 3.93276587087354e-02 5.15954962741266e-04
4.85670454545455e+00 3.90201490839271e-02 5.12869508913547e-04
4.87465909090909e+00 3.87150439286804e-02 5.09799022624093e-04
4.89261363636364e+00 3.84123244426569e-02 5.06743481556151e-04
4.91056818181818e+00 3.81119719712945e-02 5.03702862503443e-04
4.92852272727273e+00 3.78139680071065e-02 5.00677141354521e-04
4.94647727272727e+00 3.75182941861216e-02 4.97666293391896e-04
4.96443181818182e+00 3.72249322885601e-02 4.94670292307848e-04
4.98238636363636e+00 3.69338642376849e-02 4.91689111707108e-04
5.00034090909091e+00 3.66450720969422e-02 4.88722724154094e-04
5.01829545454545e+00 3.63585380711750e-02 4.85771101409600e-04
5.03625000000000e+00 3.60742445032356e-02 4.82834214484800e-04
5.05420454545455e+00 3.57921738751611e-02 4.79912033625364e-04
5.07215909090909e+00 3.55123088048573e-02 4.77004528364009e-04
5.09011363636364e+00 3.52346320472376e-02 4.74111667504804e-04
5.10806818181818e+00 3.49591264909765e-02 4.71233419174212e-04
5.12602272727273e+00 3.46857751596134e-02 4.68369750805502e-04
5.14397727272727e+00 3.44145612083735e-02 4.65520629405982e-04
5.16193181818182e+00 3.41454679247236e-02 4.62686020670056e-04
5.17988636363636e+00 3.38784787273196e-02 4.59865890329181e-04
5.19784090909091e+00 3.36135771634448e-02 4.57060203293371e-04
5.21579545454545e+00 3.33507469100419e-02 4.54268923862526e-04
5.23375000000000e+00 3.30899717706854e-02 4.51492015773208e-04
5.25170454545455e+00 3.28312356765817e-02 4.48729442183114e-04
5.26965909090909e+00 3.25745226836040e-02 4.45981165716653e-04
5.28761363636364e+00 3.23198169732620e-02 4.43247148449447e-04
5.30556818181818e+00 3.20671028497973e-02 4.40527351952773e-04
5.32352272727273e+00 3.18163647411237e-02 4.37821737278127e-04
5.34147727272727e+00 3.15675871959824e-02 4.35130265196183e-04
5.35943181818182e+00 3.13207548843989e-02 4.32452895397280e-04
5.37738636363636e+00 3.10758525967173e-02 4.29789587705147e-04
5.39534090909091e+00 3.08328652413032e-02 4.27140301302675e-04
5.41329545454546e+00 3.05917778454213e-02 4.24504994920954e-04
5.43125000000000e+00 3.03525755525260e-02 4.21883626879988e-04
5.44920454545455e+00 3.01152436231119e-02 4.19276155073568e-04
5.46715909090909e+00 2.98797674320602e-02 4.16682537008922e-04
5.48511363636364e+00 2.96461324694624e-02 4.14102729791630e-04
5.50306818181818e+00 2.94143243380212e-02 4.11536690164309e-04
5.52102272727273e+00 2.91843287538490e-02 4.08984374491694e-04
5.53897727272727e+00 2.89561315439209e-02 4.06445738974554e-04
5.55693181818182e+00 2.87297186464475e-02 4.03920738928431e-04
5.57488636363636e+00 2.85050761099896e-02 4.01409329875766e-04
5.59284090909091e+00 2.82821900913961e-02 3.98911466847317e-04
5.61079545454546e+00 2.80610468565495e-02 3.96427104551494e-04
5.62875000000000e+00 2.78416327779390e-02 3.93956197409817e-04
5.64670454545455e+00 2.76239343353833e-02 3.91498699542273e-04
5.66465909090909e+00 2.74079381136528e-02 3.89054564801923e-04
