Energy (eV)          EEDF (eV^-(3/2))     First Anisotropy
5.34210526315789e-02 7.84506073675008e-02 6.70830692350876e-05
1.60263157894737e-01 7.70375112010169e-02 1.10145848799674e-04
2.67105263157895e-01 7.56498685050881e-02 1.43752421252656e-04
3.73947368421053e-01 7.42872208084762e-02 1.68299863588027e-04
4.80789473684210e-01 7.29491178847828e-02 1.87974396433588e-04
5.87631578947368e-01 7.16351176190487e-02 2.04386351337769e-04
6.94473684210526e-01 7.03447858585779e-02 2.18382784614484e-04
8.01315789473684e-01 6.90776962753177e-02 2.30483312419345e-04
9.08157894736842e-01 6.78334302179603e-02 2.41037843932787e-04
1.01500000000000e+00 6.66115765762602e-02 2.50297367318267e-04
1.12184210526316e+00 6.54117316472640e-02 2.58450350329207e-04
1.22868421052632e+00 6.42334989905058e-02 2.65643321237797e-04
1.33552631578947e+00 6.30764893234970e-02 2.71993358035368e-04
1.44236842105263e+00 6.19403203570059e-02 2.77596089772656e-04
1.54921052631579e+00 6.08246167046188e-02 2.82531052723532e-04
1.65605263157895e+00 5.97290097264157e-02 2.86865406800277e-04
1.76289473684211e+00 5.86531374364409e-02 2.90656591784828e-04
1.86973684210526e+00 5.75966443564052e-02 2.93954275553332e-04
1.97657894736842e+00 5.65591814227033e-02 2.96801813877693e-04
2.08342105263158e+00 5.55404058485502e-02 2.99237366362384e-04
2.19026315789474e+00 5.45399810269324e-02 3.01294761380279e-04
2.29710526315789e+00 5.35575764186101e-02 3.03004181480212e-04
2.40394736842105e+00 5.25928674289557e-02 3.04392707917290e-04
2.51078947368421e+00 5.16455353187378e-02 3.05484762282019e-04
2.61763157894737e+00 5.07152670819934e-02 3.06302467465040e-04
2.72447368421053e+00 4.98017553583284e-02 3.06865945300927e-04
2.83131578947368e+00 4.89046983166354e-02 3.07193564725950e-04
2.93815789473684e+00 4.80237995691968e-02 3.07302149880276e-04
3.04500000000000e+00 4.71587680607470e-02 3.07207156408594e-04
3.15184210526316e+00 4.63093179845668e-02 3.06922821412720e-04
3.25868421052632e+00 4.54751686764795e-02 3.06462292240493e-04
3.36552631578947e+00 4.46560445330571e-02 3.05837737354894e-04
3.47236842105263e+00 4.38516749102049e-02 3.05060442693182e-04
3.57921052631579e+00 4.30617940435547e-02 3.04140895480927e-04
3.68605263157895e+00 4.22861409513405e-02 3.03088857839429e-04
3.79289473684211e+00 4.15244593570189e-02 3.01913431385539e-04
3.89973684210526e+00 4.07764975961773e-02 3.00623114489943e-04
4.00657894736842e+00 4.00420085413960e-02 2.99225852921397e-04
4.11342105263158e+00 3.93207495129610e-02 2.97729085277884e-04
4.22026315789474e+00 3.86124822042878e-02 2.96139782601778e-04
4.32710526315790e+00 3.79169726029647e-02 2.94464485688128e-04
4.43394736842105e+00 3.72339909084037e-02 2.92709336966505e-04
4.54078947368421e+00 3.65633114625043e-02 2.90880110019080e-04
4.64763157894737e+00 3.59047126687954e-02 2.88982236248750e-04
4.75447368421053e+00 3.52579769252445e-02 2.87020828947100e-04
4.86131578947368e+00 3.46228905465942e-02 2.85000705310121e-04
4.96815789473684e+00 3.39992436992827e-02 2.82926406393790e-04
5.07500000000000e+00 3.33868303268216e-02 2.80802215465927e-04
5.18184210526316e+00 3.27854480867888e-02 2.78632174704601e-04
5.28868421052632e+00 3.21948982791046e-02 2.76420100630353e-04
5.39552631578947e+00 3.16149857850548e-02 2.74169598195596e-04
5.50236842105263e+00 3.10455189983337e-02 2.71884073865043e-04
5.60921052631579e+00 3.04863097660494e-02 2.69566747593640e-04
5.71605263157895e+00 2.99371733224120e-02 2.67220663993845e-04
5.82289473684211e+00 2.93979282316731e-02 2.64848702588549e-04
5.92973684210526e+00 2.88683963243424e-02 2.62453587407750e-04
6.03657894736842e+00 2.83484026420126e-02 2.60037895819873e-04
6.14342105263158e+00 2.78377753759971e-02 2.57604066927962e-04
6.25026315789474e+00 2.73363458131902e-02 2.55154408819537e-04
6.35710526315789e+00 2.68439482802294e-02 2.52691106372527e-04
6.46394736842105e+00 2.63604200863665e-02 2.50216227549974e-04
6.57078947368421e+00 2.58856014728601e-02 2.47731729738014e-04
6.67763157894737e+00 2.54193355571571e-02 2.45239465646206e-04
6.78447368421053e+00 2.49614682839840e-02 2.42741188767809e-04
6.89131578947368e+00 2.45118483716236e-02 2.40238558569345e-04
6.99815789473684e+00 2.40703272646552e-02 2.37733145298921e-04
7.10500000000000e+00 2.36367590822416e-02 2.35226434569037e-04
7.21184210526316e+00 2.32110005724689e-02 2.32719831607161e-04
7.31868421052632e+00 2.27929110625624e-02 2.30214665317765e-04
7.42552631578947e+00 2.23823524147783e-02 2.27712192053112e-04
7.53236842105263e+00 2.19791889784716e-02 2.25213599226020e-04
7.63921052631579e+00 2.15832875474908e-02 2.22720008665937e-04
7.74605263157895e+00 2.11945173140254e-02 2.20232479842164e-04
7.85289473684210e+00 2.08127498274569e-02 2.17752012859790e-04
7.95973684210526e+00 2.04378589499154e-02 2.15279551343732e-04
8.06657894736842e+00 2.00697208165409e-02 2.12815985120536e-04
8.17342105263158e+00 1.97082137926829e-02 2.10362152867014e-04
8.28026315789474e+00 1.93532184351009e-02 2.07918844270887e-04
8.38710526315789e+00 1.90046174524529e-02 2.05486802723130e-04
8.49394736842105e+00 1.86622956652684e-02 2.03066727256078e-04
8.60078947368421e+00 1.83261399695729e-02 2.00659274665885e-04
8.70763157894737e+00 1.79960392978907e-02 1.98265061505966e-04
8.81447368421053e+00 1.76718845841238e-02 1.95884665940812e-04
8.92131578947368e+00 1.73535687259894e-02 1.93518629548357e-04
9.02815789473684e+00 1.70409865511123e-02 1.91167458995939e-04
9.13500000000000e+00 1.67340347808416e-02 1.88831627672914e-04
9.24184210526316e+00 1.64326119975172e-02 1.86511577208512e-04
9.34868421052632e+00 1.61366186096131e-02 1.84207718953150e-04
9.45552631578947e+00 1.58459568201392e-02 1.81920435355309e-04
9.56236842105263e+00 1.55605305930610e-02 1.79650081307678e-04
9.66921052631579e+00 1.52802456227984e-02 1.77396985397968e-04
9.77605263157895e+00 1.50050093018746e-02 1.75161451133977e-04
9.88289473684210e+00 1.47347306914746e-02 1.72943758081414e-04
9.98973684210526e+00 1.44693204902766e-02 1.70744163020978e-04
1.00965789473684e+01 1.42086910057795e-02 1.68562900820977e-04
1.02034210526316e+01 1.39527561253010e-02 1.66400185660229e-04
1.03102631578947e+01 1.37014312870011e-02 1.64256211939939e-04
1.04171052631579e+01 1.34546334522174e-02 1.62131155113991e-04
1.05239473684211e+01 1.32122810780268e-02 1.60025172609951e-04
1.06307894736842e+01 1.29742940903031e-02 1.57938404666067e-04
1.07376315789474e+01 1.27405938572601e-02 1.55870975131973e-04
1.08444736842105e+01 1.25111031634720e-02 1.53822992234498e-04
1.09513157894737e+01 1.22857461843602e-02 1.51794549310242e-04
1.10581578947368e+01 1.20644484611413e-02 1.49785725506502e-04
1.11650000000000e+01 1.18471368762253e-02 1.47796586767354e-04
1.12718421052632e+01 1.16337396271811e-02 1.45827185516519e-04
1.13786842105263e+01 1.14241862087283e-02 1.43877561917473e-04
1.14855263157895e+01 1.12184073836368e-02 1.41947745127879e-04
1.15923684210526e+01 1.10163351618164e-02 1.40037752854131e-04
1.16992105263158e+01 1.08179027778527e-02 1.38147592232036e-04
1.18060526315789e+01 1.06230446689475e-02 1.36277260343611e-04
1.19128947368421e+01 1.04316964532565e-02 1.34426744712125e-04
1.20197368421053e+01 1.02437949086174e-02 1.32596023776373e-04
1.21265789473684e+01 1.00592779516611e-02 1.30785067345041e-04
1.22334210526316e+01 9.87808461729901e-03 1.28993837032254e-04
1.23402631578947e+01 9.70015503857883e-03 1.27222286674420e-04
1.24471052631579e+01 9.52543042690666e-03 1.25470362730042e-04
1.25539473684211e+01 9.35385305262171e-03 1.23738004663237e-04
1.26607894736842e+01 9.18536622592224e-03 1.22025145310781e-04
1.27676315789474e+01 9.01991427813508e-03 1.20331711234078e-04
1.28744736842105e+01 8.85744254332244e-03 1.18657623056512e-04
1.29813157894737e+01 8.69789734022008e-03 1.17002795786824e-04
1.30881578947368e+01 8.54122595450083e-03 1.15367139129064e-04
1.31950000000000e+01 8.38737662135754e-03 1.13750557985134e-04
1.33018421052632e+01 8.23629850727506e-03 1.12152952114883e-04
1.34086842105263e+01 8.08794169665937e-03 1.10574216829291e-04
1.35155263157895e+01 7.94225717186870e-03 1.09014243686058e-04
1.36223684210526e+01 7.79919679819457e-03 1.07472920083480e-04
1.37292105263158e+01 7.65871330795790e-03 1.05950129722859e-04
1.38360526315789e+01 7.52076028489157e-03 1.04445752838890e-04
1.39428947368421e+01 7.38529214880432e-03 1.02959666420454e-04
1.40497368421053e+01 7.25226414052088e-03 1.01491744422206e-04
1.41565789473684e+01 7.12163230709336e-03 1.00041857967321e-04
1.42634210526316e+01 6.99335348727903e-03 9.86098755418705e-05
1.43702631578947e+01 6.86738529727919e-03 9.71956631807521e-05
1.44771052631579e+01 6.74368611673641e-03 9.57990846459974e-05
1.45839473684211e+01 6.62221507498251e-03 9.44200015977860e-05
1.46907894736842e+01 6.50293203753471e-03 9.30582737579292e-05
1.47976315789474e+01 6.38579759283503e-03 9.17137590665293e-05
1.49044736842105e+01 6.27077303922858e-03 9.03863138319857e-05
1.50113157894737e+01 6.15782037217637e-03 8.90757928746108e-05
1.51181578947368e+01 6.04690227169850e-03 8.77820496640943e-05
1.52250000000000e+01 5.93798209004344e-03 8.65049365865095e-05
1.53318421052632e+01 5.83102383888900e-03 8.52443046584518e-05
1.54386842105263e+01 5.72599217955339e-03 8.40000039243251e-05
1.55455263157895e+01 5.62285240918643e-03 8.27718838576208e-05
1.56523684210526e+01 5.52157045002515e-03 8.15597930381666e-05
1.57592105263158e+01 5.42211283813436e-03 8.03635794037386e-05
1.58660526315789e+01 5.32444671235004e-03 7.91830903507179e-05
1.59728947368421e+01 5.22853980342188e-03 7.80181728302722e-05
1.60797368421053e+01 5.13436042335140e-03 7.68686734402427e-05
1.61865789473684e+01 5.04187745492211e-03 7.57344385128815e-05
1.62934210526316e+01 4.95106034141828e-03 7.46153141986760e-05
1.64002631578947e+01 4.86187907652859e-03 7.35111465461738e-05
1.65071052631579e+01 4.77430419443252e-03 7.24217815782421e-05
1.66139473684211e+01 4.68830676006442e-03 7.13470653649197e-05
1.67207894736842e+01 4.60385835955326e-03 7.02868440926762e-05
1.68276315789474e+01 4.52093109083458e-03 6.92409641304655e-05
1.69344736842105e+01 4.43949755443154e-03 6.82092720926377e-05
1.70413157894737e+01 4.35953084440202e-03 6.71916148988245e-05
1.71481578947368e+01 4.28100453944882e-03 6.61878398309168e-05
1.72550000000000e+01 4.20389269418995e-03 6.51977946773399e-05
1.73618421052632e+01 4.12816983015463e-03 6.42213275107056e-05
1.74686842105263e+01 4.05381092867821e-03 6.32582869207822e-05
1.75755263157895e+01 3.98079142130390e-03 6.23085222512209e-05
1.76823684210526e+01 3.90908718211566e-03 6.13718833557163e-05
1.77892105263158e+01 3.83867451976702e-03 6.04482207370090e-05
1.78960526315789e+01 3.76953016965329e-03 5.95373855864179e-05
1.80028947368421e+01 3.70163128622491e-03 5.86392298212446e-05
1.81097368421053e+01 3.63495543543911e-03 5.77536061201367e-05
1.82165789473684e+01 3.56948058734771e-03 5.68803679564929e-05
1.83234210526316e+01 3.50518510881829e-03 5.60193696300171e-05
1.84302631578947e+01 3.44204775638637e-03 5.51704662963533e-05
1.85371052631579e+01 3.38004766923683e-03 5.43335139950531e-05
1.86439473684211e+01 3.31916436231122e-03 5.35083696759359e-05
1.87507894736842e+01 3.25937771953945e-03 5.26948912237393e-05
1.88576315789474e+01 3.20066798719335e-03 5.18929374812580e-05
1.89644736842105e+01 3.14301576735996e-03 5.11023682709992e-05
1.90713157894737e+01 3.08640201153240e-03 5.03230444154150e-05
1.91781578947368e+01 3.03080801431617e-03 4.95548277557643e-05
1.92850000000000e+01 2.97621540724880e-03 4.87975812300020e-05
1.93918421052632e+01 2.92260615245740e-03 4.80511687056744e-05
1.94986842105263e+01 2.86996253753078e-03 4.73154551182303e-05
1.96055263157895e+01 2.81826716882346e-03 4.65903066123933e-05
1.97123684210526e+01 2.76750296599409e-03 4.58755903621984e-05
1.98192105263158e+01 2.71765315636196e-03 4.51711746478419e-05
1.99260526315789e+01 2.66870126936528e-03 4.44769288663794e-05
2.00328947368421e+01 2.62063113111927e-03 4.37927235414443e-05
2.01397368421053e+01 2.57342685907221e-03 4.31184303320231e-05
2.02465789473684e+01 2.52707285675777e-03 4.24539220403189e-05
2.03534210526316e+01 2.48155380864195e-03 4.17990726187737e-05
2.04602631578947e+01 2.43685467506262e-03 4.11537571761943e-05
2.05671052631579e+01 2.39296068726053e-03 4.05178519831256e-05
2.06739473684211e+01 2.34985734249965e-03 3.98912344765042e-05
2.07807894736842e+01 2.30753039927530e-03 3.92737832635138e-05
2.08876315789474e+01 2.26596587260879e-03 3.86653781247659e-05
2.09944736842105e+01 2.22515002942668e-03 3.80659000168087e-05
2.11013157894737e+01 2.18506938402333e-03 3.74752310740005e-05
2.12081578947368e+01 2.14571069360521e-03 3.68932546097684e-05
2.13150000000000e+01 2.10706095391536e-03 3.63198551579212e-05
2.14218421052632e+01 2.06910739476161e-03 3.57549183492600e-05
2.15286842105263e+01 2.03183747633011e-03 3.51983309941359e-05
2.16355263157895e+01 1.99523888450177e-03 3.46499811673645e-05
2.17423684210526e+01 1.95929952696633e-03 3.41097580770103e-05
2.18492105263158e+01 1.92400752922696e-03 3.35775521063536e-05
2.19560526315789e+01 1.88935123067694e-03 3.30532548115669e-05
2.20628947368421e+01 1.85531918074693e-03 3.25367589189726e-05
2.21697368421053e+01 1.82190013512164e-03 3.20279583218972e-05
2.22765789473684e+01 1.78908305202469e-03 3.15267480771433e-05
2.23834210526316e+01 1.75685708857036e-03 3.10330244011108e-05
2.24902631578947e+01 1.72521159718100e-03 3.05466846655348e-05
2.25971052631579e+01 1.69413612206915e-03 3.00676273929177e-05
2.27039473684211e+01 1.66362039578285e-03 2.95957522516803e-05
2.28107894736842e+01 1.63365433581322e-03 2.91309600509735e-05
2.29176315789474e+01 1.60422804126319e-03 2.86731527352231e-05
2.30244736842105e+01 1.57533178957617e-03 2.82222333784118e-05
2.31313157894737e+01 1.54695603332372e-03 2.77781061781058e-05
2.32381578947368e+01 1.51909139705102e-03 2.73406764492469e-05
2.33450000000000e+01 1.49172867417917e-03 2.69098506452159e-05
2.34518421052632e+01 1.46485882385008e-03 2.64855362676349e-05
2.35586842105263e+01 1.43847296828376e-03 2.60676419156462e-05
2.36655263157895e+01 1.41256238949588e-03 2.56560773369620e-05
2.37723684210526e+01 1.38711852653527e-03 2.52507533328526e-05
2.38792105263158e+01 1.36213297265546e-03 2.48515817804296e-05
2.39860526315789e+01 1.33759747253695e-03 2.44584756251178e-05
2.40928947368421e+01 1.31350391955973e-03 2.40713488729862e-05
2.41997368421053e+01 1.28984435312473e-03 2.36901165829385e-05
2.43065789473684e+01 1.26661095602365e-03 2.33146948587813e-05
2.44134210526316e+01 1.24379605185613e-03 2.29450008411856e-05
2.45202631578947e+01 1.22139210249340e-03 2.25809526995108e-05
2.46271052631579e+01 1.19939170558772e-03 2.22224696235517e-05
2.47339473684211e+01 1.17778759212656e-03 2.18694718152074e-05
2.48407894736842e+01 1.15657262403093e-03 2.15218804800408e-05
2.49476315789474e+01 1.13573979179691e-03 2.11796178187714e-05
2.50544736842105e+01 1.11528221217969e-03 2.08426070186982e-05
2.51613157894737e+01 1.09519312591932e-03 2.05107722450615e-05
2.52681578947368e+01 1.07546589550740e-03 2.01840386323462e-05
2.53750000000000e+01 1.05609400299408e-03 1.98623322942090e-05
2.54818421052632e+01 1.03707104776063e-03 1.95455802579526e-05
2.55886842105263e+01 1.01839074462915e-03 1.92337104938044e-05
2.56955263157895e+01 1.00004692155835e-03 1.89266519455005e-05
2.58023684210526e+01 9.82033517681203e-04 1.86243344617769e-05
2.59092105263158e+01 9.64344581302433e-04 1.83266888075981e-05
2.60160526315789e+01 9.46974267932014e-04 1.80336466552301e-05
2.61228947368421e+01 9.29916838354150e-04 1.77451405753009e-05
2.62297368421053e+01 9.13166656731011e-04 1.74611040278550e-05
2.63365789473684e+01 8.96718188740632e-04 1.71814713534013e-05
2.64434210526316e+01 8.80565999748352e-04 1.69061777639669e-05
2.65502631578947e+01 8.64704753011171e-04 1.66351593341408e-05
2.66571052631579e+01 8.49129207914512e-04 1.63683529921347e-05
2.67639473684211e+01 8.33834218240680e-04 1.61056965108664e-05
2.68707894736842e+01 8.18814730468531e-04 1.58471284990412e-05
2.69776315789474e+01 8.04065782103773e-04 1.55925883922569e-05
2.70844736842105e+01 7.89582500039337e-04 1.53420164441295e-05
2.71913157894737e+01 7.75360098945285e-04 1.50953537174439e-05
2.72981578947368e+01 7.61393879687721e-04 1.48525420753315e-05
2.74050000000000e+01 7.47679227776175e-04 1.46135241851976e-05
2.75118421052632e+01 7.34211611790578e-04 1.43782434713075e-05
2.76186842105263e+01 7.20986582031175e-04 1.41466441320167e-05
2.77255263157895e+01 7.07999768899212e-04 1.39186711579536e-05
2.78323684210526e+01 6.95246881503591e-04 1.36942702827536e-05
2.79392105263158e+01 6.82723706243148e-04 1.34733879881646e-05
2.80460526315789e+01 6.70426105414461e-04 1.32559714954809e-05
2.81528947368421e+01 6.58350015844736e-04 1.30419687570215e-05
2.82597368421053e+01 6.46491447549322e-04 1.28313284476537e-05
2.83665789473684e+01 6.34846482413402e-04 1.26239999563664e-05
2.84734210526316e+01 6.23411272897437e-04 1.24199333778958e-05
2.85802631578947e+01 6.12182040765911e-04 1.22190795043937e-05
2.86871052631579e+01 6.01155075839012e-04 1.20213898171541e-05
2.87939473684211e+01 5.90326734766764e-04 1.18268164784011e-05
2.89007894736842e+01 5.79693439825247e-04 1.16353123231225e-05
2.90076315789474e+01 5.69251677734506e-04 1.14468308509615e-05
2.91144736842105e+01 5.58997998497751e-04 1.12613262181681e-05
2.92213157894737e+01 5.48929014261464e-04 1.10787532296083e-05
2.93281578947368e+01 5.39041398196040e-04 1.08990673308316e-05
2.94350000000000e+01 5.29331883396588e-04 1.07222246088927e-05
2.95418421052632e+01 5.19797261771642e-04 1.05481817581352e-05
2.96486842105263e+01 5.10434383080161e-04 1.03768960901750e-05
2.97555263157895e+01 5.01240153792401e-04 1.02083255445741e-05
2.98623684210526e+01 4.92211536101006e-04 1.00424286534742e-05
2.99692105263158e+01 4.83345546917304e-04 9.87916454340750e-06
3.00760526315789e+01 4.74639256885688e-04 9.71849292780379e-06
3.01828947368421e+01 4.66089789415741e-04 9.56037409956263e-06
3.02897368421053e+01 4.57694319731803e-04 9.40476892368883e-06
3.03965789473684e+01 4.49450073939652e-04 9.25163882999529e-06
3.05034210526316e+01 4.41354328110003e-04 9.10094580587410e-06
3.06102631578947e+01 4.33404407378499e-04 8.95265238912649e-06
3.07171052631579e+01 4.25597685061947e-04 8.80672166086450e-06
3.08239473684211e+01 4.17931581790437e-04 8.66311723848424e-06
3.09307894736842e+01 4.10403564655117e-04 8.52180326869813e-06
3.10376315789474e+01 4.03011146371303e-04 8.38274442063780e-06
3.11444736842105e+01 3.95751884456676e-04 8.24590587902383e-06
3.12513157894737e+01 3.88623380424273e-04 8.11125333740240e-06
3.13581578947368e+01 3.81623278990021e-04 7.97875299144996e-06
3.14650000000000e+01 3.74749267294541e-04 7.84837153829670e-06
3.15718421052632e+01 3.67999074117843e-04 7.72007615188368e-06
3.16786842105263e+01 3.61370469193132e-04 7.59383448860993e-06
3.17855263157895e+01 3.54861262404835e-04 7.46961469347811e-06
3.18923684210526e+01 3.48469303086964e-04 7.34738537473728e-06
3.19992105263158e+01 3.42192479312530e-04 7.22711560400670e-06
3.21060526315789e+01 3.36028717195754e-04 7.10877491005015e-06
3.22128947368421e+01 3.29975980206848e-04 6.99233327261701e-06
3.23197368421053e+01 3.24032268499138e-04 6.87776111635020e-06
3.24265789473684e+01 3.18195618248308e-04 6.76502930476088e-06
3.25334210526316e+01 3.12464101003543e-04 6.65410913427005e-06
3.26402631578947e+01 3.06835823050357e-04 6.54497232831145e-06
3.27471052631579e+01 3.01308924784915e-04 6.43759103150371e-06
3.28539473684211e+01 2.95881580099607e-04 6.33193780389032e-06
3.29607894736842e+01 2.90551995779693e-04 6.22798561523944e-06
3.30676315789474e+01 2.85318410910820e-04 6.12570783941084e-06
3.31744736842105e+01 2.80179096297211e-04 6.02507824878712e-06
3.32813157894737e+01 2.75132353890329e-04 5.92607100876872e-06
3.33881578947368e+01 2.70176516227837e-04 5.82866067233224e-06
3.34950000000000e+01 2.65309945882663e-04 5.73282217873645e-06
3.36018421052632e+01 2.60531034907933e-04 5.63853083580018e-06
3.37086842105263e+01 2.55838204348419e-04 5.54576232297903e-06
