Energy (eV)          EEDF (eV^-(3/2))     First Anisotropy
4.71428571428571e-02 4.16522348573875e-01 5.75220032511096e-04
1.41428571428571e-01 3.96467150542017e-01 9.30111342647636e-04
2.35714285714286e-01 3.77377593231634e-01 1.17664361399570e-03
3.30000000000000e-01 3.59207181982152e-01 1.33529279322533e-03
4.24285714285714e-01 3.41911660649788e-01 1.44562086368317e-03
5.18571428571429e-01 3.25448904016603e-01 1.52359860595910e-03
6.12857142857143e-01 3.09778815139699e-01 1.57797472479940e-03
7.07142857142857e-01 2.94863227768509e-01 1.61429944483348e-03
8.01428571428571e-01 2.80665813291081e-01 1.63641258947658e-03
8.95714285714286e-01 2.67151992274677e-01 1.64712601795538e-03
9.90000000000000e-01 2.54288850290638e-01 1.64858232094853e-03
1.08428571428571e+00 2.42045057657108e-01 1.64246219361692e-03
1.17857142857143e+00 2.30390793308884e-01 1.63011313414882e-03
1.27285714285714e+00 2.19297671857543e-01 1.61263380532443e-03
1.36714285714286e+00 2.08738674840866e-01 1.59093182533151e-03
1.46142857142857e+00 1.98688084608352e-01 1.56576481320530e-03
1.55571428571429e+00 1.89121421739268e-01 1.53777038825108e-03
1.65000000000000e+00 1.80015385602463e-01 1.50748870139836e-03
1.74428571428571e+00 1.71347797357466e-01 1.47537969686174e-03
1.83857142857143e+00 1.63097546160314e-01 1.44183659018385e-03
1.93285714285714e+00 1.55244537541197e-01 1.40719656708193e-03
2.02714285714286e+00 1.47769644648500e-01 1.37174938804737e-03
2.12142857142857e+00 1.40654661526331e-01 1.33574440869381e-03
2.21571428571429e+00 1.33882258792495e-01 1.29939634429484e-03
2.31000000000000e+00 1.27435941521841e-01 1.26289007760428e-03
2.40428571428571e+00 1.21300008948696e-01 1.22638468410752e-03
2.49857142857143e+00 1.15459516338516e-01 1.19001683190485e-03
2.59285714285714e+00 1.09900238484486e-01 1.15390367539989e-03
2.68714285714286e+00 1.04608635156186e-01 1.11814532800881e-03
2.78142857142857e+00 9.95718180502321e-02 1.08282699538573e-03
2.87571428571429e+00 9.47775194087724e-02 1.04802080849910e-03
2.97000000000000e+00 9.02140621896926e-02 1.01378742393998e-03
3.06428571428571e+00 8.58703315593399e-02 9.80177414246442e-04
3.15857142857143e+00 8.17357478828052e-02 9.47232482816370e-04
3.25285714285714e+00 7.78002408987320e-02 9.14986530443522e-04
3.34714285714286e+00 7.40542252452683e-02 8.83466591055669e-04
3.44142857142857e+00 7.04885770745301e-02 8.52693660352527e-04
3.53571428571429e+00 6.70946118352511e-02 8.22683420887297e-04
3.63000000000000e+00 6.38640631492150e-02 7.93446889569228e-04
3.72428571428571e+00 6.07890626393243e-02 7.64990988985148e-04
3.81857142857143e+00 5.78621208009156e-02 7.37319054125085e-04
3.91285714285714e+00 5.50761087269860e-02 7.10431283424789e-04
4.00714285714286e+00 5.24242407759381e-02 6.84325138684976e-04
4.10142857142857e+00 4.99000580214554e-02 6.58995703622850e-04
4.19571428571429e+00 4.74974125236932e-02 6.34435998882192e-04
4.29000000000000e+00 4.52104523723627e-02 6.10637266606311e-04
4.38428571428571e+00 4.30336074109611e-02 5.87589222470598e-04
4.47857142857143e+00 4.09615756913286e-02 5.65280280173018e-04
4.57285714285714e+00 3.89893105402207e-02 5.43697752073625e-04
4.66714285714286e+00 3.71120082862144e-02 5.22828027206748e-04
4.76142857142857e+00 3.53250965460219e-02 5.02656731548906e-04
4.85571428571429e+00 3.36242230894451e-02 4.83168867869404e-04
4.95000000000000e+00 3.20052452494805e-02 4.64348942680639e-04
5.04428571428571e+00 3.04642198184604e-02 4.46181078008699e-04
5.13857142857143e+00 2.89973934569759e-02 4.28649110490522e-04
5.23285714285714e+00 2.76011935399539e-02 4.11736679556720e-04
5.32714285714286e+00 2.62722194666019e-02 3.95427304936726e-04
5.42142857142857e+00 2.50072343693623e-02 3.79704456210467e-04
5.51571428571429e+00 2.38031572310502e-02 3.64551612207860e-04
5.61000000000000e+00 2.26570553872025e-02 3.49952314854464e-04
5.70428571428571e+00 2.15661373745691e-02 3.35890215628032e-04
5.79857142857143e+00 2.05277461403317e-02 3.22349116000614e-04
5.89285714285714e+00 1.95393525628999e-02 3.09313002780665e-04
5.98714285714286e+00 1.85985492991357e-02 2.96766078292957e-04
6.08142857142857e+00 1.77030449156739e-02 2.84692787013049e-04
6.17571428571429e+00 1.68506583084209e-02 2.73077837017171e-04
6.27000000000000e+00 1.60393133943468e-02 2.61906219160826e-04
6.36428571428571e+00 1.52670340494705e-02 2.51163222625303e-04
6.45857142857143e+00 1.45319393009389e-02 2.40834447628474e-04
6.55285714285714e+00 1.38322387408563e-02 2.30905815801760e-04
6.64714285714286e+00 1.31662281701032e-02 2.21363578095441e-04
6.74142857142857e+00 1.25322854441880e-02 2.12194321207993e-04
6.83571428571429e+00 1.19288665226666e-02 2.03384971361141e-04
6.93000000000000e+00 1.13545017110914e-02 1.94922797305493e-04
7.02428571428571e+00 1.08077920778997e-02 1.86795411579482e-04
7.11857142857143e+00 1.02874060504567e-02 1.78990770499136e-04
7.21285714285714e+00 9.79207616875211e-03 1.71497173163734e-04
7.30714285714286e+00 9.32059600128322e-03 1.64303259337857e-04
7.40142857142857e+00 8.87181720448666e-03 1.57398006837649e-04
7.49571428571429e+00 8.44464672602850e-03 1.50770727587487e-04
7.59000000000000e+00 8.03804414425217e-03 1.44411063583238e-04
7.68428571428572e+00 7.65101913185227e-03 1.38308982070233e-04
7.77857142857143e+00 7.28262904595109e-03 1.32454770228795e-04
7.87285714285714e+00 6.93197663017609e-03 1.26839029532631e-04
7.96714285714286e+00 6.59820783118375e-03 1.21452669661290e-04
8.06142857142857e+00 6.28050971711261e-03 1.16286902368742e-04
8.15571428571429e+00 5.97810849772971e-03 1.11333234722425e-04
8.25000000000000e+00 5.69026764088321e-03 1.06583462531150e-04
8.34428571428571e+00 5.41628607712405e-03 1.02029663475363e-04
8.43857142857143e+00 5.15549649355892e-03 9.76641901220935e-05
8.53285714285714e+00 4.90726370722531e-03 9.34796629215772e-05
8.62714285714286e+00 4.67098311926585e-03 8.94689630912757e-05
8.72142857142857e+00 4.44607924144425e-03 8.56252256475898e-05
8.81571428571429e+00 4.23200429456455e-03 8.19418321753217e-05
8.91000000000000e+00 4.02823687501737e-03 7.84124038804246e-05
9.00428571428571e+00 3.83428068387925e-03 7.50307945850860e-05
9.09857142857143e+00 3.64966331902924e-03 7.17910837797876e-05
9.19285714285714e+00 3.47393512370183e-03 6.86875697895828e-05
9.28714285714286e+00 3.30666809210685e-03 6.57147629824085e-05
9.38142857142857e+00 3.14745482637249e-03 6.28673791892540e-05
9.47571428571429e+00 2.99590754433719e-03 6.01403330496895e-05
9.57000000000000e+00 2.85165713553951e-03 5.75287316483170e-05
9.66428571428571e+00 2.71435226157356e-03 5.50278682035351e-05
9.75857142857143e+00 2.58365850096329e-03 5.26332158812049e-05
9.85285714285714e+00 2.45925753407537e-03 5.03404217669919e-05
9.94714285714286e+00 2.34084636834985e-03 4.81453009432446e-05
1.00414285714286e+01 2.22813659993137e-03 4.60438307519177e-05
1.01357142857143e+01 2.12085371157034e-03 4.40321451867245e-05
1.02300000000000e+01 2.01873640346816e-03 4.21065295020993e-05
1.03242857142857e+01 1.92153595638956e-03 4.02634145569613e-05
1.04185714285714e+01 1.82901562859366e-03 3.84993718678893e-05
1.05128571428571e+01 1.74095007628869e-03 3.68111087656049e-05
1.06071428571429e+01 1.65712480579672e-03 3.51954631779605e-05
1.07014285714286e+01 1.57733565112846e-03 3.36493989863402e-05
1.07957142857143e+01 1.50138827671656e-03 3.21700014129384e-05
1.08900000000000e+01 1.42909770408755e-03 3.07544726098724e-05
1.09842857142857e+01 1.36028786072040e-03 2.94001271319933e-05
1.10785714285714e+01 1.29479115308301e-03 2.81043878675980e-05
1.11728571428571e+01 1.23244805648819e-03 2.68647821160199e-05
1.12671428571429e+01 1.17310672722810e-03 2.56789374329491e-05
1.13614285714286e+01 1.11662263274064e-03 2.45445778997603e-05
1.14557142857143e+01 1.06285819958573e-03 2.34595204429053e-05
1.15500000000000e+01 1.01168247836850e-03 2.24216713191230e-05
1.16442857142857e+01 9.62970824393007e-04 2.14290225462847e-05
1.17385714285714e+01 9.16604595331593e-04 2.04796486731247e-05
1.18328571428571e+01 8.72470860956022e-04 1.95717036727827e-05
1.19271428571429e+01 8.30462128533375e-04 1.87034176982264e-05
1.20214285714286e+01 7.90476081014678e-04 1.78730941494908e-05
1.21157142857143e+01 7.52415327831222e-04 1.70791067945854e-05
1.22100000000000e+01 7.16187167688060e-04 1.63198970226298e-05
1.23042857142857e+01 6.81703362508783e-04 1.55939710766375e-05
1.23985714285714e+01 6.48879923362618e-04 1.48998975357630e-05
1.24928571428571e+01 6.17636905028007e-04 1.42363048980869e-05
1.25871428571429e+01 5.87898211578415e-04 1.36018790827402e-05
1.26814285714286e+01 5.59591411041657e-04 1.29953611603813e-05
1.27757142857143e+01 5.32647558984315e-04 1.24155451335547e-05
1.28700000000000e+01 5.07001030589286e-04 1.18612758203584e-05
1.29642857142857e+01 4.82589360637238e-04 1.13314467355636e-05
1.30585714285714e+01 4.59353091930335e-04 1.08249981546080e-05
1.31528571428571e+01 4.37235629891967e-04 1.03409152572151e-05
1.32471428571429e+01 4.16183104926661e-04 9.87822622513444e-06
1.33414285714286e+01 3.96144241214306e-04 9.43600050655719e-06
1.34357142857143e+01 3.77070231822521e-04 9.01334712366604e-06
1.35300000000000e+01 3.58914619831537e-04 8.60941305970933e-06
1.36242857142857e+01 3.41633185060619e-04 8.22338165208717e-06
1.37185714285714e+01 3.25183836745184e-04 7.85447111905045e-06
1.38128571428571e+01 3.09526510625722e-04 7.50193314835609e-06
1.39071428571429e+01 2.94623071503018e-04 7.16505146084656e-06
1.40014285714286e+01 2.80437220355383e-04 6.84314049536507e-06
1.40957142857143e+01 2.66934405928549e-04 6.53554412938308e-06
1.41900000000000e+01 2.54081740581981e-04 6.24163446016754e-06
1.42842857142857e+01 2.41847920104608e-04 5.96081059538200e-06
1.43785714285714e+01 2.30203147726638e-04 5.69249754104789e-06
1.44728571428571e+01 2.19119061280051e-04 5.43614513708154e-06
1.45671428571429e+01 2.08568664211284e-04 5.19122697999125e-06
1.46614285714286e+01 1.98526259827951e-04 4.95723943371065e-06
1.47557142857143e+01 1.88967388711819e-04 4.73370066916137e-06
1.48500000000000e+01 1.79868769144993e-04 4.52014974950438e-06
1.49442857142857e+01 1.71208240348707e-04 4.31614572552051e-06
1.50385714285714e+01 1.62964708681943e-04 4.12126680177664e-06
1.51328571428571e+01 1.55118096085480e-04 3.93510953895581e-06
1.52271428571429e+01 1.47649291241699e-04 3.75728805037257e-06
1.53214285714286e+01 1.40540103026737e-04 3.58743326239199e-06
1.54157142857143e+01 1.33773216204048e-04 3.42519219749424e-06
1.55100000000000e+01 1.27332149251109e-04 3.27022729158291e-06
1.56042857142857e+01 1.21201214178871e-04 3.12221572077337e-06
1.56985714285714e+01 1.15365478439628e-04 2.98084877954952e-06
1.57928571428571e+01 1.09810728435115e-04 2.84583128619063e-06
1.58871428571429e+01 1.04523434939821e-04 2.71688098627422e-06
1.59814285714286e+01 9.94907201489815e-05 2.59372800244092e-06
1.60757142857143e+01 9.47003263133015e-05 2.47611430174128e-06
1.61700000000000e+01 9.01405858837617e-05 2.36379318850500e-06
1.62642857142857e+01 8.58003930682235e-05 2.25652880547297e-06
1.63585714285714e+01 8.16691768619700e-05 2.15409567214705e-06
1.64528571428571e+01 7.77368752179913e-05 2.05627824357102e-06
1.65471428571429e+01 7.39939105683446e-05 1.96287046922248e-06
1.66414285714286e+01 7.04311664968699e-05 1.87367538535088e-06
1.67357142857143e+01 6.70399655351739e-05 1.78850472080845e-06
1.68300000000000e+01 6.38120480276367e-05 1.70717852181491e-06
1.69242857142857e+01 6.07395519965627e-05 1.62952478361803e-06
1.70185714285714e+01 5.78149940478286e-05 1.55537910908257e-06
1.71128571428571e+01 5.50312510878904e-05 1.48458438250482e-06
1.72071428571429e+01 5.23815429941422e-05 1.41699044449873e-06
1.73014285714286e+01 4.98594161011383e-05 1.35245379103496e-06
1.73957142857143e+01 4.74587274819911e-05 1.29083728273976e-06
1.74900000000000e+01 4.51736299865529e-05 1.23200986818521e-06
1.75842857142857e+01 4.29985579880818e-05 1.17584631276915e-06
1.76785714285714e+01 4.09282138645760e-05 1.12222694705511e-06
1.77728571428571e+01 3.89575550574393e-05 1.07103742640827e-06
1.78671428571429e+01 3.70817818030120e-05 1.02216849206159e-06
1.79614285714286e+01 3.52963254421892e-05 9.75515749605819e-07
1.80557142857143e+01 3.35968372929542e-05 9.30979455223474e-07
1.81500000000000e+01 3.19791780586548e-05 8.88464312227500e-07
1.82442857142857e+01 3.04394077381331e-05 8.47879272037200e-07
1.83385714285714e+01 2.89737760546815e-05 8.09137349202284e-07
1.84328571428571e+01 2.75787132956398e-05 7.72155444775987e-07
1.85271428571429e+01 2.62508216269967e-05 7.36854171155751e-07
1.86214285714286e+01 2.49868668175704e-05 7.03157689482386e-07
1.87157142857143e+01 2.37837703616857e-05 6.70993552848427e-07
1.88100000000000e+01 2.26386019811142e-05 6.40292557074391e-07
1.89042857142857e+01 2.15485724824854e-05 6.10988594952736e-07
1.89985714285714e+01 2.05110269811565e-05 5.83018520623602e-07
1.90928571428571e+01 1.95234384170577e-05 5.56322020101549e-07
1.91871428571429e+01 1.85834014059265e-05 5.30841483150506e-07
1.92814285714286e+01 1.76886263807152e-05 5.06521884203093e-07
1.93757142857143e+01 1.68369340150999e-05 4.83310667615539e-07
1.94700000000000e+01 1.60262499154774e-05 4.61157638466759e-07
1.95642857142857e+01 1.52545995647385e-05 4.40014856034800e-07
1.96585714285714e+01 1.45201035249171e-05 4.19836534574395e-07
1.97528571428571e+01 1.38209728473765e-05 4.00578948613454e-07
1.98471428571429e+01 1.31555047198451e-05 3.82200339414570e-07
1.99414285714286e+01 1.25220783190200e-05 3.64660827945448e-07
2.00357142857143e+01 1.19191508628740e-05 3.47922331071112e-07
2.01300000000000e+01 1.13452538530301e-05 3.31948481798862e-07
2.02242857142857e+01 1.07989894954621e-05 3.16704551570596e-07
2.03185714285714e+01 1.02790273040940e-05 3.02157377812369e-07
2.04128571428571e+01 9.78410085187733e-06 2.88275294795780e-07
2.05071428571429e+01 9.31300468915585e-06 2.75028065467809e-07
2.06014285714286e+01 8.86459140765323e-06 2.62386817961810e-07
2.06957142857143e+01 8.43776884583408e-06 2.50323984493719e-07
2.07900000000000e+01 8.03149742881769e-06 2.38813243215151e-07
2.08842857142857e+01 7.64478763458914e-06 2.27829461619813e-07
2.09785714285714e+01 7.27669758944888e-06 2.17348643732886e-07
2.10728571428571e+01 6.92633076823340e-06 2.07347879722339e-07
2.11671428571429e+01 6.59283381270801e-06 1.97805296294047e-07
2.12614285714286e+01 6.27539445311429e-06 1.88700010451547e-07
2.13557142857143e+01 5.97323952979755e-06 1.80012085016035e-07
2.14500000000000e+01 5.68563311008682e-06 1.71722486299979e-07
2.15442857142857e+01 5.41187469462159e-06 1.63813042951613e-07
2.16385714285714e+01 5.15129751500930e-06 1.56266407519848e-07
2.17328571428571e+01 4.90326690589757e-06 1.49066019786959e-07
2.18271428571429e+01 4.66717876053423e-06 1.42196070723391e-07
2.19214285714286e+01 4.44245805939560e-06 1.35641468859622e-07
2.20157142857143e+01 4.22855746966294e-06 1.29387807953382e-07
2.21100000000000e+01 4.02495601212994e-06 1.23421336223074e-07
2.22042857142857e+01 3.83115779145690e-06 1.17728926458966e-07
2.22985714285714e+01 3.64669079097338e-06 1.12298048089587e-07
2.23928571428571e+01 3.47110572032375e-06 1.07116740536234e-07
2.24871428571429e+01 3.30397492210315e-06 1.02173587053980e-07
2.25814285714286e+01 3.14489133024860e-06 9.74576903081858e-08
2.26757142857143e+01 2.99346747858454e-06 9.29586489018860e-08
2.27700000000000e+01 2.84933455710413e-06 8.86665350406179e-08
2.28642857142857e+01 2.71214151311187e-06 8.45718728522528e-08
2.29585714285714e+01 2.58155419799050e-06 8.06656181113048e-08
2.30528571428571e+01 2.45725455148524e-06 7.69391389004097e-08
2.31471428571429e+01 2.33893982767365e-06 7.33841966478649e-08
2.32414285714286e+01 2.22632185759307e-06 6.99929284107018e-08
2.33357142857143e+01 2.11912634737316e-06 6.67578298542529e-08
2.34300000000000e+01 2.01709221016149e-06 6.36717390567456e-08
2.35242857142857e+01 1.91997092981868e-06 6.07278208007146e-08
2.36185714285714e+01 1.82752595686447e-06 5.79195518728016e-08
2.37128571428571e+01 1.73953213105579e-06 5.52407070444579e-08
2.38071428571429e+01 1.65577513342490e-06 5.26853453406267e-08
2.39014285714286e+01 1.57605096428082e-06 5.02477972019405e-08
2.39957142857143e+01 1.50016544634552e-06 4.79226521560845e-08
2.40900000000000e+01 1.42793375181266e-06 4.57047470869064e-08
2.41842857142857e+01 1.35917995190435e-06 4.35891548640917e-08
2.42785714285714e+01 1.29373658922721e-06 4.15711736965155e-08
2.43728571428571e+01 1.23144426903041e-06 3.96463169796852e-08
2.44671428571429e+01 1.17215127128557e-06 3.78103033620308e-08
2.45614285714286e+01 1.11571318115520e-06 3.60590474519203e-08
2.46557142857143e+01 1.06199253725430e-06 3.43886508962478e-08
2.47500000000000e+01 1.01085849684730e-06 3.27953938916544e-08
2.48442857142857e+01 9.62186516976764e-07 3.12757269619899e-08
2.49385714285714e+01 9.15858051711048e-07 2.98262632549117e-08
2.50328571428571e+01 8.71760262805484e-07 2.84437711966081e-08
2.51271428571429e+01 8.29785745081461e-07 2.71251673117687e-08
2.52214285714286e+01 7.89832264828760e-07 2.58675095028408e-08
2.53157142857143e+01 7.51802510803978e-07 2.46679906000161e-08
2.54100000000000e+01 7.15603857217775e-07 2.35239322240513e-08
2.55042857142857e+01 6.81148138003963e-07 2.24327788451566e-08
2.55985714285714e+01 6.48351432485195e-07 2.13920922141423e-08
2.56928571428571e+01 6.17133860556303e-07 2.03995460528719e-08
2.57871428571429e+01 5.87419388271628e-07 1.94529208688162e-08
2.58814285714286e+01 5.59135642655601e-07 1.85500990987184e-08
2.59757142857143e+01 5.32213735430303e-07 1.76890604492334e-08
2.60700000000000e+01 5.06588095230127e-07 1.68678774635792e-08
2.61642857142857e+01 4.82196307805373e-07 1.60847112322331e-08
2.62585714285714e+01 4.58978964284121e-07 1.53378073704685e-08
2.63528571428571e+01 4.36879516186547e-07 1.46254921834675e-08
2.64471428571429e+01 4.15844137794305e-07 1.39461689242011e-08
2.65414285714286e+01 3.95821595051799e-07 1.32983142870645e-08
2.66357142857143e+01 3.76763120779936e-07 1.26804750446375e-08
2.67300000000000e+01 3.58622295898045e-07 1.20912648476016e-08
2.68242857142857e+01 3.41354936302857e-07 1.15293611302560e-08
2.69185714285714e+01 3.24918985445655e-07 1.09935022072441e-08
2.70128571428571e+01 3.09274411699493e-07 1.04824845058483e-08
2.71071428571429e+01 2.94383110926400e-07 9.99515986735261e-09
2.72014285714286e+01 2.80208813670380e-07 9.53043301723453e-09
2.72957142857143e+01 2.66716996819103e-07 9.08725913923006e-09
2.73900000000000e+01 2.53874799518892e-07 8.66464156709329e-09
2.74842857142857e+01 2.41650943095498e-07 8.26162955362324e-09
2.75785714285714e+01 2.30015655004359e-07 7.87731617666161e-09
2.76728571428571e+01 2.18940596178517e-07 7.51083634299238e-09
2.77671428571429e+01 2.08398792053116e-07 7.16136484348412e-09
2.78614285714286e+01 1.98364566865754e-07 6.82811452909918e-09
2.79557142857143e+01 1.88813481120295e-07 6.51033456220731e-09
2.80500000000000e+01 1.79722272061666e-07 6.20730875274080e-09
2.81442857142857e+01 1.71068796987128e-07 5.91835395078933e-09
2.82385714285714e+01 1.62831979407168e-07 5.64281853728180e-09
2.83328571428571e+01 1.54991757616145e-07 5.38008098531546e-09
2.84271428571429e+01 1.47529035862575e-07 5.12954845938673e-09
2.85214285714286e+01 1.40425637839236e-07 4.89065550112810e-09
2.86157142857143e+01 1.33664262412739e-07 4.66286276958333e-09
2.87100000000000e+01 1.27228441484632e-07 4.44565584260306e-09
2.88042857142857e+01 1.21102499860967e-07 4.23854405940169e-09
2.88985714285714e+01 1.15271517137188e-07 4.04105943333577e-09
2.89928571428571e+01 1.09721291291973e-07 3.85275561562731e-09
2.90871428571429e+01 1.04438304119311e-07 3.67320688704430e-09
2.91814285714286e+01 9.94096883033632e-08 3.50200721147887e-09
2.92757142857143e+01 9.46231960786736e-08 3.33876932898767e-09
2.93700000000000e+01 9.00671693993306e-08 3.18312389283762e-09
2.94642857142857e+01 8.57305115302811e-08 3.03471863652764e-09
2.95585714285714e+01 8.16026600639860e-08 2.89321759106918e-09
2.96528571428571e+01 7.76735611489297e-08 2.75830033897986e-09
2.97471428571429e+01 7.39336450180413e-08 2.62966128884921e-09
