Energy (eV)          EEDF (eV^-(3/2))     First Anisotropy
1.04333333333333e-01 4.08199211803671e-02 3.92035544997799e-05
3.13000000000000e-01 3.98916316497284e-02 6.42160068036172e-05
5.21666666666667e-01 3.89844524384176e-02 8.34053741224506e-05
7.30333333333333e-01 3.80979034712718e-02 9.71776372938625e-05
9.39000000000000e-01 3.72315155941391e-02 1.08015225205600e-04
1.14766666666667e+00 3.63848303250112e-02 1.16880449174019e-04
1.35633333333333e+00 3.55573996000239e-02 1.24283102440455e-04
1.56500000000000e+00 3.47487855501260e-02 1.30537977009953e-04
1.77366666666667e+00 3.39585602691081e-02 1.35858348111951e-04
1.98233333333333e+00 3.31863055714226e-02 1.40398052257019e-04
2.19100000000000e+00 3.24316127865422e-02 1.44273188782154e-04
2.39966666666667e+00 3.16940825409763e-02 1.47574429072970e-04
2.60833333333333e+00 3.09733245365988e-02 1.50374506252140e-04
2.81700000000000e+00 3.02689573544352e-02 1.52733028919476e-04
3.02566666666667e+00 2.95806082518585e-02 1.54699714645396e-04
3.23433333333333e+00 2.89079129578926e-02 1.56316639380258e-04
3.44300000000000e+00 2.82505154879128e-02 1.57619850589984e-04
3.65166666666667e+00 2.76080679546450e-02 1.58640555093191e-04
3.86033333333333e+00 2.69802303784041e-02 1.59406011440977e-04
4.06900000000000e+00 2.63666705128732e-02 1.59940213913919e-04
4.27766666666667e+00 2.57670636688530e-02 1.60264426640235e-04
4.48633333333333e+00 2.51810925379765e-02 1.60397605417161e-04
4.69500000000000e+00 2.46084470292857e-02 1.60356735909651e-04
4.90366666666667e+00 2.40488241048182e-02 1.60157108887690e-04
5.11233333333333e+00 2.35019276156391e-02 1.59812545294844e-04
5.32100000000000e+00 2.29674681487537e-02 1.59335582662553e-04
5.52966666666667e+00 2.24451628737123e-02 1.58737631612008e-04
5.73833333333333e+00 2.19347353899741e-02 1.58029107103562e-04
5.94700000000000e+00 2.14359155836294e-02 1.57219539850072e-04
6.15566666666667e+00 2.09484394842691e-02 1.56317672179020e-04
6.36433333333333e+00 2.04720491228197e-02 1.55331539948415e-04
6.57300000000000e+00 2.00064923975261e-02 1.54268543429357e-04
6.78166666666667e+00 1.95515229403900e-02 1.53135509536838e-04
6.99033333333333e+00 1.91068999847062e-02 1.51938745759397e-04
7.19900000000000e+00 1.86723882397604e-02 1.50684087545469e-04
7.40766666666667e+00 1.82477577661910e-02 1.49376940621595e-04
7.61633333333333e+00 1.78327838525301e-02 1.48022318052868e-04
7.82500000000000e+00 1.74272468980842e-02 1.46624873214832e-04
8.03366666666667e+00 1.70309322966216e-02 1.45188929677763e-04
8.24233333333333e+00 1.66436303212788e-02 1.43718507581461e-04
8.45100000000000e+00 1.62651360151173e-02 1.42217347342168e-04
8.65966666666667e+00 1.58952490825770e-02 1.40688931422751e-04
8.86833333333333e+00 1.55337737821632e-02 1.39136503653071e-04
9.07700000000000e+00 1.51805188241950e-02 1.37563086744809e-04
9.28566666666667e+00 1.48352972695044e-02 1.35971498566282e-04
9.49433333333333e+00 1.44979264293645e-02 1.34364366640225e-04
9.70300000000000e+00 1.41682277699708e-02 1.32744141381037e-04
9.91166666666667e+00 1.38460268179011e-02 1.31113108528222e-04
1.01203333333333e+01 1.35311530667861e-02 1.29473400339603e-04
1.03290000000000e+01 1.32234398871866e-02 1.27827005332045e-04
1.05376666666667e+01 1.29227244428385e-02 1.26175778765375e-04
1.07463333333333e+01 1.26288475947393e-02 1.24521450951830e-04
1.09550000000000e+01 1.23416538258025e-02 1.22865634322897e-04
1.11636666666667e+01 1.20609911581062e-02 1.21209832660905e-04
1.13723333333333e+01 1.17867110647578e-02 1.19555447159429e-04
1.15810000000000e+01 1.15186683990999e-02 1.17903782021936e-04
1.17896666666667e+01 1.12567213175067e-02 1.16256052022519e-04
1.19983333333333e+01 1.10007311975168e-02 1.14613387271526e-04
1.22070000000000e+01 1.07505625713648e-02 1.12976837634358e-04
1.24156666666667e+01 1.05060830539524e-02 1.11347378996271e-04
1.26243333333333e+01 1.02671632667650e-02 1.09725917045047e-04
1.28330000000000e+01 1.00336767755077e-02 1.08113290789514e-04
1.30416666666667e+01 9.80550002289841e-03 1.06510277802510e-04
1.32503333333333e+01 9.58251225793351e-03 1.04917597246657e-04
1.34590000000000e+01 9.36459547740466e-03 1.03335912696538e-04
1.36676666666667e+01 9.15163436319030e-03 1.01765836564181e-04
1.38763333333333e+01 8.94351621647078e-03 1.00207932534750e-04
1.40850000000000e+01 8.74013090290987e-03 9.86627178436683e-05
1.42936666666667e+01 8.54137079414184e-03 9.71306670397052e-05
1.45023333333333e+01 8.34713070657115e-03 9.56122139556107e-05
1.47110000000000e+01 8.15730785000960e-03 9.41077535541286e-05
1.49196666666667e+01 7.97180177307684e-03 9.26176451482879e-05
1.51283333333333e+01 7.79051430625002e-03 9.11422140019929e-05
1.53370000000000e+01 7.61334951375525e-03 8.96817528319379e-05
1.55456666666667e+01 7.44021364261887e-03 8.82365245786504e-05
1.57543333333333e+01 7.27101506965935e-03 8.68067637101908e-05
1.59630000000000e+01 7.10566425644061e-03 8.53926774471921e-05
1.61716666666667e+01 6.94407370172895e-03 8.39944481588133e-05
1.63803333333333e+01 6.78615789214412e-03 8.26122344264884e-05
1.65890000000000e+01 6.63183325999076e-03 8.12461720446354e-05
1.67976666666667e+01 6.48101813889262e-03 7.98963761009802e-05
1.70063333333333e+01 6.33363271784181e-03 7.85629418451379e-05
1.72150000000000e+01 6.18959900173357e-03 7.72459455064625e-05
1.74236666666667e+01 6.04884076996495e-03 7.59454461069372e-05
1.76323333333333e+01 5.91128353364113e-03 7.46614861701458e-05
1.78410000000000e+01 5.77685449864790e-03 7.33940923892715e-05
1.80496666666667e+01 5.64548252701623e-03 7.21432772119972e-05
1.82583333333333e+01 5.51709809706284e-03 7.09090394183391e-05
1.84670000000000e+01 5.39163326884361e-03 6.96913646652929e-05
1.86756666666667e+01 5.26902164809886e-03 6.84902268763073e-05
1.88843333333333e+01 5.14919834912201e-03 6.73055887109340e-05
1.90930000000000e+01 5.03209996244577e-03 6.61374020075539e-05
1.93016666666667e+01 4.91766452119544e-03 6.49856090045218e-05
1.95103333333333e+01 4.80583146649473e-03 6.38501427202727e-05
1.97190000000000e+01 4.69654161724493e-03 6.27309273115746e-05
1.99276666666667e+01 4.58973713872512e-03 6.16278791490526e-05
2.01363333333333e+01 4.48536151035831e-03 6.05409071229795e-05
2.03450000000000e+01 4.38335949745177e-03 5.94699129313380e-05
2.05536666666667e+01 4.28367712189385e-03 5.84147920288829e-05
2.07623333333333e+01 4.18626163211651e-03 5.73754338711313e-05
2.09710000000000e+01 4.09106147667260e-03 5.63517221439841e-05
2.11796666666667e+01 3.99802627688932e-03 5.53435356025856e-05
2.13883333333333e+01 3.90710679887467e-03 5.43507482638414e-05
2.15970000000000e+01 3.81825492881527e-03 5.33732295873225e-05
2.18056666666667e+01 3.73142364745538e-03 5.24108452177931e-05
2.20143333333333e+01 3.64656700400627e-03 5.14634571348201e-05
2.22230000000000e+01 3.56364009305468e-03 5.05309237930303e-05
2.24316666666667e+01 3.48259903074551e-03 4.96131007801972e-05
2.26403333333333e+01 3.40340093046288e-03 4.87098409310750e-05
2.28490000000000e+01 3.32600388124609e-03 4.78209944337400e-05
2.30576666666667e+01 3.25036692556233e-03 4.69464094134751e-05
2.32663333333333e+01 3.17645003663730e-03 4.60859320167774e-05
2.34750000000000e+01 3.10421409828219e-03 4.52394064894122e-05
2.36836666666667e+01 3.03362088414994e-03 4.44066756949550e-05
2.38923333333333e+01 2.96463303660236e-03 4.35875811739612e-05
2.41010000000000e+01 2.89721404785722e-03 4.27819631984484e-05
2.43096666666667e+01 2.83132824062898e-03 4.19896612327777e-05
2.45183333333333e+01 2.76694074842710e-03 4.12105139721767e-05
2.47270000000000e+01 2.70401749793809e-03 4.04443593776221e-05
2.49356666666667e+01 2.64252519095831e-03 3.96910350857453e-05
2.51443333333333e+01 2.58243128602545e-03 3.89503784302335e-05
2.53530000000000e+01 2.52370398195573e-03 3.82222264604607e-05
2.55616666666667e+01 2.46631220098248e-03 3.75064163062575e-05
2.57703333333333e+01 2.41022557162972e-03 3.68027851851622e-05
2.59790000000000e+01 2.35541441332972e-03 3.61111704076226e-05
2.61876666666667e+01 2.30184972068679e-03 3.54314097017450e-05
2.63963333333333e+01 2.24950314750822e-03 3.47633412089064e-05
2.66050000000000e+01 2.19834699243212e-03 3.41068034779111e-05
2.68136666666667e+01 2.14835418424126e-03 3.34616357542116e-05
2.70223333333333e+01 2.09949826697256e-03 3.28276779660003e-05
2.72310000000000e+01 2.05175338648946e-03 3.22047707093409e-05
2.74396666666667e+01 2.00509427677581e-03 3.15927555058086e-05
2.76483333333333e+01 1.95949624605039e-03 3.09914747808609e-05
2.78570000000000e+01 1.91493516422246e-03 3.04007718416495e-05
2.80656666666667e+01 1.87138745010013e-03 2.98204911065603e-05
2.82743333333333e+01 1.82883005844170e-03 2.92504780773834e-05
2.84830000000000e+01 1.78724046823671e-03 2.86905793112529e-05
2.86916666666667e+01 1.74659667076787e-03 2.81406426251650e-05
2.89003333333333e+01 1.70687715753549e-03 2.76005170632279e-05
2.91090000000000e+01 1.66806090931018e-03 2.70700528639536e-05
2.93176666666667e+01 1.63012738499142e-03 2.65491016424759e-05
2.95263333333333e+01 1.59305651034571e-03 2.60375163539701e-05
2.97350000000000e+01 1.55682866778069e-03 2.55351512573309e-05
2.99436666666667e+01 1.52142468594696e-03 2.50418620775019e-05
3.01523333333333e+01 1.48682582923496e-03 2.45575059659814e-05
3.03610000000000e+01 1.45301378822319e-03 2.40819414617635e-05
3.05696666666667e+01 1.41997066997376e-03 2.36150286359195e-05
3.07783333333333e+01 1.38767898823660e-03 2.31566290499640e-05
3.09870000000000e+01 1.35612165452756e-03 2.27066057147965e-05
3.11956666666667e+01 1.32528196907150e-03 2.22648232194390e-05
3.14043333333333e+01 1.29514361166581e-03 2.18311476879142e-05
3.16130000000000e+01 1.26569063334730e-03 2.14054467368079e-05
3.18216666666667e+01 1.23690744793940e-03 2.09875895898549e-05
3.20303333333333e+01 1.20877882353062e-03 2.05774470338771e-05
3.22390000000000e+01 1.18128987469134e-03 2.01748913754900e-05
3.24476666666667e+01 1.15442605458511e-03 1.97797965430429e-05
3.26563333333333e+01 1.12817314702017e-03 1.93920380420750e-05
3.28650000000000e+01 1.10251725918033e-03 1.90114929116040e-05
3.30736666666667e+01 1.07744481426249e-03 1.86380398147640e-05
3.32823333333333e+01 1.05294254406267e-03 1.82715589941605e-05
3.34910000000000e+01 1.02899748218710e-03 1.79119322281040e-05
3.36996666666667e+01 1.00559695718091e-03 1.75590429111467e-05
3.39083333333333e+01 9.82728585612540e-04 1.72127760096526e-05
3.41170000000000e+01 9.60380265733510e-04 1.68730180182778e-05
3.43256666666667e+01 9.38540171065464e-04 1.65396570314763e-05
3.45343333333333e+01 9.17196743949361e-04 1.62125826995452e-05
3.47430000000000e+01 8.96338689624375e-04 1.58916861856004e-05
3.49516666666667e+01 8.75954970242749e-04 1.55768602290072e-05
3.51603333333333e+01 8.56034798852386e-04 1.52679991021146e-05
3.53690000000000e+01 8.36567633867308e-04 1.49649985679293e-05
3.55776666666667e+01 8.17543173481771e-04 1.46677559363264e-05
3.57863333333333e+01 7.98951350057029e-04 1.43761700216449e-05
3.59950000000000e+01 7.80782324957575e-04 1.40901411012224e-05
3.62036666666667e+01 7.63026483337870e-04 1.38095709651526e-05
3.64123333333333e+01 7.45674428906049e-04 1.35343628748772e-05
3.66210000000000e+01 7.28716979101835e-04 1.32644215227137e-05
3.68296666666667e+01 7.12145160231032e-04 1.29996530758433e-05
3.70383333333333e+01 6.95950202580769e-04 1.27399651360083e-05
3.72470000000000e+01 6.80123535916566e-04 1.24852667001331e-05
3.74556666666667e+01 6.64656784941395e-04 1.22354681991556e-05
3.76643333333333e+01 6.49541764738780e-04 1.19904814589138e-05
3.78730000000000e+01 6.34770476567981e-04 1.17502196619364e-05
3.80816666666667e+01 6.20335103625949e-04 1.15145973816685e-05
3.82903333333333e+01 6.06228006796231e-04 1.12835305446049e-05
3.84990000000000e+01 5.92441720722587e-04 1.10569363933104e-05
3.87076666666667e+01 5.78968949853647e-04 1.08347335165302e-05
3.89163333333333e+01 5.65802564477025e-04 1.06168418126138e-05
3.91250000000000e+01 5.52935597053009e-04 1.04031824538027e-05
3.93336666666667e+01 5.40361238523043e-04 1.01936779126679e-05
3.95423333333333e+01 5.28072834609878e-04 9.98825192685029e-06
3.97510000000000e+01 5.16063882394148e-04 9.78682946464140e-06
3.99596666666667e+01 5.04328026869091e-04 9.58933674814209e-06
4.01683333333333e+01 4.92859057488837e-04 9.39570121933501e-06
4.03770000000000e+01 4.81650904971828e-04 9.20585150696909e-06
4.05856666666667e+01 4.70697638085353e-04 9.01971744679546e-06
4.07943333333333e+01 4.59993460425284e-04 8.83723004897329e-06
4.10030000000000e+01 4.49532707431362e-04 8.65832146626052e-06
4.12116666666667e+01 4.39309843386201e-04 8.48292501164441e-06
4.14203333333333e+01 4.29319458410931e-04 8.31097512707517e-06
4.16290000000000e+01 4.19556265678334e-04 8.14240735295628e-06
4.18376666666667e+01 4.10015098612018e-04 7.97715834345382e-06
4.20463333333333e+01 4.00690908083452e-04 7.81516583654390e-06
4.22550000000000e+01 3.91578759809876e-04 7.65636862478877e-06
4.24636666666667e+01 3.82673831740289e-04 7.50070656858082e-06
4.26723333333333e+01 3.73971411440350e-04 7.34812056748394e-06
4.28810000000000e+01 3.65466893662836e-04 7.19855253227444e-06
4.30896666666667e+01 3.57155777907988e-04 7.05194539634908e-06
4.32983333333333e+01 3.49033665983657e-04 6.90824308833573e-06
4.35070000000000e+01 3.41096259736899e-04 6.76739050537414e-06
4.37156666666667e+01 3.33339358777040e-04 6.62933352289249e-06
4.39243333333333e+01 3.25758858199309e-04 6.49401896845838e-06
4.41330000000000e+01 3.18350746466898e-04 6.36139459627152e-06
4.43416666666667e+01 3.11111103285903e-04 6.23140909549255e-06
4.45503333333333e+01 3.04036097481458e-04 6.10401206530187e-06
4.47590000000000e+01 2.97121985020311e-04 5.97915399057188e-06
4.49676666666667e+01 2.90365107027497e-04 5.85678624891349e-06
4.51763333333333e+01 2.83761887804750e-04 5.73686108690810e-06
4.53850000000000e+01 2.77308832984280e-04 5.61933159692458e-06
4.55936666666667e+01 2.71002527677741e-04 5.50415172303148e-06
4.58023333333333e+01 2.64839634627353e-04 5.39127623836551e-06
4.60110000000000e+01 2.58816892482212e-04 5.28066072305776e-06
4.62196666666667e+01 2.52931114070707e-04 5.17226156914335e-06
4.64283333333333e+01 2.47179184675470e-04 5.06603595902808e-06
4.66370000000000e+01 2.41558060424084e-04 4.96194184448710e-06
4.68456666666667e+01 2.36064766676728e-04 4.85993795069032e-06
4.70543333333333e+01 2.30696396416642e-04 4.75998375572863e-06
4.72630000000000e+01 2.25450108747657e-04 4.66203947064686e-06
4.74716666666667e+01 2.20323127389381e-04 4.56606604269035e-06
4.76803333333333e+01 2.15312739175429e-04 4.47202513585198e-06
4.78890000000000e+01 2.10416292650703e-04 4.37987911190085e-06
4.80976666666667e+01 2.05631196666940e-04 4.28959103294484e-06
4.83063333333333e+01 2.00954918981484e-04 4.20112464295864e-06
4.85150000000000e+01 1.96384984947701e-04 4.11444434976970e-06
4.87236666666667e+01 1.91918976204201e-04 4.02951522702149e-06
4.89323333333333e+01 1.87554529367407e-04 3.94630299664324e-06
4.91410000000000e+01 1.83289334808931e-04 3.86477401175448e-06
4.93496666666667e+01 1.79121135432223e-04 3.78489525810477e-06
4.95583333333333e+01 1.75047725452647e-04 3.70663433744611e-06
4.97670000000000e+01 1.71066949256060e-04 3.62995945131805e-06
4.99756666666667e+01 1.67176700257045e-04 3.55483940203112e-06
5.01843333333333e+01 1.63374919760643e-04 3.48124357690357e-06
5.03930000000000e+01 1.59659595896736e-04 3.40914193288975e-06
5.06016666666667e+01 1.56028762554430e-04 3.33850499716699e-06
5.08103333333333e+01 1.52480498319970e-04 3.26930385219910e-06
5.10190000000000e+01 1.49012925481898e-04 3.20151012117099e-06
5.12276666666667e+01 1.45624209036515e-04 3.13509596823285e-06
5.14363333333333e+01 1.42312555696859e-04 3.07003408435348e-06
5.16450000000000e+01 1.39076212963957e-04 3.00629767352479e-06
5.18536666666667e+01 1.35913468198615e-04 2.94386045271111e-06
5.20623333333333e+01 1.32822647696707e-04 2.88269663845632e-06
5.22710000000000e+01 1.29802115822131e-04 2.82278093382323e-06
5.24796666666667e+01 1.26850274140504e-04 2.76408852809025e-06
5.26883333333333e+01 1.23965560556320e-04 2.70659508407712e-06
5.28970000000000e+01 1.21146448503515e-04 2.65027672578531e-06
5.31056666666667e+01 1.18391446136940e-04 2.59511003787964e-06
5.33143333333333e+01 1.15699095527243e-04 2.54107205369856e-06
5.35230000000000e+01 1.13067971905220e-04 2.48814024356238e-06
5.37316666666667e+01 1.10496682907211e-04 2.43629251407323e-06
5.39403333333333e+01 1.07983867823842e-04 2.38550719677712e-06
5.41490000000000e+01 1.05528196894593e-04 2.33576303710783e-06
5.43576666666667e+01 1.03128370603518e-04 2.28703919353480e-06
5.45663333333333e+01 1.00783118978242e-04 2.23931522684528e-06
5.47750000000000e+01 9.84912009314095e-05 2.19257108969292e-06
5.49836666666667e+01 9.62514036033791e-05 2.14678712561961e-06
5.51923333333333e+01 9.40625417081030e-05 2.10194405892719e-06
5.54010000000000e+01 9.19234569183498e-05 2.05802298480087e-06
5.56096666666667e+01 8.98330172522338e-05 2.01500536822810e-06
5.58183333333333e+01 8.77901164628453e-05 1.97287303443035e-06
5.60270000000000e+01 8.57936734643366e-05 1.93160815953267e-06
5.62356666666667e+01 8.38426317593653e-05 1.89119326939994e-06
5.64443333333333e+01 8.19359588695448e-05 1.85161123060040e-06
5.66530000000000e+01 8.00726457996805e-05 1.81284524159385e-06
5.68616666666667e+01 7.82517065033987e-05 1.77487883150285e-06
5.70703333333333e+01 7.64721773516846e-05 1.73769585158115e-06
5.72790000000000e+01 7.47331166327354e-05 1.70128046689383e-06
5.74876666666667e+01 7.30336040532279e-05 1.66561715503942e-06
5.76963333333333e+01 7.13727402423943e-05 1.63069069809688e-06
5.79050000000000e+01 6.97496462851277e-05 1.59648617477243e-06
5.81136666666667e+01 6.81634632565106e-05 1.56298895908622e-06
5.83223333333333e+01 6.66133517590510e-05 1.53018471277306e-06
5.85310000000000e+01 6.50984914868304e-05 1.49805937787173e-06
5.87396666666667e+01 6.36180807910758e-05 1.46659917538800e-06
5.89483333333333e+01 6.21713362483366e-05 1.43579059812523e-06
5.91570000000000e+01 6.07574922536134e-05 1.40562040369299e-06
5.93656666666667e+01 5.93758006149032e-05 1.37607561315683e-06
5.95743333333333e+01 5.80255301502457e-05 1.34714350427611e-06
5.97830000000000e+01 5.67059663079089e-05 1.31881160490970e-06
5.99916666666667e+01 5.54164107879735e-05 1.29106769166131e-06
6.02003333333333e+01 5.41561811663195e-05 1.26389978350294e-06
6.04090000000000e+01 5.29246105400681e-05 1.23729613555653e-06
6.06176666666667e+01 5.17210471744044e-05 1.21124523774256e-06
6.08263333333333e+01 5.05448541516997e-05 1.18573580876838e-06
6.10350000000000e+01 4.93954090405338e-05 1.16075679026576e-06
6.12436666666667e+01 4.82721035660707e-05 1.13629734544922e-06
6.14523333333333e+01 4.71743432826364e-05 1.11234685344963e-06
6.16610000000000e+01 4.61015472647540e-05 1.08889490378828e-06
6.18696666666667e+01 4.50531477995020e-05 1.06593129505077e-06
6.20783333333333e+01 4.40285900809784e-05 1.04344602954703e-06
6.22870000000000e+01 4.30273319218853e-05 1.02142930810362e-06
6.24956666666667e+01 4.20488434664044e-05 9.99871528757858e-07
6.27043333333333e+01 4.10926069050831e-05 9.78763281726433e-07
6.29130000000000e+01 4.01581162056029e-05 9.58095344498648e-07
6.31216666666667e+01 3.92448768448035e-05 9.37858680554684e-07
6.33303333333333e+01 3.83524055426252e-05 9.18044434625807e-07
6.35390000000000e+01 3.74802300107862e-05 8.98643928072003e-07
6.37476666666667e+01 3.66278887026781e-05 8.79648657627652e-07
6.39563333333333e+01 3.57949305650900e-05 8.61050290937272e-07
6.41650000000000e+01 3.49809148036043e-05 8.42840662201822e-07
6.43736666666667e+01 3.41854106491717e-05 8.25011770954454e-07
6.45823333333333e+01 3.34079971264278e-05 8.07555777856473e-07
6.47910000000000e+01 3.26482628346964e-05 7.90465000597414e-07
6.49996666666667e+01 3.19058057301308e-05 7.73731912702910e-07
6.52083333333333e+01 3.11802329095147e-05 7.57349139576440e-07
6.54170000000000e+01 3.04711604058333e-05 7.41309454638999e-07
6.56256666666667e+01 2.97782129849453e-05 7.25605778170805e-07
6.58343333333333e+01 2.91010239438301e-05 7.10231173585016e-07
