Energy (eV)          EEDF (eV^-(3/2))     First Anisotropy
2.77777777777778e-03 6.14441987202806e-01 7.32261892839861e-08
8.33333333333333e-03 6.14441906387450e-01 2.41019547249274e-07
1.38888888888889e-02 6.14441679406056e-01 6.15871445126084e-07
1.94444444444444e-02 6.14441295985474e-01 1.07037546004242e-06
2.50000000000000e-02 6.14440781063749e-01 1.54860311052128e-06
3.05555555555556e-02 6.14440147529449e-01 2.05067533077618e-06
3.61111111111111e-02 6.14439402775693e-01 2.58113953779181e-06
4.16666666666667e-02 6.14438548659907e-01 3.16021201698245e-06
4.72222222222222e-02 6.14437576790408e-01 3.80428737851641e-06
5.27777777777778e-02 6.14436479614619e-01 4.48669510246982e-06
5.83333333333333e-02 6.14435263943886e-01 5.20383883878371e-06
6.38888888888889e-02 6.14433923043503e-01 5.98204759242113e-06
6.94444444444444e-02 6.14432450141130e-01 6.80874591597828e-06
7.50000000000000e-02 6.14430845089617e-01 7.65880139281626e-06
8.05555555555556e-02 6.14429112385630e-01 8.54308277612970e-06
8.61111111111111e-02 6.14427246152664e-01 9.48531232997159e-06
9.16666666666667e-02 6.14425240513267e-01 1.04863619938695e-05
9.72222222222222e-02 6.14423089742484e-01 1.15466588107666e-05
1.02777777777778e-01 6.14420788239092e-01 1.26200601440904e-05
1.08333333333333e-01 6.14418348687109e-01 1.37029174943589e-05
1.13888888888889e-01 6.14415766070909e-01 1.48324048747125e-05
1.19444444444444e-01 6.14413038262812e-01 1.60009403078034e-05
1.25000000000000e-01 6.14410163038361e-01 1.72089141234942e-05
1.30555555555556e-01 6.14407138089645e-01 1.84567031116328e-05
1.36111111111111e-01 6.14403961035675e-01 1.97446743416343e-05
1.41666666666667e-01 6.14400629430533e-01 2.10731880633944e-05
1.47222222222222e-01 6.14397140769814e-01 2.24425999122910e-05
1.52777777777778e-01 6.14393492495763e-01 2.38532625942129e-05
1.58333333333333e-01 6.14389682001380e-01 2.53055271769541e-05
1.63888888888889e-01 6.14385706633728e-01 2.67997440678700e-05
1.69444444444444e-01 6.14381563696612e-01 2.83362636805300e-05
1.75000000000000e-01 6.14377250452766e-01 2.99154278992532e-05
1.80555555555556e-01 6.14372764128322e-01 3.15374683904607e-05
1.86111111111111e-01 6.14368101943861e-01 3.32021238419583e-05
1.91666666666667e-01 6.14363261226266e-01 3.49079908982822e-05
1.97222222222222e-01 6.14358239613876e-01 3.66528263291818e-05
2.02777777777778e-01 6.14353035062845e-01 3.83262771614729e-05
2.08333333333333e-01 6.14347677621078e-01 3.99229707440529e-05
2.13888888888889e-01 6.14342165873340e-01 4.15441674069864e-05
2.19444444444444e-01 6.14336499627215e-01 4.31851252772528e-05
2.25000000000000e-01 6.14330678676495e-01 4.48456072797749e-05
2.30555555555556e-01 6.14324702801009e-01 4.65253934331277e-05
2.36111111111111e-01 6.14318571766492e-01 4.82242797527057e-05
2.41666666666667e-01 6.14312285324486e-01 4.99420772456410e-05
2.47222222222222e-01 6.14305843212269e-01 5.16786109966935e-05
2.52777777777778e-01 6.14299245152810e-01 5.34337193207722e-05
2.58333333333333e-01 6.14292490854737e-01 5.52072529759138e-05
2.63888888888889e-01 6.14285580012333e-01 5.69990744349634e-05
2.69444444444444e-01 6.14278512305541e-01 5.88090571857274e-05
2.75000000000000e-01 6.14271287399991e-01 6.06370821285694e-05
2.80555555555556e-01 6.14263904947763e-01 6.24830036996321e-05
2.86111111111111e-01 6.14256364595425e-01 6.43465237064189e-05
2.91666666666667e-01 6.14248666014414e-01 6.62269792216487e-05
2.97222222222222e-01 6.14240808957250e-01 6.81234536254806e-05
3.02777777777778e-01 6.14232793257761e-01 7.00746362602568e-05
3.08333333333333e-01 6.14224611488753e-01 7.23165648981202e-05
3.13888888888889e-01 6.14216209666934e-01 7.50274203190837e-05
3.19444444444444e-01 6.14207539465307e-01 7.81692774743138e-05
3.25000000000000e-01 6.14198557722232e-01 8.17067001189541e-05
3.30555555555556e-01 6.14189225997814e-01 8.56065511723028e-05
3.36111111111111e-01 6.14179510171002e-01 8.98378266079002e-05
3.41666666666667e-01 6.14169380073265e-01 9.43715029578755e-05
3.47222222222222e-01 6.14158809155179e-01 9.91803970884793e-05
3.52777777777778e-01 6.14147774182684e-01 1.04239037089119e-04
3.58333333333333e-01 6.14136254960118e-01 1.09523543238410e-04
3.63888888888889e-01 6.14124234077457e-01 1.15011518119817e-04
3.69444444444444e-01 6.14111696679472e-01 1.20681945053847e-04
3.75000000000000e-01 6.14098630254735e-01 1.26515092606166e-04
3.80555555555556e-01 6.14085024442989e-01 1.32492410516630e-04
3.86111111111111e-01 6.14070870862169e-01 1.38596386102787e-04
3.91666666666667e-01 6.14056162960191e-01 1.44810367894345e-04
3.97222222222222e-01 6.14040895890960e-01 1.51118563000614e-04
4.02777777777778e-01 6.14025066376539e-01 1.57448486068938e-04
4.08333333333333e-01 6.14008688838963e-01 1.64047610585692e-04
4.13888888888889e-01 6.13991709936666e-01 1.71214453125512e-04
4.19444444444444e-01 6.13974080078179e-01 1.78911698802883e-04
4.25000000000000e-01 6.13955755066897e-01 1.87094816808570e-04
4.30555555555556e-01 6.13936695661331e-01 1.95722237814188e-04
4.36111111111111e-01 6.13916867169113e-01 2.04755173946831e-04
4.41666666666667e-01 6.13896239072003e-01 2.14157450772787e-04
4.47222222222222e-01 6.13874784679352e-01 2.23895350351234e-04
4.52777777777778e-01 6.13852480807742e-01 2.33937464550585e-04
4.58333333333333e-01 6.13829307484697e-01 2.44254557880269e-04
4.63888888888889e-01 6.13805247674571e-01 2.54819439153506e-04
4.69444444444444e-01 6.13780287024842e-01 2.65606841369495e-04
4.75000000000000e-01 6.13754413631233e-01 2.76593308237064e-04
4.80555555555556e-01 6.13727617820395e-01 2.87757078508103e-04
4.86111111111111e-01 6.13699891950401e-01 2.99077949014169e-04
4.91666666666667e-01 6.13671230231580e-01 3.10537125593174e-04
4.97222222222222e-01 6.13641628565860e-01 3.22117185027730e-04
5.02777777777778e-01 6.13611084383608e-01 3.33693448244414e-04
5.08333333333333e-01 6.13579620181528e-01 3.45302889866013e-04
5.13888888888889e-01 6.13547226516275e-01 3.57075728446279e-04
5.19444444444444e-01 6.13513898246489e-01 3.68977147880497e-04
5.25000000000000e-01 6.13479632365609e-01 3.80984533591644e-04
5.30555555555556e-01 6.13444427825059e-01 3.93076748924532e-04
5.36111111111111e-01 6.13408285369156e-01 4.05234059216698e-04
5.41666666666667e-01 6.13371207380957e-01 4.17438059942827e-04
5.47222222222222e-01 6.13333197738302e-01 4.29671608671024e-04
5.52777777777778e-01 6.13294261679360e-01 4.41918760610419e-04
5.58333333333333e-01 6.13254405677078e-01 4.54164707520591e-04
5.63888888888889e-01 6.13213637321906e-01 4.66395719802829e-04
5.69444444444444e-01 6.13171965212294e-01 4.78599091561997e-04
5.75000000000000e-01 6.13129398852422e-01 4.90763087748835e-04
5.80555555555556e-01 6.13085948556861e-01 5.02876887066277e-04
5.86111111111111e-01 6.13041625362817e-01 5.14930508833169e-04
5.91666666666667e-01 6.12996440951750e-01 5.26914734036328e-04
5.97222222222222e-01 6.12950407578974e-01 5.38821103826914e-04
6.02777777777778e-01 6.12903537998002e-01 5.51403098605545e-04
6.08333333333333e-01 6.12855714676648e-01 5.66108818953867e-04
6.13888888888889e-01 6.12806703819793e-01 5.83530744442900e-04
6.19444444444444e-01 6.12756290973995e-01 6.03468540476343e-04
6.25000000000000e-01 6.12704281438478e-01 6.25723516218580e-04
6.30555555555556e-01 6.12650498917570e-01 6.50108704305480e-04
6.36111111111111e-01 6.12594784261720e-01 6.76448188869356e-04
6.41666666666667e-01 6.12536994291190e-01 7.04576471996320e-04
6.47222222222222e-01 6.12477000696978e-01 7.34337876181831e-04
6.52777777777778e-01 6.12414689013873e-01 7.65585980596949e-04
6.58333333333333e-01 6.12349957660943e-01 7.98183089167217e-04
6.63888888888889e-01 6.12282717045026e-01 8.31999728587242e-04
6.69444444444445e-01 6.12212888723132e-01 8.66914174471672e-04
6.75000000000000e-01 6.12140404619941e-01 9.02812003386338e-04
6.80555555555556e-01 6.12065206296933e-01 9.39585664740994e-04
6.86111111111111e-01 6.11987244270599e-01 9.77134061475397e-04
6.91666666666667e-01 6.11906477378397e-01 1.01536215132719e-03
6.97222222222222e-01 6.11822872187710e-01 1.05418062824780e-03
7.02777777777778e-01 6.11736402436668e-01 1.09311518608223e-03
7.08333333333333e-01 6.11647114667021e-01 1.13315903430182e-03
7.13888888888889e-01 6.11554823388074e-01 1.17715536547973e-03
7.19444444444444e-01 6.11459118998832e-01 1.22632395051597e-03
7.25000000000000e-01 6.11359627546563e-01 1.28027548757350e-03
7.30555555555556e-01 6.11256008676208e-01 1.33863971904306e-03
7.36111111111111e-01 6.11147953690728e-01 1.40106455224396e-03
7.41666666666667e-01 6.11035183716297e-01 1.46721521973871e-03
7.47222222222222e-01 6.10917447966800e-01 1.53677347596886e-03
7.52777777777778e-01 6.10794522102439e-01 1.60943682823951e-03
7.58333333333333e-01 6.10666206677543e-01 1.68491780047957e-03
7.63888888888889e-01 6.10532325672935e-01 1.76294322826699e-03
7.69444444444444e-01 6.10392725108492e-01 1.84325358369543e-03
7.75000000000000e-01 6.10247271731736e-01 1.92560232805569e-03
7.80555555555556e-01 6.10095851778674e-01 2.00975528572367e-03
7.86111111111111e-01 6.09938369804080e-01 2.09549002795069e-03
7.91666666666667e-01 6.09774747579472e-01 2.18259528198458e-03
7.97222222222222e-01 6.09604923053375e-01 2.27087044730878e-03
8.02777777777778e-01 6.09428849358537e-01 2.35990475017512e-03
8.08333333333333e-01 6.09246527348203e-01 2.44866377522232e-03
8.13888888888889e-01 6.09058066749311e-01 2.53598162578182e-03
8.19444444444445e-01 6.08863643033773e-01 2.62142146568834e-03
8.25000000000000e-01 6.08663428786268e-01 2.70499910224181e-03
8.30555555555556e-01 6.08457593694453e-01 2.78673114203198e-03
8.36111111111111e-01 6.08246304536740e-01 2.86663501332612e-03
8.41666666666667e-01 6.08029725168203e-01 2.94472898227344e-03
8.47222222222222e-01 6.07808016505072e-01 3.02103216398248e-03
8.52777777777778e-01 6.07581336508191e-01 3.09556452908176e-03
8.58333333333333e-01 6.07349840165790e-01 3.16834690631023e-03
8.63888888888889e-01 6.07113679475869e-01 3.23940098156930e-03
8.69444444444444e-01 6.06873003428445e-01 3.30874929387453e-03
8.75000000000000e-01 6.06627957987893e-01 3.37641522786248e-03
8.80555555555556e-01 6.06378686075698e-01 3.44242299862515e-03
8.86111111111111e-01 6.06125327554527e-01 3.50679762284418e-03
8.91666666666667e-01 6.05868019214882e-01 3.56956489847624e-03
8.97222222222222e-01 6.05606894761450e-01 3.63075144166028e-03
9.02777777777778e-01 6.05342084792555e-01 3.69088355041883e-03
9.08333333333333e-01 6.05073644713966e-01 3.75102457254550e-03
9.13888888888889e-01 6.04801550262519e-01 3.81176882743859e-03
9.19444444444445e-01 6.04525771003040e-01 3.87313057187671e-03
9.25000000000000e-01 6.04246280877080e-01 3.93505163900051e-03
9.30555555555556e-01 6.03963058027708e-01 3.99747568259960e-03
9.36111111111111e-01 6.03676084626978e-01 4.06034817540498e-03
9.41666666666667e-01 6.03385346706189e-01 4.12361640456218e-03
9.47222222222222e-01 6.03090833989067e-01 4.18722946425457e-03
9.52777777777778e-01 6.02792539728002e-01 4.25113824562990e-03
9.58333333333333e-01 6.02490460543432e-01 4.31529542423842e-03
9.63888888888889e-01 6.02184596266478e-01 4.37965544508114e-03
9.69444444444444e-01 6.01874949784924e-01 4.44417450534938e-03
9.75000000000000e-01 6.01561526892614e-01 4.50881053290952e-03
9.80555555555556e-01 6.01244336142687e-01 4.57352314787684e-03
9.86111111111111e-01 6.00923388706751e-01 4.63827358529302e-03
9.91666666666667e-01 6.00598698243810e-01 4.70302463976623e-03
9.97222222222222e-01 6.00270280770770e-01 4.76774078454028e-03
1.00277777777778e+00 5.99938154514393e-01 4.83860166193047e-03
1.00833333333333e+00 5.99601451073966e-01 4.92530247460512e-03
1.01388888888889e+00 5.99258855638991e-01 5.03075948616590e-03
1.01944444444444e+00 5.98909142028424e-01 5.15392651851959e-03
1.02500000000000e+00 5.98551155600440e-01 5.29388595214838e-03
1.03055555555556e+00 5.98183811194176e-01 5.44974033663553e-03
1.03611111111111e+00 5.97806091081877e-01 5.62061267101582e-03
1.04166666666667e+00 5.97417042930765e-01 5.80564668437449e-03
1.04722222222222e+00 5.97015777774240e-01 6.00400711321027e-03
1.05277777777778e+00 5.96601467992263e-01 6.21487997300012e-03
1.05833333333333e+00 5.96173345300896e-01 6.43747282167339e-03
1.06388888888889e+00 5.95730698751165e-01 6.67101501299039e-03
1.06944444444444e+00 5.95272872737529e-01 6.91475793804768e-03
1.07500000000000e+00 5.94799265016359e-01 7.16797525326567e-03
1.08055555555556e+00 5.94309324734929e-01 7.42996309359970e-03
1.08611111111111e+00 5.93802550471513e-01 7.70004026955854e-03
1.09166666666667e+00 5.93278488287268e-01 7.97754844579528e-03
1.09722222222222e+00 5.92736729790791e-01 8.26185229624861e-03
1.10277777777778e+00 5.92176910216700e-01 8.55625284607844e-03
1.10833333333333e+00 5.91598080180062e-01 8.86075412269305e-03
1.11388888888889e+00 5.90999869555106e-01 9.17203857614676e-03
1.11944444444444e+00 5.90381876458159e-01 9.49011245754187e-03
1.12500000000000e+00 5.89743733091986e-01 9.81449230268802e-03
1.13055555555556e+00 5.89085104557096e-01 1.01447087503182e-02
1.13611111111111e+00 5.88405687676519e-01 1.04803065338965e-02
1.14166666666667e+00 5.87705209835084e-01 1.08208444531769e-02
1.14722222222222e+00 5.86983427834151e-01 1.11658953270373e-02
1.15277777777778e+00 5.86240126762606e-01 1.15150459288412e-02
1.15833333333333e+00 5.85475118884895e-01 1.18678969055961e-02
1.16388888888889e+00 5.84688242546753e-01 1.22240626821236e-02
1.16944444444444e+00 5.83879361099206e-01 1.25831713514050e-02
1.17500000000000e+00 5.83048361841380e-01 1.29448645522191e-02
1.18055555555556e+00 5.82195154982534e-01 1.33087973351660e-02
1.18611111111111e+00 5.81319672623706e-01 1.36746380175221e-02
1.19166666666667e+00 5.80421867759344e-01 1.40420680250073e-02
1.19722222222222e+00 5.79501713299551e-01 1.44107817124026e-02
1.20277777777778e+00 5.78559201114370e-01 1.47886430297551e-02
1.20833333333333e+00 5.77593014631010e-01 1.51740455555314e-02
1.21388888888889e+00 5.76603335355855e-01 1.55589957973342e-02
1.21944444444444e+00 5.75590144735952e-01 1.59450156038471e-02
1.22500000000000e+00 5.74553426768872e-01 1.63320515903706e-02
1.23055555555556e+00 5.73493168678770e-01 1.67200398940527e-02
1.23611111111111e+00 5.72409361562733e-01 1.71089065706879e-02
1.24166666666667e+00 5.71302001008143e-01 1.74985679849035e-02
1.24722222222222e+00 5.70171087681778e-01 1.78889311940971e-02
1.25277777777778e+00 5.69016627891336e-01 1.82798943259119e-02
1.25833333333333e+00 5.67838634120077e-01 1.86713469490007e-02
1.26388888888889e+00 5.66637125535292e-01 1.90631704368475e-02
1.26944444444444e+00 5.65412128471293e-01 1.94552383243617e-02
1.27500000000000e+00 5.64163676887646e-01 1.98474166569757e-02
1.28055555555556e+00 5.62891812803353e-01 2.02395643320164e-02
1.28611111111111e+00 5.61596586707716e-01 2.06315334324634e-02
1.29166666666667e+00 5.60278057948540e-01 2.10231695549600e-02
1.29722222222222e+00 5.58936295098164e-01 2.14143121382163e-02
1.30277777777778e+00 5.57571376297178e-01 2.17988242727653e-02
1.30833333333333e+00 5.56184277943575e-01 2.21768720918808e-02
1.31388888888889e+00 5.54775060084005e-01 2.25578942396052e-02
1.31944444444444e+00 5.53343373986716e-01 2.29450206976150e-02
1.32500000000000e+00 5.51888886118043e-01 2.33380158035486e-02
1.33055555555556e+00 5.50411278889158e-01 2.37366313650151e-02
1.33611111111111e+00 5.48910251309120e-01 2.41406081032944e-02
1.34166666666667e+00 5.47385519545045e-01 2.45496770904328e-02
1.34722222222222e+00 5.45836817390854e-01 2.49635611722808e-02
1.35277777777778e+00 5.44263896646292e-01 2.53819763734623e-02
1.35833333333333e+00 5.42666527408103e-01 2.58046332812372e-02
1.36388888888889e+00 5.41044498275401e-01 2.62312384055965e-02
1.36944444444444e+00 5.39397616471383e-01 2.66614955131045e-02
1.37500000000000e+00 5.37725707883663e-01 2.70951069323484e-02
1.38055555555556e+00 5.36028617025595e-01 2.75317748290553e-02
1.38611111111111e+00 5.34306206921036e-01 2.79712024492475e-02
1.39166666666667e+00 5.32558358915057e-01 2.84130953291389e-02
1.39722222222222e+00 5.30784972413148e-01 2.88571624708263e-02
1.40277777777778e+00 5.28985964551499e-01 2.93029143315710e-02
1.40833333333333e+00 5.27161294937881e-01 2.97501660621821e-02
1.41388888888889e+00 5.25310903000171e-01 3.01994321428474e-02
1.41944444444444e+00 5.23434684232837e-01 3.06509320141084e-02
1.42500000000000e+00 5.21532550606644e-01 3.11043960370351e-02
1.43055555555556e+00 5.19604430499644e-01 3.15595548741697e-02
1.43611111111111e+00 5.17650268591912e-01 3.20161400834598e-02
1.44166666666667e+00 5.15670025726695e-01 3.24738846729096e-02
1.44722222222222e+00 5.13663678740503e-01 3.29325236170376e-02
1.45277777777778e+00 5.11631220264643e-01 3.33917943366209e-02
1.45833333333333e+00 5.09572658500501e-01 3.38514371432210e-02
1.46388888888889e+00 5.07488016970836e-01 3.43111956500069e-02
1.46944444444444e+00 5.05377334249192e-01 3.47708171503130e-02
1.47500000000000e+00 5.03240663669448e-01 3.52300529653423e-02
1.48055555555556e+00 5.01078073017435e-01 3.56886587623140e-02
1.48611111111111e+00 4.98889644206433e-01 3.61463948430578e-02
1.49166666666667e+00 4.96675472938452e-01 3.66030263982129e-02
1.49722222222222e+00 4.94435668353678e-01 3.70583237090256e-02
1.50277777777778e+00 4.92170352672134e-01 3.75265664549725e-02
1.50833333333333e+00 4.89877435981165e-01 3.80075408482443e-02
1.51388888888889e+00 4.87557052019839e-01 3.84849240407327e-02
1.51944444444444e+00 4.85209550480732e-01 3.89570906914914e-02
1.52500000000000e+00 4.82835260126613e-01 3.94243514546090e-02
1.53055555555556e+00 4.80434490664631e-01 3.98869877856038e-02
1.53611111111111e+00 4.78007534552615e-01 4.03452529235921e-02
1.54166666666667e+00 4.75554668738757e-01 4.07993728636594e-02
1.54722222222222e+00 4.73076156335543e-01 4.12495473235718e-02
1.55277777777778e+00 4.70572248228677e-01 4.16959507047602e-02
1.55833333333333e+00 4.68043184621825e-01 4.21387330466534e-02
1.56388888888889e+00 4.65489196518025e-01 4.25780209733403e-02
1.56944444444444e+00 4.62910507138663e-01 4.30139186315471e-02
1.57500000000000e+00 4.60307333280963e-01 4.34465086189717e-02
1.58055555555556e+00 4.57679886614988e-01 4.38758529017645e-02
1.58611111111111e+00 4.55028374921189e-01 4.43019937171555e-02
1.59166666666667e+00 4.52353003269975e-01 4.47249544457649e-02
1.59722222222222e+00 4.49653975146168e-01 4.51447404051230e-02
1.60277777777778e+00 4.46931493525576e-01 4.55910385804925e-02
1.60833333333333e+00 4.44181071868829e-01 4.60706553789964e-02
1.61388888888889e+00 4.41402066245662e-01 4.65688036189832e-02
1.61944444444444e+00 4.38592880561181e-01 4.70928781454565e-02
1.62500000000000e+00 4.35751983999445e-01 4.76417876373015e-02
1.63055555555556e+00 4.32877912077844e-01 4.82144233103385e-02
1.63611111111111e+00 4.29969267487353e-01 4.88096625629486e-02
1.64166666666667e+00 4.27024720718354e-01 4.94263726236014e-02
1.64722222222222e+00 4.24043010472525e-01 5.00634141876236e-02
1.65277777777778e+00 4.21022943861957e-01 5.07196450329650e-02
1.65833333333333e+00 4.17963396397152e-01 5.13939236059630e-02
1.66388888888889e+00 4.14863311766093e-01 5.20851125688964e-02
1.66944444444444e+00 4.11721701406965e-01 5.27920823017474e-02
1.67500000000000e+00 4.08537643877558e-01 5.35137143512462e-02
1.68055555555556e+00 4.05310284024720e-01 5.42489048207263e-02
1.68611111111111e+00 4.02038831957596e-01 5.49965676916092e-02
1.69166666666667e+00 3.98722561829071e-01 5.57556380554769e-02
1.69722222222222e+00 3.95360810431636e-01 5.65250752044796e-02
1.70277777777778e+00 3.91952975618280e-01 5.73371492099003e-02
1.70833333333333e+00 3.88493112750622e-01 5.81781941952253e-02
1.71388888888889e+00 3.84982193616978e-01 5.89915707841289e-02
1.71944444444444e+00 3.81422453292031e-01 5.97670944182158e-02
1.72500000000000e+00 3.77816086724412e-01 6.05054684701987e-02
1.73055555555556e+00 3.74165248077085e-01 6.12074071513334e-02
1.73611111111111e+00 3.70472050135899e-01 6.18736342926816e-02
1.74166666666667e+00 3.66738563786801e-01 6.25048821409465e-02
1.74722222222222e+00 3.62966817559794e-01 6.31018901928740e-02
1.75277777777778e+00 3.59158797237261e-01 6.36654040725451e-02
