Energy (eV)          EEDF (eV^-(3/2))     First Anisotropy
1.42424242424242e-03 2.81175158714121e+00 1.27134561528084e-03
4.27272727272727e-03 2.79704312724545e+00 2.10092493599599e-03
7.12121212121212e-03 2.78241160827432e+00 2.77762652162353e-03
9.96969696969697e-03 2.76785662775385e+00 3.29426647467165e-03
1.28181818181818e-02 2.75337778530618e+00 3.72726217125398e-03
1.56666666666667e-02 2.73897468269213e+00 4.10543720266228e-03
1.85151515151515e-02 2.72464692362342e+00 4.44367412139192e-03
2.13636363636364e-02 2.71039411404932e+00 4.75094026566946e-03
2.42121212121212e-02 2.69621586183952e+00 5.03316997743396e-03
2.70606060606061e-02 2.68211177703709e+00 5.29454843353317e-03
2.99090909090909e-02 2.66808147161670e+00 5.53816701949438e-03
3.27575757575758e-02 2.65412455967962e+00 5.76639124314671e-03
3.56060606060606e-02 2.64024065725808e+00 5.98108236612124e-03
3.84545454545455e-02 2.62642938247278e+00 6.18373840194290e-03
4.13030303030303e-02 2.61269035536860e+00 6.37558782191104e-03
4.41515151515151e-02 2.59902319804583e+00 6.55765409408513e-03
4.70000000000000e-02 2.58542753451852e+00 6.73080148512003e-03
4.98484848484849e-02 2.57190299082635e+00 6.89576839608085e-03
5.26969696969697e-02 2.55844919491009e+00 7.05319216322766e-03
5.55454545454545e-02 2.54506577670855e+00 7.20362785940620e-03
5.83939393939394e-02 2.53175236804757e+00 7.34756278957462e-03
6.12424242424242e-02 2.51850860272503e+00 7.48542783005053e-03
6.40909090909091e-02 2.50533411641071e+00 7.61760641877642e-03
6.69393939393939e-02 2.49222854672179e+00 7.74444176554724e-03
6.97878787878788e-02 2.47919153313153e+00 7.86624269896832e-03
7.26363636363636e-02 2.46622271703684e+00 7.98328845186846e-03
7.54848484848485e-02 2.45332174167449e+00 8.09583261474141e-03
7.83333333333333e-02 2.44048825218195e+00 8.20410642638064e-03
8.11818181818182e-02 2.42772189552000e+00 8.30832153519549e-03
8.40303030303030e-02 2.41502232052784e+00 8.40867233045356e-03
8.68787878787879e-02 2.40238917785123e+00 8.50533792474749e-03
8.97272727272727e-02 2.38982211999263e+00 8.59848384811636e-03
9.25757575757576e-02 2.37732080124416e+00 8.68826350537632e-03
9.54242424242424e-02 2.36488487773348e+00 8.77481943254780e-03
9.82727272727273e-02 2.35251400737304e+00 8.85828439856632e-03
1.01121212121212e-01 2.34020784985359e+00 8.93878235599311e-03
1.03969696969697e-01 2.32796606661180e+00 9.01642923666812e-03
1.06818181818182e-01 2.31578832104883e+00 9.09133376087809e-03
1.09666666666667e-01 2.30367427806719e+00 9.16359806045718e-03
1.12515151515152e-01 2.29162360443545e+00 9.23331819292022e-03
1.15363636363636e-01 2.27963596866504e+00 9.30058471726554e-03
1.18212121212121e-01 2.26771104100128e+00 9.36548312878877e-03
1.21060606060606e-01 2.25584849341477e+00 9.42809424858694e-03
1.23909090909091e-01 2.24404799968356e+00 9.48849464077603e-03
1.26757575757576e-01 2.23230923510687e+00 9.54675690528716e-03
1.29606060606061e-01 2.22063187677614e+00 9.60294993843083e-03
1.32454545454545e-01 2.20901560347193e+00 9.65713925341033e-03
1.35303030303030e-01 2.19746009565474e+00 9.70938720453221e-03
1.38151515151515e-01 2.18596503545686e+00 9.75975320704618e-03
1.41000000000000e-01 2.17453010667337e+00 9.80829392181517e-03
1.43848484848485e-01 2.16315499482949e+00 9.85506348456868e-03
1.46696969696970e-01 2.15183938694176e+00 9.90011364110788e-03
1.49545454545455e-01 2.14058297174158e+00 9.94349386837878e-03
1.52393939393939e-01 2.12938543958853e+00 9.98525156198363e-03
1.55242424242424e-01 2.11824648246173e+00 1.00254321486597e-02
1.58090909090909e-01 2.10716579395183e+00 1.00640792045854e-02
1.60939393939394e-01 2.09614306925226e+00 1.01012345504422e-02
1.63787878787879e-01 2.08517800521532e+00 1.01369383943454e-02
1.66636363636364e-01 2.07427030014906e+00 1.01712293964844e-02
1.69484848484848e-01 2.06341965400532e+00 1.02041447268075e-02
1.72333333333333e-01 2.05262576830532e+00 1.02357201878484e-02
1.75181818181818e-01 2.04188834613173e+00 1.02659902744347e-02
1.78030303030303e-01 2.03120709212045e+00 1.02949882297876e-02
1.80878787878788e-01 2.02058171250877e+00 1.03227461486315e-02
1.83727272727273e-01 2.01001191495703e+00 1.03492950108877e-02
1.86575757575758e-01 1.99949740871212e+00 1.03746647112830e-02
1.89424242424242e-01 1.98903790454188e+00 1.03988841510461e-02
1.92272727272727e-01 1.97863311472692e+00 1.04219812733324e-02
1.95121212121212e-01 1.96828275305313e+00 1.04439831088764e-02
1.97969696969697e-01 1.95798653480359e+00 1.04649158070430e-02
2.00818181818182e-01 1.94774417679962e+00 1.04848047115452e-02
2.03666666666667e-01 1.93755539724527e+00 1.05036743742617e-02
2.06515151515152e-01 1.92741991586839e+00 1.05215485666867e-02
2.09363636363636e-01 1.91733745386287e+00 1.05384503494271e-02
2.12212121212121e-01 1.90730773388101e+00 1.05544020914332e-02
2.15060606060606e-01 1.89733048002605e+00 1.05694254886502e-02
2.17909090909091e-01 1.88740541788799e+00 1.05835416250190e-02
2.20757575757576e-01 1.87753227440447e+00 1.05967709766609e-02
2.23606060606061e-01 1.86771077798581e+00 1.06091334145060e-02
2.26454545454545e-01 1.85794065846299e+00 1.06206482614323e-02
2.29303030303030e-01 1.84822164708017e+00 1.06313343032633e-02
2.32151515151515e-01 1.83855347648747e+00 1.06412098098632e-02
2.35000000000000e-01 1.82893588073353e+00 1.06502925450680e-02
2.37848484848485e-01 1.81936859529670e+00 1.06585998161699e-02
2.40696969696970e-01 1.80985135696151e+00 1.06661484714787e-02
2.43545454545455e-01 1.80038390392843e+00 1.06729548968637e-02
2.46393939393939e-01 1.79096597576739e+00 1.06790350630110e-02
2.49242424242424e-01 1.78159731341060e+00 1.06844045304634e-02
2.52090909090909e-01 1.77227765914554e+00 1.06890784643458e-02
2.54939393939394e-01 1.76300675660780e+00 1.06930716390278e-02
2.57787878787879e-01 1.75378435080825e+00 1.06963984797310e-02
2.60636363636364e-01 1.74461018802267e+00 1.06990730563230e-02
2.63484848484848e-01 1.73548401588881e+00 1.07011090764097e-02
2.66333333333333e-01 1.72640558336448e+00 1.07025199256174e-02
2.69181818181818e-01 1.71737464072073e+00 1.07033186690224e-02
2.72030303030303e-01 1.70839093953498e+00 1.07035180529634e-02
2.74878787878788e-01 1.69945423271524e+00 1.07031305416442e-02
2.77727272727273e-01 1.69056427439950e+00 1.07021683090607e-02
2.80575757575758e-01 1.68172082004339e+00 1.07006432303961e-02
2.83424242424242e-01 1.67292362638171e+00 1.06985669177928e-02
2.86272727272727e-01 1.66417245142178e+00 1.06959507197939e-02
2.89121212121212e-01 1.65546705443683e+00 1.06928057294739e-02
2.91969696969697e-01 1.64680719595935e+00 1.06891427840928e-02
2.94818181818182e-01 1.63819263780244e+00 1.06849724972281e-02
2.97666666666667e-01 1.62962314296894e+00 1.06803052494403e-02
3.00515151515152e-01 1.62109847572972e+00 1.06751511785410e-02
3.03363636363636e-01 1.61261840158875e+00 1.06695202112553e-02
3.06212121212121e-01 1.60418268727665e+00 1.06634220611763e-02
3.09060606060606e-01 1.59579110074431e+00 1.06568662271969e-02
3.11909090909091e-01 1.58744341118203e+00 1.06498620226115e-02
3.14757575757576e-01 1.57913938893609e+00 1.06424185652349e-02
3.17606060606061e-01 1.57087880557996e+00 1.06345447672012e-02
3.20454545454545e-01 1.56266143388202e+00 1.06262493637819e-02
3.23303030303030e-01 1.55448704779927e+00 1.06175409105273e-02
3.26151515151515e-01 1.54635542247118e+00 1.06084277881274e-02
3.29000000000000e-01 1.53826633421350e+00 1.05989181999302e-02
3.31848484848485e-01 1.53021956053524e+00 1.05890201981572e-02
3.34696969696970e-01 1.52221488006267e+00 1.05787416737481e-02
3.37545454545455e-01 1.51425207260353e+00 1.05680903459423e-02
3.40393939393939e-01 1.50633091911738e+00 1.05570737883777e-02
3.43242424242424e-01 1.49845120170956e+00 1.05456994256182e-02
3.46090909090909e-01 1.49061270362529e+00 1.05339745369533e-02
3.48939393939394e-01 1.48281520924362e+00 1.05219062533342e-02
3.51787878787879e-01 1.47505850409259e+00 1.05095015812284e-02
3.54636363636364e-01 1.46734237477982e+00 1.04967673924494e-02
3.57484848484848e-01 1.45966660905046e+00 1.04837104137629e-02
3.60333333333333e-01 1.45203099575998e+00 1.04703372507149e-02
3.63181818181818e-01 1.44443532486836e+00 1.04566543838155e-02
3.66030303030303e-01 1.43687938743433e+00 1.04426681651775e-02
3.68878787878788e-01 1.42936297562905e+00 1.04283848406320e-02
3.71727272727273e-01 1.42188588267174e+00 1.04138105396904e-02
3.74575757575758e-01 1.41444790288295e+00 1.03989512653123e-02
3.77424242424242e-01 1.40704883165917e+00 1.03838129160581e-02
3.80272727272727e-01 1.39968846546715e+00 1.03684012820998e-02
3.83121212121212e-01 1.39236660183835e+00 1.03527220477050e-02
3.85969696969697e-01 1.38508303936338e+00 1.03367807876753e-02
3.88818181818182e-01 1.37783757770420e+00 1.03205829877163e-02
3.91666666666667e-01 1.37063001753498e+00 1.03041340346371e-02
3.94515151515151e-01 1.36346016059058e+00 1.02874392063773e-02
3.97363636363636e-01 1.35632780964298e+00 1.02705036924614e-02
4.00212121212121e-01 1.34923276849584e+00 1.02533325899277e-02
4.03060606060606e-01 1.34217484197918e+00 1.02359308996758e-02
4.05909090909091e-01 1.33515383596045e+00 1.02183035455252e-02
4.08757575757576e-01 1.32816955728946e+00 1.02004553646785e-02
4.11606060606061e-01 1.32122181384307e+00 1.01823910980355e-02
4.14454545454545e-01 1.31431041450313e+00 1.01641154093518e-02
4.17303030303030e-01 1.30743516915126e+00 1.01456328811609e-02
4.20151515151515e-01 1.30059588866357e+00 1.01269480164714e-02
4.23000000000000e-01 1.29379238490553e+00 1.01080652350909e-02
4.25848484848485e-01 1.28702447074189e+00 1.00889888913234e-02
4.28696969696970e-01 1.28029195998585e+00 1.00697232647702e-02
4.31545454545455e-01 1.27359466743987e+00 1.00502725509948e-02
4.34393939393939e-01 1.26693240887522e+00 1.00306408793475e-02
4.37242424242424e-01 1.26030500102682e+00 1.00108323089258e-02
4.40090909090909e-01 1.25371226158832e+00 9.99085082998479e-03
4.42939393939394e-01 1.24715400920700e+00 9.97070036028241e-03
4.45787878787879e-01 1.24063006349277e+00 9.95038476157566e-03
4.48636363636364e-01 1.23414024497113e+00 9.92990783077892e-03
4.51484848484848e-01 1.22768437512050e+00 9.90927329099852e-03
4.54333333333333e-01 1.22126227635316e+00 9.88848480816218e-03
4.57181818181818e-01 1.21487377201035e+00 9.86754598706406e-03
4.60030303030303e-01 1.20851868635746e+00 9.84646036776406e-03
4.62878787878788e-01 1.20219684459215e+00 9.82523144114465e-03
4.65727272727273e-01 1.19590807280033e+00 9.80386264039173e-03
4.68575757575758e-01 1.18965219799081e+00 9.78235733235850e-03
4.71424242424242e-01 1.18342904807732e+00 9.76071883326701e-03
4.74272727272727e-01 1.17723845187379e+00 9.73895040483793e-03
4.77121212121212e-01 1.17108023908961e+00 9.71705525530059e-03
4.79969696969697e-01 1.16495424032503e+00 9.69503653588123e-03
4.82818181818182e-01 1.15886028707842e+00 9.67289735537184e-03
4.85666666666667e-01 1.15279821170543e+00 9.65064077197319e-03
4.88515151515152e-01 1.14676784745082e+00 9.62826978503705e-03
4.91363636363636e-01 1.14076902843166e+00 9.60578734978195e-03
4.94212121212121e-01 1.13480158963274e+00 9.58319637353808e-03
4.97060606060606e-01 1.12886536690209e+00 9.56049971231574e-03
4.99909090909091e-01 1.12296019695765e+00 9.53770018459959e-03
5.02757575757576e-01 1.11708591734890e+00 9.51480056350904e-03
5.05606060606061e-01 1.11124236648650e+00 9.49180356886256e-03
5.08454545454545e-01 1.10542938362633e+00 9.46871188111268e-03
5.11303030303030e-01 1.09964680886519e+00 9.44552813770560e-03
5.14151515151515e-01 1.09389448313631e+00 9.42225493383108e-03
5.17000000000000e-01 1.08817224820501e+00 9.39889481910003e-03
5.19848484848485e-01 1.08247994667481e+00 9.37545031050448e-03
5.22696969696970e-01 1.07681742195158e+00 9.35192388493588e-03
5.25545454545455e-01 1.07118451827089e+00 9.32831797160887e-03
5.28393939393939e-01 1.06558108068314e+00 9.30463496516819e-03
5.31242424242424e-01 1.06000695504925e+00 9.28087722217726e-03
5.34090909090909e-01 1.05446198803647e+00 9.25704706176594e-03
5.36939393939394e-01 1.04894602711413e+00 9.23314676242282e-03
5.39787878787879e-01 1.04345892055917e+00 9.20917857419611e-03
5.42636363636364e-01 1.03800051742272e+00 9.18514471155369e-03
5.45484848484848e-01 1.03257066755532e+00 9.16104734615843e-03
5.48333333333333e-01 1.02716922159293e+00 9.13688861920763e-03
5.51181818181818e-01 1.02179603095286e+00 9.11267063806155e-03
5.54030303030303e-01 1.01645094782967e+00 9.08839547314083e-03
5.56878787878788e-01 1.01113382520018e+00 9.06406516951541e-03
5.59727272727273e-01 1.00584451679205e+00 9.03968174005795e-03
5.62575757575758e-01 1.00058287710725e+00 9.01524715851224e-03
5.65424242424242e-01 9.95348761408879e-01 8.99076337122325e-03
5.68272727272727e-01 9.90142025717144e-01 8.96623229388035e-03
5.71121212121212e-01 9.84962526805434e-01 8.94165581201117e-03
5.73969696969697e-01 9.79810122196365e-01 8.91703577800099e-03
5.76818181818182e-01 9.74684670166329e-01 8.89237402202680e-03
5.79666666666667e-01 9.69586029716070e-01 8.86767234552881e-03
5.82515151515152e-01 9.64514060592454e-01 8.84293251460566e-03
5.85363636363636e-01 9.59468623276015e-01 8.81815627108349e-03
5.88212121212121e-01 9.54449578977122e-01 8.79334532939525e-03
5.91060606060606e-01 9.49456789632167e-01 8.76850137370031e-03
5.93909090909091e-01 9.44490117907724e-01 8.74362606829695e-03
5.96757575757576e-01 9.39549427172769e-01 8.71872105136022e-03
5.99606060606061e-01 9.34634581519040e-01 8.69378792860704e-03
6.02454545454545e-01 9.29745445749217e-01 8.66882828383702e-03
6.05303030303030e-01 9.24881885373202e-01 8.64384367592557e-03
6.08151515151515e-01 9.20043766604428e-01 8.61883563920839e-03
6.11000000000000e-01 9.15230956356174e-01 8.59380568072137e-03
6.13848484848485e-01 9.10443322245335e-01 8.56875529004098e-03
6.16696969696970e-01 9.05680732566387e-01 8.54368593331668e-03
6.19545454545455e-01 9.00943056310258e-01 8.51859904723467e-03
6.22393939393939e-01 8.96230163153194e-01 8.49349604898710e-03
6.25242424242424e-01 8.91541923453169e-01 8.46837833339331e-03
6.28090909090909e-01 8.86878208246327e-01 8.44324727323850e-03
6.30939393939394e-01 8.82238889243431e-01 8.41810421662863e-03
6.33787878787879e-01 8.77623838833273e-01 8.39295049630305e-03
6.36636363636364e-01 8.73032930058246e-01 8.36778742394511e-03
6.39484848484848e-01 8.68466036631871e-01 8.34261628443394e-03
6.42333333333333e-01 8.63923032928274e-01 8.31743834527810e-03
6.45181818181818e-01 8.59403793978740e-01 8.29225485385987e-03
6.48030303030303e-01 8.54908195468277e-01 8.26706703488763e-03
6.50878787878788e-01 8.50436113738734e-01 8.24187609928119e-03
6.53727272727273e-01 8.45987425765685e-01 8.21668323871914e-03
6.56575757575758e-01 8.41562009174848e-01 8.19148962012188e-03
6.59424242424242e-01 8.37159742232092e-01 8.16629639465482e-03
6.62272727272727e-01 8.32780503840077e-01 8.14110469507891e-03
6.65121212121212e-01 8.28424173534938e-01 8.11591563601928e-03
6.67969696969697e-01 8.24090631482963e-01 8.09073031152764e-03
6.70818181818182e-01 8.19779758483422e-01 8.06554980349928e-03
6.73666666666667e-01 8.15491435946834e-01 8.04037517647844e-03
6.76515151515152e-01 8.11225545910244e-01 8.01520747240089e-03
6.79363636363636e-01 8.06981971027762e-01 7.99004771912434e-03
6.82212121212121e-01 8.02760594567346e-01 7.96489692789746e-03
6.85060606060606e-01 7.98561300407587e-01 7.93975609101130e-03
6.87909090909091e-01 7.94383973040296e-01 7.91462618984025e-03
6.90757575757576e-01 7.90228497549905e-01 7.88950818985799e-03
6.93606060606061e-01 7.86094759627807e-01 7.86440303559679e-03
6.96454545454545e-01 7.81982645563349e-01 7.83931165879576e-03
6.99303030303030e-01 7.77892042240703e-01 7.81423497596778e-03
7.02151515151515e-01 7.73822837135761e-01 7.78917388861569e-03
7.05000000000000e-01 7.69774918313035e-01 7.76412928098738e-03
7.07848484848485e-01 7.65748174427997e-01 7.73910202770142e-03
7.10696969696970e-01 7.61742494707689e-01 7.71409298899804e-03
7.13545454545454e-01 7.57757768964078e-01 7.68910300593580e-03
7.16393939393939e-01 7.53793887585528e-01 7.66413290812164e-03
7.19242424242424e-01 7.49850741533789e-01 7.63918351138525e-03
7.22090909090909e-01 7.45928222341000e-01 7.61425561797536e-03
7.24939393939394e-01 7.42026222106699e-01 7.58935001441022e-03
7.27787878787879e-01 7.38144633499945e-01 7.56446747871922e-03
7.30636363636364e-01 7.34283349741043e-01 7.53960877591459e-03
7.33484848484849e-01 7.30442264613997e-01 7.51477465341152e-03
7.36333333333333e-01 7.26621272458428e-01 7.48996584836805e-03
7.39181818181818e-01 7.22820268166675e-01 7.46518308546235e-03
7.42030303030303e-01 7.19039147180905e-01 7.44042707482830e-03
7.44878787878788e-01 7.15277805495040e-01 7.41569851898012e-03
7.47727272727273e-01 7.11536139637411e-01 7.39099810846857e-03
7.50575757575758e-01 7.07814046682462e-01 7.36632651748746e-03
7.53424242424242e-01 7.04111424243049e-01 7.34168441089366e-03
7.56272727272727e-01 7.00428170467616e-01 7.31707244207114e-03
7.59121212121212e-01 6.96764184037403e-01 7.29249125308935e-03
7.61969696969697e-01 6.93119364163657e-01 7.26794147273069e-03
7.64818181818182e-01 6.89493610589369e-01 7.24342372306794e-03
7.67666666666667e-01 6.85886823572920e-01 7.21893861532247e-03
7.70515151515151e-01 6.82298903898992e-01 7.19448674567636e-03
7.73363636363636e-01 6.78729752871270e-01 7.17006870194188e-03
7.76212121212121e-01 6.75179272309726e-01 7.14568506152142e-03
7.79060606060606e-01 6.71647364547917e-01 7.12133638950847e-03
7.81909090909091e-01 6.68133932434581e-01 7.09702324498511e-03
7.84757575757576e-01 6.64638879318069e-01 7.07274617704775e-03
7.87606060606061e-01 6.61162109056636e-01 7.04850572078724e-03
7.90454545454545e-01 6.57703526011459e-01 7.02430240367233e-03
7.93303030303030e-01 6.54263035044008e-01 7.00013674359051e-03
7.96151515151515e-01 6.50840541513428e-01 6.97600924897826e-03
7.99000000000000e-01 6.47435951273938e-01 6.95192041700596e-03
8.01848484848485e-01 6.44049170676263e-01 6.92787073956525e-03
8.04696969696970e-01 6.40680106552937e-01 6.90386069947896e-03
8.07545454545455e-01 6.37328666227912e-01 6.87989076666676e-03
8.10393939393939e-01 6.33994757509936e-01 6.85596140421744e-03
8.13242424242424e-01 6.30678288690011e-01 6.83207306651537e-03
8.16090909090909e-01 6.27379168538880e-01 6.80822619935912e-03
8.18939393939394e-01 6.24097306304510e-01 6.78442123822708e-03
8.21787878787879e-01 6.20832611713381e-01 6.76065861397255e-03
8.24636363636364e-01 6.17584994956605e-01 6.73693874920858e-03
8.27484848484848e-01 6.14354366698902e-01 6.71326205465053e-03
8.30333333333333e-01 6.11140638072309e-01 6.68962893489216e-03
8.33181818181818e-01 6.07943720673740e-01 6.66603978661617e-03
8.36030303030303e-01 6.04763526562549e-01 6.64249499692727e-03
8.38878787878788e-01 6.01599968261704e-01 6.61899494880774e-03
8.41727272727273e-01 5.98452958744565e-01 6.59554001764617e-03
8.44575757575758e-01 5.95322411443352e-01 6.57213056772803e-03
8.47424242424242e-01 5.92208240243125e-01 6.54876695776853e-03
8.50272727272727e-01 5.89110359479415e-01 6.52544953919299e-03
8.53121212121212e-01 5.86028683935872e-01 6.50217865623575e-03
8.55969696969697e-01 5.82963128841919e-01 6.47895464434612e-03
8.58818181818182e-01 5.79913609873799e-01 6.45577783538116e-03
8.61666666666667e-01 5.76880043142071e-01 6.43264855429424e-03
8.64515151515151e-01 5.73862345199532e-01 6.40956711578576e-03
8.67363636363636e-01 5.70860433035497e-01 6.38653382957069e-03
8.70212121212121e-01 5.67874224073514e-01 6.36354899873550e-03
8.73060606060606e-01 5.64903636169094e-01 6.34061291820486e-03
8.75909090909091e-01 5.61948587610663e-01 6.31772587972008e-03
8.78757575757576e-01 5.59008997107640e-01 6.29488816865984e-03
8.81606060606061e-01 5.56084783797915e-01 6.27210006082262e-03
8.84454545454545e-01 5.53175867242375e-01 6.24936182747649e-03
8.87303030303030e-01 5.50282167422684e-01 6.22667373378050e-03
8.90151515151515e-01 5.47403604739091e-01 6.20403603886614e-03
8.93000000000000e-01 5.44540100008237e-01 6.18144899437233e-03
8.95848484848485e-01 5.41691574464001e-01 6.15891284918668e-03
8.98696969696970e-01 5.38857949746218e-01 6.13642784641121e-03
