Energy (eV)          EEDF (eV^-(3/2))     First Anisotropy
5.65625000000000e-03 3.71137311030427e-01 1.73387534283219e-04
1.69687500000000e-02 3.69138536599005e-01 2.86504299951161e-04
2.82812500000000e-02 3.67150526644410e-01 3.78727651131165e-04
3.95937500000000e-02 3.65173223194629e-01 4.49101438495795e-04
5.09062500000000e-02 3.63206568589460e-01 5.08052060484638e-04
6.22187500000000e-02 3.61250505479169e-01 5.59513080960176e-04
7.35312500000000e-02 3.59304976822862e-01 6.05515951713266e-04
8.48437500000000e-02 3.57369925886835e-01 6.47284953786516e-04
9.61562500000000e-02 3.55445296242923e-01 6.85630446371539e-04
1.07468750000000e-01 3.53531031766853e-01 7.21124047637180e-04
1.18781250000000e-01 3.51627076636613e-01 7.54188068457506e-04
1.30093750000000e-01 3.49733375330820e-01 7.85145723188281e-04
1.41406250000000e-01 3.47849872627105e-01 8.14251378700698e-04
1.52718750000000e-01 3.45976513600500e-01 8.41709800152454e-04
1.64031250000000e-01 3.44113243621838e-01 8.67688942203927e-04
1.75343750000000e-01 3.42260008356158e-01 8.92328759820500e-04
1.86656250000000e-01 3.40416753761125e-01 9.15747461306320e-04
1.97968750000000e-01 3.38583426085447e-01 9.38046060039463e-04
2.09281250000000e-01 3.36759971867315e-01 9.59311760841695e-04
2.20593750000000e-01 3.34946337932838e-01 9.79620527597152e-04
2.31906250000000e-01 3.33142471394497e-01 9.99039062783406e-04
2.43218750000000e-01 3.31348319649601e-01 1.01762635629530e-03
2.54531250000000e-01 3.29563830378750e-01 1.03543491333194e-03
2.65843750000000e-01 3.27788951544316e-01 1.05251173942194e-03
2.77156250000000e-01 3.26023631388918e-01 1.06889913910024e-03
2.88468750000000e-01 3.24267818433920e-01 1.08463536979437e-03
2.99781250000000e-01 3.22521461477923e-01 1.09975518191903e-03
3.11093750000000e-01 3.20784509595276e-01 1.11429026860476e-03
3.22406250000000e-01 3.19056912134592e-01 1.12826964297580e-03
3.33718750000000e-01 3.17338618717266e-01 1.14171995682766e-03
3.45031250000000e-01 3.15629579236011e-01 1.15466577152084e-03
3.56343750000000e-01 3.13929743853395e-01 1.16712978961722e-03
3.67656250000000e-01 3.12239063000386e-01 1.17913305403737e-03
3.78968750000000e-01 3.10557487374908e-01 1.19069512017147e-03
3.90281250000000e-01 3.08884967940404e-01 1.20183420533165e-03
4.01593750000000e-01 3.07221455924405e-01 1.21256731911203e-03
4.12906250000000e-01 3.05566902817109e-01 1.22291037757589e-03
4.24218750000000e-01 3.03921260369964e-01 1.23287830367512e-03
4.35531250000000e-01 3.02284480594262e-01 1.24248511589207e-03
4.46843750000000e-01 3.00656515759743e-01 1.25174400676280e-03
4.58156250000000e-01 2.99037318393197e-01 1.26066741266974e-03
4.69468750000000e-01 2.97426841277084e-01 1.26926707607184e-03
4.80781250000000e-01 2.95825037448156e-01 1.27755410115799e-03
4.92093750000000e-01 2.94231860196087e-01 1.28553900376166e-03
5.03406250000000e-01 2.92647263062113e-01 1.29323175625074e-03
5.14718750000000e-01 2.91071199837673e-01 1.30064182800274e-03
5.26031250000000e-01 2.89503624563064e-01 1.30777822198976e-03
5.37343750000000e-01 2.87944491526105e-01 1.31464950792543e-03
5.48656250000000e-01 2.86393755260793e-01 1.32126385236487e-03
5.59968750000000e-01 2.84851370545990e-01 1.32762904609623e-03
5.71281250000000e-01 2.83317292404095e-01 1.33375252912000e-03
5.82593750000000e-01 2.81791476099736e-01 1.33964141347264e-03
5.93906250000000e-01 2.80273877138465e-01 1.34530250412097e-03
6.05218750000000e-01 2.78764451265463e-01 1.35074231812551e-03
6.16531250000000e-01 2.77263154464243e-01 1.35596710224627e-03
6.27843750000000e-01 2.75769942955373e-01 1.36098284914546e-03
6.39156250000000e-01 2.74284773195197e-01 1.36579531232317e-03
6.50468750000000e-01 2.72807601874563e-01 1.37041001990670e-03
6.61781250000000e-01 2.71338385917566e-01 1.37483228740039e-03
6.73093750000000e-01 2.69877082480284e-01 1.37906722949182e-03
6.84406250000000e-01 2.68423648949534e-01 1.38311977099966e-03
6.95718750000000e-01 2.66978042941628e-01 1.38699465703912e-03
7.07031250000000e-01 2.65540222301138e-01 1.39069646247323e-03
7.18343750000000e-01 2.64110145099664e-01 1.39422960071165e-03
7.29656250000000e-01 2.62687769634614e-01 1.39759833191165e-03
7.40968750000000e-01 2.61273054427987e-01 1.40080677063187e-03
7.52281250000000e-01 2.59865958225163e-01 1.40385889298236e-03
7.63593750000000e-01 2.58466439993701e-01 1.40675854331199e-03
7.74906250000000e-01 2.57074458922140e-01 1.40950944047054e-03
7.86218750000000e-01 2.55689974418814e-01 1.41211518367816e-03
7.97531250000000e-01 2.54312946110661e-01 1.41457925803194e-03
8.08843750000000e-01 2.52943333842053e-01 1.41690503967786e-03
8.20156250000000e-01 2.51581097673620e-01 1.41909580067348e-03
8.31468750000000e-01 2.50226197881087e-01 1.42115471356269e-03
8.42781250000000e-01 2.48878594954117e-01 1.42308485568471e-03
8.54093750000000e-01 2.47538249595156e-01 1.42488921323621e-03
8.65406250000000e-01 2.46205122718289e-01 1.42657068510348e-03
8.76718750000000e-01 2.44879175448100e-01 1.42813208648102e-03
8.88031250000000e-01 2.43560369118538e-01 1.42957615229110e-03
8.99343750000000e-01 2.42248665271788e-01 1.43090554041812e-03
9.10656250000000e-01 2.40944025657154e-01 1.43212283476988e-03
9.21968750000000e-01 2.39646412229939e-01 1.43323054817702e-03
9.33281250000000e-01 2.38355787150336e-01 1.43423112514172e-03
9.44593750000000e-01 2.37072112782328e-01 1.43512694444479e-03
9.55906250000000e-01 2.35795351692587e-01 1.43592032162056e-03
9.67218750000000e-01 2.34525466649383e-01 1.43661351130801e-03
9.78531250000000e-01 2.33262420621501e-01 1.43720870948522e-03
9.89843750000000e-01 2.32006176777156e-01 1.43770805559489e-03
1.00115625000000e+00 2.30756698482926e-01 1.43811363456712e-03
1.01246875000000e+00 2.29513949302677e-01 1.43842747874585e-03
1.02378125000000e+00 2.28277892996503e-01 1.43865156972464e-03
1.03509375000000e+00 2.27048493519670e-01 1.43878784009715e-03
1.04640625000000e+00 2.25825715021566e-01 1.43883817512674e-03
1.05771875000000e+00 2.24609521844651e-01 1.43880441434049e-03
1.06903125000000e+00 2.23399878523423e-01 1.43868835305192e-03
1.08034375000000e+00 2.22196749783377e-01 1.43849174381552e-03
1.09165625000000e+00 2.21000100539985e-01 1.43821629781776e-03
1.10296875000000e+00 2.19809895897663e-01 1.43786368620784e-03
1.11428125000000e+00 2.18626101148763e-01 1.43743554137140e-03
1.12559375000000e+00 2.17448681772555e-01 1.43693345814967e-03
1.13690625000000e+00 2.16277603434219e-01 1.43635899500804e-03
1.14821875000000e+00 2.15112831983851e-01 1.43571367515608e-03
1.15953125000000e+00 2.13954333455459e-01 1.43499898762106e-03
1.17084375000000e+00 2.12802074065978e-01 1.43421638827849e-03
1.18215625000000e+00 2.11656020214283e-01 1.43336730084086e-03
1.19346875000000e+00 2.10516138480208e-01 1.43245311780707e-03
1.20478125000000e+00 2.09382395623573e-01 1.43147520137489e-03
1.21609375000000e+00 2.08254758583216e-01 1.43043488431751e-03
1.22740625000000e+00 2.07133194476025e-01 1.42933347082630e-03
1.23871875000000e+00 2.06017670595983e-01 1.42817223732134e-03
1.25003125000000e+00 2.04908154413210e-01 1.42695243323177e-03
1.26134375000000e+00 2.03804613573019e-01 1.42567528174670e-03
1.27265625000000e+00 2.02707015894971e-01 1.42434198053801e-03
1.28396875000000e+00 2.01615329371934e-01 1.42295370245727e-03
1.29528125000000e+00 2.00529522169152e-01 1.42151159620684e-03
1.30659375000000e+00 1.99449562623319e-01 1.42001678698705e-03
1.31790625000000e+00 1.98375419241650e-01 1.41847037712026e-03
1.32921875000000e+00 1.97307060700966e-01 1.41687344665298e-03
1.34053125000000e+00 1.96244455846781e-01 1.41522705393703e-03
1.35184375000000e+00 1.95187573692393e-01 1.41353223619025e-03
1.36315625000000e+00 1.94136383417979e-01 1.41179001003836e-03
1.37446875000000e+00 1.93090854369698e-01 1.41000137203826e-03
1.38578125000000e+00 1.92050956058796e-01 1.40816729918346e-03
1.39709375000000e+00 1.91016658160718e-01 1.40628874939323e-03
1.40840625000000e+00 1.89987930514223e-01 1.40436666198493e-03
1.41971875000000e+00 1.88964743120504e-01 1.40240195813118e-03
1.43103125000000e+00 1.87947066142315e-01 1.40039554130226e-03
1.44234375000000e+00 1.86934869903097e-01 1.39834829769432e-03
1.45365625000000e+00 1.85928124886118e-01 1.39626109664335e-03
1.46496875000000e+00 1.84926801733609e-01 1.39413479102655e-03
1.47628125000000e+00 1.83930871245906e-01 1.39197021765130e-03
1.48759375000000e+00 1.82940304380605e-01 1.38976819763143e-03
1.49890625000000e+00 1.81955072251708e-01 1.38752953675238e-03
1.51021875000000e+00 1.80975146128784e-01 1.38525502582497e-03
1.52153125000000e+00 1.80000497436131e-01 1.38294544102834e-03
1.53284375000000e+00 1.79031097751945e-01 1.38060154424283e-03
1.54415625000000e+00 1.78066918807484e-01 1.37822408337274e-03
1.55546875000000e+00 1.77107932486253e-01 1.37581379265961e-03
1.56678125000000e+00 1.76154110823176e-01 1.37337139298640e-03
1.57809375000000e+00 1.75205426003786e-01 1.37089759217262e-03
1.58940625000000e+00 1.74261850363413e-01 1.36839308526094e-03
1.60071875000000e+00 1.73323356386372e-01 1.36585855479580e-03
1.61203125000000e+00 1.72389916705169e-01 1.36329467109397e-03
1.62334375000000e+00 1.71461504099697e-01 1.36070209250729e-03
1.63465625000000e+00 1.70538091496443e-01 1.35808146567837e-03
1.64596875000000e+00 1.69619651967701e-01 1.35543342578905e-03
1.65728125000000e+00 1.68706158730785e-01 1.35275859680186e-03
1.66859375000000e+00 1.67797585147248e-01 1.35005759169522e-03
1.67990625000000e+00 1.66893904722105e-01 1.34733101269193e-03
1.69121875000000e+00 1.65995091103061e-01 1.34457945148158e-03
1.70253125000000e+00 1.65101118079742e-01 1.34180348943707e-03
1.71384375000000e+00 1.64211959582931e-01 1.33900369782547e-03
1.72515625000000e+00 1.63327589683810e-01 1.33618063801300e-03
1.73646875000000e+00 1.62447982593198e-01 1.33333486166492e-03
1.74778125000000e+00 1.61573112660805e-01 1.33046691094020e-03
1.75909375000000e+00 1.60702954374481e-01 1.32757731868104e-03
1.77040625000000e+00 1.59837482359472e-01 1.32466660859766e-03
1.78171875000000e+00 1.58976671377683e-01 1.32173529544826e-03
1.79303125000000e+00 1.58120496326937e-01 1.31878388521458e-03
1.80434375000000e+00 1.57268932240248e-01 1.31581287527289e-03
1.81565625000000e+00 1.56421954285088e-01 1.31282275456093e-03
1.82696875000000e+00 1.55579537762669e-01 1.30981400374042e-03
1.83828125000000e+00 1.54741658107216e-01 1.30678709535577e-03
1.84959375000000e+00 1.53908290885256e-01 1.30374249398907e-03
1.86090625000000e+00 1.53079411794903e-01 1.30068065641104e-03
1.87221875000000e+00 1.52254996665150e-01 1.29760203172840e-03
1.88353125000000e+00 1.51435021455162e-01 1.29450706152763e-03
1.89484375000000e+00 1.50619462253579e-01 1.29139618001564e-03
1.90615625000000e+00 1.49808295277817e-01 1.28826981415683e-03
1.91746875000000e+00 1.49001496873371e-01 1.28512838380702e-03
1.92878125000000e+00 1.48199043513131e-01 1.28197230184416e-03
1.94009375000000e+00 1.47400911796693e-01 1.27880197429617e-03
1.95140625000000e+00 1.46607078449675e-01 1.27561780046578e-03
1.96271875000000e+00 1.45817520323042e-01 1.27242017305236e-03
1.97403125000000e+00 1.45032214392428e-01 1.26920947827126e-03
1.98534375000000e+00 1.44251137757466e-01 1.26598609597018e-03
1.99665625000000e+00 1.43474267641119e-01 1.26275039974305e-03
2.00796875000000e+00 1.42701581389018e-01 1.25950275704142e-03
2.01928125000000e+00 1.41933056468798e-01 1.25624352928322e-03
2.03059375000000e+00 1.41168670469446e-01 1.25297307195933e-03
2.04190625000000e+00 1.40408401100642e-01 1.24969173473768e-03
2.05321875000000e+00 1.39652226192112e-01 1.24639986156481e-03
2.06453125000000e+00 1.38900123692980e-01 1.24309779076583e-03
2.07584375000000e+00 1.38152071671128e-01 1.23978585514185e-03
2.08715625000000e+00 1.37408048312552e-01 1.23646438206519e-03
2.09846875000000e+00 1.36668031920729e-01 1.23313369357309e-03
2.10978125000000e+00 1.35932000915984e-01 1.22979410645873e-03
2.12109375000000e+00 1.35199933834861e-01 1.22644593236077e-03
2.13240625000000e+00 1.34471809329493e-01 1.22308947785100e-03
2.14371875000000e+00 1.33747606166986e-01 1.21972504452015e-03
2.15503125000000e+00 1.33027303228795e-01 1.21635292906178e-03
2.16634375000000e+00 1.32310879510110e-01 1.21297342335445e-03
2.17765625000000e+00 1.31598314119244e-01 1.20958681454232e-03
2.18896875000000e+00 1.30889586277023e-01 1.20619338511417e-03
2.20028125000000e+00 1.30184675316177e-01 1.20279341298079e-03
2.21159375000000e+00 1.29483560680745e-01 1.19938717155041e-03
2.22290625000000e+00 1.28786221925468e-01 1.19597492980307e-03
2.23421875000000e+00 1.28092638715197e-01 1.19255695236354e-03
2.24553125000000e+00 1.27402790824297e-01 1.18913349957249e-03
2.25684375000000e+00 1.26716658136061e-01 1.18570482755624e-03
2.26815625000000e+00 1.26034220642121e-01 1.18227118829553e-03
2.27946875000000e+00 1.25355458441863e-01 1.17883282969272e-03
2.29078125000000e+00 1.24680351741851e-01 1.17538999563735e-03
2.30209375000000e+00 1.24008880855245e-01 1.17194292607090e-03
2.31340625000000e+00 1.23341026201232e-01 1.16849185705032e-03
2.32471875000000e+00 1.22676768304449e-01 1.16503702080996e-03
2.33603125000000e+00 1.22016087794421e-01 1.16157864582246e-03
2.34734375000000e+00 1.21358965404992e-01 1.15811695685880e-03
2.35865625000000e+00 1.20705381973765e-01 1.15465217504679e-03
2.36996875000000e+00 1.20055318441543e-01 1.15118451792856e-03
2.38128125000000e+00 1.19408755851773e-01 1.14771419951713e-03
2.39259375000000e+00 1.18765675349993e-01 1.14424143035189e-03
2.40390625000000e+00 1.18126058183283e-01 1.14076641755300e-03
2.41521875000000e+00 1.17489885699716e-01 1.13728936487464e-03
2.42653125000000e+00 1.16857139347819e-01 1.13381047275744e-03
2.43784375000000e+00 1.16227800676024e-01 1.13032993838011e-03
2.44915625000000e+00 1.15601851332140e-01 1.12684795570979e-03
2.46046875000000e+00 1.14979273062807e-01 1.12336471555166e-03
2.47178125000000e+00 1.14360047712973e-01 1.11988040559775e-03
2.48309375000000e+00 1.13744157225360e-01 1.11639521047480e-03
2.49440625000000e+00 1.13131583639937e-01 1.11290931179105e-03
2.50571875000000e+00 1.12522309093399e-01 1.10942288818228e-03
2.51703125000000e+00 1.11916315818642e-01 1.10593611535756e-03
2.52834375000000e+00 1.11313586144251e-01 1.10244916614341e-03
2.53965625000000e+00 1.10714102493978e-01 1.09896221052757e-03
2.55096875000000e+00 1.10117847386234e-01 1.09547541570214e-03
2.56228125000000e+00 1.09524803433579e-01 1.09198894610566e-03
2.57359375000000e+00 1.08934953342210e-01 1.08850296346457e-03
2.58490625000000e+00 1.08348279911464e-01 1.08501762683393e-03
2.59621875000000e+00 1.07764766033311e-01 1.08153309263773e-03
2.60753125000000e+00 1.07184394691858e-01 1.07804951470806e-03
2.61884375000000e+00 1.06607148962852e-01 1.07456704432389e-03
2.63015625000000e+00 1.06033012013184e-01 1.07108583024896e-03
2.64146875000000e+00 1.05461967100403e-01 1.06760601876931e-03
2.65278125000000e+00 1.04893997572224e-01 1.06412775373006e-03
2.66409375000000e+00 1.04329086866043e-01 1.06065117657156e-03
2.67540625000000e+00 1.03767218508455e-01 1.05717642636487e-03
2.68671875000000e+00 1.03208376114774e-01 1.05370363984650e-03
2.69803125000000e+00 1.02652543388552e-01 1.05023295145316e-03
2.70934375000000e+00 1.02099704121110e-01 1.04676449335547e-03
2.72065625000000e+00 1.01549842191058e-01 1.04329839549102e-03
2.73196875000000e+00 1.01002941563830e-01 1.03983478559719e-03
2.74328125000000e+00 1.00458986291213e-01 1.03637378924309e-03
2.75459375000000e+00 9.99179605108876e-02 1.03291552986157e-03
2.76590625000000e+00 9.93798484459572e-02 1.02946012878004e-03
2.77721875000000e+00 9.88446344044946e-02 1.02600770525101e-03
2.78853125000000e+00 9.83123027790818e-02 1.02255837648248e-03
2.79984375000000e+00 9.77828380463548e-02 1.01911225766735e-03
2.81115625000000e+00 9.72562247665516e-02 1.01566946201269e-03
2.82246875000000e+00 9.67324475830615e-02 1.01223010076840e-03
2.83378125000000e+00 9.62114912219774e-02 1.00879428325545e-03
2.84509375000000e+00 9.56933404916504e-02 1.00536211689343e-03
2.85640625000000e+00 9.51779802822469e-02 1.00193370722823e-03
2.86771875000000e+00 9.46653955653080e-02 9.98509157958806e-04
2.87903125000000e+00 9.41555713933108e-02 9.95088570963553e-04
2.89034375000000e+00 9.36484928992332e-02 9.91672046326507e-04
2.90165625000000e+00 9.31441452961198e-02 9.88259682363034e-04
2.91296875000000e+00 9.26425138766512e-02 9.84851575644857e-04
2.92428125000000e+00 9.21435840127146e-02 9.81447821025140e-04
2.93559375000000e+00 9.16473411549776e-02 9.78048511663132e-04
2.94690625000000e+00 9.11537708324636e-02 9.74653739047834e-04
2.95821875000000e+00 9.06628586521302e-02 9.71263593021850e-04
2.96953125000000e+00 9.01745902984492e-02 9.67878161805030e-04
2.98084375000000e+00 8.96889515329894e-02 9.64497532017308e-04
2.99215625000000e+00 8.92059281940010e-02 9.61121788701274e-04
3.00346875000000e+00 8.87255061960030e-02 9.57751015344541e-04
3.01478125000000e+00 8.82476715293722e-02 9.54385293901834e-04
3.02609375000000e+00 8.77724102599348e-02 9.51024704816527e-04
3.03740625000000e+00 8.72997085285603e-02 9.47669327041975e-04
3.04871875000000e+00 8.68295525507565e-02 9.44319238062531e-04
3.06003125000000e+00 8.63619286162688e-02 9.40974513914188e-04
3.07134375000000e+00 8.58968230886791e-02 9.37635229204962e-04
3.08265625000000e+00 8.54342224050093e-02 9.34301457134982e-04
3.09396875000000e+00 8.49741130753248e-02 9.30973269516332e-04
3.10528125000000e+00 8.45164816823418e-02 9.27650736792400e-04
3.11659375000000e+00 8.40613148810358e-02 9.24333928057077e-04
3.12790625000000e+00 8.36085993982523e-02 9.21022911073712e-04
3.13921875000000e+00 8.31583220323201e-02 9.17717752293780e-04
3.15053125000000e+00 8.27104696526660e-02 9.14418516875149e-04
3.16184375000000e+00 8.22650291994319e-02 9.11125268700192e-04
3.17315625000000e+00 8.18219876830944e-02 9.07838070393664e-04
3.18446875000000e+00 8.13813321840854e-02 9.04556983340318e-04
3.19578125000000e+00 8.09430498524157e-02 9.01282067701964e-04
3.20709375000000e+00 8.05071279073001e-02 8.98013382434645e-04
3.21840625000000e+00 8.00735536367852e-02 8.94750985305606e-04
3.22971875000000e+00 7.96423143973779e-02 8.91494932909683e-04
3.24103125000000e+00 7.92133976136774e-02 8.88245280685673e-04
3.25234375000000e+00 7.87867907780081e-02 8.85002082932525e-04
3.26365625000000e+00 7.83624814500549e-02 8.81765392825041e-04
3.27496875000000e+00 7.79404572565006e-02 8.78535262429624e-04
3.28628125000000e+00 7.75207058906651e-02 8.75311742719743e-04
3.29759375000000e+00 7.71032151121460e-02 8.72094883590895e-04
3.30890625000000e+00 7.66879727464626e-02 8.68884733875792e-04
3.32021875000000e+00 7.62749666846999e-02 8.65681341359186e-04
3.33153125000000e+00 7.58641848831561e-02 8.62484752792262e-04
3.34284375000000e+00 7.54556153629914e-02 8.59295013906999e-04
3.35415625000000e+00 7.50492462098782e-02 8.56112169430498e-04
3.36546875000000e+00 7.46450655736541e-02 8.52936263098739e-04
3.37678125000000e+00 7.42430616679762e-02 8.49767337670465e-04
3.38809375000000e+00 7.38432227699776e-02 8.46605434940681e-04
3.39940625000000e+00 7.34455372199250e-02 8.43450595754007e-04
3.41071875000000e+00 7.30499934208793e-02 8.40302860018090e-04
3.42203125000000e+00 7.26565798383571e-02 8.37162266716325e-04
3.43334375000000e+00 7.22652849999944e-02 8.34028853920809e-04
3.44465625000000e+00 7.18760974952120e-02 8.30902658804983e-04
3.45596875000000e+00 7.14890059748830e-02 8.27783717656127e-04
3.46728125000000e+00 7.11039991510016e-02 8.24672065887717e-04
3.47859375000000e+00 7.07210657963538e-02 8.21567738051444e-04
3.48990625000000e+00 7.03401947441905e-02 8.18470767849259e-04
3.50121875000000e+00 6.99613748879013e-02 8.15381188145164e-04
3.51253125000000e+00 6.95845951806910e-02 8.12299030976805e-04
3.52384375000000e+00 6.92098446352574e-02 8.09224327567068e-04
3.53515625000000e+00 6.88371123234707e-02 8.06157108335357e-04
3.54646875000000e+00 6.84663873760551e-02 8.03097402908709e-04
3.55778125000000e+00 6.80976589822716e-02 8.00045240132810e-04
3.56909375000000e+00 6.77309163896031e-02 7.97000648083061e-04
