Energy (eV)          EEDF (eV^-(3/2))     First Anisotropy
5.17500000000000e-04 1.47639752857633e+01 6.63020198109736e-03
1.55250000000000e-03 1.46792066912028e+01 1.09537418880067e-02
2.58750000000000e-03 1.45949248024977e+01 1.44744769848547e-02
3.62250000000000e-03 1.45111268252577e+01 1.71579271143522e-02
4.65750000000000e-03 1.44278099810788e+01 1.94031882111112e-02
5.69250000000000e-03 1.43449715075001e+01 2.13609041133663e-02
6.72750000000000e-03 1.42626086579190e+01 2.31089110841454e-02
7.76250000000000e-03 1.41807187015018e+01 2.46941403166045e-02
8.79750000000000e-03 1.40992989230936e+01 2.61476703584383e-02
9.83250000000000e-03 1.40183466231286e+01 2.74914338498995e-02
1.08675000000000e-02 1.39378591175406e+01 2.87416421181743e-02
1.19025000000000e-02 1.38578337376740e+01 2.99107082064424e-02
1.29375000000000e-02 1.37782678301957e+01 3.10084055984042e-02
1.39725000000000e-02 1.36991587570068e+01 3.20426055839509e-02
1.50075000000000e-02 1.36205038951551e+01 3.30197674190775e-02
1.60425000000000e-02 1.35423006367486e+01 3.39452760168590e-02
1.70775000000000e-02 1.34645463888683e+01 3.48236816500187e-02
1.81125000000000e-02 1.33872385734830e+01 3.56588744675573e-02
1.91475000000000e-02 1.33103746273633e+01 3.64542143538368e-02
2.01825000000000e-02 1.32339520019969e+01 3.72126294082729e-02
2.12175000000000e-02 1.31579681635038e+01 3.79366918829766e-02
2.22525000000000e-02 1.30824205925527e+01 3.86286776086640e-02
2.32875000000000e-02 1.30073067842772e+01 3.92906131153187e-02
2.43225000000000e-02 1.29326242481927e+01 3.99243134398952e-02
2.53575000000000e-02 1.28583705081139e+01 4.05314127871824e-02
2.63925000000000e-02 1.27845431020730e+01 4.11133896368754e-02
2.74275000000000e-02 1.27111395822374e+01 4.16715874853325e-02
2.84625000000000e-02 1.26381575148292e+01 4.22072321201691e-02
2.94975000000000e-02 1.25655944800442e+01 4.27214461146877e-02
3.05325000000000e-02 1.24934480719716e+01 4.32152610733418e-02
3.15675000000000e-02 1.24217158985144e+01 4.36896280430580e-02
3.26025000000000e-02 1.23503955813101e+01 4.41454264174974e-02
3.36375000000000e-02 1.22794847556517e+01 4.45834715943094e-02
3.46725000000000e-02 1.22089810704093e+01 4.50045215938234e-02
3.57075000000000e-02 1.21388821879523e+01 4.54092828075040e-02
3.67425000000000e-02 1.20691857840718e+01 4.57984150130690e-02
3.77775000000000e-02 1.19998895479035e+01 4.61725357683144e-02
3.88125000000000e-02 1.19309911818511e+01 4.65322242759332e-02
3.98475000000000e-02 1.18624884015101e+01 4.68780247957803e-02
4.08825000000000e-02 1.17943789355923e+01 4.72104496682484e-02
4.19175000000000e-02 1.17266605258501e+01 4.75299820020455e-02
4.29525000000000e-02 1.16593309270019e+01 4.78370780712325e-02
4.39875000000000e-02 1.15923879066575e+01 4.81321694594053e-02
4.50225000000000e-02 1.15258292452442e+01 4.84156649831853e-02
4.60575000000000e-02 1.14596527359332e+01 4.86879524224390e-02
4.70925000000000e-02 1.13938561845663e+01 4.89494000806871e-02
4.81275000000000e-02 1.13284374095833e+01 4.92003581958562e-02
4.91625000000000e-02 1.12633942419497e+01 4.94411602187280e-02
5.01975000000000e-02 1.11987245250845e+01 4.96721239741332e-02
5.12325000000000e-02 1.11344261147890e+01 4.98935527179026e-02
5.22675000000000e-02 1.10704968791756e+01 5.01057361009339e-02
5.33025000000000e-02 1.10069346985971e+01 5.03089510502936e-02
5.43375000000000e-02 1.09437374655764e+01 5.05034625760164e-02
5.53725000000000e-02 1.08809030847366e+01 5.06895245112132e-02
5.64075000000000e-02 1.08184294727319e+01 5.08673801922069e-02
5.74425000000000e-02 1.07563145581777e+01 5.10372630846121e-02
5.84775000000000e-02 1.06945562815828e+01 5.11993973605787e-02
5.95125000000000e-02 1.06331525952807e+01 5.13539984318616e-02
6.05475000000000e-02 1.05721014633615e+01 5.15012734428356e-02
6.15825000000000e-02 1.05114008616050e+01 5.16414217271202e-02
6.26175000000000e-02 1.04510487774130e+01 5.17746352311072e-02
6.36525000000000e-02 1.03910432097428e+01 5.19010989073167e-02
6.46875000000000e-02 1.03313821690410e+01 5.20209910802172e-02
6.57225000000000e-02 1.02720636771773e+01 5.21344837868718e-02
6.67575000000000e-02 1.02130857673788e+01 5.22417430945208e-02
6.77925000000000e-02 1.01544464841654e+01 5.23429293970235e-02
6.88275000000000e-02 1.00961438832843e+01 5.24381976918860e-02
6.98625000000000e-02 1.00381760316457e+01 5.25276978394322e-02
7.08975000000000e-02 9.98054100725909e+00 5.26115748055268e-02
7.19325000000000e-02 9.92323689916894e+00 5.26899688891582e-02
7.29675000000000e-02 9.86626180739180e+00 5.27630159360090e-02
7.40025000000000e-02 9.80961384285307e+00 5.28308475390840e-02
7.50375000000000e-02 9.75329112732445e+00 5.28935912273918e-02
7.60725000000000e-02 9.69729179336163e+00 5.29513706435100e-02
7.71075000000000e-02 9.64161398424241e+00 5.30043057108794e-02
7.81425000000000e-02 9.58625585390510e+00 5.30525127915381e-02
7.91775000000000e-02 9.53121556688731e+00 5.30961048349755e-02
8.02125000000000e-02 9.47649129826516e+00 5.31351915187377e-02
8.12475000000000e-02 9.42208123359266e+00 5.31698793813193e-02
8.22825000000000e-02 9.36798356884166e+00 5.32002719478914e-02
8.33175000000000e-02 9.31419651034197e+00 5.32264698493321e-02
8.43525000000000e-02 9.26071827472190e+00 5.32485709350118e-02
8.53875000000000e-02 9.20754708884916e+00 5.32666703797213e-02
8.64225000000000e-02 9.15468118977203e+00 5.32808607851272e-02
8.74575000000000e-02 9.10211882466092e+00 5.32912322761155e-02
8.84925000000000e-02 9.04985825075027e+00 5.32978725923217e-02
8.95275000000000e-02 8.99789773528074e+00 5.33008671751639e-02
9.05625000000000e-02 8.94623555544178e+00 5.33002992506394e-02
9.15975000000000e-02 8.89486999831450e+00 5.32962499081442e-02
9.26325000000000e-02 8.84379936081490e+00 5.32887981755728e-02
9.36675000000000e-02 8.79302194963732e+00 5.32780210908800e-02
9.47025000000000e-02 8.74253608119841e+00 5.32639937703374e-02
9.57375000000000e-02 8.69234008158125e+00 5.32467894736862e-02
9.67725000000000e-02 8.64243228647982e+00 5.32264796663233e-02
9.78075000000000e-02 8.59281104114387e+00 5.32031340787129e-02
9.88425000000000e-02 8.54347470032404e+00 5.31768207631972e-02
9.98775000000000e-02 8.49442162821731e+00 5.31476061483073e-02
1.00912500000000e-01 8.44565019841274e+00 5.31155550907325e-02
1.01947500000000e-01 8.39715879383759e+00 5.30807309250961e-02
1.02982500000000e-01 8.34894580670365e+00 5.30431955116018e-02
1.04017500000000e-01 8.30100963845398e+00 5.30030092817027e-02
1.05052500000000e-01 8.25334869970989e+00 5.29602312819050e-02
1.06087500000000e-01 8.20596141021822e+00 5.29149192157601e-02
1.07122500000000e-01 8.15884619879898e+00 5.28671294841682e-02
1.08157500000000e-01 8.11200150329325e+00 5.28169172240818e-02
1.09192500000000e-01 8.06542577051136e+00 5.27643363456698e-02
1.10227500000000e-01 8.01911745618141e+00 5.27094395680323e-02
1.11262500000000e-01 7.97307502489807e+00 5.26522784535291e-02
1.12297500000000e-01 7.92729695007167e+00 5.25929034407999e-02
1.13332500000000e-01 7.88178171387757e+00 5.25313638765312e-02
1.14367500000000e-01 7.83652780720587e+00 5.24677080460267e-02
1.15402500000000e-01 7.79153372961131e+00 5.24019832026404e-02
1.16437500000000e-01 7.74679798926360e+00 5.23342355961391e-02
1.17472500000000e-01 7.70231910289791e+00 5.22645105000257e-02
1.18507500000000e-01 7.65809559576568e+00 5.21928522378620e-02
1.19542500000000e-01 7.61412600158577e+00 5.21193042086795e-02
1.20577500000000e-01 7.57040886249579e+00 5.20439089114701e-02
1.21612500000000e-01 7.52694272900380e+00 5.19667079688239e-02
1.22647500000000e-01 7.48372615994024e+00 5.18877421497516e-02
1.23682500000000e-01 7.44075772241013e+00 5.18070513917088e-02
1.24717500000000e-01 7.39803599174560e+00 5.17246748218932e-02
1.25752500000000e-01 7.35555955145863e+00 5.16406507778032e-02
1.26787500000000e-01 7.31332699319405e+00 5.15550168271132e-02
1.27822500000000e-01 7.27133691668291e+00 5.14678097868929e-02
1.28857500000000e-01 7.22958792969602e+00 5.13790657421933e-02
1.29892500000000e-01 7.18807864799777e+00 5.12888200640352e-02
1.30927500000000e-01 7.14680769530027e+00 5.11971074268102e-02
1.31962500000000e-01 7.10577370321769e+00 5.11039618251124e-02
1.32997500000000e-01 7.06497531122091e+00 5.10094165900643e-02
1.34032500000000e-01 7.02441116659241e+00 5.09135044051157e-02
1.35067500000000e-01 6.98407992438140e+00 5.08162573213412e-02
1.36102500000000e-01 6.94398024735922e+00 5.07177067722828e-02
1.37137500000000e-01 6.90411080597505e+00 5.06178835883251e-02
1.38172500000000e-01 6.86447027831179e+00 5.05168180106342e-02
1.39207500000000e-01 6.82505735004221e+00 5.04145397046823e-02
1.40242500000000e-01 6.78587071438544e+00 5.03110777733721e-02
1.41277500000000e-01 6.74690907206357e+00 5.02064607697600e-02
1.42312500000000e-01 6.70817113125861e+00 5.01007167094104e-02
1.43347500000000e-01 6.66965560756966e+00 4.99938730823896e-02
1.44382500000000e-01 6.63136122397032e+00 4.98859568649198e-02
1.45417500000000e-01 6.59328671076632e+00 4.97769945306944e-02
1.46452500000000e-01 6.55543080555346e+00 4.96670120618564e-02
1.47487500000000e-01 6.51779225317574e+00 4.95560349596945e-02
1.48522500000000e-01 6.48036980568375e+00 4.94440882550185e-02
1.49557500000000e-01 6.44316222229326e+00 4.93311965182470e-02
1.50592500000000e-01 6.40616826934414e+00 4.92173838692325e-02
1.51627500000000e-01 6.36938672025938e+00 4.91026739867929e-02
1.52662500000000e-01 6.33281635550451e+00 4.89870901180017e-02
1.53697500000000e-01 6.29645596254708e+00 4.88706550872334e-02
1.54732500000000e-01 6.26030433581653e+00 4.87533913049516e-02
1.55767500000000e-01 6.22436027666416e+00 4.86353207762580e-02
1.56802500000000e-01 6.18862259332341e+00 4.85164651092273e-02
1.57837500000000e-01 6.15309010087037e+00 4.83968455230330e-02
1.58872500000000e-01 6.11776162118445e+00 4.82764828558478e-02
1.59907500000000e-01 6.08263598290934e+00 4.81553975725357e-02
1.60942500000000e-01 6.04771202141418e+00 4.80336097721547e-02
1.61977500000000e-01 6.01298857875492e+00 4.79111391952693e-02
1.63012500000000e-01 5.97846450363595e+00 4.77880052310801e-02
1.64047500000000e-01 5.94413865137192e+00 4.76642269243628e-02
1.65082500000000e-01 5.91000988384980e+00 4.75398229822435e-02
1.66117500000000e-01 5.87607706949110e+00 4.74148117808096e-02
1.67152500000000e-01 5.84233908321441e+00 4.72892113715389e-02
1.68187500000000e-01 5.80879480639805e+00 4.71630394875949e-02
1.69222500000000e-01 5.77544312684301e+00 4.70363135499572e-02
1.70257500000000e-01 5.74228293873606e+00 4.69090506734053e-02
1.71292500000000e-01 5.70931314261309e+00 4.67812676723586e-02
1.72327500000000e-01 5.67653264532266e+00 4.66529810665684e-02
1.73362500000000e-01 5.64394035998974e+00 4.65242070866994e-02
1.74397500000000e-01 5.61153520597968e+00 4.63949616797578e-02
1.75432500000000e-01 5.57931610886241e+00 4.62652605143971e-02
1.76467500000000e-01 5.54728200037676e+00 4.61351189861119e-02
1.77502500000000e-01 5.51543181839508e+00 4.60045522222917e-02
1.78537500000000e-01 5.48376450688803e+00 4.58735750871734e-02
1.79572500000000e-01 5.45227901588952e+00 4.57422021866820e-02
1.80607500000000e-01 5.42097430146196e+00 4.56104478731542e-02
1.81642500000000e-01 5.38984932566159e+00 4.54783262499578e-02
1.82677500000000e-01 5.35890305650411e+00 4.53458511760047e-02
1.83712500000000e-01 5.32813446793042e+00 4.52130362701738e-02
1.84747500000000e-01 5.29754253977265e+00 4.50798949156275e-02
1.85782500000000e-01 5.26712625772029e+00 4.49464402640296e-02
1.86817500000000e-01 5.23688461328659e+00 4.48126852396829e-02
1.87852500000000e-01 5.20681660377510e+00 4.46786425435617e-02
1.88887500000000e-01 5.17692123224645e+00 4.45443246572730e-02
1.89922500000000e-01 5.14719750748527e+00 4.44097438469265e-02
1.90957500000000e-01 5.11764444396732e+00 4.42749121669066e-02
1.91992500000000e-01 5.08826106182687e+00 4.41398414635895e-02
1.93027500000000e-01 5.05904638682414e+00 4.40045433789720e-02
1.94062500000000e-01 5.02999945031304e+00 4.38690293542168e-02
1.95097500000000e-01 5.00111928920903e+00 4.37333106331292e-02
1.96132500000000e-01 4.97240494595722e+00 4.35973982655539e-02
1.97167500000000e-01 4.94385546850059e+00 4.34613031107208e-02
1.98202500000000e-01 4.91546991024842e+00 4.33250358405073e-02
1.99237500000000e-01 4.88724733004495e+00 4.31886069426230e-02
2.00272500000000e-01 4.85918679213813e+00 4.30520267237599e-02
2.01307500000000e-01 4.83128736614859e+00 4.29153053126559e-02
2.02342500000000e-01 4.80354812703885e+00 4.27784526630948e-02
2.03377500000000e-01 4.77596815508257e+00 4.26414785568621e-02
2.04412500000000e-01 4.74854653583412e+00 4.25043926066250e-02
2.05447500000000e-01 4.72128236009823e+00 4.23672042587709e-02
2.06482500000000e-01 4.69417472389984e+00 4.22299227961828e-02
2.07517500000000e-01 4.66722272845417e+00 4.20925573409490e-02
2.08552500000000e-01 4.64042548013684e+00 4.19551168570386e-02
2.09587500000000e-01 4.61378209045433e+00 4.18176101529159e-02
2.10622500000000e-01 4.58729167601446e+00 4.16800458841025e-02
2.11657500000000e-01 4.56095335849712e+00 4.15424325556904e-02
2.12692500000000e-01 4.53476626462515e+00 4.14047785248124e-02
2.13727500000000e-01 4.50872952613540e+00 4.12670920030612e-02
2.14762500000000e-01 4.48284227974989e+00 4.11293810588603e-02
2.15797500000000e-01 4.45710366714726e+00 4.09916536197894e-02
2.16832500000000e-01 4.43151283493424e+00 4.08539174748772e-02
2.17867500000000e-01 4.40606893461743e+00 4.07161802768383e-02
2.18902500000000e-01 4.38077112257507e+00 4.05784495442694e-02
2.19937500000000e-01 4.35561856002918e+00 4.04407326638112e-02
2.20972500000000e-01 4.33061041301767e+00 4.03030368922703e-02
2.22007500000000e-01 4.30574585236669e+00 4.01653693586949e-02
2.23042500000000e-01 4.28102405366321e+00 4.00277370664178e-02
2.24077500000000e-01 4.25644419722758e+00 3.98901468950593e-02
2.25112500000000e-01 4.23200546808646e+00 3.97526056024902e-02
2.26147500000000e-01 4.20770705594572e+00 3.96151198267752e-02
2.27182500000000e-01 4.18354815516361e+00 3.94776960880633e-02
2.28217500000000e-01 4.15952796472402e+00 3.93403407904466e-02
2.29252500000000e-01 4.13564568820998e+00 3.92030602237971e-02
2.30287500000000e-01 4.11190053377717e+00 3.90658605655627e-02
2.31322500000000e-01 4.08829171412774e+00 3.89287478825294e-02
2.32357500000000e-01 4.06481844648417e+00 3.87917281325512e-02
2.33392500000000e-01 4.04147995256331e+00 3.86548071662622e-02
2.34427500000000e-01 4.01827545855061e+00 3.85179907287453e-02
2.35462500000000e-01 3.99520419507442e+00 3.83812844611767e-02
2.36497500000000e-01 3.97226539718051e+00 3.82446939024436e-02
2.37532500000000e-01 3.94945830430671e+00 3.81082244907268e-02
2.38567500000000e-01 3.92678216025765e+00 3.79718815650666e-02
2.39602500000000e-01 3.90423621317975e+00 3.78356703668865e-02
2.40637500000000e-01 3.88181971553625e+00 3.76995960415088e-02
2.41672500000000e-01 3.85953192408242e+00 3.75636636396368e-02
2.42707500000000e-01 3.83737209984096e+00 3.74278781188009e-02
2.43742500000000e-01 3.81533950807744e+00 3.72922443447980e-02
2.44777500000000e-01 3.79343341827600e+00 3.71567670930969e-02
2.45812500000000e-01 3.77165310411506e+00 3.70214510502185e-02
2.46847500000000e-01 3.74999784344331e+00 3.68863008150984e-02
2.47882500000000e-01 3.72846691825571e+00 3.67513209004218e-02
2.48917500000000e-01 3.70705961466973e+00 3.66165157339394e-02
2.49952500000000e-01 3.68577522290162e+00 3.64818896597620e-02
2.50987500000000e-01 3.66461303724294e+00 3.63474469396309e-02
2.52022500000000e-01 3.64357235603713e+00 3.62131917541666e-02
2.53057500000000e-01 3.62265248165624e+00 3.60791282040991e-02
2.54092500000000e-01 3.60185272047782e+00 3.59452603114832e-02
2.55127500000000e-01 3.58117238286191e+00 3.58115920208812e-02
2.56162500000000e-01 3.56061078312817e+00 3.56781272005385e-02
2.57197500000000e-01 3.54016723953315e+00 3.55448696435346e-02
2.58232500000000e-01 3.51984107424769e+00 3.54118230689124e-02
2.59267500000000e-01 3.49963161333444e+00 3.52789911227953e-02
2.60302500000000e-01 3.47953818672552e+00 3.51463773794841e-02
2.61337500000000e-01 3.45956012820030e+00 3.50139853425355e-02
2.62372500000000e-01 3.43969677536331e+00 3.48818184458243e-02
2.63407500000000e-01 3.41994746962228e+00 3.47498800545922e-02
2.64442500000000e-01 3.40031155616631e+00 3.46181734664705e-02
2.65477500000000e-01 3.38078838394413e+00 3.44867019124902e-02
2.66512500000000e-01 3.36137730564256e+00 3.43554685580824e-02
2.67547500000000e-01 3.34207767766501e+00 3.42244765040621e-02
2.68582500000000e-01 3.32288886011015e+00 3.40937287875871e-02
2.69617500000000e-01 3.30381021675071e+00 3.39632283831082e-02
2.70652500000000e-01 3.28484111501236e+00 3.38329782033095e-02
2.71687500000000e-01 3.26598092595276e+00 3.37029811000233e-02
2.72722500000000e-01 3.24722902424066e+00 3.35732398651323e-02
2.73757500000000e-01 3.22858478813526e+00 3.34437572314728e-02
2.74792500000000e-01 3.21004759946549e+00 3.33145358737051e-02
2.75827500000000e-01 3.19161684360957e+00 3.31855784091793e-02
2.76862500000000e-01 3.17329190947464e+00 3.30568873987908e-02
2.77897500000000e-01 3.15507218947646e+00 3.29284653478106e-02
2.78932500000000e-01 3.13695707951930e+00 3.28003147067152e-02
2.79967500000000e-01 3.11894597897588e+00 3.26724378720030e-02
2.81002500000000e-01 3.10103829066750e+00 3.25448371869919e-02
2.82037500000000e-01 3.08323342084418e+00 3.24175149426049e-02
2.83072500000000e-01 3.06553077916501e+00 3.22904733781480e-02
2.84107500000000e-01 3.04792977867860e+00 3.21637146820786e-02
2.85142500000000e-01 3.03042983580356e+00 3.20372409927532e-02
2.86177500000000e-01 3.01303037030919e+00 3.19110543991715e-02
2.87212500000000e-01 2.99573080529623e+00 3.17851569417094e-02
2.88247500000000e-01 2.97853056717775e+00 3.16595506128346e-02
2.89282500000000e-01 2.96142908566009e+00 3.15342373578179e-02
2.90317500000000e-01 2.94442579372401e+00 3.14092190754290e-02
2.91352500000000e-01 2.92752012760584e+00 3.12844976186297e-02
2.92387500000000e-01 2.91071152677881e+00 3.11600747952491e-02
2.93422500000000e-01 2.89399943393445e+00 3.10359523686484e-02
2.94457500000000e-01 2.87738329496414e+00 3.09121320583829e-02
2.95492500000000e-01 2.86086255894072e+00 3.07886155408476e-02
2.96527500000000e-01 2.84443667810021e+00 3.06654044499190e-02
2.97562500000000e-01 2.82810510782367e+00 3.05425003775801e-02
2.98597500000000e-01 2.81186730661915e+00 3.04199048745431e-02
2.99632500000000e-01 2.79572273610369e+00 3.02976194508618e-02
3.00667500000000e-01 2.77967086098553e+00 3.01756455765303e-02
3.01702500000000e-01 2.76371114904631e+00 3.00539846820804e-02
3.02737500000000e-01 2.74784307112346e+00 2.99326381591609e-02
3.03772500000000e-01 2.73206610109264e+00 2.98116073611145e-02
3.04807500000000e-01 2.71637971585029e+00 2.96908936035531e-02
3.05842500000000e-01 2.70078339529631e+00 2.95704981649127e-02
3.06877500000000e-01 2.68527662231676e+00 2.94504222870011e-02
3.07912500000000e-01 2.66985888276680e+00 2.93306671755490e-02
3.08947500000000e-01 2.65452966545357e+00 2.92112340007393e-02
3.09982500000000e-01 2.63928846211925e+00 2.90921238977379e-02
3.11017500000000e-01 2.62413476742427e+00 2.89733379672154e-02
3.12052500000000e-01 2.60906807893046e+00 2.88548772758577e-02
3.13087500000000e-01 2.59408789708448e+00 2.87367428568764e-02
3.14122500000000e-01 2.57919372520119e+00 2.86189357105023e-02
3.15157500000000e-01 2.56438506944723e+00 2.85014568044811e-02
3.16192500000000e-01 2.54966143882461e+00 2.83843070745539e-02
3.17227500000000e-01 2.53502234515445e+00 2.82674874249358e-02
3.18262500000000e-01 2.52046730306079e+00 2.81509987287913e-02
3.19297500000000e-01 2.50599582995451e+00 2.80348418286942e-02
3.20332500000000e-01 2.49160744601729e+00 2.79190175370859e-02
3.21367500000000e-01 2.47730167418574e+00 2.78035266367277e-02
3.22402500000000e-01 2.46307804013558e+00 2.76883698811467e-02
3.23437500000000e-01 2.44893607226588e+00 2.75735479950700e-02
3.24472500000000e-01 2.43487530168347e+00 2.74590616748632e-02
3.25507500000000e-01 2.42089526218735e+00 2.73449115889524e-02
3.26542500000000e-01 2.40699549025326e+00 2.72310983782449e-02
