Energy (eV)          EEDF (eV^-(3/2))     First Anisotropy
1.10384615384615e-01 4.65393230570111e-02 4.79662983885239e-05
3.31153846153846e-01 4.53179675358013e-02 7.84303375864090e-05
5.51923076923077e-01 4.41286646791170e-02 1.01502221340421e-04
7.72692307692308e-01 4.29705733147068e-02 1.17838870486936e-04
9.93461538461539e-01 4.18428743404446e-02 1.30511245544720e-04
1.21423076923077e+00 4.07447701566627e-02 1.40716671644302e-04
1.43500000000000e+00 3.96754840887569e-02 1.49092738545117e-04
1.65576923076923e+00 3.86342598413337e-02 1.56034993971813e-04
1.87653846153846e+00 3.76203609812547e-02 1.61812543279846e-04
2.09730769230769e+00 3.66330703939760e-02 1.66620203344809e-04
2.31807692307692e+00 3.56716897846516e-02 1.70605462248189e-04
2.53884615384615e+00 3.47355391842030e-02 1.73883805539878e-04
2.75961538461538e+00 3.38239564683671e-02 1.76548065129665e-04
2.98038461538462e+00 3.29362968893739e-02 1.78674442693189e-04
3.20115384615385e+00 3.20719326198964e-02 1.80326564157676e-04
3.42192307692308e+00 3.12302523090461e-02 1.81558308676087e-04
3.64269230769231e+00 3.04106606499391e-02 1.82415842732031e-04
3.86346153846154e+00 2.96125779586425e-02 1.82939120549986e-04
4.08423076923077e+00 2.88354397641731e-02 1.83163015461090e-04
4.30500000000000e+00 2.80786964092546e-02 1.83118189594797e-04
4.52576923076923e+00 2.73418126599138e-02 1.82831773313393e-04
4.74653846153846e+00 2.66242673320084e-02 1.82327904743659e-04
4.96730769230769e+00 2.59255529173217e-02 1.81628163637409e-04
5.18807692307692e+00 2.52451752264411e-02 1.80751923909714e-04
5.40884615384615e+00 2.45826530392251e-02 1.79716644002258e-04
5.62961538461539e+00 2.39375177644436e-02 1.78538107971208e-04
5.85038461538462e+00 2.33093131083502e-02 1.77230627529495e-04
6.07115384615385e+00 2.26975947519488e-02 1.75807212747364e-04
6.29192307692308e+00 2.21019300367429e-02 1.74279717352321e-04
6.51269230769231e+00 2.15218976587176e-02 1.72658963257468e-04
6.73346153846154e+00 2.09570873703583e-02 1.70954847961111e-04
6.95423076923077e+00 2.04070996904885e-02 1.69176437715797e-04
7.17500000000000e+00 1.98715456217239e-02 1.67332048843074e-04
7.39576923076923e+00 1.93500463746364e-02 1.65429318795008e-04
7.61653846153846e+00 1.88422331020133e-02 1.63475268993799e-04
7.83730769230769e+00 1.83477466357431e-02 1.61476360426309e-04
8.05807692307692e+00 1.78662372335494e-02 1.59438542726427e-04
8.27884615384615e+00 1.73973643316239e-02 1.57367298146224e-04
8.49961538461539e+00 1.69407963037510e-02 1.55267680830801e-04
8.72038461538462e+00 1.64962102267538e-02 1.53144352062879e-04
8.94115384615385e+00 1.60632916520943e-02 1.51001611987126e-04
9.16192307692308e+00 1.56417343834721e-02 1.48843428248272e-04
9.38269230769231e+00 1.52312402602550e-02 1.46673461912786e-04
9.60346153846154e+00 1.48315189465947e-02 1.44495090990224e-04
9.82423076923077e+00 1.44422877260769e-02 1.42311431827496e-04
1.00450000000000e+01 1.40632713017608e-02 1.40125358579316e-04
1.02657692307692e+01 1.36942016018174e-02 1.37939521028985e-04
1.04865384615385e+01 1.33348175898516e-02 1.35756361323277e-04
1.07073076923077e+01 1.29848650760293e-02 1.33578127926597e-04
1.09280769230769e+01 1.26440965479741e-02 1.31406889885146e-04
1.11488461538462e+01 1.23122709854881e-02 1.29244550451817e-04
1.13696153846154e+01 1.19891536908135e-02 1.27092856902917e-04
1.15903846153846e+01 1.16745161312594e-02 1.24953412194300e-04
1.18111538461538e+01 1.13681357686522e-02 1.22827685709989e-04
1.20319230769231e+01 1.10697959025796e-02 1.20717020805759e-04
1.22526923076923e+01 1.07792855246520e-02 1.18622644138301e-04
1.24734615384615e+01 1.04963991614830e-02 1.16545674295913e-04
1.26942307692308e+01 1.02209367298953e-02 1.14487127646337e-04
1.29150000000000e+01 9.95270340201941e-03 1.12447925880750e-04
1.31357692307692e+01 9.69150946068362e-03 1.10428902818651e-04
1.33565384615385e+01 9.43717016756756e-03 1.08430809765648e-04
1.35773076923077e+01 9.18950563074844e-03 1.06454320676960e-04
1.37980769230769e+01 8.94834068298375e-03 1.04500037675760e-04
1.40188461538462e+01 8.71350475214232e-03 1.02568496411429e-04
1.42396153846154e+01 8.48483174093376e-03 1.00660169374936e-04
1.44603846153846e+01 8.26215991429429e-03 9.87754706434848e-05
1.46811538461538e+01 8.04533177998393e-03 9.69147603023190e-05
1.49019230769231e+01 7.83419397752621e-03 9.50783470554023e-05
1.51226923076923e+01 7.62859717403311e-03 9.32664921593809e-05
1.53434615384615e+01 7.42839595416224e-03 9.14794130944294e-05
1.55642307692308e+01 7.23344871754854e-03 8.97172856218640e-05
1.57850000000000e+01 7.04361758246064e-03 8.79802470610078e-05
1.60057692307692e+01 6.85876828436653e-03 8.62683992255546e-05
1.62265384615385e+01 6.67877008231034e-03 8.45818105532134e-05
1.64473076923077e+01 6.50349566539453e-03 8.29205182105593e-05
1.66680769230769e+01 6.33282106595451e-03 8.12845305229587e-05
1.68888461538462e+01 6.16662556857242e-03 7.96738293900941e-05
1.71096153846154e+01 6.00479162490088e-03 7.80883714651837e-05
1.73303846153846e+01 5.84720477338379e-03 7.65280903251915e-05
1.75511538461538e+01 5.69375355535852e-03 7.49928985009992e-05
1.77719230769231e+01 5.54432943640610e-03 7.34826883972346e-05
1.79926923076923e+01 5.39882673213127e-03 7.19973341210658e-05
1.82134615384615e+01 5.25714253079821e-03 7.05366931932176e-05
1.84342307692308e+01 5.11917662070047e-03 6.91006072592792e-05
1.86550000000000e+01 4.98483142155399e-03 6.76889036331889e-05
1.88757692307692e+01 4.85401191314997e-03 6.63013966600008e-05
1.90965384615385e+01 4.72662556894543e-03 6.49378885911627e-05
1.93173076923077e+01 4.60258228998974e-03 6.35981704745245e-05
1.95380769230769e+01 4.48179434313744e-03 6.22820232880148e-05
1.97588461538462e+01 4.36417629700832e-03 6.09892190932100e-05
1.99796153846154e+01 4.24964496168009e-03 5.97195214072195e-05
2.02003846153846e+01 4.13811933158170e-03 5.84726862462498e-05
2.04211538461538e+01 4.02952052642122e-03 5.72484631013919e-05
2.06419230769231e+01 3.92377173550085e-03 5.60465952078206e-05
2.08626923076923e+01 3.82079816493888e-03 5.48668204287664e-05
2.10834615384615e+01 3.72052698317939e-03 5.37088720814701e-05
2.13042307692308e+01 3.62288726957162e-03 5.25724791234070e-05
2.15250000000000e+01 3.52780996559786e-03 5.14573669006370e-05
2.17457692307692e+01 3.43522782460601e-03 5.03632577926932e-05
2.19665384615385e+01 3.34507536473338e-03 4.92898715508759e-05
2.21873076923077e+01 3.25728882220359e-03 4.82369256580161e-05
2.24080769230769e+01 3.17180610742106e-03 4.72041358615103e-05
2.26288461538462e+01 3.08856675983326e-03 4.61912167312353e-05
2.28496153846154e+01 3.00751190523734e-03 4.51978817115574e-05
2.30703846153846e+01 2.92858421521041e-03 4.42238436269298e-05
2.32911538461538e+01 2.85172786546373e-03 4.32688151526185e-05
2.35119230769231e+01 2.77688849642214e-03 4.23325088263962e-05
2.37326923076923e+01 2.70401317573796e-03 4.14146374753124e-05
2.39534615384615e+01 2.63305035986683e-03 4.05149146123206e-05
2.41742307692308e+01 2.56394985766704e-03 3.96330544159139e-05
2.43950000000000e+01 2.49666279576543e-03 3.87687720893429e-05
2.46157692307692e+01 2.43114158310392e-03 3.79217841579797e-05
2.48365384615385e+01 2.36733987758161e-03 3.70918085694015e-05
2.50573076923077e+01 2.30521255303404e-03 3.62785648129734e-05
2.52780769230769e+01 2.24471566806382e-03 3.54817741604442e-05
2.54988461538462e+01 2.18580643419622e-03 3.47011599285106e-05
2.57196153846154e+01 2.12844318565780e-03 3.39364474092175e-05
2.59403846153846e+01 2.07258535057991e-03 3.31873641071226e-05
2.61611538461538e+01 2.01819342161325e-03 3.24536399579237e-05
2.63819230769231e+01 1.96522892802338e-03 3.17350072449489e-05
2.66026923076923e+01 1.91365440908716e-03 3.10312007964712e-05
2.68234615384615e+01 1.86343338697632e-03 3.03419581669242e-05
2.70442307692308e+01 1.81453034099121e-03 2.96670195430384e-05
2.72650000000000e+01 1.76691068298449e-03 2.90061279069249e-05
2.74857692307692e+01 1.72054073233778e-03 2.83590291611850e-05
2.77065384615385e+01 1.67538769233083e-03 2.77254721252232e-05
2.79273076923077e+01 1.63141962679016e-03 2.71052085472175e-05
2.81480769230769e+01 1.58860543797569e-03 2.64979932000529e-05
2.83688461538462e+01 1.54691484410027e-03 2.59035839947333e-05
2.85896153846154e+01 1.50631835793802e-03 2.53217418735486e-05
2.88103846153846e+01 1.46678726639681e-03 2.47522309113086e-05
2.90311538461538e+01 1.42829360977137e-03 2.41948184065907e-05
2.92519230769231e+01 1.39081016199170e-03 2.36492747722956e-05
2.94726923076923e+01 1.35431041175321e-03 2.31153736167832e-05
2.96934615384615e+01 1.31876854336978e-03 2.25928918163261e-05
2.99142307692308e+01 1.28415941853587e-03 2.20816094045483e-05
3.01350000000000e+01 1.25045855889629e-03 2.15813096363511e-05
3.03557692307692e+01 1.21764212837540e-03 2.10917790281198e-05
3.05765384615385e+01 1.18568691644014e-03 2.06128073129954e-05
3.07973076923077e+01 1.15457032158429e-03 2.01441874081030e-05
3.10180769230769e+01 1.12427033564727e-03 1.96857154399156e-05
3.12388461538462e+01 1.09476552793674e-03 1.92371907829064e-05
3.14596153846154e+01 1.06603503008748e-03 1.87984159511123e-05
3.16803846153846e+01 1.03805852157688e-03 1.83691966312647e-05
3.19011538461538e+01 1.01081621507078e-03 1.79493417105498e-05
3.21219230769231e+01 9.84288842443204e-04 1.75386631701577e-05
3.23426923076923e+01 9.58457641397457e-04 1.71369761085757e-05
3.25634615384615e+01 9.33304341940927e-04 1.67440987602227e-05
3.27842307692308e+01 9.08811153476364e-04 1.63598523915445e-05
3.30050000000000e+01 8.84960752444580e-04 1.59840613159708e-05
3.32257692307692e+01 8.61736269841020e-04 1.56165528938847e-05
3.34465384615385e+01 8.39121279363226e-04 1.52571574761701e-05
3.36673076923077e+01 8.17099785728476e-04 1.49057083566628e-05
3.38880769230769e+01 7.95656213557618e-04 1.45620417648485e-05
3.41088461538462e+01 7.74775396157438e-04 1.42259968684315e-05
3.43296153846154e+01 7.54442564803960e-04 1.38974156771266e-05
3.45503846153846e+01 7.34643338475287e-04 1.35761430430581e-05
3.47711538461538e+01 7.15363713497525e-04 1.32620266583236e-05
3.49919230769231e+01 6.96590053649773e-04 1.29549169623319e-05
3.52126923076923e+01 6.78309080681227e-04 1.26546671377303e-05
3.54334615384615e+01 6.60507864754207e-04 1.23611331038864e-05
3.56542307692308e+01 6.43173815307620e-04 1.20741734279107e-05
3.58750000000000e+01 6.26294672298668e-04 1.17936493168857e-05
3.60957692307692e+01 6.09858497381477e-04 1.15194246005505e-05
3.63165384615385e+01 5.93853665514410e-04 1.12513656762895e-05
3.65373076923077e+01 5.78268856695930e-04 1.09893414606640e-05
3.67580769230769e+01 5.63093048086605e-04 1.07332233688235e-05
3.69788461538462e+01 5.48315506081569e-04 1.04828853011537e-05
3.71996153846154e+01 5.33925778725515e-04 1.02382035632954e-05
3.74203846153846e+01 5.19913688436778e-04 9.99905685227291e-06
3.76411538461538e+01 5.06269324689692e-04 9.76532624118157e-06
3.78619230769231e+01 4.92983037011197e-04 9.53689510296277e-06
3.80826923076923e+01 4.80045428260992e-04 9.31364909483256e-06
3.83034615384615e+01 4.67447347876928e-04 9.09547614148083e-06
3.85242307692308e+01 4.55179885408469e-04 8.88226636255941e-06
3.87450000000000e+01 4.43234364310584e-04 8.67391205579759e-06
3.89657692307692e+01 4.31602335708768e-04 8.47030767400351e-06
3.91865384615385e+01 4.20275572456730e-04 8.27134977677042e-06
3.94073076923077e+01 4.09246063289954e-04 8.07693698694943e-06
3.96280769230769e+01 3.98506007243730e-04 7.88696996645719e-06
3.98488461538462e+01 3.88047808049569e-04 7.70135139734409e-06
4.00696153846154e+01 3.77864068766831e-04 7.51998591775671e-06
4.02903846153846e+01 3.67947586627555e-04 7.34278010325103e-06
4.05111538461538e+01 3.58291347863793e-04 7.16964244742664e-06
4.07319230769231e+01 3.48888522750871e-04 7.00048330129616e-06
4.09526923076923e+01 3.39732460846408e-04 6.83521485428097e-06
4.11734615384615e+01 3.30816686215454e-04 6.67375111464301e-06
4.13942307692308e+01 3.22134892853733e-04 6.51600785214868e-06
4.16150000000000e+01 3.13680940290801e-04 6.36190257892926e-06
4.18357692307692e+01 3.05448849182343e-04 6.21135452641042e-06
4.20565384615385e+01 2.97432797103090e-04 6.06428460520533e-06
4.22773076923077e+01 2.89627114410561e-04 5.92061536846240e-06
4.24980769230769e+01 2.82026280290596e-04 5.78027098863774e-06
4.27188461538462e+01 2.74624918795809e-04 5.64317723807216e-06
4.29396153846154e+01 2.67417795046100e-04 5.50926143893950e-06
4.31603846153846e+01 2.60399811576665e-04 5.37845244437455e-06
4.33811538461539e+01 2.53566004680977e-04 5.25068061933059e-06
4.36019230769231e+01 2.46911540902644e-04 5.12587779340029e-06
4.38226923076923e+01 2.40431713662762e-04 5.00397724226673e-06
4.40434615384615e+01 2.34121939884044e-04 4.88491366894412e-06
4.42642307692308e+01 2.27977756751612e-04 4.76862315934379e-06
4.44850000000000e+01 2.21994818598399e-04 4.65504316412184e-06
4.47057692307692e+01 2.16168893788763e-04 4.54411247799395e-06
4.49265384615385e+01 2.10495861740082e-04 4.43577120754166e-06
4.51473076923077e+01 2.04971709996294e-04 4.32996074151327e-06
4.53680769230769e+01 1.99592531426789e-04 4.22662373045746e-06
4.55888461538462e+01 1.94354521425348e-04 4.12570406909826e-06
4.58096153846154e+01 1.89253975221066e-04 4.02714685785897e-06
4.60303846153846e+01 1.84287285291559e-04 3.93089838586420e-06
4.62511538461538e+01 1.79450938777166e-04 3.83690611388274e-06
4.64719230769231e+01 1.74741514998067e-04 3.74511863817402e-06
4.66926923076923e+01 1.70155683065420e-04 3.65548567406360e-06
4.69134615384615e+01 1.65690199494289e-04 3.56795803948924e-06
4.71342307692308e+01 1.61341905911116e-04 3.48248762105076e-06
4.73550000000000e+01 1.57107726847676e-04 3.39902735817760e-06
4.75757692307692e+01 1.52984667537441e-04 3.31753122566207e-06
4.77965384615385e+01 1.48969811807100e-04 3.23795420839837e-06
4.80173076923077e+01 1.45060320005987e-04 3.16025227791895e-06
4.82380769230769e+01 1.41253427022153e-04 3.08438237542641e-06
4.84588461538462e+01 1.37546440301622e-04 3.01030239679571e-06
4.86796153846154e+01 1.33936737945226e-04 2.93797116335021e-06
4.89003846153846e+01 1.30421766876500e-04 2.86734840745889e-06
4.91211538461538e+01 1.26999041013127e-04 2.79839475817580e-06
4.93419230769231e+01 1.23666139509702e-04 2.73107171384469e-06
4.95626923076923e+01 1.20420705065851e-04 2.66534162832250e-06
4.97834615384615e+01 1.17260442238169e-04 2.60116769725761e-06
5.00042307692308e+01 1.14183115817705e-04 2.53851393242086e-06
5.02250000000000e+01 1.11186549267592e-04 2.47734514854723e-06
5.04457692307692e+01 1.08268623164674e-04 2.41762694912232e-06
5.06665384615385e+01 1.05427273706920e-04 2.35932570687894e-06
5.08873076923077e+01 1.02660491248381e-04 2.30240854558633e-06
5.11080769230769e+01 9.99663188941649e-05 2.24684332636508e-06
5.13288461538462e+01 9.73428510996526e-05 2.19259863541595e-06
5.15496153846154e+01 9.47882323235512e-05 2.13964376202348e-06
5.17703846153846e+01 9.23006557304191e-05 2.08794868680348e-06
5.19911538461538e+01 8.98783618974836e-05 2.03748407003457e-06
5.22119230769231e+01 8.75196375709768e-05 1.98822123107552e-06
5.24326923076923e+01 8.52228144679842e-05 1.94013213719811e-06
5.26534615384615e+01 8.29862680826012e-05 1.89318939250790e-06
5.28742307692308e+01 8.08084165376200e-05 1.84736621869166e-06
5.30950000000000e+01 7.86877194781105e-05 1.80263644441685e-06
5.33157692307692e+01 7.66226769692783e-05 1.75897449404999e-06
5.35365384615385e+01 7.46118284398976e-05 1.71635537277812e-06
5.37573076923077e+01 7.26537516456903e-05 1.67475465265876e-06
5.39780769230769e+01 7.07470616743568e-05 1.63414846182630e-06
5.41988461538462e+01 6.88904099548633e-05 1.59451347471170e-06
5.44196153846154e+01 6.70824833041598e-05 1.55582689560261e-06
5.46403846153846e+01 6.53220030083884e-05 1.51806644929382e-06
5.48611538461538e+01 6.36077239082576e-05 1.48121037183231e-06
5.50819230769231e+01 6.19384335188583e-05 1.44523739515596e-06
5.53026923076923e+01 6.03129511812191e-05 1.41012673825110e-06
5.55234615384615e+01 5.87301272179267e-05 1.37585809840404e-06
5.57442307692308e+01 5.71888421204274e-05 1.34241163685203e-06
5.59650000000000e+01 5.56880057655497e-05 1.30976797042608e-06
5.61857692307692e+01 5.42265566359735e-05 1.27790816275468e-06
5.64065384615385e+01 5.28034610723292e-05 1.24681371301746e-06
5.66273076923077e+01 5.14177125397006e-05 1.21646654536540e-06
5.68480769230769e+01 5.00683309230822e-05 1.18684900054457e-06
5.70688461538462e+01 4.87543618266459e-05 1.15794382824525e-06
5.72896153846154e+01 4.74748758990734e-05 1.12973417488403e-06
5.75103846153846e+01 4.62289681829628e-05 1.10220357629957e-06
5.77311538461538e+01 4.50157574679046e-05 1.07533595053853e-06
5.79519230769231e+01 4.38343856675474e-05 1.04911558645246e-06
5.81726923076923e+01 4.26840172188250e-05 1.02352713681347e-06
5.83934615384615e+01 4.15638384847104e-05 9.98555611517531e-07
5.86142307692308e+01 4.04730571790431e-05 9.74186366944516e-07
5.88350000000000e+01 3.94109018117666e-05 9.50405099472841e-07
5.90557692307692e+01 3.83766211375428e-05 9.27197838711654e-07
5.92765384615385e+01 3.73694836263553e-05 9.04550939061907e-07
5.94973076923077e+01 3.63887769444890e-05 8.82451071755199e-07
5.97180769230769e+01 3.54338074556670e-05 8.60885218432601e-07
5.99388461538462e+01 3.45038997253929e-05 8.39840665242246e-07
6.01596153846154e+01 3.35983960434687e-05 8.19304993800592e-07
6.03803846153846e+01 3.27166559633369e-05 7.99266075563212e-07
6.06011538461538e+01 3.18580558444789e-05 7.79712066274351e-07
6.08219230769231e+01 3.10219884115464e-05 7.60631397539092e-07
6.10426923076923e+01 3.02078623289840e-05 7.42012771531649e-07
6.12634615384615e+01 2.94151017785622e-05 7.23845155779391e-07
6.14842307692308e+01 2.86431460523127e-05 7.06117775306205e-07
6.17050000000000e+01 2.78914491597307e-05 6.88820107659944e-07
6.19257692307692e+01 2.71594794377454e-05 6.71941877758491e-07
6.21465384615385e+01 2.64467191759963e-05 6.55473051594551e-07
6.23673076923077e+01 2.57526642495700e-05 6.39403830282900e-07
6.25880769230769e+01 2.50768237657891e-05 6.23724645184532e-07
6.28088461538462e+01 2.44187197135962e-05 6.08426153401693e-07
6.30296153846154e+01 2.37778866256264e-05 5.93499231116564e-07
6.32503846153846e+01 2.31538712520496e-05 5.78934969298072e-07
6.34711538461538e+01 2.25462322368716e-05 5.64724669474627e-07
6.36919230769231e+01 2.19545398059189e-05 5.50859837527966e-07
6.39126923076923e+01 2.13783754656634e-05 5.37332179665712e-07
6.41334615384615e+01 2.08173317043741e-05 5.24133598456799e-07
6.43542307692308e+01 2.02710117040264e-05 5.11256187050400e-07
6.45750000000000e+01 1.97390290621961e-05 4.98692225398905e-07
6.47957692307692e+01 1.92210075161543e-05 4.86434176364919e-07
6.50165384615385e+01 1.87165806776304e-05 4.74474681047973e-07
6.52373076923077e+01 1.82253917729308e-05 4.62806554356480e-07
6.54580769230769e+01 1.77470933928639e-05 4.51422781333412e-07
6.56788461538462e+01 1.72813472447121e-05 4.40316513747029e-07
6.58996153846154e+01 1.68278239130730e-05 4.29481065197282e-07
6.61203846153846e+01 1.63862026289391e-05 4.18909907868775e-07
6.63411538461538e+01 1.59561710407105e-05 4.08596669337106e-07
6.65619230769231e+01 1.55374249933735e-05 3.98535128012766e-07
6.67826923076923e+01 1.51296683152711e-05 3.88719210100177e-07
6.70034615384615e+01 1.47326126066921e-05 3.79142986607300e-07
6.72242307692308e+01 1.43459770359827e-05 3.69800669104404e-07
6.74450000000000e+01 1.39694881426510e-05 3.60686606876749e-07
6.76657692307692e+01 1.36028796421854e-05 3.51795284003392e-07
6.78865384615385e+01 1.32458922383168e-05 3.43121315901974e-07
6.81073076923077e+01 1.28982734391209e-05 3.34659446049067e-07
6.83280769230769e+01 1.25597773799697e-05 3.26404543228446e-07
6.85488461538462e+01 1.22301646480698e-05 3.18351598968646e-07
6.87696153846154e+01 1.19092021132028e-05 3.10495723957849e-07
6.89903846153846e+01 1.15966627642406e-05 3.02832145604583e-07
6.92111538461538e+01 1.12923255471513e-05 2.95356205640700e-07
6.94319230769231e+01 1.09959752087189e-05 2.88063356785481e-07
6.96526923076923e+01 1.07074021455829e-05 2.80949160464251e-07
