Energy (eV)          EEDF (eV^-(3/2))     First Anisotropy
5.00000000000000e-03 4.47179223088484e-01 4.17217139044437e-01
1.50000000000000e-02 4.05457509184040e-01 3.54720069374652e-01
2.50000000000000e-02 3.76235209213553e-01 2.43523126299793e-01
3.50000000000000e-02 3.56752883924081e-01 1.70474361724866e-01
4.50000000000000e-02 3.42140336868580e-01 1.31516921104726e-01
5.50000000000000e-02 3.30449499703136e-01 1.07169960153604e-01
6.50000000000000e-02 3.20706344837859e-01 9.04760501278784e-02
7.50000000000000e-02 3.12354289677560e-01 7.83043566944383e-02
8.50000000000000e-02 3.05045473498972e-01 6.90314895421745e-02
9.50000000000000e-02 2.98547991769125e-01 6.17298005373951e-02
1.05000000000000e-01 2.92699513391493e-01 5.58300534665931e-02
1.15000000000000e-01 2.87381981075807e-01 5.09633006799609e-02
1.25000000000000e-01 2.82506853255500e-01 4.68797943061733e-02
1.35000000000000e-01 2.78006022214572e-01 4.34043874907525e-02
1.45000000000000e-01 2.73825975757350e-01 4.04105860704157e-02
1.55000000000000e-01 2.69923905000489e-01 3.78047363417758e-02
1.65000000000000e-01 2.66265028488995e-01 3.55160082835132e-02
1.75000000000000e-01 2.62820703343786e-01 3.34898369661063e-02
1.85000000000000e-01 2.59567061095773e-01 3.16835041433913e-02
1.95000000000000e-01 2.56484002515108e-01 3.00630867967872e-02
2.05000000000000e-01 2.53554443736416e-01 2.86013031721638e-02
2.15000000000000e-01 2.50763741880675e-01 2.72759625834039e-02
2.25000000000000e-01 2.48099251219735e-01 2.60688302604324e-02
2.35000000000000e-01 2.45549975828589e-01 2.49647830825364e-02
2.45000000000000e-01 2.43106294603228e-01 2.39511727621217e-02
2.55000000000000e-01 2.40759741276164e-01 2.30173393276482e-02
2.65000000000000e-01 2.38502826737698e-01 2.21542350731192e-02
2.75000000000000e-01 2.36328894261541e-01 2.13541307696978e-02
2.85000000000000e-01 2.34232000583759e-01 2.06103838776894e-02
2.95000000000000e-01 2.32206817486003e-01 1.99172540083520e-02
3.05000000000000e-01 2.30248549782088e-01 1.92697547648142e-02
3.15000000000000e-01 2.28352866533040e-01 1.86635338594007e-02
3.25000000000000e-01 2.26515843010208e-01 1.80947754040485e-02
3.35000000000000e-01 2.24733911452230e-01 1.75601197313369e-02
3.45000000000000e-01 2.23003819063941e-01 1.70565971824897e-02
3.55000000000000e-01 2.21322592015732e-01 1.65815731034066e-02
3.65000000000000e-01 2.19687504443259e-01 1.61327018956305e-02
3.75000000000000e-01 2.18096051636606e-01 1.57078884293180e-02
3.85000000000000e-01 2.16545926757396e-01 1.53052554776568e-02
3.95000000000000e-01 2.15035000541075e-01 1.49231161041158e-02
4.05000000000000e-01 2.13561303536573e-01 1.45599501453222e-02
4.15000000000000e-01 2.12123010512010e-01 1.42143840978530e-02
4.25000000000000e-01 2.10718426717002e-01 1.38851738475992e-02
4.35000000000000e-01 2.09345975742490e-01 1.35711897837472e-02
4.45000000000000e-01 2.08004188760253e-01 1.32714039218484e-02
4.55000000000000e-01 2.06691694958121e-01 1.29848787265541e-02
4.65000000000000e-01 2.05407213014942e-01 1.27107573778892e-02
4.75000000000000e-01 2.04149543482543e-01 1.24482552681260e-02
4.85000000000000e-01 2.02917561961317e-01 1.21966525514762e-02
4.95000000000000e-01 2.01710212972248e-01 1.19552875975851e-02
5.05000000000000e-01 2.00526504441800e-01 1.17235512234327e-02
5.15000000000000e-01 1.99365502727561e-01 1.15008815977591e-02
5.25000000000000e-01 1.98226328122248e-01 1.12867597282647e-02
5.35000000000000e-01 1.97108150781908e-01 1.10807054552783e-02
5.45000000000000e-01 1.96010187031192e-01 1.08822738867910e-02
5.55000000000000e-01 1.94931696004550e-01 1.06910522191465e-02
5.65000000000000e-01 1.93871976587363e-01 1.05066568955819e-02
5.75000000000000e-01 1.92830364625434e-01 1.03287310614476e-02
5.85000000000000e-01 1.91806230375073e-01 1.01569422805926e-02
5.95000000000000e-01 1.90798976169315e-01 9.99098048217129e-03
6.05000000000000e-01 1.89808034278639e-01 9.83055611118513e-03
6.15000000000000e-01 1.88832864947078e-01 9.67539845956489e-03
6.25000000000000e-01 1.87872954586726e-01 9.52525415755842e-03
6.35000000000000e-01 1.86927814115566e-01 9.37988580773957e-03
6.45000000000000e-01 1.85996977425178e-01 9.23907074615385e-03
6.55000000000000e-01 1.85079999966336e-01 9.10259991700857e-03
6.65000000000000e-01 1.84176457441776e-01 8.97027684894511e-03
6.75000000000000e-01 1.83285944596547e-01 8.84191672235163e-03
6.85000000000000e-01 1.82408074097306e-01 8.71734551841502e-03
6.95000000000000e-01 1.81542475492864e-01 8.59639924167169e-03
7.05000000000000e-01 1.80688794248972e-01 8.47892320875357e-03
7.15000000000000e-01 1.79846690851113e-01 8.36477139684849e-03
7.25000000000000e-01 1.79015839969602e-01 8.25380584610527e-03
7.35000000000000e-01 1.78195929681892e-01 8.14589611084660e-03
7.45000000000000e-01 1.77386660747433e-01 8.04091875499777e-03
7.55000000000000e-01 1.76587745930892e-01 7.93875688763143e-03
7.65000000000000e-01 1.75798909369907e-01 7.83929973495717e-03
7.75000000000000e-01 1.75019885983901e-01 7.74244224546083e-03
7.85000000000000e-01 1.74250420920814e-01 7.64808472523859e-03
7.95000000000000e-01 1.73490269038853e-01 7.55613250086343e-03
8.05000000000000e-01 1.72739194420642e-01 7.46649560739040e-03
8.15000000000000e-01 1.71996969917375e-01 7.37908849934174e-03
8.25000000000000e-01 1.71263376720773e-01 7.29382978271742e-03
8.35000000000000e-01 1.70538203960832e-01 7.21064196627361e-03
8.45000000000000e-01 1.69821248327519e-01 7.12945123046815e-03
8.55000000000000e-01 1.69112313714738e-01 7.05018721262579e-03
8.65000000000000e-01 1.68411210884993e-01 6.97278280701208e-03
8.75000000000000e-01 1.67717757153335e-01 6.89717397862083e-03
8.85000000000000e-01 1.67031776089269e-01 6.82329958959407e-03
8.95000000000000e-01 1.66353097235417e-01 6.75110123728243e-03
9.05000000000000e-01 1.65681555841813e-01 6.68052310304409e-03
9.15000000000000e-01 1.65016992614808e-01 6.61151181096428e-03
9.25000000000000e-01 1.64359253479620e-01 6.54401629574308e-03
9.35000000000000e-01 1.63708189355659e-01 6.47798767906257e-03
9.45000000000000e-01 1.63063655943807e-01 6.41337915380943e-03
9.55000000000000e-01 1.62425513524897e-01 6.35014587557284e-03
9.65000000000000e-01 1.61793626768693e-01 6.28824486089016e-03
9.75000000000000e-01 1.61167864552719e-01 6.22763489175920e-03
9.85000000000000e-01 1.60548099790341e-01 6.16827642596893e-03
9.95000000000000e-01 1.59934209267526e-01 6.11013151283812e-03
1.00500000000000e+00 1.59326073487773e-01 6.05316371398837e-03
1.01500000000000e+00 1.58723576524728e-01 5.99733802880087e-03
1.02500000000000e+00 1.58126605882013e-01 5.94262082423955e-03
1.03500000000000e+00 1.57535052359880e-01 5.88897976874434e-03
1.04500000000000e+00 1.56948809928264e-01 5.83638376991991e-03
1.05500000000000e+00 1.56367775605896e-01 5.78480291577047e-03
1.06500000000000e+00 1.55791849345110e-01 5.73420841924771e-03
1.07500000000000e+00 1.55220933922046e-01 5.68457256589494e-03
1.08500000000000e+00 1.54654934831931e-01 5.63586866438606e-03
1.09500000000000e+00 1.54093760189169e-01 5.58807099977660e-03
1.10500000000000e+00 1.53537320631976e-01 5.54115478929432e-03
1.11500000000000e+00 1.52985529231310e-01 5.49509614051008e-03
1.12500000000000e+00 1.52438301403874e-01 5.44987201174144e-03
1.13500000000000e+00 1.51895554828962e-01 5.40546017454901e-03
1.14500000000000e+00 1.51357209368964e-01 5.36183917819760e-03
1.15500000000000e+00 1.50823186993323e-01 5.31898831596808e-03
1.16500000000000e+00 1.50293411705771e-01 5.27688759320161e-03
1.17500000000000e+00 1.49767809474682e-01 5.23551769697733e-03
1.18500000000000e+00 1.49246308166375e-01 5.19485996732752e-03
1.19500000000000e+00 1.48728837481217e-01 5.15489636989719e-03
1.20500000000000e+00 1.48215328892396e-01 5.11560946996642e-03
1.21500000000000e+00 1.47705715587223e-01 5.07698240775470e-03
1.22500000000000e+00 1.47199932410845e-01 5.03899887493692e-03
1.23500000000000e+00 1.46697915812236e-01 5.00164309230083e-03
1.24500000000000e+00 1.46199603792385e-01 4.96489978847992e-03
1.25500000000000e+00 1.45704935854540e-01 4.92875417970579e-03
1.26500000000000e+00 1.45213852956443e-01 4.89319195052171e-03
1.27500000000000e+00 1.44726297464436e-01 4.85819923540048e-03
1.28500000000000e+00 1.44242213109363e-01 4.82376260122444e-03
1.29500000000000e+00 1.43761544944191e-01 4.78986903057713e-03
1.30500000000000e+00 1.43284239303248e-01 4.75650590580232e-03
1.31500000000000e+00 1.42810243763030e-01 4.72366099379187e-03
1.32500000000000e+00 1.42339507104489e-01 4.69132243146167e-03
1.33500000000000e+00 1.41871979276738e-01 4.65947871188255e-03
1.34500000000000e+00 1.41407611362113e-01 4.62811867102828e-03
1.35500000000000e+00 1.40946355542532e-01 4.59723147511124e-03
1.36500000000000e+00 1.40488165067091e-01 4.56680660847558e-03
1.37500000000000e+00 1.40032994220837e-01 4.53683386201831e-03
1.38500000000000e+00 1.39580798294687e-01 4.50730332211394e-03
1.39500000000000e+00 1.39131533556414e-01 4.47820536001259e-03
1.40500000000000e+00 1.38685157222685e-01 4.44953062169295e-03
1.41500000000000e+00 1.38241627432076e-01 4.42127001814757e-03
1.42500000000000e+00 1.37800903219055e-01 4.39341471607332e-03
1.43500000000000e+00 1.37362944488861e-01 4.36595612895441e-03
1.44500000000000e+00 1.36927711993264e-01 4.33888590851528e-03
1.45500000000000e+00 1.36495167307158e-01 4.31219593652513e-03
1.46500000000000e+00 1.36065272805959e-01 4.28587831693958e-03
1.47500000000000e+00 1.35637991643770e-01 4.25992536836173e-03
1.48500000000000e+00 1.35213287732287e-01 4.23432961680792e-03
1.49500000000000e+00 1.34791125720409e-01 4.20908378876289e-03
1.50500000000000e+00 1.34371470974534e-01 4.18418080451399e-03
1.51500000000000e+00 1.33954289559506e-01 4.15961377174839e-03
1.52500000000000e+00 1.33539548220184e-01 4.13537597940217e-03
1.53500000000000e+00 1.33127214363625e-01 4.11146089175127e-03
1.54500000000000e+00 1.32717256041834e-01 4.08786214273038e-03
1.55500000000000e+00 1.32309641935079e-01 4.06457353047160e-03
1.56500000000000e+00 1.31904341335740e-01 4.04158901205487e-03
1.57500000000000e+00 1.31501324132668e-01 4.01890269845440e-03
1.58500000000000e+00 1.31100560796049e-01 3.99650884967934e-03
1.59500000000000e+00 1.30702022362733e-01 3.97440187009768e-03
1.60500000000000e+00 1.30305680422030e-01 3.95257630393317e-03
1.61500000000000e+00 1.29911507101946e-01 3.93102683093130e-03
1.62500000000000e+00 1.29519475055843e-01 3.90974826218402e-03
1.63500000000000e+00 1.29129557449509e-01 3.88873553610877e-03
1.64500000000000e+00 1.28741727948621e-01 3.86798371457428e-03
1.65500000000000e+00 1.28355960706594e-01 3.84748797916751e-03
1.66500000000000e+00 1.27972230352788e-01 3.82724362759240e-03
1.67500000000000e+00 1.27590511981076e-01 3.80724607019989e-03
1.68500000000000e+00 1.27210781138748e-01 3.78749082664331e-03
1.69500000000000e+00 1.26833013815747e-01 3.76797352264896e-03
1.70500000000000e+00 1.26457186434218e-01 3.74868988690130e-03
1.71500000000000e+00 1.26083275838367e-01 3.72963574803847e-03
1.72500000000000e+00 1.25711259284611e-01 3.71080703175153e-03
1.73500000000000e+00 1.25341114432017e-01 3.69219975798335e-03
1.74500000000000e+00 1.24972819333014e-01 3.67381003822546e-03
1.75500000000000e+00 1.24606352424371e-01 3.65563407290659e-03
1.76500000000000e+00 1.24241692518433e-01 3.63766814886930e-03
1.77500000000000e+00 1.23878818794598e-01 3.61990863693359e-03
1.78500000000000e+00 1.23517710791046e-01 3.60235198954166e-03
1.79500000000000e+00 1.23158348396689e-01 3.58499473848028e-03
1.80500000000000e+00 1.22800711843350e-01 3.56783349268072e-03
1.81500000000000e+00 1.22444781698153e-01 3.55086493609123e-03
1.82500000000000e+00 1.22090538856132e-01 3.53408582561839e-03
1.83500000000000e+00 1.21737964533029e-01 3.51749298913670e-03
1.84500000000000e+00 1.21387040258304e-01 3.50108332356339e-03
1.85500000000000e+00 1.21037747868317e-01 3.48485379299449e-03
1.86500000000000e+00 1.20690069499705e-01 3.46880142690097e-03
1.87500000000000e+00 1.20343987582937e-01 3.45292331838352e-03
1.88500000000000e+00 1.19999484836029e-01 3.43721662248261e-03
1.89500000000000e+00 1.19656544258440e-01 3.42167855454149e-03
1.90500000000000e+00 1.19315149125120e-01 3.40630638862145e-03
1.91500000000000e+00 1.18975282980716e-01 3.39109745596672e-03
1.92500000000000e+00 1.18636929633927e-01 3.37604914351676e-03
1.93500000000000e+00 1.18300073152012e-01 3.36115889246626e-03
1.94500000000000e+00 1.17964697855434e-01 3.34642419686663e-03
1.95500000000000e+00 1.17630788312639e-01 3.33184260227333e-03
1.96500000000000e+00 1.17298329334979e-01 3.31741170443364e-03
1.97500000000000e+00 1.16967305971752e-01 3.30312914801296e-03
1.98500000000000e+00 1.16637703505376e-01 3.28899262536271e-03
1.99500000000000e+00 1.16309507446680e-01 3.27499987532211e-03
2.00500000000000e+00 1.15982703530312e-01 3.26114868205669e-03
2.01500000000000e+00 1.15657277710268e-01 3.24743687393332e-03
2.02500000000000e+00 1.15333216155525e-01 3.23386232242706e-03
2.03500000000000e+00 1.15010505245783e-01 3.22042294105922e-03
2.04500000000000e+00 1.14689131567313e-01 3.20711668436849e-03
2.05500000000000e+00 1.14369081908909e-01 3.19394154691198e-03
2.06500000000000e+00 1.14050343257931e-01 3.18089556229417e-03
2.07500000000000e+00 1.13732902796450e-01 3.16797680222469e-03
2.08500000000000e+00 1.13416747897486e-01 3.15518337560293e-03
2.09500000000000e+00 1.13101866121330e-01 3.14251342762958e-03
2.10500000000000e+00 1.12788245211960e-01 3.12996513894236e-03
2.11500000000000e+00 1.12475873093541e-01 3.11753672477690e-03
2.12500000000000e+00 1.12164737867005e-01 3.10522643415335e-03
2.13500000000000e+00 1.11854827806711e-01 3.09303254908203e-03
2.14500000000000e+00 1.11546131357188e-01 3.08095338379305e-03
2.15500000000000e+00 1.11238637129952e-01 3.06898728398876e-03
2.16500000000000e+00 1.10932333900391e-01 3.05713262611501e-03
2.17500000000000e+00 1.10627210604729e-01 3.04538781665357e-03
2.18500000000000e+00 1.10323256337060e-01 3.03375129143295e-03
2.19500000000000e+00 1.10020460346443e-01 3.02222151496015e-03
2.20500000000000e+00 1.09718812034068e-01 3.01079697976866e-03
2.21500000000000e+00 1.09418300950489e-01 2.99947620578451e-03
2.22500000000000e+00 1.09118916792911e-01 2.98825773971008e-03
2.23500000000000e+00 1.08820649402547e-01 2.97714015442381e-03
2.24500000000000e+00 1.08523488762026e-01 2.96612204839702e-03
2.25500000000000e+00 1.08227424992867e-01 2.95520204512449e-03
2.26500000000000e+00 1.07932448353001e-01 2.94437879257183e-03
2.27500000000000e+00 1.07638549234353e-01 2.93365096263681e-03
2.28500000000000e+00 1.07345718160474e-01 2.92301725062449e-03
2.29500000000000e+00 1.07053945784228e-01 2.91247637473603e-03
2.30500000000000e+00 1.06763222885527e-01 2.90202707557155e-03
2.31500000000000e+00 1.06473540369114e-01 2.89166811564615e-03
2.32500000000000e+00 1.06184889262398e-01 2.88139827891706e-03
2.33500000000000e+00 1.05897260713330e-01 2.87121637032442e-03
2.34500000000000e+00 1.05610645988333e-01 2.86112121534302e-03
2.35500000000000e+00 1.05325036470262e-01 2.85111165954428e-03
2.36500000000000e+00 1.05040423656424e-01 2.84118656817163e-03
2.37500000000000e+00 1.04756799156627e-01 2.83134482572639e-03
2.38500000000000e+00 1.04474154691279e-01 2.82158533556294e-03
2.39500000000000e+00 1.04192482089515e-01 2.81190701949381e-03
2.40500000000000e+00 1.03911773287380e-01 2.80230881740541e-03
2.41500000000000e+00 1.03632020326034e-01 2.79278968688387e-03
2.42500000000000e+00 1.03353215350003e-01 2.78334860284897e-03
2.43500000000000e+00 1.03075350605464e-01 2.77398455719724e-03
2.44500000000000e+00 1.02798418438564e-01 2.76469655845477e-03
2.45500000000000e+00 1.02522411293773e-01 2.75548363143807e-03
2.46500000000000e+00 1.02247321712276e-01 2.74634481692272e-03
2.47500000000000e+00 1.01973142330389e-01 2.73727917132052e-03
2.48500000000000e+00 1.01699865878012e-01 2.72828576636401e-03
2.49500000000000e+00 1.01427485177116e-01 2.71936368879934e-03
2.50500000000000e+00 1.01155993140252e-01 2.71051204008645e-03
2.51500000000000e+00 1.00885382769098e-01 2.70172993610485e-03
2.52500000000000e+00 1.00615647153031e-01 2.69301650686865e-03
2.53500000000000e+00 1.00346779467725e-01 2.68437089624728e-03
2.54500000000000e+00 1.00078772973782e-01 2.67579226169143e-03
2.55500000000000e+00 9.98116210153864e-02 2.66727977396818e-03
2.56500000000000e+00 9.95453170189879e-02 2.65883261690178e-03
2.57500000000000e+00 9.92798544920061e-02 2.65044998711696e-03
2.58500000000000e+00 9.90152270215646e-02 2.64213109379269e-03
2.59500000000000e+00 9.87514282732475e-02 2.63387515842074e-03
2.60500000000000e+00 9.84884519898804e-02 2.62568141456691e-03
2.61500000000000e+00 9.82262919903341e-02 2.61754910764085e-03
2.62500000000000e+00 9.79649421683522e-02 2.60947749467000e-03
2.63500000000000e+00 9.77043964914001e-02 2.60146584407865e-03
2.64500000000000e+00 9.74446489995365e-02 2.59351343547223e-03
2.65500000000000e+00 9.71856938043057e-02 2.58561955942642e-03
2.66500000000000e+00 9.69275250876512e-02 2.57778351728057e-03
2.67500000000000e+00 9.66701371008496e-02 2.57000462093648e-03
2.68500000000000e+00 9.64135241634639e-02 2.56228219266137e-03
2.69500000000000e+00 9.61576806623173e-02 2.55461556489520e-03
2.70500000000000e+00 9.59026010504849e-02 2.54700408006250e-03
2.71500000000000e+00 9.56482798463048e-02 2.53944709038792e-03
2.72500000000000e+00 9.53947116324073e-02 2.53194395771587e-03
2.73500000000000e+00 9.51418910547616e-02 2.52449405333470e-03
2.74500000000000e+00 9.48898128217404e-02 2.51709675780497e-03
2.75500000000000e+00 9.46384717032006e-02 2.50975146078955e-03
2.76500000000000e+00 9.43878625295825e-02 2.50245756088972e-03
2.77500000000000e+00 9.41379801910227e-02 2.49521446548370e-03
2.78500000000000e+00 9.38888196364857e-02 2.48802159056837e-03
2.79500000000000e+00 9.36403758729090e-02 2.48087836060513e-03
2.80500000000000e+00 9.33926439643647e-02 2.47378420836865e-03
2.81500000000000e+00 9.31456190312353e-02 2.46673857479951e-03
2.82500000000000e+00 9.28992962494048e-02 2.45974090885892e-03
2.83500000000000e+00 9.26536708494635e-02 2.45279066738685e-03
2.84500000000000e+00 9.24087381159274e-02 2.44588731496347e-03
2.85500000000000e+00 9.21644933864708e-02 2.43903032377403e-03
2.86500000000000e+00 9.19209320511726e-02 2.43221917347484e-03
2.87500000000000e+00 9.16780495517758e-02 2.42545335106335e-03
2.88500000000000e+00 9.14358413809599e-02 2.41873235075164e-03
2.89500000000000e+00 9.11943030816255e-02 2.41205567384092e-03
2.90500000000000e+00 9.09534302461917e-02 2.40542282859933e-03
2.91500000000000e+00 9.07132185159056e-02 2.39883333014175e-03
2.92500000000000e+00 9.04736635801634e-02 2.39228670031323e-03
2.93500000000000e+00 9.02347611758430e-02 2.38578246757458e-03
2.94500000000000e+00 8.99965070866485e-02 2.37932016688910e-03
2.95500000000000e+00 8.97588971424652e-02 2.37289933961236e-03
2.96500000000000e+00 8.95219272187260e-02 2.36651953338440e-03
2.97500000000000e+00 8.92855932357883e-02 2.36018030202415e-03
2.98500000000000e+00 8.90498911583212e-02 2.35388120542558e-03
2.99500000000000e+00 8.88148169947032e-02 2.34762180945633e-03
3.00500000000000e+00 8.85803667964299e-02 2.34140168585771e-03
3.01500000000000e+00 8.83465366575316e-02 2.33522041214740e-03
3.02500000000000e+00 8.81133227140004e-02 2.32907757152352e-03
3.03500000000000e+00 8.78807211432269e-02 2.32297275277175e-03
3.04500000000000e+00 8.76487281634461e-02 2.31690555017330e-03
3.05500000000000e+00 8.74173400331923e-02 2.31087556341353e-03
3.06500000000000e+00 8.71865530507634e-02 2.30488239749485e-03
3.07500000000000e+00 8.69563635536933e-02 2.29892566264975e-03
3.08500000000000e+00 8.67267679182334e-02 2.29300497425630e-03
3.09500000000000e+00 8.64977625588420e-02 2.28711995275452e-03
3.10500000000000e+00 8.62693439276825e-02 2.28127022356431e-03
3.11500000000000e+00 8.60415085141292e-02 2.27545541700631e-03
3.12500000000000e+00 8.58142528442813e-02 2.26967516822323e-03
3.13500000000000e+00 8.55875734804845e-02 2.26392911710255e-03
3.14500000000000e+00 8.53614670208608e-02 2.25821690820076e-03
3.15500000000000e+00 8.51359300988444e-02 2.25253819066927e-03
