Energy (eV)          EEDF (eV^-(3/2))     First Anisotropy
9.03508771929825e-04 6.86536485862521e+00 3.26005081948387e-03
2.71052631578947e-03 6.82405964554077e+00 5.38518031261434e-03
4.51754385964912e-03 6.78300294361716e+00 7.11410943693990e-03
6.32456140350877e-03 6.74219325785751e+00 8.43067592957929e-03
8.13157894736842e-03 6.70162910201815e+00 9.53126596875035e-03
9.93859649122807e-03 6.66130899894226e+00 1.04900374448895e-02
1.17456140350877e-02 6.62123148013202e+00 1.13453214325854e-02
1.35526315789474e-02 6.58139508638762e+00 1.21202380581390e-02
1.53596491228070e-02 6.54179836667538e+00 1.28301033601731e-02
1.71666666666667e-02 6.50243987928185e+00 1.34857299986360e-02
1.89736842105263e-02 6.46331819085200e+00 1.40951129850794e-02
2.07807017543860e-02 6.42443187650577e+00 1.46643762711387e-02
2.25877192982456e-02 6.38577952030200e+00 1.51983433297852e-02
2.43947368421053e-02 6.34735971447901e+00 1.57009002436495e-02
2.62017543859649e-02 6.30917106005899e+00 1.61752371058895e-02
2.80087719298246e-02 6.27121216618773e+00 1.66240143601072e-02
2.98157894736842e-02 6.23348165065285e+00 1.70494808722010e-02
3.16228070175439e-02 6.19597813941263e+00 1.74535599658484e-02
3.34298245614035e-02 6.15870026659748e+00 1.78379133411848e-02
3.52368421052632e-02 6.12164667476525e+00 1.82039896576997e-02
3.70438596491228e-02 6.08481601444121e+00 1.85530619546412e-02
3.88508771929825e-02 6.04820694445960e+00 1.88862569450159e-02
4.06578947368421e-02 6.01181813154232e+00 1.92045782506684e-02
4.24649122807018e-02 5.97564825060609e+00 1.95089250442601e-02
4.42719298245614e-02 5.93969598437408e+00 1.98001071730458e-02
4.60789473684211e-02 5.90396002365348e+00 2.00788575325757e-02
4.78859649122807e-02 5.86843906704550e+00 2.03458423370567e-02
4.96929824561404e-02 5.83313182091852e+00 2.06016695876576e-02
5.15000000000000e-02 5.79803699955706e+00 2.08468962615104e-02
5.33070175438597e-02 5.76315332485266e+00 2.10820343475671e-02
5.51140350877193e-02 5.72847952651050e+00 2.13075559845954e-02
5.69210526315790e-02 5.69401434175861e+00 2.15238978586922e-02
5.87280701754386e-02 5.65975651553824e+00 2.17314649754518e-02
6.05350877192983e-02 5.62570480028169e+00 2.19306339602082e-02
6.23421052631579e-02 5.59185795587915e+00 2.21217558510056e-02
6.41491228070176e-02 5.55821474978247e+00 2.23051586066084e-02
6.59561403508772e-02 5.52477395676146e+00 2.24811492706979e-02
6.77631578947368e-02 5.49153435905227e+00 2.26500158806604e-02
6.95701754385965e-02 5.45849474612554e+00 2.28120291552090e-02
7.13771929824562e-02 5.42565391482456e+00 2.29674439878753e-02
7.31842105263158e-02 5.39301066914424e+00 2.31165007769585e-02
7.49912280701754e-02 5.36056382035995e+00 2.32594266034833e-02
7.67982456140351e-02 5.32831218685535e+00 2.33964363180905e-02
7.86052631578947e-02 5.29625459408685e+00 2.35277334535638e-02
8.04122807017544e-02 5.26438987465300e+00 2.36535111064475e-02
8.22192982456140e-02 5.23271686810227e+00 2.37739527034461e-02
8.40263157894737e-02 5.20123442103684e+00 2.38892326987505e-02
8.58333333333333e-02 5.16994138692807e+00 2.39995172077547e-02
8.76403508771930e-02 5.13883662621390e+00 2.41049645754977e-02
8.94473684210526e-02 5.10791900615328e+00 2.42057259233374e-02
9.12543859649123e-02 5.07718740079010e+00 2.43019455920493e-02
9.30614035087719e-02 5.04664069100459e+00 2.43937616008541e-02
9.48684210526316e-02 5.01627776434948e+00 2.44813060420805e-02
9.66754385964912e-02 4.98609751512982e+00 2.45647054471572e-02
9.84824561403509e-02 4.95609884424494e+00 2.46440811244543e-02
1.00289473684211e-01 4.92628065926374e+00 2.47195494441142e-02
1.02096491228070e-01 4.89664187440395e+00 2.47912222243562e-02
1.03903508771930e-01 4.86718141007453e+00 2.48592068905479e-02
1.05710526315789e-01 4.83789819341910e+00 2.49236066359808e-02
1.07517543859649e-01 4.80879115829037e+00 2.49845209058875e-02
1.09324561403509e-01 4.77985924444732e+00 2.50420454174922e-02
1.11131578947368e-01 4.75110139852333e+00 2.50962723976254e-02
1.12938596491228e-01 4.72251657300613e+00 2.51472907728466e-02
1.14745614035088e-01 4.69410372715724e+00 2.51951863302360e-02
1.16552631578947e-01 4.66586182603963e+00 2.52400418832280e-02
1.18359649122807e-01 4.63778984139218e+00 2.52819374109086e-02
1.20166666666667e-01 4.60988675070158e+00 2.53209502033896e-02
1.21973684210526e-01 4.58215153803502e+00 2.53571549830038e-02
1.23780701754386e-01 4.55458319315324e+00 2.53906240740680e-02
1.25587719298246e-01 4.52718071210430e+00 2.54214273415872e-02
1.27394736842105e-01 4.49994309717633e+00 2.54496325539531e-02
1.29201754385965e-01 4.47286935626032e+00 2.54753053149543e-02
1.31008771929825e-01 4.44595850360740e+00 2.54985091944174e-02
1.32815789473684e-01 4.41920955901683e+00 2.55193058234125e-02
1.34622807017544e-01 4.39262154855956e+00 2.55377549707516e-02
1.36429824561404e-01 4.36619350379984e+00 2.55539146280887e-02
1.38236842105263e-01 4.33992446248707e+00 2.55678410775483e-02
1.40043859649123e-01 4.31381346780891e+00 2.55795889680629e-02
1.41850877192982e-01 4.28785956905350e+00 2.55892113753408e-02
1.43657894736842e-01 4.26206182089212e+00 2.55967599068534e-02
1.45464912280702e-01 4.23641928385198e+00 2.56022846098310e-02
1.47271929824561e-01 4.21093102427383e+00 2.56058342502530e-02
1.49078947368421e-01 4.18559611379294e+00 2.56074562202477e-02
1.50885964912281e-01 4.16041362994655e+00 2.56071966209286e-02
1.52692982456140e-01 4.13538265551161e+00 2.56051003160968e-02
1.54500000000000e-01 4.11050227908775e+00 2.56012109722993e-02
1.56307017543860e-01 4.08577159445966e+00 2.55955711077327e-02
1.58114035087719e-01 4.06118970115688e+00 2.55882221281500e-02
1.59921052631579e-01 4.03675570383954e+00 2.55792043714992e-02
1.61728070175439e-01 4.01246871283621e+00 2.55685571401876e-02
1.63535087719298e-01 3.98832784355176e+00 2.55563187419298e-02
1.65342105263158e-01 3.96433221698445e+00 2.55425265188213e-02
1.67149122807018e-01 3.94048095915470e+00 2.55272169158026e-02
1.68956140350877e-01 3.91677320147448e+00 2.55104253825305e-02
1.70763157894737e-01 3.89320808070948e+00 2.54921865935456e-02
1.72570175438597e-01 3.86978473856290e+00 2.54725343518369e-02
1.74377192982456e-01 3.84650232215339e+00 2.54515016437137e-02
1.76184210526316e-01 3.82335998348387e+00 2.54291206694476e-02
1.77991228070175e-01 3.80035687990191e+00 2.54054228635727e-02
1.79798245614035e-01 3.77749217358643e+00 2.53804389232258e-02
1.81605263157895e-01 3.75476503199137e+00 2.53541988265582e-02
1.83412280701754e-01 3.73217462734941e+00 2.53267318590118e-02
1.85219298245614e-01 3.70972013709975e+00 2.52980666300444e-02
1.87026315789474e-01 3.68740074340806e+00 2.52682311250030e-02
1.88833333333333e-01 3.66521563347177e+00 2.52372526102213e-02
1.90640350877193e-01 3.64316399948563e+00 2.52051578201742e-02
1.92447368421053e-01 3.62124503829006e+00 2.51719728648693e-02
1.94254385964912e-01 3.59945795176854e+00 2.51377232716807e-02
1.96061403508772e-01 3.57780194639902e+00 2.51024340058901e-02
1.97868421052632e-01 3.55627623363761e+00 2.50661294826647e-02
1.99675438596491e-01 3.53488002948404e+00 2.50288335862627e-02
2.01482456140351e-01 3.51361255485231e+00 2.49905696809645e-02
2.03289473684211e-01 3.49247303514962e+00 2.49513606290585e-02
2.05096491228070e-01 3.47146070063450e+00 2.49112288008281e-02
2.06903508771930e-01 3.45057478600863e+00 2.48701961159001e-02
2.08710526315789e-01 3.42981453067213e+00 2.48282839543255e-02
2.10517543859649e-01 3.40917917869193e+00 2.47855133188484e-02
2.12324561403509e-01 3.38866797850141e+00 2.47419047484115e-02
2.14131578947368e-01 3.36828018323450e+00 2.46974783516068e-02
2.15938596491228e-01 3.34801505034264e+00 2.46522538212087e-02
2.17745614035088e-01 3.32787184191801e+00 2.46062504414369e-02
2.19552631578947e-01 3.30784982432189e+00 2.45594871016647e-02
2.21359649122807e-01 3.28794826849733e+00 2.45119823030690e-02
2.23166666666667e-01 3.26816644960842e+00 2.44637541715710e-02
2.24973684210526e-01 3.24850364734302e+00 2.44148204639361e-02
2.26780701754386e-01 3.22895914556236e+00 2.43651986018924e-02
2.28587719298246e-01 3.20953223251654e+00 2.43149055900453e-02
2.30394736842105e-01 3.19022220081533e+00 2.42639581584214e-02
2.32201754385965e-01 3.17102834716937e+00 2.42123726826890e-02
2.34008771929825e-01 3.15194997267346e+00 2.41601652118412e-02
2.35815789473684e-01 3.13298638247673e+00 2.41073514789301e-02
2.37622807017544e-01 3.11413688605727e+00 2.40539469055304e-02
2.39429824561404e-01 3.09540079690143e+00 2.39999666119360e-02
2.41236842105263e-01 3.07677743277004e+00 2.39454254212481e-02
2.43043859649123e-01 3.05826611538663e+00 2.38903378690687e-02
2.44850877192982e-01 3.03986617069544e+00 2.38347182072574e-02
2.46657894736842e-01 3.02157692855828e+00 2.37785804327886e-02
2.48464912280702e-01 3.00339772293786e+00 2.37219382125024e-02
2.50271929824561e-01 2.98532789187067e+00 2.36648050094574e-02
2.52078947368421e-01 2.96736677724242e+00 2.36071940098034e-02
2.53885964912281e-01 2.94951372502994e+00 2.35491181462567e-02
2.55692982456140e-01 2.93176808501521e+00 2.34905901063047e-02
2.57500000000000e-01 2.91412921102019e+00 2.34316223349419e-02
2.59307017543860e-01 2.89659646062835e+00 2.33722270425151e-02
2.61114035087719e-01 2.87916919541267e+00 2.33124162072279e-02
2.62921052631579e-01 2.86184678066451e+00 2.32522015826349e-02
2.64728070175439e-01 2.84462858561494e+00 2.31915946999393e-02
2.66535087719298e-01 2.82751398317067e+00 2.31306068751584e-02
2.68342105263158e-01 2.81050235012904e+00 2.30692492112273e-02
2.70149122807018e-01 2.79359306692069e+00 2.30075326221834e-02
2.71956140350877e-01 2.77678551776207e+00 2.29454677656359e-02
2.73763157894737e-01 2.76007909063067e+00 2.28830651531116e-02
2.75570175438597e-01 2.74347317707356e+00 2.28203350844526e-02
2.77377192982456e-01 2.72696717240967e+00 2.27572876675024e-02
2.79184210526316e-01 2.71056047548635e+00 2.26939328243084e-02
2.80991228070175e-01 2.69425248887591e+00 2.26302802926130e-02
2.82798245614035e-01 2.67804261863835e+00 2.25663396318103e-02
2.84605263157895e-01 2.66193027451239e+00 2.25021202243029e-02
2.86412280701754e-01 2.64591486968414e+00 2.24376312812202e-02
2.88219298245614e-01 2.62999582097278e+00 2.23728818436527e-02
2.90026315789474e-01 2.61417254860499e+00 2.23078808038049e-02
2.91833333333333e-01 2.59844447634629e+00 2.22426368433575e-02
2.93640350877193e-01 2.58281103147812e+00 2.21771585325196e-02
2.95447368421053e-01 2.56727164462947e+00 2.21114542701579e-02
2.97254385964912e-01 2.55182574995184e+00 2.20455323010222e-02
2.99061403508772e-01 2.53647278490548e+00 2.19794007207588e-02
3.00868421052632e-01 2.52121219042956e+00 2.19130674767495e-02
3.02675438596491e-01 2.50604341073361e+00 2.18465403729435e-02
3.04482456140351e-01 2.49096589346309e+00 2.17798270706026e-02
3.06289473684211e-01 2.47597908949581e+00 2.17129350929580e-02
3.08096491228070e-01 2.46108245310307e+00 2.16458718258790e-02
3.09903508771930e-01 2.44627544175094e+00 2.15786445365483e-02
3.11710526315789e-01 2.43155751621398e+00 2.15112603172121e-02
3.13517543859649e-01 2.41692814055394e+00 2.14437261744367e-02
3.15324561403509e-01 2.40238678197097e+00 2.13760489744789e-02
3.17131578947368e-01 2.38793291095575e+00 2.13082354584948e-02
3.18938596491228e-01 2.37356600110085e+00 2.12402922466712e-02
3.20745614035088e-01 2.35928552924881e+00 2.11722258386312e-02
3.22552631578947e-01 2.34509097530786e+00 2.11040426174239e-02
3.24359649122807e-01 2.33098182239622e+00 2.10357488498696e-02
3.26166666666667e-01 2.31695755666204e+00 2.09673506904122e-02
3.27973684210526e-01 2.30301766742391e+00 2.08988541814168e-02
3.29780701754386e-01 2.28916164699502e+00 2.08302652697711e-02
3.31587719298246e-01 2.27538899078207e+00 2.07615897555503e-02
3.33394736842105e-01 2.26169919726536e+00 2.06928333726936e-02
3.35201754385965e-01 2.24809176786690e+00 2.06240017391249e-02
3.37008771929825e-01 2.23456620708316e+00 2.05551003702989e-02
3.38815789473684e-01 2.22112202231789e+00 2.04861346826494e-02
3.40622807017544e-01 2.20775872401153e+00 2.04171099937030e-02
3.42429824561404e-01 2.19447582547783e+00 2.03480315254255e-02
3.44236842105263e-01 2.18127284302990e+00 2.02789044042988e-02
3.46043859649123e-01 2.16814929582057e+00 2.02097336645634e-02
3.47850877192983e-01 2.15510470596520e+00 2.01405242482565e-02
3.49657894736842e-01 2.14213859838560e+00 2.00712810200570e-02
3.51464912280702e-01 2.12925050089630e+00 2.00020087204131e-02
3.53271929824561e-01 2.11643994418607e+00 1.99327120386470e-02
3.55078947368421e-01 2.10370646170043e+00 1.98633955673991e-02
3.56885964912281e-01 2.09104958975795e+00 1.97940638147439e-02
3.58692982456140e-01 2.07846886740166e+00 1.97247212071129e-02
3.60500000000000e-01 2.06596383651245e+00 1.96553720892157e-02
3.62307017543860e-01 2.05353404166367e+00 1.95860207268810e-02
3.64114035087719e-01 2.04117903023178e+00 1.95166713069550e-02
3.65921052631579e-01 2.02889835225413e+00 1.94473279400547e-02
3.67728070175439e-01 2.01669156053682e+00 1.93779946604430e-02
3.69535087719298e-01 2.00455821051562e+00 1.93086754287043e-02
3.71342105263158e-01 1.99249786036117e+00 1.92393741316054e-02
3.73149122807018e-01 1.98051007084288e+00 1.91700945951480e-02
3.74956140350877e-01 1.96859440540259e+00 1.91008405424875e-02
3.76763157894737e-01 1.95675043013750e+00 1.90316156591131e-02
3.78570175438597e-01 1.94497771369755e+00 1.89624235519293e-02
3.80377192982456e-01 1.93327582738506e+00 1.88932677599307e-02
3.82184210526316e-01 1.92164434502507e+00 1.88241517566297e-02
3.83991228070175e-01 1.91008284306256e+00 1.87550789498380e-02
3.85798245614035e-01 1.89859090043557e+00 1.86860526840357e-02
3.87605263157895e-01 1.88716809867008e+00 1.86170762401343e-02
3.89412280701754e-01 1.87581402175576e+00 1.85481528377781e-02
3.91219298245614e-01 1.86452825623864e+00 1.84792856350991e-02
3.93026315789474e-01 1.85331039109943e+00 1.84104777404997e-02
3.94833333333333e-01 1.84216001781821e+00 1.83417321741525e-02
3.96640350877193e-01 1.83107673035853e+00 1.82730519273297e-02
3.98447368421053e-01 1.82006012507547e+00 1.82044399249766e-02
4.00254385964912e-01 1.80910980080341e+00 1.81358990353380e-02
4.02061403508772e-01 1.79822535874011e+00 1.80674320720598e-02
4.03868421052632e-01 1.78740640253238e+00 1.79990417938951e-02
4.05675438596491e-01 1.77665253816254e+00 1.79307309067533e-02
4.07482456140351e-01 1.76596337403211e+00 1.78625020633965e-02
4.09289473684211e-01 1.75533852085057e+00 1.77943578654305e-02
4.11096491228070e-01 1.74477759171710e+00 1.77263008629970e-02
4.12903508771930e-01 1.73428020201164e+00 1.76583335654357e-02
4.14710526315790e-01 1.72384596945171e+00 1.75904584060379e-02
4.16517543859649e-01 1.71347451407770e+00 1.75226777961360e-02
4.18324561403509e-01 1.70316545817020e+00 1.74549940908393e-02
4.20131578947368e-01 1.69291842632764e+00 1.73874095977455e-02
4.21938596491228e-01 1.68273304536223e+00 1.73199265787725e-02
4.23745614035088e-01 1.67260894437578e+00 1.72525472498161e-02
4.25552631578947e-01 1.66254575465773e+00 1.71852737825357e-02
4.27359649122807e-01 1.65254310975925e+00 1.71181083040096e-02
4.29166666666667e-01 1.64260064539332e+00 1.70510528984720e-02
4.30973684210526e-01 1.63271799950709e+00 1.69841096069659e-02
4.32780701754386e-01 1.62289481218398e+00 1.69172804370112e-02
4.34587719298246e-01 1.61313072569391e+00 1.68505673303200e-02
4.36394736842105e-01 1.60342538447943e+00 1.67839722121737e-02
4.38201754385965e-01 1.59377843508141e+00 1.67174969600264e-02
4.40008771929825e-01 1.58418952620776e+00 1.66511434114155e-02
4.41815789473684e-01 1.57465830863989e+00 1.65849133655643e-02
4.43622807017544e-01 1.56518443529989e+00 1.65188085830116e-02
4.45429824561404e-01 1.55576756115880e+00 1.64528307871784e-02
4.47236842105263e-01 1.54640734330235e+00 1.63869816639989e-02
4.49043859649123e-01 1.53710344084099e+00 1.63212628634458e-02
4.50850877192983e-01 1.52785551497410e+00 1.62556759991630e-02
4.52657894736842e-01 1.51866322890188e+00 1.61902226572486e-02
4.54464912280702e-01 1.50952624786968e+00 1.61249043666606e-02
4.56271929824561e-01 1.50044423915518e+00 1.60597226443510e-02
4.58078947368421e-01 1.49141687200121e+00 1.59946789664767e-02
4.59885964912281e-01 1.48244381767688e+00 1.59297747755912e-02
4.61692982456140e-01 1.47352474939320e+00 1.58650114820573e-02
4.63500000000000e-01 1.46465934236280e+00 1.58003904636659e-02
4.65307017543860e-01 1.45584727371724e+00 1.57359130670153e-02
4.67114035087719e-01 1.44708822256540e+00 1.56715806071322e-02
4.68921052631579e-01 1.43838186991235e+00 1.56073943688178e-02
4.70728070175439e-01 1.42972789871645e+00 1.55433556062670e-02
4.72535087719298e-01 1.42112599380984e+00 1.54794655443880e-02
4.74342105263158e-01 1.41257584195418e+00 1.54157253784216e-02
4.76149122807018e-01 1.40407713176274e+00 1.53521362817949e-02
4.77956140350877e-01 1.39562955373875e+00 1.52886993794247e-02
4.79763157894737e-01 1.38723280026359e+00 1.52254157883183e-02
4.81570175438597e-01 1.37888656553721e+00 1.51622865915932e-02
4.83377192982456e-01 1.37059054563126e+00 1.50993128449148e-02
4.85184210526316e-01 1.36234443841445e+00 1.50364955777164e-02
4.86991228070175e-01 1.35414794360444e+00 1.49738357928159e-02
4.88798245614035e-01 1.34600076269464e+00 1.49113344676118e-02
4.90605263157895e-01 1.33790259900500e+00 1.48489925537020e-02
4.92412280701754e-01 1.32985315761017e+00 1.47868109780512e-02
4.94219298245614e-01 1.32185214538915e+00 1.47247906426122e-02
4.96026315789474e-01 1.31389927095485e+00 1.46629324314930e-02
4.97833333333333e-01 1.30599424468816e+00 1.46012371864408e-02
4.99640350877193e-01 1.29813677872686e+00 1.45397057440383e-02
5.01447368421053e-01 1.29032658691175e+00 1.44783389118517e-02
5.03254385964912e-01 1.28256338483390e+00 1.44171374743027e-02
5.05061403508772e-01 1.27484688976720e+00 1.43561021937512e-02
5.06868421052632e-01 1.26717682071457e+00 1.42952338101192e-02
5.08675438596491e-01 1.25955289834182e+00 1.42345330419529e-02
5.10482456140351e-01 1.25197484502280e+00 1.41740005860480e-02
5.12289473684211e-01 1.24444238477452e+00 1.41136371184890e-02
5.14096491228070e-01 1.23695524330134e+00 1.40534432942767e-02
5.15903508771930e-01 1.22951314793125e+00 1.39934197538737e-02
5.17710526315790e-01 1.22211582764613e+00 1.39335671006820e-02
5.19517543859649e-01 1.21476301307139e+00 1.38738859351504e-02
5.21324561403509e-01 1.20745443642714e+00 1.38143768328574e-02
5.23131578947369e-01 1.20018983157030e+00 1.37550403498777e-02
5.24938596491228e-01 1.19296893393354e+00 1.36958770237479e-02
5.26745614035088e-01 1.18579148056655e+00 1.36368873730988e-02
5.28552631578947e-01 1.17865721007605e+00 1.35780718986032e-02
5.30359649122807e-01 1.17156586266615e+00 1.35194310826113e-02
5.32166666666667e-01 1.16451718007953e+00 1.34609653900779e-02
5.33973684210526e-01 1.15751090563693e+00 1.34026752681993e-02
5.35780701754386e-01 1.15054678417937e+00 1.33445611524025e-02
5.37587719298246e-01 1.14362456209503e+00 1.32866234456372e-02
5.39394736842105e-01 1.13674398730967e+00 1.32288625496782e-02
5.41201754385965e-01 1.12990480924218e+00 1.31712788449745e-02
5.43008771929825e-01 1.12310677884229e+00 1.31138726955592e-02
5.44815789473684e-01 1.11634964853512e+00 1.30566444499127e-02
5.46622807017544e-01 1.10963317225810e+00 1.29995944406075e-02
5.48429824561404e-01 1.10295710540655e+00 1.29427229851566e-02
5.50236842105263e-01 1.09632120486974e+00 1.28860303856598e-02
5.52043859649123e-01 1.08972522897754e+00 1.28295169296342e-02
5.53850877192983e-01 1.08316893753567e+00 1.27731828896675e-02
5.55657894736842e-01 1.07665209177332e+00 1.27170285288953e-02
5.57464912280702e-01 1.07017445436709e+00 1.26610540819561e-02
5.59271929824561e-01 1.06373578943198e+00 1.26052597837420e-02
5.61078947368421e-01 1.05733586248102e+00 1.25496458508582e-02
5.62885964912281e-01 1.05097444045898e+00 1.24942124861201e-02
5.64692982456140e-01 1.04465129169205e+00 1.24389598793274e-02
5.66500000000000e-01 1.03836618592084e+00 1.23838882069243e-02
5.68307017543860e-01 1.03211889425092e+00 1.23289976327587e-02
5.70114035087719e-01 1.02590918918519e+00 1.22742883077444e-02
