Energy (eV)          EEDF (eV^-(3/2))     First Anisotropy
5.55555555555556e-03 6.13538554804606e-01 1.40749554380074e-07
1.66666666666667e-02 6.13538331559695e-01 4.71068140442711e-07
2.77777777777778e-02 6.13537688599641e-01 1.15459688142284e-06
3.88888888888889e-02 6.13536680704887e-01 1.96501825552575e-06
5.00000000000000e-02 6.13535304876594e-01 2.94078791946234e-06
6.11111111111111e-02 6.13533522174035e-01 4.10722134559294e-06
7.22222222222222e-02 6.13531298887013e-01 5.44427135218361e-06
8.33333333333333e-02 6.13528618985632e-01 6.94894668439644e-06
9.44444444444444e-02 6.13525451484130e-01 8.65832724148205e-06
1.05555555555556e-01 6.13521750256554e-01 1.05278422569651e-05
1.16666666666667e-01 6.13517524360212e-01 1.25468289430205e-05
1.27777777777778e-01 6.13512735474406e-01 1.47474925487660e-05
1.38888888888889e-01 6.13507367111477e-01 1.71014428068799e-05
1.50000000000000e-01 6.13501401306323e-01 1.96117206706270e-05
1.61111111111111e-01 6.13494818933902e-01 2.22812649268992e-05
1.72222222222222e-01 6.13487599914161e-01 2.51129679404063e-05
1.83333333333333e-01 6.13479723348568e-01 2.81092509914332e-05
1.94444444444444e-01 6.13471167881503e-01 3.12672501759704e-05
2.05555555555556e-01 6.13461914488123e-01 3.43873738849050e-05
2.16666666666667e-01 6.13452060069803e-01 3.74438364203978e-05
2.27777777777778e-01 6.13441594075701e-01 4.05951751504222e-05
2.38888888888889e-01 6.13430515444410e-01 4.38220181336696e-05
2.50000000000000e-01 6.13418822797773e-01 4.71229086354884e-05
2.61111111111111e-01 6.13406514453889e-01 5.04966021357958e-05
2.72222222222222e-01 6.13393588438367e-01 5.39420419786525e-05
2.83333333333333e-01 6.13380042494526e-01 5.74581872161863e-05
2.94444444444444e-01 6.13365874166372e-01 6.10424092500961e-05
3.05555555555556e-01 6.13351081555578e-01 6.50184645428572e-05
3.16666666666667e-01 6.13335516908180e-01 7.02465171953496e-05
3.27777777777778e-01 6.13318790326815e-01 7.71226765137231e-05
3.38888888888889e-01 6.13300591584321e-01 8.53830575604709e-05
3.50000000000000e-01 6.13280677097763e-01 9.47965529884467e-05
3.61111111111111e-01 6.13258859163468e-01 1.05160319080564e-04
3.72222222222222e-01 6.13234997015580e-01 1.16295974161941e-04
3.83333333333333e-01 6.13208989374286e-01 1.28046276675975e-04
3.94444444444444e-01 6.13180768252074e-01 1.40271568478959e-04
4.05555555555556e-01 6.13150294061267e-01 1.52999152310683e-04
4.16666666666667e-01 6.13117505853443e-01 1.67085270159953e-04
4.27777777777778e-01 6.13082019926840e-01 1.83157909355169e-04
4.38888888888889e-01 6.13043519212898e-01 2.00926422078725e-04
4.50000000000000e-01 6.13001757031915e-01 2.20102341924307e-04
4.61111111111111e-01 6.12956545891869e-01 2.40435193844944e-04
4.72222222222222e-01 6.12907747911855e-01 2.61708114125745e-04
4.83333333333333e-01 6.12855266622306e-01 2.83733963171026e-04
4.94444444444444e-01 6.12799039955660e-01 3.06351508737889e-04
5.05555555555556e-01 6.12739034385293e-01 3.29274486339452e-04
5.16666666666667e-01 6.12675309187397e-01 3.52566054054828e-04
5.27777777777778e-01 6.12607807228244e-01 3.76369314453380e-04
5.38888888888889e-01 6.12536520078327e-01 4.00474063289440e-04
5.50000000000000e-01 6.12461466941896e-01 4.24733731926590e-04
5.61111111111111e-01 6.12382690015534e-01 4.49021312500922e-04
5.72222222222222e-01 6.12300250440185e-01 4.73227412069941e-04
5.83333333333333e-01 6.12214224771008e-01 4.97258463118729e-04
5.94444444444444e-01 6.12124701914597e-01 5.21034856957969e-04
6.05555555555556e-01 6.12031780550791e-01 5.47448898647745e-04
6.16666666666667e-01 6.11934538832212e-01 5.81812712773202e-04
6.27777777777778e-01 6.11831262501200e-01 6.25760967776633e-04
6.38888888888889e-01 6.11720529717571e-01 6.77848609757861e-04
6.50000000000000e-01 6.11601185297714e-01 7.36758524306524e-04
6.61111111111111e-01 6.11472305327894e-01 8.01325084631269e-04
6.72222222222222e-01 6.11333166266028e-01 8.70517265761990e-04
6.83333333333333e-01 6.11183217965444e-01 9.43423565222337e-04
6.94444444444444e-01 6.11022060140871e-01 1.01923837358834e-03
7.05555555555556e-01 6.10849421896916e-01 1.09597780362190e-03
7.16666666666667e-01 6.10665571179555e-01 1.17724460697704e-03
7.27777777777778e-01 6.10469072079388e-01 1.27320232252002e-03
7.38888888888889e-01 6.10256937440798e-01 1.38734895155301e-03
7.50000000000000e-01 6.10026698236756e-01 1.51691265977521e-03
7.61111111111111e-01 6.09776345539282e-01 1.65938684359379e-03
7.72222222222222e-01 6.09504278574652e-01 1.81250613293632e-03
7.83333333333333e-01 6.09209258249318e-01 1.97422433740128e-03
7.94444444444445e-01 6.08890365612352e-01 2.14269402722905e-03
8.05555555555556e-01 6.08546964805589e-01 2.31538750726217e-03
8.16666666666667e-01 6.08178934334711e-01 2.48755653635489e-03
8.27777777777778e-01 6.07787095166229e-01 2.65432705355163e-03
8.38888888888889e-01 6.07372787260778e-01 2.81397778261471e-03
8.50000000000000e-01 6.06937308178273e-01 2.96662693190060e-03
8.61111111111111e-01 6.06481912210692e-01 3.11240796278131e-03
8.72222222222222e-01 6.06007809480287e-01 3.25146961895375e-03
8.83333333333333e-01 6.05516165041985e-01 3.38397569820213e-03
8.94444444444444e-01 6.05008098031848e-01 3.51010455765980e-03
9.05555555555556e-01 6.04484680900025e-01 3.63199618202443e-03
9.16666666666667e-01 6.03946369359565e-01 3.75375087302749e-03
9.27777777777778e-01 6.03393016629154e-01 3.87747769575340e-03
9.38888888888889e-01 6.02824460585831e-01 4.00301838493682e-03
9.50000000000000e-01 6.02240601912347e-01 4.12995722348929e-03
9.61111111111111e-01 6.01641398748731e-01 4.25790706101411e-03
9.72222222222222e-01 6.01026861543556e-01 4.38650891005845e-03
9.83333333333333e-01 6.00397048117972e-01 4.51543127772993e-03
9.94444444444444e-01 5.99752058990568e-01 4.64436904578950e-03
1.00555555555556e+00 5.99092033029299e-01 4.79516116024938e-03
1.01666666666667e+00 5.98410838732204e-01 5.00427460292666e-03
1.02777777777778e+00 5.97698526355294e-01 5.28211839729876e-03
1.03888888888889e+00 5.96946399674365e-01 5.62115430728478e-03
1.05000000000000e+00 5.96146826809772e-01 6.01461131738395e-03
1.06111111111111e+00 5.95293175149827e-01 6.45605288695028e-03
1.07222222222222e+00 5.94379746867889e-01 6.93938525104685e-03
1.08333333333333e+00 5.93401715050916e-01 7.45886504097830e-03
1.09444444444444e+00 5.92355060489242e-01 8.00910602718625e-03
1.10555555555556e+00 5.91236509200856e-01 8.59294609837184e-03
1.11666666666667e+00 5.90040929773136e-01 9.20816288720388e-03
1.12777777777778e+00 5.88765636088618e-01 9.84734224888840e-03
1.13888888888889e+00 5.87407938761648e-01 1.05087931042261e-02
1.15000000000000e+00 5.85965643318086e-01 1.11890551649423e-02
1.16111111111111e+00 5.84437014115387e-01 1.18848850643446e-02
1.17222222222222e+00 5.82820739258616e-01 1.25932542720178e-02
1.18333333333333e+00 5.81115896604468e-01 1.33113460610376e-02
1.19444444444444e+00 5.79321920924791e-01 1.40365516691401e-02
1.20555555555556e+00 5.77438572283638e-01 1.47797692709895e-02
1.21666666666667e+00 5.75461336926198e-01 1.55341812689726e-02
1.22777777777778e+00 5.73391601495104e-01 1.62871827170432e-02
1.23888888888889e+00 5.71229164444729e-01 1.70445550236077e-02
1.25000000000000e+00 5.68973886006665e-01 1.78056833043742e-02
1.26111111111111e+00 5.66625707740076e-01 1.85698032809257e-02
1.27222222222222e+00 5.64184670330723e-01 1.93360129905898e-02
1.28333333333333e+00 5.61650929723373e-01 2.01032840915830e-02
1.29444444444444e+00 5.59024771673948e-01 2.08704727319322e-02
1.30555555555556e+00 5.56306624808420e-01 2.16215233085657e-02
1.31666666666667e+00 5.53501389036052e-01 2.23569758688363e-02
1.32777777777778e+00 5.50609360944857e-01 2.31051890898018e-02
1.33888888888889e+00 5.47627667207789e-01 2.38776080722175e-02
1.35000000000000e+00 5.44553706140021e-01 2.46721135366057e-02
1.36111111111111e+00 5.41385165066809e-01 2.54864479575356e-02
1.37222222222222e+00 5.38120031912405e-01 2.63182599076969e-02
1.38333333333333e+00 5.34756601250175e-01 2.71651469897205e-02
1.39444444444444e+00 5.31293475089101e-01 2.80246970514290e-02
1.40555555555556e+00 5.27729558698172e-01 2.88937340477327e-02
1.41666666666667e+00 5.24064250354818e-01 2.97704065132497e-02
1.42777777777778e+00 5.20296913832067e-01 3.06556807027095e-02
1.43888888888889e+00 5.16426699916165e-01 3.15492923562876e-02
1.45000000000000e+00 5.12453032942850e-01 3.24490352975696e-02
1.46111111111111e+00 5.08375605555198e-01 3.33527354566069e-02
1.47222222222222e+00 5.04194371614101e-01 3.42582657014954e-02
1.48333333333333e+00 4.99909537555036e-01 3.51635585294001e-02
1.49444444444444e+00 4.95521552457416e-01 3.60666167821447e-02
1.50555555555556e+00 4.91031097070380e-01 3.69960170920432e-02
1.51666666666667e+00 4.86429752643738e-01 3.79497344368051e-02
1.52777777777778e+00 4.81718575393008e-01 3.88897954683184e-02
1.53888888888889e+00 4.76900241786146e-01 3.98106591175397e-02
1.55000000000000e+00 4.71977133287858e-01 4.07143661258988e-02
1.56111111111111e+00 4.66951392471730e-01 4.16025305448008e-02
1.57222222222222e+00 4.61824974935077e-01 4.24763701913726e-02
1.58333333333333e+00 4.56599697118017e-01 4.33367366703204e-02
1.59444444444444e+00 4.51277280140136e-01 4.41841448058735e-02
1.60555555555556e+00 4.45859389786683e-01 4.50760978294601e-02
1.61666666666667e+00 4.40329310869665e-01 4.60395276423556e-02
1.62777777777778e+00 4.34681920715071e-01 4.70743203297627e-02
1.63888888888889e+00 4.28904902233021e-01 4.82057374461303e-02
1.65000000000000e+00 4.22987008661256e-01 4.94249043704718e-02
1.66111111111111e+00 4.16918083217123e-01 5.07228165527190e-02
1.67222222222222e+00 4.10689065092725e-01 5.20904537794314e-02
1.68333333333333e+00 4.04291982003665e-01 5.35188923460358e-02
1.69444444444444e+00 3.97719929619897e-01 5.49994141505451e-02
1.70555555555556e+00 3.90967038313103e-01 5.65874123930697e-02
1.71666666666667e+00 3.84007383649340e-01 5.82249061101223e-02
1.72777777777778e+00 3.76848645953733e-01 5.97546681464672e-02
1.73888888888889e+00 3.69508437887219e-01 6.11386506775655e-02
1.75000000000000e+00 3.62003709667181e-01 6.23826039006127e-02
1.76111111111111e+00 3.54350731996508e-01 6.34924052809503e-02
1.77222222222222e+00 3.46565083240295e-01 6.44740236368160e-02
1.78333333333333e+00 3.38661640538396e-01 6.53334859504873e-02
1.79444444444444e+00 3.30654574546125e-01 6.60768465679302e-02
1.80555555555556e+00 3.22557347573690e-01 6.71766186131854e-02
1.81666666666667e+00 3.14222493354104e-01 6.85877736153299e-02
1.82777777777778e+00 3.05671316584062e-01 6.98084852857377e-02
1.83888888888889e+00 2.96924882518410e-01 7.08434028377408e-02
1.85000000000000e+00 2.88004232527425e-01 7.16967514766255e-02
1.86111111111111e+00 2.78930250945675e-01 7.23737018874908e-02
1.87222222222222e+00 2.69723537754755e-01 7.28802930425098e-02
1.88333333333333e+00 2.60404287113857e-01 7.32233576859384e-02
1.89444444444444e+00 2.50992171732234e-01 7.34104506777427e-02
1.90555555555556e+00 2.41506233029731e-01 7.33317945866533e-02
1.91666666666667e+00 2.32002584586568e-01 7.28947253726797e-02
1.92777777777778e+00 2.22525593765287e-01 7.21447888695329e-02
1.93888888888889e+00 2.13113746391696e-01 7.11148018090026e-02
1.95000000000000e+00 2.03804130789069e-01 6.98206801947470e-02
1.96111111111111e+00 1.94632245628490e-01 6.82793334909562e-02
1.97222222222222e+00 1.85631842215336e-01 6.65083722629622e-02
1.98333333333333e+00 1.76834802567308e-01 6.45258163776549e-02
1.99444444444444e+00 1.68271054334090e-01 6.23498067082271e-02
2.00555555555556e+00 1.59968523132417e-01 6.00217482111784e-02
2.01666666666667e+00 1.51952678892415e-01 5.76564902554473e-02
2.02777777777778e+00 1.44220039312834e-01 5.53287849463857e-02
2.03888888888889e+00 1.36769575179225e-01 5.30320329429729e-02
2.05000000000000e+00 1.29599509345389e-01 5.07710837715463e-02
2.06111111111111e+00 1.22707379154794e-01 4.85502507606529e-02
2.07222222222222e+00 1.16090097125718e-01 4.63733357381909e-02
2.08333333333333e+00 1.09744009773637e-01 4.42436539921009e-02
2.09444444444444e+00 1.03664954464316e-01 4.21640594524335e-02
2.10555555555556e+00 9.78483141778344e-02 4.00584946640706e-02
2.11666666666667e+00 9.23310943356551e-02 3.79580357515911e-02
2.12777777777778e+00 8.70968424083924e-02 3.59758327224616e-02
2.13888888888889e+00 8.21296747936151e-02 3.41068989374912e-02
2.15000000000000e+00 7.74144635865368e-02 3.23457381218698e-02
2.16111111111111e+00 7.29367983951295e-02 3.06871331766060e-02
2.17222222222222e+00 6.86829497192189e-02 2.91261345858339e-02
2.18333333333333e+00 6.46398338372482e-02 2.76580492263865e-02
2.19444444444444e+00 6.07949791463776e-02 2.62784296075972e-02
2.20555555555556e+00 5.71364938920048e-02 2.49493389958113e-02
2.21666666666667e+00 5.36669883452701e-02 2.36419405708316e-02
2.22777777777778e+00 5.03821080399709e-02 2.23677954923221e-02
2.23888888888889e+00 4.72766312701504e-02 2.11303995712993e-02
2.25000000000000e+00 4.43452170760492e-02 1.99304870079715e-02
2.26111111111111e+00 4.15824453944643e-02 1.87685147306418e-02
2.27222222222222e+00 3.89828552721504e-02 1.76446759639810e-02
2.28333333333333e+00 3.65409811510662e-02 1.65589136705337e-02
2.29444444444444e+00 3.42513872634955e-02 1.55109336619209e-02
2.30555555555556e+00 3.21087002028990e-02 1.45066286823219e-02
2.31666666666667e+00 3.01068821224982e-02 1.35630617907575e-02
2.32777777777778e+00 2.82354795801554e-02 1.26875806831877e-02
2.33888888888889e+00 2.64852394121704e-02 1.18737585253717e-02
2.35000000000000e+00 2.48475745326049e-02 1.11172023845543e-02
2.36111111111111e+00 2.33145138175505e-02 1.04138466370009e-02
2.37222222222222e+00 2.18786558072924e-02 9.75992833149737e-03
2.38333333333333e+00 2.05331259294755e-02 9.15196444428095e-03
2.39444444444444e+00 1.92715369695182e-02 8.58673088597463e-03
2.40555555555556e+00 1.80879525342259e-02 8.05616751569556e-03
2.41666666666667e+00 1.69788948322286e-02 7.55302715226387e-03
2.42777777777778e+00 1.59403929810314e-02 7.07652869213396e-03
2.43888888888889e+00 1.49685795758377e-02 6.62561780240870e-03
2.45000000000000e+00 1.40598065021335e-02 6.19885962692601e-03
2.46111111111111e+00 1.32106355730051e-02 5.79487752470857e-03
2.47222222222222e+00 1.24178295979910e-02 5.41235042405624e-03
2.48333333333333e+00 1.16783438799323e-02 5.05001017846241e-03
2.49444444444444e+00 1.09893181361675e-02 4.70663892488907e-03
2.50555555555556e+00 1.03480688405923e-02 4.38271187597794e-03
2.51666666666667e+00 9.75183376202306e-03 4.08139395966135e-03
2.52777777777778e+00 9.19700750396346e-03 3.80370871113097e-03
2.53888888888889e+00 8.68033146725304e-03 3.54755760177528e-03
2.55000000000000e+00 8.19881581827122e-03 3.31119264308626e-03
2.56111111111111e+00 7.74971595917346e-03 3.09301676893287e-03
2.57222222222222e+00 7.33051114731977e-03 2.89157023876416e-03
2.58333333333333e+00 6.93888506049520e-03 2.70551831009567e-03
2.59444444444444e+00 6.57270812440472e-03 2.53364005925093e-03
2.60555555555556e+00 6.23002143642057e-03 2.37370781403424e-03
2.61666666666667e+00 5.90950829904132e-03 2.22415731539283e-03
2.62777777777778e+00 5.60962546708727e-03 2.08501937713231e-03
2.63888888888889e+00 5.32887520681969e-03 1.95578451510044e-03
2.65000000000000e+00 5.06587105430726e-03 1.83573506810327e-03
2.66111111111111e+00 4.81932878434385e-03 1.72421070676047e-03
2.67222222222222e+00 4.58805813370178e-03 1.62060373874326e-03
2.68333333333333e+00 4.37095521344553e-03 1.52435481249979e-03
2.69444444444444e+00 4.16699555097366e-03 1.43494898691028e-03
2.70555555555556e+00 3.97522770696447e-03 1.34997574446077e-03
2.71666666666667e+00 3.79576722971150e-03 1.26872604962417e-03
2.72777777777778e+00 3.62777971919990e-03 1.19268830824647e-03
2.73888888888889e+00 3.47049189061192e-03 1.12149844856037e-03
2.75000000000000e+00 3.32318634269140e-03 1.05482160768608e-03
2.76111111111111e+00 3.18519718579619e-03 9.92348252586365e-04
2.77222222222222e+00 3.05590602687037e-03 9.33792187899371e-04
2.78333333333333e+00 2.93473828094030e-03 8.78888728069835e-04
2.79444444444444e+00 2.82115978144532e-03 8.27393020806847e-04
2.80555555555556e+00 2.71467366383545e-03 7.78462363784038e-04
2.81666666666667e+00 2.61523056738552e-03 7.32574978578060e-04
2.82777777777778e+00 2.52217218489330e-03 6.90815824532016e-04
2.83888888888889e+00 2.43491668205161e-03 6.52788537774602e-04
2.85000000000000e+00 2.35293049982400e-03 6.18212370004330e-04
2.86111111111111e+00 2.27572395562582e-03 5.86831247921417e-04
2.87222222222222e+00 2.20284732434187e-03 5.58411072780427e-04
2.88333333333333e+00 2.13388734656391e-03 5.32737299169524e-04
2.89444444444444e+00 2.06846411719984e-03 5.09612764333615e-04
2.90555555555556e+00 2.00622831254325e-03 4.88222884925265e-04
2.91666666666667e+00 1.94705230592974e-03 4.67554714028953e-04
2.92777777777778e+00 1.89084158481434e-03 4.47322619636361e-04
2.93888888888889e+00 1.83750492760333e-03 4.27511286560664e-04
2.95000000000000e+00 1.78695411587816e-03 4.08106460466369e-04
2.96111111111111e+00 1.73910384554981e-03 3.89094175176494e-04
2.97222222222222e+00 1.69387163424982e-03 3.70460795378616e-04
2.98333333333333e+00 1.65117772535122e-03 3.52193057840025e-04
2.99444444444444e+00 1.61094498910381e-03 3.34278110070006e-04
3.00555555555556e+00 1.57309882150382e-03 3.17740755179957e-04
3.01666666666667e+00 1.53716981867552e-03 3.02784761853321e-04
3.02777777777778e+00 1.50306655564547e-03 2.88514005688696e-04
3.03888888888889e+00 1.47069547427034e-03 2.74924432267342e-04
3.05000000000000e+00 1.43996797522543e-03 2.61982216197371e-04
3.06111111111111e+00 1.41080011157975e-03 2.49655580369012e-04
3.07222222222222e+00 1.38311230244839e-03 2.37914667306534e-04
3.08333333333333e+00 1.35682906537076e-03 2.26731418797950e-04
3.09444444444444e+00 1.33187876616235e-03 2.16079463397190e-04
3.10555555555556e+00 1.30819338503554e-03 2.05758626348316e-04
3.11666666666667e+00 1.28577810219069e-03 1.95790932034380e-04
3.12777777777778e+00 1.26455646788330e-03 1.86388800432244e-04
3.13888888888889e+00 1.24445584461091e-03 1.77526824913906e-04
3.15000000000000e+00 1.22540741834016e-03 1.69180075792227e-04
3.16111111111111e+00 1.20734595870447e-03 1.61325181700299e-04
3.17222222222222e+00 1.19020959747618e-03 1.53940211052256e-04
3.18333333333333e+00 1.17393962398286e-03 1.47004561356850e-04
3.19444444444444e+00 1.15848029623621e-03 1.40498855699739e-04
3.20555555555556e+00 1.14377866665819e-03 1.34538875606198e-04
3.21666666666667e+00 1.12973587383540e-03 1.29080513891137e-04
3.22777777777778e+00 1.11631269540645e-03 1.23939334374627e-04
3.23888888888889e+00 1.10347149861430e-03 1.19104167500049e-04
3.25000000000000e+00 1.09117626420509e-03 1.14563933742267e-04
3.26111111111111e+00 1.07939250246926e-03 1.10308133199524e-04
3.27222222222222e+00 1.06808717521406e-03 1.06326803276200e-04
3.28333333333333e+00 1.05722862328862e-03 1.02610478784817e-04
3.29444444444444e+00 1.04678649930650e-03 9.91501542701595e-05
3.30555555555556e+00 1.03673170524373e-03 9.60005627835934e-05
3.31666666666667e+00 1.02701381880906e-03 9.31311586807154e-05
3.32777777777778e+00 1.01761166779071e-03 9.04517666691236e-05
3.33888888888889e+00 1.00850364282617e-03 8.79627717999616e-05
3.35000000000000e+00 9.99668879438663e-04 8.56588972449693e-05
3.36111111111111e+00 9.91087226869463e-04 8.35350887903159e-05
3.37222222222222e+00 9.82739218928735e-04 8.15864993790557e-05
3.38333333333333e+00 9.74606046755086e-04 7.98084743895910e-05
3.39444444444444e+00 9.66669533379929e-04 7.81965376231948e-05
3.40555555555556e+00 9.58912109996060e-04 7.67271417601392e-05
3.41666666666667e+00 9.51320641819860e-04 7.53436400513316e-05
3.42777777777778e+00 9.43889139607349e-04 7.39946430661195e-05
3.43888888888889e+00 9.36614854877961e-04 7.26638047631415e-05
3.45000000000000e+00 9.29495108513037e-04 7.13506316730853e-05
3.46111111111111e+00 9.22527289482663e-04 7.00546362995765e-05
3.47222222222222e+00 9.15708853505765e-04 6.87753379049792e-05
3.48333333333333e+00 9.09037321649128e-04 6.75122632570473e-05
3.49444444444444e+00 9.02510278870175e-04 6.62649473179361e-05
3.50555555555556e+00 8.96125372512582e-04 6.50679383818510e-05
