Energy (eV)          EEDF (eV^-(3/2))     First Anisotropy
7.90000000000000e-03 3.25066104284710e-01 1.71723119825902e-04
2.37000000000000e-02 3.22828317128622e-01 2.83540848364538e-04
3.95000000000000e-02 3.20605935119425e-01 3.74245572194043e-04
5.53000000000000e-02 3.18398852207198e-01 4.43117874406342e-04
7.11000000000000e-02 3.16206963071567e-01 5.00527802687344e-04
8.69000000000000e-02 3.14030163117117e-01 5.50396165811665e-04
1.02700000000000e-01 3.11868348468453e-01 5.94751999026455e-04
1.18500000000000e-01 3.09721415965259e-01 6.34820583575769e-04
1.34300000000000e-01 3.07589263157383e-01 6.71414551128720e-04
1.50100000000000e-01 3.05471788299945e-01 7.05108254946622e-04
1.65900000000000e-01 3.03368890348488e-01 7.36326862316773e-04
1.81700000000000e-01 3.01280468954154e-01 7.65396413295708e-04
1.97500000000000e-01 2.99206424458894e-01 7.92574001648123e-04
2.13300000000000e-01 2.97146657890718e-01 8.18066992103223e-04
2.29100000000000e-01 2.95101070958966e-01 8.42045802410929e-04
2.44900000000000e-01 2.93069566049621e-01 8.64652714564598e-04
2.60700000000000e-01 2.91052046220652e-01 8.86008132909886e-04
2.76500000000000e-01 2.89048415197383e-01 9.06215143058498e-04
2.92300000000000e-01 2.87058577367906e-01 9.25362906200180e-04
3.08100000000000e-01 2.85082437778513e-01 9.43529234724729e-04
3.23900000000000e-01 2.83119902129167e-01 9.60782579459630e-04
3.39700000000000e-01 2.81170876769002e-01 9.77183585733782e-04
3.55500000000000e-01 2.79235268691852e-01 9.92786327969777e-04
3.71300000000000e-01 2.77312985531818e-01 1.00763930086887e-03
3.87100000000000e-01 2.75403935558854e-01 1.02178622372072e-03
4.02900000000000e-01 2.73508027674393e-01 1.03526669942808e-03
4.18700000000000e-01 2.71625171407001e-01 1.04811675928436e-03
4.34500000000000e-01 2.69755276908059e-01 1.06036931697098e-03
4.50300000000000e-01 2.67898254947471e-01 1.07205454972823e-03
4.66100000000000e-01 2.66054016909412e-01 1.08320022058743e-03
4.81900000000000e-01 2.64222474788099e-01 1.09383195251475e-03
4.97700000000000e-01 2.62403541183587e-01 1.10397346302379e-03
5.13500000000000e-01 2.60597129297600e-01 1.11364676606318e-03
5.29300000000000e-01 2.58803152929393e-01 1.12287234663659e-03
5.45100000000000e-01 2.57021526471632e-01 1.13166931256447e-03
5.60900000000000e-01 2.55252164906316e-01 1.14005552697406e-03
5.76700000000000e-01 2.53494983800714e-01 1.14804772445489e-03
5.92500000000000e-01 2.51749899303338e-01 1.15566161329878e-03
6.08300000000000e-01 2.50016828139943e-01 1.16291196583034e-03
6.24100000000000e-01 2.48295687609552e-01 1.16981269849849e-03
6.39900000000000e-01 2.46586395580510e-01 1.17637694312763e-03
6.55700000000000e-01 2.44888870486562e-01 1.18261711050645e-03
6.71500000000000e-01 2.43203031322967e-01 1.18854494730933e-03
6.87300000000000e-01 2.41528797642625e-01 1.19417158719633e-03
7.03100000000000e-01 2.39866089552245e-01 1.19950759681188e-03
7.18900000000000e-01 2.38214827708527e-01 1.20456301729923e-03
7.34700000000000e-01 2.36574933314378e-01 1.20934740186106e-03
7.50500000000000e-01 2.34946328115154e-01 1.21386984982307e-03
7.66300000000000e-01 2.33328934394923e-01 1.21813903759636e-03
7.82100000000000e-01 2.31722674972755e-01 1.22216324688184e-03
7.97900000000000e-01 2.30127473199044e-01 1.22595039041540e-03
8.13700000000000e-01 2.28543252951845e-01 1.22950803551567e-03
8.29500000000000e-01 2.26969938633247e-01 1.23284342566261e-03
8.45300000000000e-01 2.25407455165759e-01 1.23596350030789e-03
8.61100000000000e-01 2.23855727988734e-01 1.23887491309428e-03
8.76900000000000e-01 2.22314683054805e-01 1.24158404864010e-03
8.92700000000000e-01 2.20784246826357e-01 1.24409703802663e-03
9.08500000000000e-01 2.19264346272014e-01 1.24641977311220e-03
9.24300000000000e-01 2.17754908863155e-01 1.24855791978060e-03
9.40100000000000e-01 2.16255862570453e-01 1.25051693022208e-03
9.55900000000000e-01 2.14767135860439e-01 1.25230205433349e-03
9.71700000000000e-01 2.13288657692086e-01 1.25391835031454e-03
9.87500000000000e-01 2.11820357513422e-01 1.25537069453063e-03
1.00330000000000e+00 2.10362165258161e-01 1.25666379070439e-03
1.01910000000000e+00 2.08914011342360e-01 1.25780217849190e-03
1.03490000000000e+00 2.07475826661100e-01 1.25879024149526e-03
1.05070000000000e+00 2.06047542585185e-01 1.25963221475593e-03
1.06650000000000e+00 2.04629090957870e-01 1.26033219177108e-03
1.08230000000000e+00 2.03220404091609e-01 1.26089413107072e-03
1.09810000000000e+00 2.01821414764823e-01 1.26132186238886e-03
1.11390000000000e+00 2.00432056218691e-01 1.26161909246035e-03
1.12970000000000e+00 1.99052262153970e-01 1.26178941047091e-03
1.14550000000000e+00 1.97681966727825e-01 1.26183629318646e-03
1.16130000000000e+00 1.96321104550690e-01 1.26176310978507e-03
1.17710000000000e+00 1.94969610683147e-01 1.26157312641278e-03
1.19290000000000e+00 1.93627420632829e-01 1.26126951048303e-03
1.20870000000000e+00 1.92294470351338e-01 1.26085533473750e-03
1.22450000000000e+00 1.90970696231195e-01 1.26033358108469e-03
1.24030000000000e+00 1.89656035102797e-01 1.25970714423182e-03
1.25610000000000e+00 1.88350424231411e-01 1.25897883512336e-03
1.27190000000000e+00 1.87053801314173e-01 1.25815138419947e-03
1.28770000000000e+00 1.85766104477120e-01 1.25722744448560e-03
1.30350000000000e+00 1.84487272272234e-01 1.25620959452465e-03
1.31930000000000e+00 1.83217243674513e-01 1.25510034116154e-03
1.33510000000000e+00 1.81955958079055e-01 1.25390212218914e-03
1.35090000000000e+00 1.80703355298169e-01 1.25261730886477e-03
1.36670000000000e+00 1.79459375558502e-01 1.25124820830452e-03
1.38250000000000e+00 1.78223959498189e-01 1.24979706576344e-03
1.39830000000000e+00 1.76997048164013e-01 1.24826606680805e-03
1.41410000000000e+00 1.75778583008602e-01 1.24665733938740e-03
1.42990000000000e+00 1.74568505887625e-01 1.24497295580898e-03
1.44570000000000e+00 1.73366759057027e-01 1.24321493462487e-03
1.46150000000000e+00 1.72173285170266e-01 1.24138524243297e-03
1.47730000000000e+00 1.70988027275579e-01 1.23948579559834e-03
1.49310000000000e+00 1.69810928813265e-01 1.23751846189906e-03
1.50890000000000e+00 1.68641933612988e-01 1.23548506210080e-03
1.52470000000000e+00 1.67480985891090e-01 1.23338737146399e-03
1.54050000000000e+00 1.66328030247936e-01 1.23122712118685e-03
1.55630000000000e+00 1.65183011665266e-01 1.22900599978841e-03
1.57210000000000e+00 1.64045875503574e-01 1.22672565443401e-03
1.58790000000000e+00 1.62916567499494e-01 1.22438769220666e-03
1.60370000000000e+00 1.61795033763217e-01 1.22199368132690e-03
1.61950000000000e+00 1.60681220775915e-01 1.21954515232368e-03
1.63530000000000e+00 1.59575075387190e-01 1.21704359915914e-03
1.65110000000000e+00 1.58476544812537e-01 1.21449048030901e-03
1.66690000000000e+00 1.57385576630823e-01 1.21188721980143e-03
1.68270000000000e+00 1.56302118781790e-01 1.20923520821580e-03
1.69850000000000e+00 1.55226119563565e-01 1.20653580364342e-03
1.71430000000000e+00 1.54157527630197e-01 1.20379033261256e-03
1.73010000000000e+00 1.53096291989206e-01 1.20100009097875e-03
1.74590000000000e+00 1.52042361999149e-01 1.19816634478233e-03
1.76170000000000e+00 1.50995687367203e-01 1.19529033107497e-03
1.77750000000000e+00 1.49956218146768e-01 1.19237325871625e-03
1.79330000000000e+00 1.48923904735078e-01 1.18941630914172e-03
1.80910000000000e+00 1.47898697870840e-01 1.18642063710375e-03
1.82490000000000e+00 1.46880548631880e-01 1.18338737138659e-03
1.84070000000000e+00 1.45869408432808e-01 1.18031761549646e-03
1.85650000000000e+00 1.44865229022701e-01 1.17721244832817e-03
1.87230000000000e+00 1.43867962482802e-01 1.17407292480869e-03
1.88810000000000e+00 1.42877561224229e-01 1.17090007651921e-03
1.90390000000000e+00 1.41893977985707e-01 1.16769491229648e-03
1.91970000000000e+00 1.40917165831313e-01 1.16445841881402e-03
1.93550000000000e+00 1.39947078148236e-01 1.16119156114439e-03
1.95130000000000e+00 1.38983668644552e-01 1.15789528330316e-03
1.96710000000000e+00 1.38026891347013e-01 1.15457050877538e-03
1.98290000000000e+00 1.37076700598858e-01 1.15121814102523e-03
1.99870000000000e+00 1.36133051057630e-01 1.14783906398934e-03
2.01450000000000e+00 1.35195897693016e-01 1.14443414255483e-03
2.03030000000000e+00 1.34265195784694e-01 1.14100422302240e-03
2.04610000000000e+00 1.33340900920202e-01 1.13755013355517e-03
2.06190000000000e+00 1.32422968992818e-01 1.13407268461366e-03
2.07770000000000e+00 1.31511356199454e-01 1.13057266937762e-03
2.09350000000000e+00 1.30606019038568e-01 1.12705086415521e-03
2.10930000000000e+00 1.29706914308086e-01 1.12350802878004e-03
2.12510000000000e+00 1.28813999103342e-01 1.11994490699608e-03
2.14090000000000e+00 1.27927230815030e-01 1.11636222683183e-03
2.15670000000000e+00 1.27046567127170e-01 1.11276070096295e-03
2.17250000000000e+00 1.26171966015089e-01 1.10914102706483e-03
2.18830000000000e+00 1.25303385743419e-01 1.10550388815506e-03
2.20410000000000e+00 1.24440784864097e-01 1.10184995292597e-03
2.21990000000000e+00 1.23584122214399e-01 1.09817987606781e-03
2.23570000000000e+00 1.22733356914963e-01 1.09449429858282e-03
2.25150000000000e+00 1.21888448367850e-01 1.09079384809060e-03
2.26730000000000e+00 1.21049356254597e-01 1.08707913912504e-03
2.28310000000000e+00 1.20216040534299e-01 1.08335077342341e-03
2.29890000000000e+00 1.19388461441698e-01 1.07960934020700e-03
2.31470000000000e+00 1.18566579485282e-01 1.07585541645445e-03
2.33050000000000e+00 1.17750355445402e-01 1.07208956716808e-03
2.34630000000000e+00 1.16939750372403e-01 1.06831234563250e-03
2.36210000000000e+00 1.16134725584761e-01 1.06452429366680e-03
2.37790000000000e+00 1.15335242667243e-01 1.06072594187007e-03
2.39370000000000e+00 1.14541263469065e-01 1.05691780986021e-03
2.40950000000000e+00 1.13752750102081e-01 1.05310040650704e-03
2.42530000000000e+00 1.12969664938970e-01 1.04927423015917e-03
2.44110000000000e+00 1.12191970611440e-01 1.04543976886478e-03
2.45690000000000e+00 1.11419630008447e-01 1.04159750058727e-03
2.47270000000000e+00 1.10652606274421e-01 1.03774789341525e-03
2.48850000000000e+00 1.09890862807513e-01 1.03389140576720e-03
2.50430000000000e+00 1.09134363257843e-01 1.03002848659122e-03
2.52010000000000e+00 1.08383071525765e-01 1.02615957555960e-03
2.53590000000000e+00 1.07636951760150e-01 1.02228510325877e-03
2.55170000000000e+00 1.06895968356670e-01 1.01840549137468e-03
2.56750000000000e+00 1.06160085956100e-01 1.01452115287335e-03
2.58330000000000e+00 1.05429269442634e-01 1.01063249217742e-03
2.59910000000000e+00 1.04703483942204e-01 1.00673990533837e-03
2.61490000000000e+00 1.03982694820819e-01 1.00284378020444e-03
2.63070000000000e+00 1.03266867682913e-01 9.98944496584698e-04
2.64650000000000e+00 1.02555968369702e-01 9.95042426409370e-04
2.66230000000000e+00 1.01849962957554e-01 9.91137933886290e-04
2.67810000000000e+00 1.01148817756371e-01 9.87231375653605e-04
2.69390000000000e+00 1.00452499307980e-01 9.83323100928981e-04
2.70970000000000e+00 9.97609743845393e-02 9.79413451655638e-04
2.72550000000000e+00 9.90742099869494e-02 9.75502762644795e-04
2.74130000000000e+00 9.83921733432805e-02 9.71591361714795e-04
2.75710000000000e+00 9.77148319072076e-02 9.67679569827211e-04
2.77290000000000e+00 9.70421533564580e-02 9.63767701219910e-04
2.78870000000000e+00 9.63741055912690e-02 9.59856063537161e-04
2.80450000000000e+00 9.57106567328554e-02 9.55944957956639e-04
2.82030000000000e+00 9.50517751218889e-02 9.52034679313819e-04
2.83610000000000e+00 9.43974293169871e-02 9.48125516223578e-04
2.85190000000000e+00 9.37475880932133e-02 9.44217751198981e-04
2.86770000000000e+00 9.31022204405861e-02 9.40311660767688e-04
2.88350000000000e+00 9.24612955626002e-02 9.36407515585743e-04
2.89930000000000e+00 9.18247828747562e-02 9.32505580548892e-04
2.91510000000000e+00 9.11926520031016e-02 9.28606114901517e-04
2.93090000000000e+00 9.05648727827811e-02 9.24709372343102e-04
2.94670000000000e+00 8.99414152565972e-02 9.20815601132709e-04
2.96250000000000e+00 8.93222496735807e-02 9.16925044191106e-04
2.97830000000000e+00 8.87073464875713e-02 9.13037939200632e-04
2.99410000000000e+00 8.80966763558069e-02 9.09154518703058e-04
3.00990000000000e+00 8.74902101375244e-02 9.05275010195462e-04
3.02570000000000e+00 8.68879188925680e-02 9.01399636223978e-04
3.04150000000000e+00 8.62897738800094e-02 8.97528614475762e-04
3.05730000000000e+00 8.56957465567753e-02 8.93662157868924e-04
3.07310000000000e+00 8.51058085762858e-02 8.89800474640617e-04
3.08890000000000e+00 8.45199317871016e-02 8.85943768433371e-04
3.10470000000000e+00 8.39380882315809e-02 8.82092238379694e-04
3.12050000000000e+00 8.33602501445449e-02 8.78246079185013e-04
3.13630000000000e+00 8.27863899519530e-02 8.74405481208732e-04
3.15210000000000e+00 8.22164802695872e-02 8.70570630543790e-04
3.16790000000000e+00 8.16504939017449e-02 8.66741709094689e-04
3.18370000000000e+00 8.10884038399417e-02 8.62918894653894e-04
3.19950000000000e+00 8.05301832616220e-02 8.59102360976670e-04
3.21530000000000e+00 7.99758055288795e-02 8.55292277854546e-04
3.23110000000000e+00 7.94252441871860e-02 8.51488811187305e-04
3.24690000000000e+00 7.88784729641284e-02 8.47692123053437e-04
3.26270000000000e+00 7.83354657681559e-02 8.43902371779311e-04
3.27850000000000e+00 7.77961966873344e-02 8.40119712007091e-04
3.29430000000000e+00 7.72606399881102e-02 8.36344294761215e-04
3.31010000000000e+00 7.67287701140817e-02 8.32576267513603e-04
3.32590000000000e+00 7.62005616847804e-02 8.28815774247638e-04
3.34170000000000e+00 7.56759894944593e-02 8.25062955520913e-04
3.35750000000000e+00 7.51550285108900e-02 8.21317948526730e-04
3.37330000000000e+00 7.46376538741689e-02 8.17580887154517e-04
3.38910000000000e+00 7.41238408955300e-02 8.13851902049016e-04
3.40490000000000e+00 7.36135650561676e-02 8.10131120668451e-04
3.42070000000000e+00 7.31068020060656e-02 8.06418667341488e-04
3.43650000000000e+00 7.26035275628358e-02 8.02714663323083e-04
3.45230000000000e+00 7.21037177105642e-02 7.99019226849581e-04
3.46810000000000e+00 7.16073485986645e-02 7.95332473192427e-04
3.48390000000000e+00 7.11143965407402e-02 7.91654514711074e-04
3.49970000000000e+00 7.06248380134544e-02 7.87985460904872e-04
3.51550000000000e+00 7.01386496554072e-02 7.84325418463974e-04
3.53130000000000e+00 6.96558082660208e-02 7.80674491319414e-04
3.54710000000000e+00 6.91762908044323e-02 7.77032780691961e-04
3.56290000000000e+00 6.87000743883946e-02 7.73400385140468e-04
3.57870000000000e+00 6.82271362931843e-02 7.69777400609172e-04
3.59450000000000e+00 6.77574539505172e-02 7.66163920474033e-04
3.61030000000000e+00 6.72910049474711e-02 7.62560035588388e-04
3.62610000000000e+00 6.68277670254170e-02 7.58965834327688e-04
3.64190000000000e+00 6.63677180789563e-02 7.55381402633441e-04
3.65770000000000e+00 6.59108361548660e-02 7.51806824056393e-04
3.67350000000000e+00 6.54570994510516e-02 7.48242179798923e-04
3.68930000000000e+00 6.50064863155060e-02 7.44687548756633e-04
3.70510000000000e+00 6.45589752452769e-02 7.41143007559282e-04
3.72090000000000e+00 6.41145448854405e-02 7.37608630610983e-04
3.73670000000000e+00 6.36731740280820e-02 7.34084490129523e-04
3.75250000000000e+00 6.32348416112845e-02 7.30570656185219e-04
3.76830000000000e+00 6.27995267181231e-02 7.27067196738996e-04
3.78410000000000e+00 6.23672085756672e-02 7.23574177679666e-04
3.79990000000000e+00 6.19378665539889e-02 7.20091662860808e-04
3.81570000000000e+00 6.15114801651791e-02 7.16619714136767e-04
3.83150000000000e+00 6.10880290623693e-02 7.13158391398161e-04
3.84730000000000e+00 6.06674930387607e-02 7.09707752606709e-04
3.86310000000000e+00 6.02498520266605e-02 7.06267853829413e-04
3.87890000000000e+00 5.98350860965234e-02 7.02838749272326e-04
3.89470000000000e+00 5.94231754560014e-02 6.99420491313531e-04
3.91050000000000e+00 5.90141004489989e-02 6.96013130535628e-04
3.92630000000000e+00 5.86078415547347e-02 6.92616715757680e-04
3.94210000000000e+00 5.82043793868107e-02 6.89231294066566e-04
3.95790000000000e+00 5.78036946922866e-02 6.85856910847886e-04
3.97370000000000e+00 5.74057683507614e-02 6.82493609816242e-04
3.98950000000000e+00 5.70105813734606e-02 6.79141433045008e-04
4.00530000000000e+00 5.66181149023304e-02 6.75800420995623e-04
4.02110000000000e+00 5.62283502091378e-02 6.72470612546393e-04
4.03690000000000e+00 5.58412686945766e-02 6.69152045020787e-04
4.05270000000000e+00 5.54568518873803e-02 6.65844754215259e-04
4.06850000000000e+00 5.50750814434402e-02 6.62548774426568e-04
4.08430000000000e+00 5.46959391449304e-02 6.59264138478652e-04
4.10010000000000e+00 5.43194068994383e-02 6.55990877749123e-04
4.11590000000000e+00 5.39454667391012e-02 6.52729022195255e-04
4.13170000000000e+00 5.35741008197489e-02 6.49478600379472e-04
4.14750000000000e+00 5.32052914200523e-02 6.46239639494423e-04
4.16330000000000e+00 5.28390209406777e-02 6.43012165387790e-04
4.17910000000000e+00 5.24752719034470e-02 6.39796202586556e-04
4.19490000000000e+00 5.21140269505034e-02 6.36591774320874e-04
4.21070000000000e+00 5.17552688434835e-02 6.33398902547526e-04
4.22650000000000e+00 5.13989804626944e-02 6.30217607972975e-04
4.24230000000000e+00 5.10451448062968e-02 6.27047910076218e-04
4.25810000000000e+00 5.06937449894940e-02 6.23889827130999e-04
4.27390000000000e+00 5.03447642437256e-02 6.20743376227738e-04
4.28970000000000e+00 4.99981859158678e-02 6.17608573295275e-04
4.30550000000000e+00 4.96539934674384e-02 6.14485433122037e-04
4.32130000000000e+00 4.93121704738080e-02 6.11373969376832e-04
4.33710000000000e+00 4.89727006234157e-02 6.08274194629515e-04
4.35290000000000e+00 4.86355677169912e-02 6.05186120371248e-04
4.36870000000000e+00 4.83007556667813e-02 6.02109757034225e-04
4.38450000000000e+00 4.79682484957829e-02 5.99045114011305e-04
4.40030000000000e+00 4.76380303369798e-02 5.95992199675217e-04
4.41610000000000e+00 4.73100854325861e-02 5.92951021397513e-04
4.43190000000000e+00 4.69843981332939e-02 5.89921585567178e-04
4.44770000000000e+00 4.66609528975270e-02 5.86903897608927e-04
4.46350000000000e+00 4.63397342906985e-02 5.83897962001158e-04
4.47930000000000e+00 4.60207269844750e-02 5.80903782293629e-04
4.49510000000000e+00 4.57039157560448e-02 5.77921361125066e-04
4.51090000000000e+00 4.53892854873916e-02 5.74950700240148e-04
4.52670000000000e+00 4.50768211645729e-02 5.71991800506377e-04
4.54250000000000e+00 4.47665078770037e-02 5.69044661930732e-04
4.55830000000000e+00 4.44583308167450e-02 5.66109283675936e-04
4.57410000000000e+00 4.41522752777971e-02 5.63185664076555e-04
4.58990000000000e+00 4.38483266553977e-02 5.60273800654717e-04
4.60570000000000e+00 4.35464704453254e-02 5.57373690135694e-04
4.62150000000000e+00 4.32466922432071e-02 5.54485328463277e-04
4.63730000000000e+00 4.29489777438308e-02 5.51608710814650e-04
4.65310000000000e+00 4.26533127404632e-02 5.48743831615299e-04
4.66890000000000e+00 4.23596831241714e-02 5.45890684553626e-04
4.68470000000000e+00 4.20680748831497e-02 5.43049262595110e-04
4.70050000000000e+00 4.17784741020512e-02 5.40219557996514e-04
4.71630000000000e+00 4.14908669613236e-02 5.37401562319713e-04
4.73210000000000e+00 4.12052397365498e-02 5.34595266445410e-04
4.74790000000000e+00 4.09215787977928e-02 5.31800660586507e-04
4.76370000000000e+00 4.06398706089456e-02 5.29017734301253e-04
4.77950000000000e+00 4.03601017270849e-02 5.26246476506378e-04
4.79530000000000e+00 4.00822588018300e-02 5.23486875489805e-04
4.81110000000000e+00 3.98063285747054e-02 5.20738918923237e-04
4.82690000000000e+00 3.95322978785084e-02 5.18002593874556e-04
4.84270000000000e+00 3.92601536366806e-02 5.15277886820013e-04
4.85850000000000e+00 3.89898828626837e-02 5.12564783656224e-04
4.87430000000000e+00 3.87214726593803e-02 5.09863269711940e-04
4.89010000000000e+00 3.84549102184179e-02 5.07173329759664e-04
4.90590000000000e+00 3.81901828196183e-02 5.04494948027122e-04
4.92170000000000e+00 3.79272778303699e-02 5.01828108208465e-04
4.93750000000000e+00 3.76661827050255e-02 4.99172793475299e-04
4.95330000000000e+00 3.74068849843033e-02 4.96528986487649e-04
4.96910000000000e+00 3.71493722946923e-02 4.93896669404634e-04
4.98490000000000e+00 3.68936323478622e-02 4.91275823894973e-04
