Energy (eV)          EEDF (eV^-(3/2))     First Anisotropy
6.46875000000000e-04 1.47532112624640e+01 7.40207425517102e-03
1.94062500000000e-03 1.46474037101373e+01 1.22201799448435e-02
3.23437500000000e-03 1.45423549917802e+01 1.61247426450689e-02
4.52812500000000e-03 1.44380596651763e+01 1.90866427420941e-02
5.82187500000000e-03 1.43345123271294e+01 2.15532435498713e-02
7.11562500000000e-03 1.42317076131921e+01 2.36937599826549e-02
8.40937500000000e-03 1.41296401973894e+01 2.55957965757926e-02
9.70312500000000e-03 1.40283047919431e+01 2.73122761003577e-02
1.09968750000000e-02 1.39276961469982e+01 2.88783115820276e-02
1.22906250000000e-02 1.38278090503504e+01 3.03187297879893e-02
1.35843750000000e-02 1.37286383271768e+01 3.16519158464353e-02
1.48781250000000e-02 1.36301788397670e+01 3.28919737705696e-02
1.61718750000000e-02 1.35324254872578e+01 3.40500292581154e-02
1.74656250000000e-02 1.34353732053682e+01 3.51350593536040e-02
1.87593750000000e-02 1.33390169661377e+01 3.61544443675945e-02
2.00531250000000e-02 1.32433517776653e+01 3.71143483951309e-02
2.13468750000000e-02 1.31483726838509e+01 3.80199896166270e-02
2.26406250000000e-02 1.30540747641391e+01 3.88758372364005e-02
2.39343750000000e-02 1.29604531332635e+01 3.96857581341345e-02
2.52281250000000e-02 1.28675029409944e+01 4.04531281616095e-02
2.65218750000000e-02 1.27752193718867e+01 4.11809180274727e-02
2.78156250000000e-02 1.26835976450313e+01 4.18717605577604e-02
2.91093750000000e-02 1.25926330138067e+01 4.25280040691351e-02
3.04031250000000e-02 1.25023207656334e+01 4.31517552259457e-02
3.16968750000000e-02 1.24126562217299e+01 4.37449138226003e-02
3.29906250000000e-02 1.23236347368699e+01 4.43092012876022e-02
3.42843750000000e-02 1.22352516991419e+01 4.48461842499652e-02
3.55781250000000e-02 1.21475025297105e+01 4.53572941817594e-02
3.68718750000000e-02 1.20603826825788e+01 4.58438438924530e-02
3.81656250000000e-02 1.19738876443528e+01 4.63070414751111e-02
3.94593750000000e-02 1.18880129340082e+01 4.67480021733151e-02
4.07531250000000e-02 1.18027541026576e+01 4.71677585385787e-02
4.20468750000000e-02 1.17181067333204e+01 4.75672691724466e-02
4.33406250000000e-02 1.16340664406936e+01 4.79474262891625e-02
4.46343750000000e-02 1.15506288709252e+01 4.83090622894868e-02
4.59281250000000e-02 1.14677897013881e+01 4.86529555007485e-02
4.72218750000000e-02 1.13855446404563e+01 4.89798352100771e-02
4.85156250000000e-02 1.13038894272828e+01 4.92903860954697e-02
4.98093750000000e-02 1.12228198315786e+01 4.95852521414036e-02
5.11031250000000e-02 1.11423316533935e+01 4.98650401112169e-02
5.23968750000000e-02 1.10624207228988e+01 5.01303226368147e-02
5.36906250000000e-02 1.09830829001711e+01 5.03816409766046e-02
5.49843750000000e-02 1.09043140749777e+01 5.06195074847240e-02
5.62781250000000e-02 1.08261101665639e+01 5.08444078281460e-02
5.75718750000000e-02 1.07484671234415e+01 5.10568029828404e-02
5.88656250000000e-02 1.06713809231789e+01 5.12571310356853e-02
6.01593750000000e-02 1.05948475721926e+01 5.14458088150648e-02
6.14531250000000e-02 1.05188631055405e+01 5.16232333699631e-02
6.27468750000000e-02 1.04434235867164e+01 5.17897833146429e-02
6.40406250000000e-02 1.03685251074461e+01 5.19458200537901e-02
6.53343750000000e-02 1.02941637874847e+01 5.20916889010804e-02
6.66281250000000e-02 1.02203357744159e+01 5.22277201024574e-02
6.79218750000000e-02 1.01470372434524e+01 5.23542297740282e-02
6.92156250000000e-02 1.00742643972374e+01 5.24715207632907e-02
7.05093750000000e-02 1.00020134656482e+01 5.25798834413557e-02
7.18031250000000e-02 9.93028070560091e+00 5.26795964329145e-02
7.30968750000000e-02 9.85906240085616e+00 5.27709272899563e-02
7.43906250000000e-02 9.78835486182700e+00 5.28541331145449e-02
7.56843750000000e-02 9.71815442538756e+00 5.29294611353835e-02
7.69781250000000e-02 9.64845745468324e+00 5.29971492423719e-02
7.82718750000000e-02 9.57926033894240e+00 5.30574264829130e-02
7.95656250000000e-02 9.51055949328923e+00 5.31105135233610e-02
8.08593750000000e-02 9.44235135855804e+00 5.31566230785870e-02
8.21531250000000e-02 9.37463240110887e+00 5.31959603123935e-02
8.34468750000000e-02 9.30739911264446e+00 5.32287232112291e-02
8.47406250000000e-02 9.24064801002844e+00 5.32551029333794e-02
8.60343750000000e-02 9.17437563510494e+00 5.32752841356356e-02
8.73281250000000e-02 9.10857855451936e+00 5.32894452792203e-02
8.86218750000000e-02 9.04325335954059e+00 5.32977589166119e-02
8.99156250000000e-02 8.97839666588433e+00 5.33003919607428e-02
9.12093750000000e-02 8.91400511353782e+00 5.32975059379081e-02
9.25031250000000e-02 8.85007536658572e+00 5.32892572256068e-02
9.37968750000000e-02 8.78660411303736e+00 5.32757972764321e-02
9.50906250000000e-02 8.72358806465507e+00 5.32572728290273e-02
9.63843750000000e-02 8.66102395678388e+00 5.32338261070189e-02
9.76781250000000e-02 8.59890854818238e+00 5.32055950068096e-02
9.89718750000000e-02 8.53723862085481e+00 5.31727132749832e-02
1.00265625000000e-01 8.47601097988431e+00 5.31353106760330e-02
1.01559375000000e-01 8.41522245326744e+00 5.30935131510944e-02
1.02853125000000e-01 8.35486989174985e+00 5.30474429682618e-02
1.04146875000000e-01 8.29495016866308e+00 5.29972188650545e-02
1.05440625000000e-01 8.23546017976264e+00 5.29429561835435e-02
1.06734375000000e-01 8.17639684306714e+00 5.28847669986081e-02
1.08028125000000e-01 8.11775709869866e+00 5.28227602397587e-02
1.09321875000000e-01 8.05953790872420e+00 5.27570418069395e-02
1.10615625000000e-01 8.00173625699831e+00 5.26877146806700e-02
1.11909375000000e-01 7.94434914900681e+00 5.26148790268616e-02
1.13203125000000e-01 7.88737361171171e+00 5.25386322966684e-02
1.14496875000000e-01 7.83080669339711e+00 5.24590693216393e-02
1.15790625000000e-01 7.77464546351635e+00 5.23762824044439e-02
1.17084375000000e-01 7.71888701254014e+00 5.22903614054439e-02
1.18378125000000e-01 7.66352845180585e+00 5.22013938253521e-02
1.19671875000000e-01 7.60856691336786e+00 5.21094648841900e-02
1.20965625000000e-01 7.55399954984896e+00 5.20146575967522e-02
1.22259375000000e-01 7.49982353429287e+00 5.19170528447820e-02
1.23553125000000e-01 7.44603606001774e+00 5.18167294460245e-02
1.24846875000000e-01 7.39263434047081e+00 5.17137642203421e-02
1.26140625000000e-01 7.33961560908396e+00 5.16082320530409e-02
1.27434375000000e-01 7.28697711913046e+00 5.15002059555489e-02
1.28728125000000e-01 7.23471614358264e+00 5.13897571236029e-02
1.30021875000000e-01 7.18282997497061e+00 5.12769549930600e-02
1.31315625000000e-01 7.13131592524201e+00 5.11618672934590e-02
1.32609375000000e-01 7.08017132562273e+00 5.10445600994550e-02
1.33903125000000e-01 7.02939352647865e+00 5.09250978802083e-02
1.35196875000000e-01 6.97897989717840e+00 5.08035435468574e-02
1.36490625000000e-01 6.92892782595704e+00 5.06799584981633e-02
1.37784375000000e-01 6.87923471978079e+00 5.05544026644017e-02
1.39078125000000e-01 6.82989800421265e+00 5.04269345496063e-02
1.40371875000000e-01 6.78091512327905e+00 5.02976112722183e-02
1.41665625000000e-01 6.73228353933745e+00 5.01664886042353e-02
1.42959375000000e-01 6.68400073294485e+00 5.00336210089363e-02
1.44253125000000e-01 6.63606420272727e+00 4.98990616772295e-02
1.45546875000000e-01 6.58847146525016e+00 4.97628625626942e-02
1.46840625000000e-01 6.54122005488976e+00 4.96250744153668e-02
1.48134375000000e-01 6.49430752370532e+00 4.94857468143501e-02
1.49428125000000e-01 6.44773144131234e+00 4.93449281992898e-02
1.50721875000000e-01 6.40148939475662e+00 4.92026659007406e-02
1.52015625000000e-01 6.35557898838926e+00 4.90590061695130e-02
1.53309375000000e-01 6.30999784374253e+00 4.89139942050160e-02
1.54603125000000e-01 6.26474359940672e+00 4.87676741826489e-02
1.55896875000000e-01 6.21981391090771e+00 4.86200892802840e-02
1.57190625000000e-01 6.17520645058557e+00 4.84712817038698e-02
1.58484375000000e-01 6.13091890747396e+00 4.83212927122008e-02
1.59778125000000e-01 6.08694898718040e+00 4.81701626408847e-02
1.61071875000000e-01 6.04329441176740e+00 4.80179309255412e-02
1.62365625000000e-01 5.99995291963447e+00 4.78646361242563e-02
1.63659375000000e-01 5.95692226540092e+00 4.77103159393340e-02
1.64953125000000e-01 5.91420021978956e+00 4.75550072383658e-02
1.66246875000000e-01 5.87178456951120e+00 4.73987460746451e-02
1.67540625000000e-01 5.82967311715001e+00 4.72415677069521e-02
1.68834375000000e-01 5.78786368104962e+00 4.70835066187373e-02
1.70128125000000e-01 5.74635409520017e+00 4.69245965367265e-02
1.71421875000000e-01 5.70514220912603e+00 4.67648704489641e-02
1.72715625000000e-01 5.66422588777443e+00 4.66043606223222e-02
1.74009375000000e-01 5.62360301140485e+00 4.64430986194853e-02
1.75303125000000e-01 5.58327147547917e+00 4.62811153154445e-02
1.76596875000000e-01 5.54322919055269e+00 4.61184409135113e-02
1.77890625000000e-01 5.50347408216584e+00 4.59551049608682e-02
1.79184375000000e-01 5.46400409073672e+00 4.57911363636707e-02
1.80478125000000e-01 5.42481717145443e+00 4.56265634017287e-02
1.81771875000000e-01 5.38591129417309e+00 4.54614137427687e-02
1.83065625000000e-01 5.34728444330668e+00 4.52957144562918e-02
1.84359375000000e-01 5.30893461772464e+00 4.51294920270566e-02
1.85653125000000e-01 5.27085983064818e+00 4.49627723681863e-02
1.86946875000000e-01 5.23305810954734e+00 4.47955808339120e-02
1.88240625000000e-01 5.19552749603882e+00 4.46279422319766e-02
1.89534375000000e-01 5.15826604578453e+00 4.44598808357038e-02
1.90828125000000e-01 5.12127182839084e+00 4.42914203957397e-02
1.92121875000000e-01 5.08454292730856e+00 4.41225841514872e-02
1.93415625000000e-01 5.04807743973369e+00 4.39533948422260e-02
1.94709375000000e-01 5.01187347650881e+00 4.37838747179521e-02
1.96003125000000e-01 4.97592916202523e+00 4.36140455499401e-02
1.97296875000000e-01 4.94024263412579e+00 4.34439286410149e-02
1.98590625000000e-01 4.90481204400844e+00 4.32735448355706e-02
1.99884375000000e-01 4.86963555613040e+00 4.31029145293353e-02
2.01178125000000e-01 4.83471134811310e+00 4.29320576788775e-02
2.02471875000000e-01 4.80003761064778e+00 4.27609938108789e-02
2.03765625000000e-01 4.76561254740171e+00 4.25897420311767e-02
2.05059375000000e-01 4.73143437492517e+00 4.24183210335775e-02
2.06353125000000e-01 4.69750132255906e+00 4.22467491084534e-02
2.07646875000000e-01 4.66381163234312e+00 4.20750441511291e-02
2.08940625000000e-01 4.63036355892490e+00 4.19032236700601e-02
2.10234375000000e-01 4.59715536946932e+00 4.17313047948116e-02
2.11528125000000e-01 4.56418534356892e+00 4.15593042838533e-02
2.12821875000000e-01 4.53145177315468e+00 4.13872385321509e-02
2.14115625000000e-01 4.49895296240759e+00 4.12151235785913e-02
2.15409375000000e-01 4.46668722767076e+00 4.10429751132302e-02
2.16703125000000e-01 4.43465289736221e+00 4.08708084843559e-02
2.17996875000000e-01 4.40284831188826e+00 4.06986387054036e-02
2.19290625000000e-01 4.37127182355755e+00 4.05264804616916e-02
2.20584375000000e-01 4.33992179649570e+00 4.03543481170140e-02
2.21878125000000e-01 4.30879660656054e+00 4.01822557200819e-02
2.23171875000000e-01 4.27789464125796e+00 4.00102170108033e-02
2.24465625000000e-01 4.24721429965843e+00 3.98382454264325e-02
2.25759375000000e-01 4.21675399231396e+00 3.96663541075783e-02
2.27053125000000e-01 4.18651214117586e+00 3.94945559040698e-02
2.28346875000000e-01 4.15648717951291e+00 3.93228633806902e-02
2.29640625000000e-01 4.12667755183025e+00 3.91512888227935e-02
2.30934375000000e-01 4.09708171378874e+00 3.89798442417818e-02
2.32228125000000e-01 4.06769813212500e+00 3.88085413804754e-02
2.33521875000000e-01 4.03852528457195e+00 3.86373917183545e-02
2.34815625000000e-01 4.00956165977996e+00 3.84664064766824e-02
2.36109375000000e-01 3.98080575723854e+00 3.82955966235348e-02
2.37403125000000e-01 3.95225608719860e+00 3.81249728787004e-02
2.38696875000000e-01 3.92391117059531e+00 3.79545457184852e-02
2.39990625000000e-01 3.89576953897141e+00 3.77843253804146e-02
2.41284375000000e-01 3.86782973440119e+00 3.76143218678282e-02
2.42578125000000e-01 3.84009030941493e+00 3.74445449543803e-02
2.43871875000000e-01 3.81254982692392e+00 3.72750041884511e-02
2.45165625000000e-01 3.78520686014601e+00 3.71057088974491e-02
2.46459375000000e-01 3.75805999253169e+00 3.69366681920387e-02
2.47753125000000e-01 3.73110781769072e+00 3.67678909702768e-02
2.49046875000000e-01 3.70434893931923e+00 3.65993859216503e-02
2.50340625000000e-01 3.67778197112742e+00 3.64311615310424e-02
2.51634375000000e-01 3.65140553676772e+00 3.62632260826183e-02
2.52928125000000e-01 3.62521826976351e+00 3.60955876636207e-02
2.54221875000000e-01 3.59921881343830e+00 3.59282541680912e-02
2.55515625000000e-01 3.57340582084545e+00 3.57612333005240e-02
2.56809375000000e-01 3.54777795469841e+00 3.55945325794327e-02
2.58103125000000e-01 3.52233388730140e+00 3.54281593408516e-02
2.59396875000000e-01 3.49707230048067e+00 3.52621207417679e-02
2.60690625000000e-01 3.47199188551620e+00 3.50964237634817e-02
2.61984375000000e-01 3.44709134307387e+00 3.49310752148973e-02
2.63278125000000e-01 3.42236938313817e+00 3.47660817357513e-02
2.64571875000000e-01 3.39782472494537e+00 3.46014497997805e-02
2.65865625000000e-01 3.37345609691715e+00 3.44371857178178e-02
2.67159375000000e-01 3.34926223659477e+00 3.42732956408320e-02
2.68453125000000e-01 3.32524189057358e+00 3.41097855629131e-02
2.69746875000000e-01 3.30139381443819e+00 3.39466613241874e-02
2.71040625000000e-01 3.27771677269790e+00 3.37839286136838e-02
2.72334375000000e-01 3.25420953872279e+00 3.36215929721476e-02
2.73628125000000e-01 3.23087089468008e+00 3.34596597947888e-02
2.74921875000000e-01 3.20769963147112e+00 3.32981343339876e-02
2.76215625000000e-01 3.18469454866867e+00 3.31370217019418e-02
2.77509375000000e-01 3.16185445445480e+00 3.29763268732592e-02
2.78803125000000e-01 3.13917816555905e+00 3.28160546875160e-02
2.80096875000000e-01 3.11666450719722e+00 3.26562098517540e-02
2.81390625000000e-01 3.09431231301044e+00 3.24967969429300e-02
2.82684375000000e-01 3.07212042500478e+00 3.23378204103211e-02
2.83978125000000e-01 3.05008769349123e+00 3.21792845778874e-02
2.85271875000000e-01 3.02821297702618e+00 3.20211936465900e-02
2.86565625000000e-01 3.00649514235224e+00 3.18635516966603e-02
2.87859375000000e-01 2.98493306433958e+00 3.17063626898305e-02
2.89153125000000e-01 2.96352562592759e+00 3.15496304715220e-02
2.90446875000000e-01 2.94227171806703e+00 3.13933587729948e-02
2.91740625000000e-01 2.92117023966259e+00 3.12375512134539e-02
2.93034375000000e-01 2.90022009751582e+00 3.10822113021148e-02
2.94328125000000e-01 2.87942020626850e+00 3.09273424402361e-02
2.95621875000000e-01 2.85876948834643e+00 3.07729479231178e-02
2.96915625000000e-01 2.83826687390358e+00 3.06190309420506e-02
2.98209375000000e-01 2.81791130076669e+00 3.04655945862380e-02
2.99503125000000e-01 2.79770171438021e+00 3.03126418446828e-02
3.00796875000000e-01 2.77763706775171e+00 3.01601756080375e-02
3.02090625000000e-01 2.75771632139758e+00 3.00081986704249e-02
3.03384375000000e-01 2.73793844328924e+00 2.98567137312180e-02
3.04678125000000e-01 2.71830240879963e+00 2.97057233967945e-02
3.05971875000000e-01 2.69880720065016e+00 2.95552301822577e-02
3.07265625000000e-01 2.67945180885796e+00 2.94052365131235e-02
3.08559375000000e-01 2.66023523068363e+00 2.92557447269835e-02
3.09853125000000e-01 2.64115647057922e+00 2.91067570751336e-02
3.11146875000000e-01 2.62221454013668e+00 2.89582757241699e-02
3.12440625000000e-01 2.60340845803667e+00 2.88103027575662e-02
3.13734375000000e-01 2.58473724999770e+00 2.86628401772153e-02
3.15028125000000e-01 2.56619994872567e+00 2.85158899049424e-02
3.16321875000000e-01 2.54779559386375e+00 2.83694537840016e-02
3.17615625000000e-01 2.52952323194261e+00 2.82235335805338e-02
3.18909375000000e-01 2.51138191633107e+00 2.80781309850045e-02
3.20203125000000e-01 2.49337070718701e+00 2.79332476136185e-02
3.21496875000000e-01 2.47548867140870e+00 2.77888850097018e-02
3.22790625000000e-01 2.45773488258648e+00 2.76450446450697e-02
3.24084375000000e-01 2.44010842095471e+00 2.75017279213640e-02
3.25378125000000e-01 2.42260837334419e+00 2.73589361713650e-02
3.26671875000000e-01 2.40523383313478e+00 2.72166706602866e-02
3.27965625000000e-01 2.38798390020851e+00 2.70749325870483e-02
3.29259375000000e-01 2.37085768090287e+00 2.69337230855224e-02
3.30553125000000e-01 2.35385428796455e+00 2.67930432257556e-02
3.31846875000000e-01 2.33697284050350e+00 2.66528940151786e-02
3.33140625000000e-01 2.32021246394723e+00 2.65132763997906e-02
3.34434375000000e-01 2.30357228999557e+00 2.63741912653178e-02
3.35728125000000e-01 2.28705145657562e+00 2.62356394383608e-02
3.37021875000000e-01 2.27064910779714e+00 2.60976216875177e-02
3.38315625000000e-01 2.25436439390820e+00 2.59601387244897e-02
3.39609375000000e-01 2.23819647125112e+00 2.58231912051634e-02
3.40903125000000e-01 2.22214450221883e+00 2.56867797306787e-02
3.42196875000000e-01 2.20620765521140e+00 2.55509048484810e-02
3.43490625000000e-01 2.19038510459301e+00 2.54155670533469e-02
3.44784375000000e-01 2.17467603064918e+00 2.52807667883995e-02
3.46078125000000e-01 2.15907961954424e+00 2.51465044461035e-02
3.47371875000000e-01 2.14359506327925e+00 2.50127803692434e-02
3.48665625000000e-01 2.12822155965010e+00 2.48795948518867e-02
3.49959375000000e-01 2.11295831220594e+00 2.47469481403311e-02
3.51253125000000e-01 2.09780453020793e+00 2.46148404340322e-02
3.52546875000000e-01 2.08275942858829e+00 2.44832718865144e-02
3.53840625000000e-01 2.06782222790960e+00 2.43522426062735e-02
3.55134375000000e-01 2.05299215432444e+00 2.42217526576606e-02
3.56428125000000e-01 2.03826843953531e+00 2.40918020617469e-02
3.57721875000000e-01 2.02365032075478e+00 2.39623907971798e-02
3.59015625000000e-01 2.00913704066602e+00 2.38335188010201e-02
3.60309375000000e-01 1.99472784738355e+00 2.37051859695682e-02
3.61603125000000e-01 1.98042199441428e+00 2.35773921591757e-02
3.62896875000000e-01 1.96621874061886e+00 2.34501371870426e-02
3.64190625000000e-01 1.95211735017324e+00 2.33234208320002e-02
3.65484375000000e-01 1.93811709253059e+00 2.31972428352822e-02
3.66778125000000e-01 1.92421724238345e+00 2.30716029012848e-02
3.68071875000000e-01 1.91041707962612e+00 2.29465006983105e-02
3.69365625000000e-01 1.89671588931740e+00 2.28219358592994e-02
3.70659375000000e-01 1.88311296164351e+00 2.26979079825525e-02
3.71953125000000e-01 1.86960759188135e+00 2.25744166324401e-02
3.73246875000000e-01 1.85619908036197e+00 2.24514613400926e-02
3.74540625000000e-01 1.84288673243432e+00 2.23290416040924e-02
3.75834375000000e-01 1.82966985842928e+00 2.22071568911466e-02
3.77128125000000e-01 1.81654777362391e+00 2.20858066367447e-02
3.78421875000000e-01 1.80351979820601e+00 2.19649902458124e-02
3.79715625000000e-01 1.79058525723886e+00 2.18447070933529e-02
3.81009375000000e-01 1.77774348062628e+00 2.17249565250752e-02
3.82303125000000e-01 1.76499380307790e+00 2.16057378580131e-02
3.83596875000000e-01 1.75233556407471e+00 2.14870503811368e-02
3.84890625000000e-01 1.73976810783483e+00 2.13688933559491e-02
3.86184375000000e-01 1.72729078327953e+00 2.12512660170718e-02
3.87478125000000e-01 1.71490294399951e+00 2.11341675728282e-02
3.88771875000000e-01 1.70260394822141e+00 2.10175972058121e-02
3.90065625000000e-01 1.69039315877457e+00 2.09015540734453e-02
3.91359375000000e-01 1.67826994305800e+00 2.07860373085309e-02
3.92653125000000e-01 1.66623367300762e+00 2.06710460197929e-02
3.93946875000000e-01 1.65428372506371e+00 2.05565792924095e-02
3.95240625000000e-01 1.64241948013865e+00 2.04426361885353e-02
3.96534375000000e-01 1.63064032358476e+00 2.03292157478166e-02
3.97828125000000e-01 1.61894564516256e+00 2.02163169878992e-02
3.99121875000000e-01 1.60733483900908e+00 2.01039389049240e-02
4.00415625000000e-01 1.59580730360649e+00 1.99920804740180e-02
4.01709375000000e-01 1.58436244175096e+00 1.98807406497742e-02
4.03003125000000e-01 1.57299966052171e+00 1.97699183667243e-02
4.04296875000000e-01 1.56171837125027e+00 1.96596125398083e-02
4.05590625000000e-01 1.55051798949002e+00 1.95498220648299e-02
4.06884375000000e-01 1.53939793498587e+00 1.94405458189037e-02
4.08178125000000e-01 1.52835763164424e+00 1.93317826609028e-02
