Energy (eV)          EEDF (eV^-(3/2))     First Anisotropy
5.26271186440678e-04 1.47632456582476e+01 6.68549832651400e-03
1.57881355932203e-03 1.46770487621205e+01 1.10445594661011e-02
2.63135593220339e-03 1.45913551360810e+01 1.45930607061940e-02
3.68389830508475e-03 1.45061618422742e+01 1.72968070958080e-02
4.73644067796610e-03 1.44214659593119e+01 1.95583329083553e-02
5.78898305084746e-03 1.43372645829689e+01 2.15296010817778e-02
6.84152542372881e-03 1.42535548258935e+01 2.32891398389402e-02
7.89406779661017e-03 1.41703338178342e+01 2.48843037053289e-02
8.94661016949152e-03 1.40875987051593e+01 2.63464555865134e-02
9.99915254237288e-03 1.40053466508346e+01 2.76977315839909e-02
1.10516949152542e-02 1.39235748347359e+01 2.89544955242595e-02
1.21042372881356e-02 1.38422804525582e+01 3.01292788085183e-02
1.31567796610169e-02 1.37614607167597e+01 3.12319492746986e-02
1.42093220338983e-02 1.36811128565941e+01 3.22704553049794e-02
1.52618644067797e-02 1.36012341164528e+01 3.32513202468005e-02
1.63144067796610e-02 1.35218217573406e+01 3.41799830507200e-02
1.73669491525424e-02 1.34428730562468e+01 3.50610402237081e-02
1.84194915254237e-02 1.33643853064450e+01 3.58984219949874e-02
1.94720338983051e-02 1.32863558162365e+01 3.66955232874077e-02
2.05245762711864e-02 1.32087819100275e+01 3.74553030284329e-02
2.15771186440678e-02 1.31316609278461e+01 3.81803608641009e-02
2.26296610169491e-02 1.30549902255539e+01 3.88729971952591e-02
2.36822033898305e-02 1.29787671738372e+01 3.95352606735473e-02
2.47347457627119e-02 1.29029891590403e+01 4.01689862713932e-02
2.57872881355932e-02 1.28276535830260e+01 4.07758264130388e-02
2.68398305084746e-02 1.27527578623085e+01 4.13572762302894e-02
2.78923728813559e-02 1.26782994287479e+01 4.19146944448648e-02
2.89449152542373e-02 1.26042757291956e+01 4.24493208684808e-02
2.99974576271186e-02 1.25306842256272e+01 4.29622910859531e-02
3.10500000000000e-02 1.24575223944014e+01 4.34546487673238e-02
3.21025423728814e-02 1.23847877268302e+01 4.39273561283523e-02
3.31550847457627e-02 1.23124777288727e+01 4.43813029766755e-02
3.42076271186441e-02 1.22405899212347e+01 4.48173144897708e-02
3.52601694915254e-02 1.21691218387248e+01 4.52361578514111e-02
3.63127118644068e-02 1.20980710307316e+01 4.56385480092843e-02
3.73652542372881e-02 1.20274350609531e+01 4.60251527905707e-02
3.84177966101695e-02 1.19572115074721e+01 4.63965973821402e-02
3.94703389830508e-02 1.18873979621877e+01 4.67534681901334e-02
4.05228813559322e-02 1.18179920312216e+01 4.70963162221944e-02
4.15754237288136e-02 1.17489913348176e+01 4.74256602701105e-02
4.26279661016949e-02 1.16803935068228e+01 4.77419895619052e-02
4.36805084745763e-02 1.16121961950456e+01 4.80457661422517e-02
4.47330508474576e-02 1.15443970610279e+01 4.83374270821364e-02
4.57855932203390e-02 1.14769937800933e+01 4.86173864591957e-02
4.68381355932203e-02 1.14099840408799e+01 4.88860370677991e-02
4.78906779661017e-02 1.13433655456504e+01 4.91437519572066e-02
4.89432203389830e-02 1.12771360100838e+01 4.93908858976754e-02
4.99957627118644e-02 1.12112931633109e+01 4.96277767071384e-02
5.10483050847458e-02 1.11458347474899e+01 4.98547463888364e-02
5.21008474576271e-02 1.10807585180775e+01 5.00721021465265e-02
5.31533898305085e-02 1.10160622437414e+01 5.02801374644915e-02
5.42059322033898e-02 1.09517437059648e+01 5.04791329461570e-02
5.52584745762712e-02 1.08878006992909e+01 5.06693570954898e-02
5.63110169491525e-02 1.08242310311393e+01 5.08510671008987e-02
5.73635593220339e-02 1.07610325218270e+01 5.10245095536942e-02
5.84161016949152e-02 1.06982030042050e+01 5.11899210492067e-02
5.94686440677966e-02 1.06357403238739e+01 5.13475287381619e-02
6.05211864406780e-02 1.05736423390133e+01 5.14975508993770e-02
6.15737288135593e-02 1.05119069203949e+01 5.16401974675040e-02
6.26262711864407e-02 1.04505319510472e+01 5.17756704646533e-02
6.36788135593220e-02 1.03895153264464e+01 5.19041643838539e-02
6.47313559322034e-02 1.03288549544374e+01 5.20258666760480e-02
6.57838983050847e-02 1.02685487549178e+01 5.21409580761125e-02
6.68364406779661e-02 1.02085946600118e+01 5.22496129183820e-02
6.78889830508475e-02 1.01489906139170e+01 5.23519994881203e-02
6.89415254237288e-02 1.00897345729084e+01 5.24482803477659e-02
6.99940677966102e-02 1.00308245050443e+01 5.25386125899986e-02
7.10466101694915e-02 9.97225839032127e+00 5.26231480723787e-02
7.20991525423729e-02 9.91403422053042e+00 5.27020336916181e-02
7.31516949152542e-02 9.85614999925627e+00 5.27754116389321e-02
7.42042372881356e-02 9.79860374160197e+00 5.28434195902886e-02
7.52567796610169e-02 9.74139347432869e+00 5.29061908708853e-02
7.63093220338983e-02 9.68451723578300e+00 5.29638547227588e-02
7.73618644067797e-02 9.62797307563568e+00 5.30165364466076e-02
7.84144067796610e-02 9.57175905500965e+00 5.30643575460807e-02
7.94669491525424e-02 9.51587324634799e+00 5.31074359134345e-02
8.05194915254237e-02 9.46031373340772e+00 5.31458860030669e-02
8.15720338983051e-02 9.40507861101436e+00 5.31798189503055e-02
8.26245762711864e-02 9.35016598517706e+00 5.32093426820448e-02
8.36771186440678e-02 9.29557397296330e+00 5.32345620688460e-02
8.47296610169491e-02 9.24130070248960e+00 5.32555790672743e-02
8.57822033898305e-02 9.18734431269047e+00 5.32724928116079e-02
8.68347457627119e-02 9.13370295342219e+00 5.32853996885322e-02
8.78872881355932e-02 9.08037478539563e+00 5.32943935066844e-02
8.89398305084746e-02 9.02735797995565e+00 5.32995655611569e-02
8.99923728813559e-02 8.97465071917668e+00 5.33010047043419e-02
9.10449152542373e-02 8.92225119574713e+00 5.32987974567531e-02
9.20974576271186e-02 8.87015761295646e+00 5.32930281109066e-02
9.31500000000000e-02 8.81836818448648e+00 5.32837787905612e-02
9.42025423728814e-02 8.76688113449778e+00 5.32711295058337e-02
9.52550847457627e-02 8.71569469751939e+00 5.32551582474024e-02
9.63076271186441e-02 8.66480711843382e+00 5.32359410748410e-02
9.73601694915254e-02 8.61421665227947e+00 5.32135521628640e-02
9.84127118644068e-02 8.56392156432882e+00 5.31880638443019e-02
9.94652542372881e-02 8.51392012998282e+00 5.31595466910735e-02
1.00517796610169e-01 8.46421063475437e+00 5.31280696087973e-02
1.01570338983051e-01 8.41479137399663e+00 5.30936997798067e-02
1.02622881355932e-01 8.36566065339275e+00 5.30565028998519e-02
1.03675423728814e-01 8.31681678785789e+00 5.30165430202427e-02
1.04727966101695e-01 8.26825810296391e+00 5.29738826386482e-02
1.05780508474576e-01 8.21998293364459e+00 5.29285830749411e-02
1.06833050847458e-01 8.17198962417228e+00 5.28807039707789e-02
1.07885593220339e-01 8.12427652926408e+00 5.28303036055783e-02
1.08938135593220e-01 8.07684201284892e+00 5.27774391992971e-02
1.09990677966102e-01 8.02968444804392e+00 5.27221664258602e-02
1.11043220338983e-01 7.98280221820439e+00 5.26645397977449e-02
1.12095762711864e-01 7.93619371539391e+00 5.26046126222764e-02
1.13148305084746e-01 7.88985734178574e+00 5.25424369452106e-02
1.14200847457627e-01 7.84379150851711e+00 5.24780639216806e-02
1.15253389830508e-01 7.79799463566290e+00 5.24115433482460e-02
1.16305932203390e-01 7.75246515321008e+00 5.23429239447028e-02
1.17358474576271e-01 7.70720149996389e+00 5.22722536248629e-02
1.18411016949153e-01 7.66220212352180e+00 5.21995790419588e-02
1.19463559322034e-01 7.61746548120053e+00 5.21249459352537e-02
1.20516101694915e-01 7.57299003867599e+00 5.20483990833005e-02
1.21568644067797e-01 7.52877427122244e+00 5.19699822456492e-02
1.22621186440678e-01 7.48481666269290e+00 5.18897384984396e-02
1.23673728813559e-01 7.44111570549078e+00 5.18077097979354e-02
1.24726271186441e-01 7.39766990143300e+00 5.17239372344253e-02
1.25778813559322e-01 7.35447776077419e+00 5.16384612767374e-02
1.26831355932203e-01 7.31153780217919e+00 5.15513213483435e-02
1.27883898305085e-01 7.26884855354555e+00 5.14625560715636e-02
1.28936440677966e-01 7.22640855107061e+00 5.13722035029121e-02
1.29988983050847e-01 7.18421633922233e+00 5.12803007213931e-02
1.31041525423729e-01 7.14227047152527e+00 5.11868841315040e-02
1.32094067796610e-01 7.10056950939749e+00 5.10919894162016e-02
1.33146610169492e-01 7.05911202320222e+00 5.09956514796314e-02
1.34199152542373e-01 7.01789659137356e+00 5.08979047416765e-02
1.35251694915254e-01 6.97692180038777e+00 5.07987827429875e-02
1.36304237288136e-01 6.93618624549650e+00 5.06983183672050e-02
1.37356779661017e-01 6.89568852988907e+00 5.05965440555357e-02
1.38409322033898e-01 6.85542726466288e+00 5.04934914231031e-02
1.39461864406780e-01 6.81540106952495e+00 5.03891915362987e-02
1.40514406779661e-01 6.77560857174644e+00 5.02836748665631e-02
1.41566949152542e-01 6.73604840710288e+00 5.01769712347003e-02
1.42619491525424e-01 6.69671921908743e+00 5.00691100810572e-02
1.43672033898305e-01 6.65761965888164e+00 4.99601200975626e-02
1.44724576271186e-01 6.61874838601147e+00 4.98500294310130e-02
1.45777118644068e-01 6.58010406759226e+00 4.97388658796887e-02
1.46829661016949e-01 6.54168537829898e+00 4.96266565358504e-02
1.47882203389830e-01 6.50349100099473e+00 4.95134280406484e-02
1.48934745762712e-01 6.46551962578757e+00 4.93992065393346e-02
1.49987288135593e-01 6.42776995087412e+00 4.92840176277206e-02
1.51039830508475e-01 6.39024068182907e+00 4.91678866009322e-02
1.52092372881356e-01 6.35293053157573e+00 4.90508381104965e-02
1.53144915254237e-01 6.31583822097510e+00 4.89328963510886e-02
1.54197457627119e-01 6.27896247814284e+00 4.88140852414147e-02
1.55250000000000e-01 6.24230203841978e+00 4.86944280909546e-02
1.56302542372881e-01 6.20585564493677e+00 4.85739478350109e-02
1.57355084745763e-01 6.16962204776105e+00 4.84526669917122e-02
1.58407627118644e-01 6.13360000465554e+00 4.83306076108913e-02
1.59460169491525e-01 6.09778828043523e+00 4.82077915038046e-02
1.60512711864407e-01 6.06218564693774e+00 4.80842399234029e-02
1.61565254237288e-01 6.02679088355385e+00 4.79599737364675e-02
1.62617796610169e-01 5.99160277660784e+00 4.78350135905616e-02
1.63670338983051e-01 5.95662011932827e+00 4.77093796031810e-02
1.64722881355932e-01 5.92184171235726e+00 4.75830915791017e-02
1.65775423728814e-01 5.88726636297553e+00 4.74561689693712e-02
1.66827966101695e-01 5.85289288578786e+00 4.73286308226930e-02
1.67880508474576e-01 5.81872010213831e+00 4.72004959980928e-02
1.68933050847458e-01 5.78474684008107e+00 4.70717828666536e-02
1.69985593220339e-01 5.75097193485957e+00 4.69425094706094e-02
1.71038135593220e-01 5.71739422834269e+00 4.68126936778191e-02
1.72090677966102e-01 5.68401256899611e+00 4.66823528916900e-02
1.73143220338983e-01 5.65082581234256e+00 4.65515042525969e-02
1.74195762711864e-01 5.61783282025647e+00 4.64201645988898e-02
1.75248305084746e-01 5.58503246158447e+00 4.62883504208511e-02
1.76300847457627e-01 5.55242361161255e+00 4.61560780579883e-02
1.77353389830508e-01 5.52000515203744e+00 4.60233634205720e-02
1.78405932203390e-01 5.48777597140034e+00 4.58902221370374e-02
1.79458474576271e-01 5.45573496457270e+00 4.57566696972533e-02
1.80511016949153e-01 5.42388103272819e+00 4.56227211816109e-02
1.81563559322034e-01 5.39221308375965e+00 4.54883914480441e-02
1.82616101694915e-01 5.36073003163562e+00 4.53536950950921e-02
1.83668644067797e-01 5.32943079696326e+00 4.52186464183491e-02
1.84721186440678e-01 5.29831430650179e+00 4.50832595938384e-02
1.85773728813559e-01 5.26737949313449e+00 4.49475484178775e-02
1.86826271186441e-01 5.23662529626214e+00 4.48115264438882e-02
1.87878813559322e-01 5.20605066133307e+00 4.46752071155249e-02
1.88931355932203e-01 5.17565453981574e+00 4.45386035135041e-02
1.89983898305085e-01 5.14543588957733e+00 4.44017284885338e-02
1.91036440677966e-01 5.11539367443008e+00 4.42645947907017e-02
1.92088983050847e-01 5.08552686410372e+00 4.41272148230389e-02
1.93141525423729e-01 5.05583443461041e+00 4.39896008104315e-02
1.94194067796610e-01 5.02631536767648e+00 4.38517647655882e-02
1.95246610169492e-01 4.99696865123560e+00 4.37137184489810e-02
1.96299152542373e-01 4.96779327899827e+00 4.35754735346557e-02
1.97351694915254e-01 4.93878825042515e+00 4.34370413734730e-02
1.98404237288136e-01 4.90995257107150e+00 4.32984331167953e-02
1.99456779661017e-01 4.88128525217125e+00 4.31596598369640e-02
2.00509322033898e-01 4.85278531061034e+00 4.30207322967824e-02
2.01561864406780e-01 4.82445176925887e+00 4.28816611069283e-02
2.02614406779661e-01 4.79628365645016e+00 4.27424566938160e-02
2.03666949152542e-01 4.76828000643037e+00 4.26031292618124e-02
2.04719491525424e-01 4.74043985896344e+00 4.24636889478707e-02
2.05772033898305e-01 4.71276225930512e+00 4.23241455999849e-02
2.06824576271186e-01 4.68524625851697e+00 4.21845088924193e-02
2.07877118644068e-01 4.65789091308435e+00 4.20447884380692e-02
2.08929661016949e-01 4.63069528489060e+00 4.19049935726629e-02
2.09982203389830e-01 4.60365844151993e+00 4.17651335016525e-02
2.11034745762712e-01 4.57677945577906e+00 4.16252172698874e-02
2.12087288135593e-01 4.55005740610773e+00 4.14852537259884e-02
2.13139830508475e-01 4.52349137621563e+00 4.13452516667380e-02
2.14192372881356e-01 4.49708045505721e+00 4.12052196296199e-02
2.15244915254237e-01 4.47082373711829e+00 4.10651660003242e-02
2.16297457627119e-01 4.44472032206471e+00 4.09250991176378e-02
2.17350000000000e-01 4.41876931471729e+00 4.07850270713229e-02
2.18402542372881e-01 4.39296982532859e+00 4.06449578393173e-02
2.19455084745763e-01 4.36732096914280e+00 4.05048992591416e-02
2.20507627118644e-01 4.34182186677126e+00 4.03648589943263e-02
2.21560169491525e-01 4.31647164385821e+00 4.02248446693571e-02
2.22612711864407e-01 4.29126943105638e+00 4.00848636753062e-02
2.23665254237288e-01 4.26621436428904e+00 3.99449232702233e-02
2.24717796610169e-01 4.24130558442630e+00 3.98050306771660e-02
2.25770338983051e-01 4.21654223726095e+00 3.96651928947632e-02
2.26822881355932e-01 4.19192347376163e+00 3.95254168255026e-02
2.27875423728814e-01 4.16744844966735e+00 3.93857092487776e-02
2.28927966101695e-01 4.14311632583155e+00 3.92460767892523e-02
2.29980508474576e-01 4.11892626791383e+00 3.91065260430940e-02
2.31033050847458e-01 4.09487744635640e+00 3.89670633957603e-02
2.32085593220339e-01 4.07096903662404e+00 3.88276951158513e-02
2.33138135593220e-01 4.04720021890539e+00 3.86884274468016e-02
2.34190677966102e-01 4.02357017808969e+00 3.85492664292476e-02
2.35243220338983e-01 4.00007810399867e+00 3.84102180210718e-02
2.36295762711864e-01 3.97672319101251e+00 3.82712880719968e-02
2.37348305084746e-01 3.95350463838542e+00 3.81324822937858e-02
2.38400847457627e-01 3.93042164996107e+00 3.79938063784322e-02
2.39453389830508e-01 3.90747343414977e+00 3.78552658272383e-02
2.40505932203390e-01 3.88465920414855e+00 3.77168660386293e-02
2.41558474576271e-01 3.86197817766514e+00 3.75786123939950e-02
2.42611016949153e-01 3.83942957689561e+00 3.74405100910247e-02
2.43663559322034e-01 3.81701262873700e+00 3.73025642561471e-02
2.44716101694915e-01 3.79472656444189e+00 3.71647799205684e-02
2.45768644067797e-01 3.77257061990817e+00 3.70271619922108e-02
2.46821186440678e-01 3.75054403541606e+00 3.68897153664447e-02
2.47873728813559e-01 3.72864605560601e+00 3.67524447656788e-02
2.48926271186441e-01 3.70687592968081e+00 3.66153548215988e-02
2.49978813559322e-01 3.68523291115018e+00 3.64784501555835e-02
2.51031355932203e-01 3.66371625780934e+00 3.63417352222627e-02
2.52083898305085e-01 3.64232523193419e+00 3.62052143896813e-02
2.53136440677966e-01 3.62105910003378e+00 3.60688920177195e-02
2.54188983050847e-01 3.59991713282884e+00 3.59327723054888e-02
2.55241525423729e-01 3.57889860544085e+00 3.57968593939905e-02
2.56294067796610e-01 3.55800279708206e+00 3.56611573441185e-02
2.57346610169492e-01 3.53722899131344e+00 3.55256701108823e-02
2.58399152542373e-01 3.51657647580826e+00 3.53904016445745e-02
2.59451694915254e-01 3.49604454233136e+00 3.52553557438339e-02
2.60504237288136e-01 3.47563248691867e+00 3.51205361307918e-02
2.61556779661017e-01 3.45533960964781e+00 3.49859465246222e-02
2.62609322033898e-01 3.43516521461754e+00 3.48515904981853e-02
2.63661864406780e-01 3.41510861012155e+00 3.47174715743315e-02
2.64714406779661e-01 3.39516910836143e+00 3.45835932051723e-02
2.65766949152542e-01 3.37534602568418e+00 3.44499587477800e-02
2.66819491525424e-01 3.35563868236308e+00 3.43165715591334e-02
2.67872033898305e-01 3.33604640257774e+00 3.41834348580527e-02
2.68924576271186e-01 3.31656851457930e+00 3.40505517956920e-02
2.69977118644068e-01 3.29720435047768e+00 3.39179255245516e-02
2.71029661016949e-01 3.27795324622185e+00 3.37855590637498e-02
2.72082203389830e-01 3.25881454175984e+00 3.36534553894375e-02
2.73134745762712e-01 3.23978758077255e+00 3.35216174152399e-02
2.74187288135593e-01 3.22087171089277e+00 3.33900479693528e-02
2.75239830508475e-01 3.20206628350186e+00 3.32587498837028e-02
2.76292372881356e-01 3.18337065371047e+00 3.31277258641614e-02
2.77344915254237e-01 3.16478418051084e+00 3.29969785567005e-02
2.78397457627119e-01 3.14630622657922e+00 3.28665106122025e-02
2.79450000000000e-01 3.12793615825693e+00 3.27363245597818e-02
2.80502542372881e-01 3.10967334569786e+00 3.26064228916973e-02
2.81555084745763e-01 3.09151716262138e+00 3.24768080449129e-02
2.82607627118644e-01 3.07346698651446e+00 3.23474823795143e-02
2.83660169491525e-01 3.05552219844282e+00 3.22184482624704e-02
2.84712711864407e-01 3.03768218303243e+00 3.20897079455690e-02
2.85765254237288e-01 3.01994632860990e+00 3.19612636275594e-02
2.86817796610169e-01 3.00231402701895e+00 3.18331175150287e-02
2.87870338983051e-01 2.98478467360216e+00 3.17052717032510e-02
2.88922881355932e-01 2.96735766733705e+00 3.15777282559781e-02
2.89975423728814e-01 2.95003241060656e+00 3.14504891880510e-02
2.91027966101695e-01 2.93280830938573e+00 3.13235564450486e-02
2.92080508474576e-01 2.91568477306613e+00 3.11969319820199e-02
2.93133050847458e-01 2.89866121443810e+00 3.10706176486492e-02
2.94185593220339e-01 2.88173704982028e+00 3.09446152476340e-02
2.95238135593220e-01 2.86491169888897e+00 3.08189265919147e-02
2.96290677966102e-01 2.84818458466063e+00 3.06935533925561e-02
2.97343220338983e-01 2.83155513361742e+00 3.05684973337600e-02
2.98395762711864e-01 2.81502277549391e+00 3.04437600564649e-02
2.99448305084746e-01 2.79858694344959e+00 3.03193431391506e-02
3.00500847457627e-01 2.78224707390551e+00 3.01952481718776e-02
3.01553389830508e-01 2.76600260652728e+00 3.00714766482130e-02
3.02605932203390e-01 2.74985298434468e+00 2.99480300201070e-02
3.03658474576271e-01 2.73379765359281e+00 2.98249097517086e-02
3.04711016949153e-01 2.71783606369531e+00 2.97021172138280e-02
3.05763559322034e-01 2.70196766738042e+00 2.95796537544854e-02
3.06816101694915e-01 2.68619192048241e+00 2.94575206834452e-02
3.07868644067797e-01 2.67050828210124e+00 2.93357192541086e-02
3.08921186440678e-01 2.65491621445046e+00 2.92142507331684e-02
3.09973728813559e-01 2.63941518284083e+00 2.90931162988595e-02
3.11026271186441e-01 2.62400465579096e+00 2.89723170925656e-02
3.12078813559322e-01 2.60868410487924e+00 2.88518542694470e-02
3.13131355932203e-01 2.59345300472790e+00 2.87317288990647e-02
3.14183898305085e-01 2.57831083311015e+00 2.86119420157809e-02
3.15236440677966e-01 2.56325707080625e+00 2.84924946681973e-02
3.16288983050847e-01 2.54829120158766e+00 2.83733878220939e-02
3.17341525423729e-01 2.53341271232107e+00 2.82546224252152e-02
3.18394067796610e-01 2.51862109278864e+00 2.81361993930302e-02
3.19446610169491e-01 2.50391583583138e+00 2.80181195920620e-02
3.20499152542373e-01 2.48929643721118e+00 2.79003839038735e-02
3.21551694915254e-01 2.47476239559548e+00 2.77829931314609e-02
3.22604237288136e-01 2.46031321265639e+00 2.76659480466781e-02
3.23656779661017e-01 2.44594839293653e+00 2.75492494367799e-02
3.24709322033898e-01 2.43166744383380e+00 2.74328980129730e-02
3.25761864406780e-01 2.41746987569768e+00 2.73168944714183e-02
3.26814406779661e-01 2.40335520166170e+00 2.72012394797866e-02
3.27866949152542e-01 2.38932293777622e+00 2.70859336615254e-02
3.28919491525424e-01 2.37537260287989e+00 2.69709776561187e-02
3.29972033898305e-01 2.36150371858476e+00 2.68563720308766e-02
3.31024576271186e-01 2.34771580936826e+00 2.67421173255860e-02
3.32077118644068e-01 2.33400840244783e+00 2.66282140963401e-02
