Energy (eV)          EEDF (eV^-(3/2))     First Anisotropy
2.75581395348837e-02 6.24706426826876e-02 3.56917835050636e-05
8.26744186046512e-02 6.19711403699942e-02 5.88996631826135e-05
1.37790697674419e-01 6.14756319753235e-02 7.76546426805350e-05
1.92906976744186e-01 6.09840855631591e-02 9.18424799520830e-05
2.48023255813953e-01 6.04964694542707e-02 1.03625375618238e-04
3.03139534883721e-01 6.00127522227518e-02 1.13822177547719e-04
3.58255813953488e-01 5.95329026939790e-02 1.22857303443449e-04
4.13372093023256e-01 5.90568899425980e-02 1.30987437793469e-04
4.68488372093023e-01 5.85846832894675e-02 1.38383074411268e-04
5.23604651162791e-01 5.81162523030116e-02 1.45164894651528e-04
5.78720930232558e-01 5.76515667937506e-02 1.51422365704286e-04
6.33837209302326e-01 5.71905968136029e-02 1.57224196393107e-04
6.88953488372093e-01 5.67333126539517e-02 1.62624645019823e-04
7.44069767441860e-01 5.62796848437279e-02 1.67667538077691e-04
7.99186046511628e-01 5.58296841475099e-02 1.72388944788305e-04
8.54302325581395e-01 5.53832815636358e-02 1.76819021845027e-04
9.09418604651163e-01 5.49404483223386e-02 1.80983324391103e-04
9.64534883720930e-01 5.45011558838907e-02 1.84903761600555e-04
1.01965116279070e+00 5.40653759367629e-02 1.88599308481414e-04
1.07476744186047e+00 5.36330803965878e-02 1.92086546682004e-04
1.12988372093023e+00 5.32042414015627e-02 1.95380081505259e-04
1.18500000000000e+00 5.27788313139110e-02 1.98492868672980e-04
1.24011627906977e+00 5.23568227168250e-02 2.01436474230394e-04
1.29523255813953e+00 5.19381884127149e-02 2.04221282913170e-04
1.35034883720930e+00 5.15229014214646e-02 2.06856667449168e-04
1.40546511627907e+00 5.11109349786814e-02 2.09351127363575e-04
1.46058139534884e+00 5.07022625339719e-02 2.11712403439736e-04
1.51569767441860e+00 5.02968577519385e-02 2.13947574525089e-04
1.57081395348837e+00 4.98946945022344e-02 2.16063137248841e-04
1.62593023255814e+00 4.94957468662621e-02 2.18065073344913e-04
1.68104651162791e+00 4.90999891326613e-02 2.19958908669590e-04
1.73616279069767e+00 4.87073957956526e-02 2.21749762439689e-04
1.79127906976744e+00 4.83179415533937e-02 2.23442389948566e-04
1.84639534883721e+00 4.79316013063424e-02 2.25041219535252e-04
1.90151162790698e+00 4.75483501556513e-02 2.26550384737103e-04
1.95662790697674e+00 4.71681634015600e-02 2.27973752381424e-04
2.01174418604651e+00 4.67910165418011e-02 2.29314947228563e-04
2.06686046511628e+00 4.64168852700212e-02 2.30577373407078e-04
2.12197674418605e+00 4.60457454759758e-02 2.31764234425652e-04
2.17709302325581e+00 4.56775732386244e-02 2.32878549649687e-04
2.23220930232558e+00 4.53123448300100e-02 2.33923168906010e-04
2.28732558139535e+00 4.49500367118987e-02 2.34900786863011e-04
2.34244186046512e+00 4.45906255342626e-02 2.35813954876832e-04
2.39755813953488e+00 4.42340881337751e-02 2.36665091888609e-04
2.45267441860465e+00 4.38804015323136e-02 2.37456494238945e-04
2.50779069767442e+00 4.35295429354881e-02 2.38190344533830e-04
2.56290697674419e+00 4.31814897311676e-02 2.38868719673827e-04
2.61802325581395e+00 4.28362194880221e-02 2.39493598139031e-04
2.67313953488372e+00 4.24937099540776e-02 2.40066866398028e-04
2.72825581395349e+00 4.21539390565327e-02 2.40590325610803e-04
2.78337209302326e+00 4.18168848965418e-02 2.41065696704228e-04
2.83848837209302e+00 4.14825257516411e-02 2.41494624976573e-04
2.89360465116279e+00 4.11508400730548e-02 2.41878685407990e-04
2.94872093023256e+00 4.08218064843061e-02 2.42219386690449e-04
3.00383720930233e+00 4.04954037798392e-02 2.42518175146342e-04
3.05895348837209e+00 4.01716109236519e-02 2.42776438340512e-04
3.11406976744186e+00 3.98504070479434e-02 2.42995508416891e-04
3.16918604651163e+00 3.95317714517672e-02 2.43176665185195e-04
3.22430232558140e+00 3.92156835996969e-02 2.43321138979201e-04
3.27941860465116e+00 3.89021231205032e-02 2.43430113127936e-04
3.33453488372093e+00 3.85910698067758e-02 2.43504726966218e-04
3.38965116279070e+00 3.82825036107870e-02 2.43546077759834e-04
3.44476744186046e+00 3.79764046460631e-02 2.43555222470133e-04
3.49988372093023e+00 3.76727531851385e-02 2.43533180305154e-04
3.55500000000000e+00 3.73715296582838e-02 2.43480934391638e-04
3.61011627906977e+00 3.70727146522442e-02 2.43399433513679e-04
3.66523255813953e+00 3.67762889089891e-02 2.43289593740063e-04
3.72034883720930e+00 3.64822333244719e-02 2.43152299949941e-04
3.77546511627907e+00 3.61905289473979e-02 2.42988407263957e-04
3.83058139534884e+00 3.59011569780028e-02 2.42798742233624e-04
3.88569767441860e+00 3.56140987675797e-02 2.42584104570651e-04
3.94081395348837e+00 3.53293358150409e-02 2.42345268023106e-04
3.99593023255814e+00 3.50468497679831e-02 2.42082981179121e-04
4.05104651162791e+00 3.47666224207449e-02 2.41797968999514e-04
4.10616279069767e+00 3.44886357132336e-02 2.41490933653828e-04
4.16127906976744e+00 3.42128717297610e-02 2.41162555461445e-04
4.21639534883721e+00 3.39393126978880e-02 2.40813493780644e-04
4.27151162790698e+00 3.36679409872808e-02 2.40444387849888e-04
4.32662790697674e+00 3.33987391085744e-02 2.40055857584980e-04
4.38174418604651e+00 3.31316897122450e-02 2.39648504333993e-04
4.43686046511628e+00 3.28667755874918e-02 2.39222911461831e-04
4.49197674418605e+00 3.26039796617125e-02 2.38779645426396e-04
4.54709302325581e+00 3.23432849976338e-02 2.38319256157938e-04
4.60220930232558e+00 3.20846747940050e-02 2.37842277403348e-04
4.65732558139535e+00 3.18281323839143e-02 2.37349227715339e-04
4.71244186046512e+00 3.15736412337154e-02 2.36840610871337e-04
4.76755813953488e+00 3.13211849419612e-02 2.36316916402396e-04
4.82267441860465e+00 3.10707472383463e-02 2.35778620096549e-04
4.87779069767442e+00 3.08223119826603e-02 2.35226184479216e-04
4.93290697674419e+00 3.05758631637463e-02 2.34660059271962e-04
4.98802325581395e+00 3.03313848984693e-02 2.34080681829890e-04
5.04313953488372e+00 3.00888614306924e-02 2.33488477446764e-04
5.09825581395349e+00 2.98482771307330e-02 2.32883860095325e-04
5.15337209302326e+00 2.96096164929291e-02 2.32267232580991e-04
5.20848837209302e+00 2.93728641360786e-02 2.31638986676188e-04
5.26360465116279e+00 2.91380048019640e-02 2.30999503818991e-04
5.31872093023256e+00 2.89050233543693e-02 2.30349155331401e-04
5.37383720930233e+00 2.86739047781046e-02 2.29688302740623e-04
5.42895348837209e+00 2.84446341780377e-02 2.29017298086828e-04
5.48406976744186e+00 2.82171967781354e-02 2.28336484218725e-04
5.53918604651163e+00 2.79915779205104e-02 2.27646195077310e-04
5.59430232558139e+00 2.77677630644769e-02 2.26946755967974e-04
5.64941860465116e+00 2.75457377856133e-02 2.26238483724397e-04
5.70453488372093e+00 2.73254877752182e-02 2.25521687254766e-04
5.75965116279070e+00 2.71069988382222e-02 2.24796667585798e-04
5.81476744186046e+00 2.68902568934488e-02 2.24063717895095e-04
5.86988372093023e+00 2.66752479723115e-02 2.23323124036409e-04
5.92500000000000e+00 2.64619582179135e-02 2.22575164653737e-04
5.98011627906977e+00 2.62503738841548e-02 2.21820111388574e-04
6.03523255813953e+00 2.60404813348465e-02 2.21058229079480e-04
6.09034883720930e+00 2.58322670428316e-02 2.20289775954695e-04
6.14546511627907e+00 2.56257175891139e-02 2.19515003817731e-04
6.20058139534884e+00 2.54208196619923e-02 2.18734158140294e-04
6.25569767441860e+00 2.52175600565273e-02 2.17947478494489e-04
6.31081395348837e+00 2.50159256727107e-02 2.17155198545568e-04
6.36593023255814e+00 2.48159035156078e-02 2.16357546036691e-04
6.42104651162791e+00 2.46174806941890e-02 2.15554743209726e-04
6.47616279069767e+00 2.44206444204987e-02 2.14747006866293e-04
6.53127906976744e+00 2.42253820088310e-02 2.13934548512896e-04
6.58639534883721e+00 2.40316808749118e-02 2.13117574500998e-04
6.64151162790698e+00 2.38395285350888e-02 2.12296286162548e-04
6.69662790697674e+00 2.36489126055262e-02 2.11470879941312e-04
6.75174418604651e+00 2.34598208014069e-02 2.10641547519741e-04
6.80686046511628e+00 2.32722409361404e-02 2.09808475866620e-04
6.86197674418605e+00 2.30861609208481e-02 2.08971847582803e-04
6.91709302325581e+00 2.29015687627670e-02 2.08131840864440e-04
6.97220930232558e+00 2.27184525652999e-02 2.07288629460574e-04
7.02732558139535e+00 2.25368005269725e-02 2.06442383013216e-04
7.08244186046512e+00 2.23566009406724e-02 2.05593267084245e-04
7.13755813953488e+00 2.21778421928951e-02 2.04741443257029e-04
7.19267441860465e+00 2.20005127629948e-02 2.03887069234717e-04
7.24779069767442e+00 2.18246012224427e-02 2.03030298935728e-04
7.30290697674419e+00 2.16500962340901e-02 2.02171282586597e-04
7.35802325581395e+00 2.14769865514378e-02 2.01310166811761e-04
7.41313953488372e+00 2.13052610179113e-02 2.00447094654862e-04
7.46825581395349e+00 2.11349085663689e-02 1.99582205862522e-04
7.52337209302326e+00 2.09659182177018e-02 1.98715636833311e-04
7.57848837209302e+00 2.07982790808182e-02 1.97847520562555e-04
7.63360465116279e+00 2.06319803517095e-02 1.96977986923491e-04
7.68872093023256e+00 2.04670113127535e-02 1.96107162674411e-04
7.74383720930232e+00 2.03033613320239e-02 1.95235171531973e-04
7.79895348837209e+00 2.01410198626048e-02 1.94362134242361e-04
7.85406976744186e+00 1.99799764419117e-02 1.93488168650575e-04
7.90918604651163e+00 1.98202206910164e-02 1.92613389767897e-04
7.96430232558139e+00 1.96617423139788e-02 1.91737909837339e-04
8.01941860465116e+00 1.95045310971827e-02 1.90861838339327e-04
8.07453488372093e+00 1.93485769088703e-02 1.89985282228980e-04
8.12965116279070e+00 1.91938696979080e-02 1.89108345879115e-04
8.18476744186047e+00 1.90403994937236e-02 1.88231131020072e-04
8.23988372093023e+00 1.88881564054680e-02 1.87353736976082e-04
8.29500000000000e+00 1.87371306213770e-02 1.86476260660881e-04
8.35011627906977e+00 1.85873124081391e-02 1.85598796631936e-04
8.40523255813953e+00 1.84386921102686e-02 1.84721437143205e-04
8.46034883720930e+00 1.82912601494828e-02 1.83844272196662e-04
8.51546511627907e+00 1.81450070240852e-02 1.82967389592459e-04
8.57058139534884e+00 1.79999233083527e-02 1.82090874925967e-04
8.62569767441860e+00 1.78559996520947e-02 1.81214811791742e-04
8.68081395348837e+00 1.77132267795480e-02 1.80339281725281e-04
8.73593023255814e+00 1.75715954892850e-02 1.79464364142172e-04
8.79104651162791e+00 1.74310966534509e-02 1.78590136542084e-04
8.84616279069767e+00 1.72917212171751e-02 1.77716674498195e-04
8.90127906976744e+00 1.71534601979880e-02 1.76844051699192e-04
8.95639534883721e+00 1.70163046852419e-02 1.75972339990177e-04
9.01151162790698e+00 1.68802458395367e-02 1.75101609412596e-04
9.06662790697674e+00 1.67452748921504e-02 1.74231928243303e-04
9.12174418604651e+00 1.66113831444740e-02 1.73363363032575e-04
9.17686046511628e+00 1.64785619674505e-02 1.72495978595402e-04
9.23197674418605e+00 1.63468028011614e-02 1.71629838186094e-04
9.28709302325581e+00 1.62160971538453e-02 1.70765003441050e-04
9.34220930232558e+00 1.60864366017833e-02 1.69901534319400e-04
9.39732558139535e+00 1.59578127886106e-02 1.69039489278180e-04
9.45244186046512e+00 1.58302174247784e-02 1.68178925257868e-04
9.50755813953488e+00 1.57036422870191e-02 1.67319897714580e-04
9.56267441860465e+00 1.55780792178168e-02 1.66462460651421e-04
9.61779069767442e+00 1.54535201248813e-02 1.65606666649247e-04
9.67290697674419e+00 1.53299569806269e-02 1.64752566896720e-04
9.72802325581395e+00 1.52073818216545e-02 1.63900211219586e-04
9.78313953488372e+00 1.50857867482391e-02 1.63049648068678e-04
9.83825581395349e+00 1.49651639239419e-02 1.62200924670626e-04
9.89337209302326e+00 1.48455055747371e-02 1.61354086973103e-04
9.94848837209302e+00 1.47268039888821e-02 1.60509179588302e-04
1.00036046511628e+01 1.46090515162958e-02 1.59666245983585e-04
1.00587209302326e+01 1.44922405679495e-02 1.58825328424445e-04
1.01138372093023e+01 1.43763636154993e-02 1.57986467540623e-04
1.01689534883721e+01 1.42614131920389e-02 1.57149703580825e-04
1.02240697674419e+01 1.41473818881026e-02 1.56315075706925e-04
1.02791860465116e+01 1.40342623546076e-02 1.55482621196868e-04
1.03343023255814e+01 1.39220473012313e-02 1.54652376641462e-04
1.03894186046512e+01 1.38107294959435e-02 1.53824377211424e-04
1.04445348837209e+01 1.37003017655927e-02 1.52998657769815e-04
1.04996511627907e+01 1.35907569922656e-02 1.52175252164638e-04
1.05547674418605e+01 1.34820881160263e-02 1.51354192510092e-04
1.06098837209302e+01 1.33742881333876e-02 1.50535510319839e-04
1.06650000000000e+01 1.32673500968618e-02 1.49719235811043e-04
1.07201162790698e+01 1.31612671154969e-02 1.48905398958625e-04
1.07752325581395e+01 1.30560323514581e-02 1.48094028822889e-04
1.08303488372093e+01 1.29516390225804e-02 1.47285152866738e-04
1.08854651162791e+01 1.28480804009266e-02 1.46478798029500e-04
1.09405813953488e+01 1.27453498123560e-02 1.45674990065945e-04
1.09956976744186e+01 1.26434406370157e-02 1.44873754545547e-04
1.10508139534884e+01 1.25423463061271e-02 1.44075116213550e-04
1.11059302325581e+01 1.24420603043673e-02 1.43279098341925e-04
1.11610465116279e+01 1.23425761685082e-02 1.42485723747595e-04
1.12161627906977e+01 1.22438874870009e-02 1.41695014164535e-04
1.12712790697674e+01 1.21459879004273e-02 1.40906991190949e-04
1.13263953488372e+01 1.20488710984773e-02 1.40121675682263e-04
1.13815116279070e+01 1.19525308221712e-02 1.39339087134002e-04
1.14366279069767e+01 1.18569608625748e-02 1.38559244352102e-04
1.14917441860465e+01 1.17621550612206e-02 1.37782166040729e-04
1.15468604651163e+01 1.16681073072321e-02 1.37007870220543e-04
1.16019767441860e+01 1.15748115394239e-02 1.36236373637416e-04
1.16570930232558e+01 1.14822617450736e-02 1.35467692686797e-04
1.17122093023256e+01 1.13904519595362e-02 1.34701842840996e-04
1.17673255813953e+01 1.12993762666289e-02 1.33938839509738e-04
1.18224418604651e+01 1.12090287959243e-02 1.33178697486736e-04
1.18775581395349e+01 1.11194037247126e-02 1.32421430387746e-04
1.19326744186047e+01 1.10304952768402e-02 1.31667051527506e-04
1.19877906976744e+01 1.09422977223392e-02 1.30915573375336e-04
1.20429069767442e+01 1.08548053777806e-02 1.30167008372103e-04
1.20980232558140e+01 1.07680126037243e-02 1.29421368403807e-04
1.21531395348837e+01 1.06819138065532e-02 1.28678664267068e-04
1.22082558139535e+01 1.05965034373748e-02 1.27938906501690e-04
1.22633720930233e+01 1.05117759916653e-02 1.27202104873136e-04
1.23184883720930e+01 1.04277260095929e-02 1.26468269147926e-04
1.23736046511628e+01 1.03443480736156e-02 1.25737408593119e-04
1.24287209302326e+01 1.02616368101950e-02 1.25009531467741e-04
1.24838372093023e+01 1.01795868887586e-02 1.24284645570664e-04
1.25389534883721e+01 1.00981930220019e-02 1.23562758721720e-04
1.25940697674419e+01 1.00174499635982e-02 1.22843878281859e-04
1.26491860465116e+01 9.93735250982212e-03 1.22128010665287e-04
1.27043023255814e+01 9.85789549855565e-03 1.21415162097271e-04
1.27594186046512e+01 9.77907380895610e-03 1.20705338141425e-04
1.28145348837209e+01 9.70088236173322e-03 1.19998544405506e-04
1.28696511627907e+01 9.62331611698906e-03 1.19294786084697e-04
1.29247674418605e+01 9.54637007573728e-03 1.18594067497613e-04
1.29798837209302e+01 9.47003927896164e-03 1.17896392805987e-04
1.30350000000000e+01 9.39431880729771e-03 1.17201765565030e-04
1.30901162790698e+01 9.31920378128630e-03 1.16510189394230e-04
1.31452325581395e+01 9.24468935933516e-03 1.15821667542555e-04
1.32003488372093e+01 9.17077073914150e-03 1.15136202446955e-04
1.32554651162791e+01 9.09744315680015e-03 1.14453796416186e-04
1.33105813953488e+01 9.02470188649773e-03 1.13774451203085e-04
1.33656976744186e+01 8.95254224074474e-03 1.13098168642040e-04
1.34208139534884e+01 8.88095956845140e-03 1.12424950235184e-04
1.34759302325581e+01 8.80994925625996e-03 1.11754796732084e-04
1.35310465116279e+01 8.73950672769989e-03 1.11087708779819e-04
1.35861627906977e+01 8.66962744289354e-03 1.10423686515969e-04
1.36412790697674e+01 8.60030689876901e-03 1.09762730174449e-04
1.36963953488372e+01 8.53154062724282e-03 1.09104839691747e-04
1.37515116279070e+01 8.46332419646830e-03 1.08450014306669e-04
1.38066279069767e+01 8.39565321003498e-03 1.07798252987983e-04
1.38617441860465e+01 8.32852330716697e-03 1.07149554810533e-04
1.39168604651163e+01 8.26193016098786e-03 1.06503918577248e-04
1.39719767441860e+01 8.19586947970481e-03 1.05861342435015e-04
1.40270930232558e+01 8.13033700584077e-03 1.05221824467602e-04
1.40822093023256e+01 8.06532851596088e-03 1.04585362323328e-04
1.41373255813953e+01 8.00083982085380e-03 1.03951953767900e-04
1.41924418604651e+01 7.93686676389192e-03 1.03321596324366e-04
1.42475581395349e+01 7.87340522214175e-03 1.02694286907489e-04
1.43026744186047e+01 7.81045110563532e-03 1.02070022387489e-04
1.43577906976744e+01 7.74800035710773e-03 1.01448799235610e-04
1.44129069767442e+01 7.68604895216270e-03 1.00830614050094e-04
1.44680232558140e+01 7.62459289772236e-03 1.00215463213201e-04
1.45231395348837e+01 7.56362823306870e-03 9.96033425429338e-05
1.45782558139535e+01 7.50315102915252e-03 9.89942478294087e-05
1.46333720930233e+01 7.44315738834082e-03 9.83881744973976e-05
1.46884883720930e+01 7.38364344456841e-03 9.77851181065928e-05
1.47436046511628e+01 7.32460536187169e-03 9.71850740250434e-05
1.47987209302326e+01 7.26603933536588e-03 9.65880370973173e-05
1.48538372093023e+01 7.20794159058918e-03 9.59940019972713e-05
1.49089534883721e+01 7.15030838364415e-03 9.54029635385571e-05
1.49640697674419e+01 7.09313599979607e-03 9.48149163610581e-05
1.50191860465116e+01 7.03642075440084e-03 9.42298546121686e-05
1.50743023255814e+01 6.98015899227568e-03 9.36477724368039e-05
1.51294186046512e+01 6.92434708746403e-03 9.30686636683778e-05
1.51845348837209e+01 6.86898144336437e-03 9.24925222858721e-05
1.52396511627907e+01 6.81405849140393e-03 9.19193421149802e-05
1.52947674418605e+01 6.75957469190986e-03 9.13491165245506e-05
1.53498837209302e+01 6.70552653351142e-03 9.07818388928498e-05
1.54050000000000e+01 6.65191053291435e-03 9.02175023132151e-05
1.54601162790698e+01 6.59872323501826e-03 8.96561000292161e-05
1.55152325581395e+01 6.54596121166112e-03 8.90976251498116e-05
1.55703488372093e+01 6.49362106243744e-03 8.85420703601114e-05
1.56254651162791e+01 6.44169941413037e-03 8.79894283652186e-05
1.56805813953488e+01 6.39019292049491e-03 8.74396916098300e-05
1.57356976744186e+01 6.33909826236493e-03 8.68928526925059e-05
1.57908139534884e+01 6.28841214646424e-03 8.63489040942330e-05
1.58459302325581e+01 6.23813130617527e-03 8.58078379027244e-05
1.59010465116279e+01 6.18825250099950e-03 8.52696462350579e-05
1.59561627906977e+01 6.13877251634899e-03 8.47343209705325e-05
1.60112790697674e+01 6.08968816364397e-03 8.42018541450328e-05
1.60663953488372e+01 6.04099627918664e-03 8.36722376923997e-05
1.61215116279070e+01 5.99269372488350e-03 8.31454631815889e-05
1.61766279069767e+01 5.94477738773262e-03 8.26215220945702e-05
1.62317441860465e+01 5.89724417991420e-03 8.21004060712110e-05
1.62868604651163e+01 5.85009103771276e-03 8.15821066607392e-05
1.63419767441860e+01 5.80331492220378e-03 8.10666150691579e-05
1.63970930232558e+01 5.75691281876108e-03 8.05539225458942e-05
1.64522093023256e+01 5.71088173686297e-03 8.00440201388745e-05
1.65073255813953e+01 5.66521871017444e-03 7.95368990554623e-05
1.65624418604651e+01 5.61992079552572e-03 7.90325504254156e-05
1.66175581395349e+01 5.57498507355791e-03 7.85309650601886e-05
1.66726744186047e+01 5.53040864825439e-03 7.80321338211447e-05
1.67277906976744e+01 5.48618864675476e-03 7.75360473860920e-05
1.67829069767442e+01 5.44232221942932e-03 7.70426965931841e-05
1.68380232558140e+01 5.39880653891087e-03 7.65520722148838e-05
1.68931395348837e+01 5.35563880070179e-03 7.60641647284198e-05
1.69482558139535e+01 5.31281622272848e-03 7.55789646666168e-05
1.70033720930233e+01 5.27033604516240e-03 7.50964623953673e-05
1.70584883720930e+01 5.22819553048776e-03 7.46166484411860e-05
1.71136046511628e+01 5.18639196258336e-03 7.41395132757477e-05
1.71687209302326e+01 5.14492264729371e-03 7.36650470969465e-05
1.72238372093023e+01 5.10378491200516e-03 7.31932400595335e-05
1.72789534883721e+01 5.06297610570859e-03 7.27240824785020e-05
1.73340697674419e+01 5.02249359811991e-03 7.22575646219481e-05
1.73891860465116e+01 4.98233478022338e-03 7.17936765005663e-05
