Energy (eV)          EEDF (eV^-(3/2))     First Anisotropy
1.49019607843137e-02 1.21704031218776e-01 6.38201144177957e-05
4.47058823529412e-02 1.20883049275047e-01 1.05383979025462e-04
7.45098039215686e-02 1.20067605451933e-01 1.39115696872907e-04
1.04313725490196e-01 1.19257662388456e-01 1.64740067922408e-04
1.34117647058824e-01 1.18453182979795e-01 1.86109561278973e-04
1.63921568627451e-01 1.17654130365580e-01 2.04680460902907e-04
1.93725490196078e-01 1.16860467943270e-01 2.21206255365177e-04
2.23529411764706e-01 1.16072159347820e-01 2.36141871700808e-04
2.53333333333333e-01 1.15289168463938e-01 2.49788970226385e-04
2.83137254901961e-01 1.14511459423275e-01 2.62360720373530e-04
3.12941176470588e-01 1.13738996592851e-01 2.74014892624248e-04
3.42745098039216e-01 1.12971744585781e-01 2.84872451320691e-04
3.72549019607843e-01 1.12209668248907e-01 2.95028763747612e-04
4.02352941176471e-01 1.11452732670646e-01 3.04560736592316e-04
4.32156862745098e-01 1.10700903170947e-01 3.13531562690251e-04
4.61960784313726e-01 1.09954145305652e-01 3.21993991932301e-04
4.91764705882353e-01 1.09212424864621e-01 3.29992655914654e-04
5.21568627450980e-01 1.08475707865162e-01 3.37565759772644e-04
5.51372549019608e-01 1.07743960556889e-01 3.44746342370675e-04
5.81176470588235e-01 1.07017149414258e-01 3.51563232458017e-04
6.10980392156863e-01 1.06295241140507e-01 3.58041786218617e-04
6.40784313725490e-01 1.05578202661041e-01 3.64204465002653e-04
6.70588235294118e-01 1.04866001125588e-01 3.70071292907036e-04
7.00392156862745e-01 1.04158603906555e-01 3.75660225462883e-04
7.30196078431373e-01 1.03455978594288e-01 3.80987447536987e-04
7.60000000000000e-01 1.02758092999796e-01 3.86067617958612e-04
7.89803921568627e-01 1.02064915149305e-01 3.90914071683493e-04
8.19607843137255e-01 1.01376413286549e-01 3.95538988175706e-04
8.49411764705882e-01 1.00692555867754e-01 3.99953532844500e-04
8.79215686274510e-01 1.00013311563573e-01 4.04167976530601e-04
9.09019607843137e-01 9.93386492544344e-02 4.08191797326895e-04
9.38823529411765e-01 9.86685380314722e-02 4.12033767124525e-04
9.68627450980392e-01 9.80029471950338e-02 4.15702027150905e-04
9.98431372549020e-01 9.73418462511345e-02 4.19204151989317e-04
1.02823529411765e+00 9.66852049147406e-02 4.22547206641373e-04
1.05803921568627e+00 9.60329931011904e-02 4.25737796531231e-04
1.08784313725490e+00 9.53851809241318e-02 4.28782106693857e-04
1.11764705882353e+00 9.47417387109551e-02 4.31685942495654e-04
1.14745098039216e+00 9.41026369830192e-02 4.34454764886254e-04
1.17725490196078e+00 9.34678464605186e-02 4.37093717062645e-04
1.20705882352941e+00 9.28373380611856e-02 4.39607651887241e-04
1.23686274509804e+00 9.22110828989460e-02 4.42001156323160e-04
1.26666666666667e+00 9.15890522776770e-02 4.44278569906014e-04
1.29647058823529e+00 9.09712177048268e-02 4.46444005443473e-04
1.32627450980392e+00 9.03575508749578e-02 4.48501367818368e-04
1.35607843137255e+00 8.97480236735678e-02 4.50454366685631e-04
1.38588235294118e+00 8.91426081758059e-02 4.52306531281914e-04
1.41568627450980e+00 8.85412766452126e-02 4.54061223821729e-04
1.44549019607843e+00 8.79440015282997e-02 4.55721648613159e-04
1.47529411764706e+00 8.73507554658479e-02 4.57290864087646e-04
1.50509803921569e+00 8.67615112789265e-02 4.58771793917597e-04
1.53490196078431e+00 8.61762419719487e-02 4.60167233328225e-04
1.56470588235294e+00 8.55949207314177e-02 4.61479857889545e-04
1.59450980392157e+00 8.50175209247334e-02 4.62712230849266e-04
1.62431372549020e+00 8.44440160989537e-02 4.63866810573405e-04
1.65411764705882e+00 8.38743799761505e-02 4.64945954663553e-04
1.68392156862745e+00 8.33085864626222e-02 4.65951927097088e-04
1.71372549019608e+00 8.27466096371556e-02 4.66886904934046e-04
1.74352941176471e+00 8.21884237533882e-02 4.67752981078017e-04
1.77333333333333e+00 8.16340032386409e-02 4.68552169536430e-04
1.80313725490196e+00 8.10833226927473e-02 4.69286410271626e-04
1.83294117647059e+00 8.05363568839082e-02 4.69957571211645e-04
1.86274509803922e+00 7.99930807565636e-02 4.70567453182043e-04
1.89254901960784e+00 7.94534694211144e-02 4.71117794592227e-04
1.92235294117647e+00 7.89174981558583e-02 4.71610272655922e-04
1.95215686274510e+00 7.83851424058552e-02 4.72046507005935e-04
1.98196078431373e+00 7.78563777818149e-02 4.72428063044194e-04
2.01176470588235e+00 7.73311800563656e-02 4.72756452787537e-04
2.04156862745098e+00 7.68095251708436e-02 4.73033138474887e-04
2.07137254901961e+00 7.62913892262064e-02 4.73259536028875e-04
2.10117647058824e+00 7.57767484846289e-02 4.73437015410381e-04
2.13098039215686e+00 7.52655793684083e-02 4.73566903230362e-04
2.16078431372549e+00 7.47578584588982e-02 4.73650484644426e-04
2.19058823529412e+00 7.42535624954294e-02 4.73689005665290e-04
2.22039215686274e+00 7.37526683719978e-02 4.73683673259318e-04
2.25019607843137e+00 7.32551531430097e-02 4.73635658000064e-04
2.28000000000000e+00 7.27609940153574e-02 4.73546096638393e-04
2.30980392156863e+00 7.22701683496868e-02 4.73416091899908e-04
2.33960784313726e+00 7.17826536593632e-02 4.73246714368242e-04
2.36941176470588e+00 7.12984276094449e-02 4.73039004240732e-04
2.39921568627451e+00 7.08174680136589e-02 4.72793971067001e-04
2.42901960784314e+00 7.03397528394326e-02 4.72512595873397e-04
2.45882352941176e+00 6.98652602007779e-02 4.72195833234297e-04
2.48862745098039e+00 6.93939683593430e-02 4.71844610804063e-04
2.51843137254902e+00 6.89258557234140e-02 4.71459830793702e-04
2.54823529411765e+00 6.84609008469337e-02 4.71042370899580e-04
2.57803921568627e+00 6.79990824285149e-02 4.70593085631487e-04
2.60784313725490e+00 6.75403793087154e-02 4.70112805815145e-04
2.63764705882353e+00 6.70847704743621e-02 4.69602340292039e-04
2.66745098039216e+00 6.66322350522457e-02 4.69062477587214e-04
2.69725490196078e+00 6.61827523099593e-02 4.68493985270846e-04
2.72705882352941e+00 6.57363016549536e-02 4.67897611111757e-04
2.75686274509804e+00 6.52928626335923e-02 4.67274084154629e-04
2.78666666666667e+00 6.48524149286420e-02 4.66624114111161e-04
2.81647058823529e+00 6.44149383630995e-02 4.65948392801452e-04
2.84627450980392e+00 6.39804128944665e-02 4.65247595574387e-04
2.87607843137255e+00 6.35488186154444e-02 4.64522380593677e-04
2.90588235294118e+00 6.31201357530237e-02 4.63773389794672e-04
2.93568627450980e+00 6.26943446675805e-02 4.63001249777944e-04
2.96549019607843e+00 6.22714258505552e-02 4.62206571140580e-04
2.99529411764706e+00 6.18513599278540e-02 4.61389949721481e-04
3.02509803921569e+00 6.14341276546283e-02 4.60551967832911e-04
3.05490196078431e+00 6.10197099158503e-02 4.59693193510623e-04
3.08470588235294e+00 6.06080877254341e-02 4.58814181323226e-04
3.11450980392157e+00 6.01992422253722e-02 4.57915472770110e-04
3.14431372549020e+00 5.97931546848681e-02 4.56997597018369e-04
3.17411764705882e+00 5.93898064982157e-02 4.56061070204205e-04
3.20392156862745e+00 5.89891791877665e-02 4.55106396501917e-04
3.23372549019608e+00 5.85912543992311e-02 4.54134069184787e-04
3.26352941176471e+00 5.81960139021317e-02 4.53144569864758e-04
3.29333333333333e+00 5.78034395889690e-02 4.52138369172449e-04
3.32313725490196e+00 5.74135134743933e-02 4.51115927392124e-04
3.35294117647059e+00 5.70262176932309e-02 4.50077693758881e-04
3.38274509803922e+00 5.66415345031388e-02 4.49024107409410e-04
3.41254901960784e+00 5.62594462802902e-02 4.47955598328022e-04
3.44235294117647e+00 5.58799355197431e-02 4.46872586593320e-04
3.47215686274510e+00 5.55029848346383e-02 4.45775482972192e-04
3.50196078431373e+00 5.51285769554056e-02 4.44664689474152e-04
3.53176470588235e+00 5.47566947279228e-02 4.43540598656600e-04
3.56156862745098e+00 5.43873211158983e-02 4.42403594478670e-04
3.59137254901961e+00 5.40204391968965e-02 4.41254053152563e-04
3.62117647058824e+00 5.36560321626362e-02 4.40092342406379e-04
3.65098039215686e+00 5.32940833182190e-02 4.38918822009240e-04
3.68078431372549e+00 5.29345760813669e-02 4.37733843971192e-04
3.71058823529412e+00 5.25774939816621e-02 4.36537753023570e-04
3.74039215686274e+00 5.22228206588495e-02 4.35330885943048e-04
3.77019607843137e+00 5.18705398649359e-02 4.34113572311855e-04
3.80000000000000e+00 5.15206354605743e-02 4.32886135277068e-04
3.82980392156863e+00 5.11730914152891e-02 4.31648890840113e-04
3.85960784313726e+00 5.08278918067418e-02 4.30402148316613e-04
3.88941176470588e+00 5.04850208200026e-02 4.29146210765193e-04
3.91921568627451e+00 5.01444627459613e-02 4.27881374332784e-04
3.94901960784314e+00 4.98062019832184e-02 4.26607928947901e-04
3.97882352941176e+00 4.94702230347394e-02 4.25326159014177e-04
4.00862745098039e+00 4.91365105080284e-02 4.24036342725840e-04
4.03843137254902e+00 4.88050491144223e-02 4.22738752481523e-04
4.06823529411765e+00 4.84758236683923e-02 4.21433655017764e-04
4.09803921568627e+00 4.81488190868471e-02 4.20121311788300e-04
4.12784313725490e+00 4.78240203876610e-02 4.18801978337710e-04
4.15764705882353e+00 4.75014126913478e-02 4.17475904927635e-04
4.18745098039216e+00 4.71809812180009e-02 4.16143337164092e-04
4.21725490196078e+00 4.68627112874142e-02 4.14804515345513e-04
4.24705882352941e+00 4.65465883184106e-02 4.13459674831986e-04
4.27686274509804e+00 4.62325978281745e-02 4.12109046389210e-04
4.30666666666667e+00 4.59207254308678e-02 4.10752855587426e-04
4.33647058823529e+00 4.56109568391451e-02 4.09391323378526e-04
4.36627450980392e+00 4.53032778613091e-02 4.08024666674692e-04
4.39607843137255e+00 4.49976744013955e-02 4.06653097724834e-04
4.42588235294118e+00 4.46941324585272e-02 4.05276824451162e-04
4.45568627450980e+00 4.43926381262740e-02 4.03896050762560e-04
4.48549019607843e+00 4.40931775913514e-02 4.02510975979459e-04
4.51529411764706e+00 4.37957371349921e-02 4.01121795367600e-04
4.54509803921569e+00 4.35003031302986e-02 3.99728700673637e-04
4.57490196078431e+00 4.32068620422969e-02 3.98331879529837e-04
4.60470588235294e+00 4.29154004273149e-02 3.96931515762361e-04
4.63450980392157e+00 4.26259049323693e-02 3.95527789470408e-04
4.66431372549020e+00 4.23383622945521e-02 3.94120877309343e-04
4.69411764705882e+00 4.20527593398195e-02 3.92710951945684e-04
4.72392156862745e+00 4.17690829842131e-02 3.91298182545930e-04
4.75372549019608e+00 4.14873202314220e-02 3.89882735267375e-04
4.78352941176471e+00 4.12074581728048e-02 3.88464772695422e-04
4.81333333333333e+00 4.09294839867983e-02 3.87044454123440e-04
4.84313725490196e+00 4.06533849383306e-02 3.85621935813144e-04
4.87294117647059e+00 4.03791483776779e-02 3.84197370475024e-04
4.90274509803922e+00 4.01067617415743e-02 3.82770907723075e-04
4.93254901960784e+00 3.98362125509348e-02 3.81342694531881e-04
4.96235294117647e+00 3.95674884108550e-02 3.79912874700849e-04
4.99215686274510e+00 3.93005770100428e-02 3.78481589112585e-04
5.02196078431373e+00 3.90354661202552e-02 3.77048975973202e-04
5.05176470588235e+00 3.87721435952198e-02 3.75615170317367e-04
5.08156862745098e+00 3.85105973716427e-02 3.74180304432435e-04
5.11137254901961e+00 3.82508154670805e-02 3.72744508284867e-04
5.14117647058824e+00 3.79927859799200e-02 3.71307909010512e-04
5.17098039215686e+00 3.77364970888325e-02 3.69870631153943e-04
5.20078431372549e+00 3.74819370522333e-02 3.68432796718367e-04
5.23058823529412e+00 3.72290942077435e-02 3.66994525385500e-04
5.26039215686275e+00 3.69779569711813e-02 3.65555934048309e-04
5.29019607843137e+00 3.67285138374630e-02 3.64117137202729e-04
5.32000000000000e+00 3.64807533786347e-02 3.62678247341626e-04
5.34980392156863e+00 3.62346642438319e-02 3.61239374474292e-04
5.37960784313726e+00 3.59902351587602e-02 3.59800626346027e-04
5.40941176470588e+00 3.57474549251785e-02 3.58362108642219e-04
5.43921568627451e+00 3.55063124199461e-02 3.56923924543912e-04
5.46901960784314e+00 3.52667965958421e-02 3.55486175094465e-04
5.49882352941176e+00 3.50288964797212e-02 3.54048959568535e-04
5.52862745098039e+00 3.47926011724596e-02 3.52612375015431e-04
5.55843137254902e+00 3.45578998484558e-02 3.51176516463454e-04
5.58823529411765e+00 3.43247817551353e-02 3.49741476957425e-04
5.61803921568627e+00 3.40932362124576e-02 3.48307347746446e-04
5.64784313725490e+00 3.38632526120227e-02 3.46874217864927e-04
5.67764705882353e+00 3.36348204178055e-02 3.45442174472433e-04
5.70745098039216e+00 3.34079291644445e-02 3.44011303195986e-04
5.73725490196078e+00 3.31825684571744e-02 3.42581687699863e-04
5.76705882352941e+00 3.29587279713504e-02 3.41153409874024e-04
5.79686274509804e+00 3.27363974519751e-02 3.39726550009397e-04
5.82666666666667e+00 3.25155667128523e-02 3.38301186399443e-04
5.85647058823529e+00 3.22962256372563e-02 3.36877395659255e-04
5.88627450980392e+00 3.20783641763252e-02 3.35455253047130e-04
5.91607843137255e+00 3.18619723489834e-02 3.34034832055771e-04
5.94588235294118e+00 3.16470402414851e-02 3.32616204588388e-04
5.97568627450980e+00 3.14335580069603e-02 3.31199441122452e-04
6.00549019607843e+00 3.12215158646124e-02 3.29784610330885e-04
6.03529411764706e+00 3.10109041003294e-02 3.28371779382112e-04
6.06509803921569e+00 3.08017130651726e-02 3.26961014242394e-04
6.09490196078431e+00 3.05939331752926e-02 3.25552379287501e-04
6.12470588235294e+00 3.03875549114897e-02 3.24145937467472e-04
6.15450980392157e+00 3.01825688187784e-02 3.22741750332082e-04
6.18431372549020e+00 2.99789655059539e-02 3.21339878182475e-04
6.21411764705882e+00 2.97767356448392e-02 3.19940379714184e-04
6.24392156862745e+00 2.95758699708324e-02 3.18543312296517e-04
6.27372549019608e+00 2.93763592815011e-02 3.17148732254117e-04
6.30352941176471e+00 2.91781944364897e-02 3.15756694501204e-04
6.33333333333333e+00 2.89813663571012e-02 3.14367252694476e-04
6.36313725490196e+00 2.87858660258809e-02 3.12980459375155e-04
6.39294117647059e+00 2.85916844859021e-02 3.11596365629747e-04
6.42274509803922e+00 2.83988128412658e-02 3.10215021353208e-04
6.45254901960784e+00 2.82072422557771e-02 3.08836475514227e-04
6.48235294117647e+00 2.80169639528472e-02 3.07460775807755e-04
6.51215686274510e+00 2.78279692150922e-02 3.06087968798472e-04
6.54196078431373e+00 2.76402493839330e-02 3.04718100054054e-04
6.57176470588235e+00 2.74537958589175e-02 3.03351213822711e-04
6.60156862745098e+00 2.72686000981768e-02 3.01987353281294e-04
6.63137254901961e+00 2.70846536171777e-02 3.00626560785504e-04
6.66117647058824e+00 2.69019479886215e-02 2.99268877539685e-04
6.69098039215686e+00 2.67204748420576e-02 2.97914343731641e-04
6.72078431372549e+00 2.65402258635001e-02 2.96562998550327e-04
6.75058823529412e+00 2.63611927950473e-02 2.95214880309887e-04
6.78039215686274e+00 2.61833674342426e-02 2.93870026145763e-04
6.81019607843137e+00 2.60067416344848e-02 2.92528472246387e-04
6.84000000000000e+00 2.58313073038639e-02 2.91190254086885e-04
6.86980392156863e+00 2.56570564050555e-02 2.89855406118083e-04
6.89960784313725e+00 2.54839809549529e-02 2.88523961891986e-04
6.92941176470588e+00 2.53120730243013e-02 2.87195954178384e-04
6.95921568627451e+00 2.51413247370912e-02 2.85871414675991e-04
6.98901960784314e+00 2.49717282709321e-02 2.84550374231180e-04
7.01882352941176e+00 2.48032758559551e-02 2.83232863058745e-04
7.04862745098039e+00 2.46359597747046e-02 2.81918910446370e-04
7.07843137254902e+00 2.44697723617844e-02 2.80608544872653e-04
7.10823529411765e+00 2.43047060035075e-02 2.79301794021206e-04
7.13803921568627e+00 2.41407531375466e-02 2.77998684889423e-04
7.16784313725490e+00 2.39779062523625e-02 2.76699243516134e-04
7.19764705882353e+00 2.38161578875402e-02 2.75403495186257e-04
7.22745098039216e+00 2.36555006327624e-02 2.74111464637346e-04
7.25725490196078e+00 2.34959271276999e-02 2.72823175781070e-04
7.28705882352941e+00 2.33374300616740e-02 2.71538651813453e-04
7.31686274509804e+00 2.31800021733224e-02 2.70257915317302e-04
7.34666666666667e+00 2.30236362500542e-02 2.68980988003313e-04
7.37647058823529e+00 2.28683251283580e-02 2.67707890903535e-04
7.40627450980392e+00 2.27140616928316e-02 2.66438644566701e-04
7.43607843137255e+00 2.25608388760712e-02 2.65173268793453e-04
7.46588235294118e+00 2.24086496583478e-02 2.63911782740248e-04
7.49568627450980e+00 2.22574870672859e-02 2.62654205015967e-04
7.52549019607843e+00 2.21073441773454e-02 2.61400553435691e-04
7.55529411764706e+00 2.19582141101026e-02 2.60150845203759e-04
7.58509803921569e+00 2.18100900333332e-02 2.58905097098519e-04
7.61490196078431e+00 2.16629651609013e-02 2.57663325220587e-04
7.64470588235294e+00 2.15168327524484e-02 2.56425545090942e-04
7.67450980392157e+00 2.13716861130846e-02 2.55191771661038e-04
7.70431372549020e+00 2.12275185930820e-02 2.53962019403095e-04
7.73411764705882e+00 2.10843235873862e-02 2.52736302077934e-04
7.76392156862745e+00 2.09420945358682e-02 2.51514632906517e-04
7.79372549019608e+00 2.08008249224659e-02 2.50297024743178e-04
7.82352941176471e+00 2.06605082750730e-02 2.49083489838265e-04
7.85333333333333e+00 2.05211381652420e-02 2.47874039929937e-04
7.88313725490196e+00 2.03827082078901e-02 2.46668686329388e-04
7.91294117647059e+00 2.02452120608341e-02 2.45467439699974e-04
7.94274509803922e+00 2.01086434250202e-02 2.44270310219707e-04
7.97254901960784e+00 1.99729960437120e-02 2.43077307745271e-04
8.00235294117647e+00 1.98382637023792e-02 2.41888441586320e-04
8.03215686274510e+00 1.97044402284130e-02 2.40703720592148e-04
8.06196078431373e+00 1.95715194908434e-02 2.39523153232220e-04
8.09176470588235e+00 1.94394953998963e-02 2.38346747386069e-04
8.12156862745098e+00 1.93083619072034e-02 2.37174510497197e-04
8.15137254901961e+00 1.91781130050331e-02 2.36006449728466e-04
8.18117647058824e+00 1.90487427261803e-02 2.34842571747420e-04
8.21098039215686e+00 1.89202451436931e-02 2.33682882808241e-04
8.24078431372549e+00 1.87926143706010e-02 2.32527388759083e-04
8.27058823529412e+00 1.86658445596457e-02 2.31376095117546e-04
8.30039215686275e+00 1.85399299028623e-02 2.30229006872472e-04
8.33019607843137e+00 1.84148646317675e-02 2.29086128628368e-04
8.36000000000000e+00 1.82906430166384e-02 2.27947464751328e-04
8.38980392156863e+00 1.81672593664032e-02 2.26813019166568e-04
8.41960784313726e+00 1.80447080283806e-02 2.25682795435178e-04
8.44941176470588e+00 1.79229833880206e-02 2.24556796825459e-04
8.47921568627451e+00 1.78020798685062e-02 2.23435026124326e-04
8.50901960784314e+00 1.76819919309244e-02 2.22317485774272e-04
8.53882352941176e+00 1.75627140735832e-02 2.21204178011685e-04
8.56862745098039e+00 1.74442408319036e-02 2.20095104674190e-04
8.59843137254902e+00 1.73265667781688e-02 2.18990267273318e-04
8.62823529411765e+00 1.72096865212763e-02 2.17889667000473e-04
8.65803921568627e+00 1.70935947064903e-02 2.16793304793828e-04
8.68784313725490e+00 1.69782860150651e-02 2.15701181160347e-04
8.71764705882353e+00 1.68637551643983e-02 2.14613296304459e-04
8.74745098039216e+00 1.67499969073896e-02 2.13529650258066e-04
8.77725490196078e+00 1.66370060323341e-02 2.12450242698711e-04
8.80705882352941e+00 1.65247773626835e-02 2.11375073017786e-04
8.83686274509804e+00 1.64133057568095e-02 2.10304140383843e-04
8.86666666666667e+00 1.63025861076434e-02 2.09237443573153e-04
8.89647058823529e+00 1.61926133428169e-02 2.08174981091818e-04
8.92627450980392e+00 1.60833824240532e-02 2.07116751299101e-04
8.95607843137255e+00 1.59748883470622e-02 2.06062752234403e-04
8.98588235294118e+00 1.58671261413114e-02 2.05012981681801e-04
9.01568627450980e+00 1.57600908697982e-02 2.03967437230029e-04
9.04549019607843e+00 1.56537776287070e-02 2.02926116111185e-04
9.07529411764706e+00 1.55481815475367e-02 2.01889015316571e-04
9.10509803921569e+00 1.54432977885231e-02 2.00856131713789e-04
9.13490196078431e+00 1.53391215465364e-02 1.99827461882030e-04
9.16470588235294e+00 1.52356480488608e-02 1.98803002173197e-04
9.19450980392157e+00 1.51328725549760e-02 1.97782748716342e-04
9.22431372549020e+00 1.50307903563399e-02 1.96766697474014e-04
9.25411764705882e+00 1.49293967760644e-02 1.95754844089945e-04
9.28392156862745e+00 1.48286871690287e-02 1.94747183998015e-04
9.31372549019608e+00 1.47286569213370e-02 1.93743712532392e-04
9.34352941176471e+00 1.46293014502176e-02 1.92744424772045e-04
9.37333333333333e+00 1.45306162038127e-02 1.91749315598181e-04
9.40313725490196e+00 1.44325966609705e-02 1.90758379747655e-04
