Energy (eV)          EEDF (eV^-(3/2))     First Anisotropy
4.42727272727273e-03 6.71173247008505e-01 3.36855536720255e-04
1.32818181818182e-02 6.66974268806424e-01 5.56374677242561e-04
2.21363636363636e-02 6.62801560153639e-01 7.34823266097522e-04
3.09909090909091e-02 6.58654956693265e-01 8.70602687237383e-04
3.98454545454545e-02 6.54534295124763e-01 9.84018916464819e-04
4.87000000000000e-02 6.50439413137141e-01 1.08274240924810e-03
5.75545454545455e-02 6.46370149458172e-01 1.17073921322043e-03
6.64090909090909e-02 6.42326343807333e-01 1.25040229281365e-03
7.52636363636364e-02 6.38307836920978e-01 1.32331738280773e-03
8.41181818181818e-02 6.34314470520086e-01 1.39060431948500e-03
9.29727272727273e-02 6.30346087326021e-01 1.45309137898006e-03
1.01827272727273e-01 6.26402531035236e-01 1.51141320001967e-03
1.10681818181818e-01 6.22483646343547e-01 1.56606980918764e-03
1.19536363636364e-01 6.18589278866989e-01 1.61746418008371e-03
1.28390909090909e-01 6.14719275253924e-01 1.66592721870772e-03
1.37245454545455e-01 6.10873483050010e-01 1.71173497652142e-03
1.46100000000000e-01 6.07051750812676e-01 1.75512087168494e-03
1.54954545454545e-01 6.03253927992301e-01 1.79628459062266e-03
1.63809090909091e-01 5.99479865032371e-01 1.83539871203643e-03
1.72663636363636e-01 5.95729413263610e-01 1.87261373298828e-03
1.81518181818182e-01 5.92002424992615e-01 1.90806194420780e-03
1.90372727272727e-01 5.88298753406545e-01 1.94186046484012e-03
1.99227272727273e-01 5.84618252652291e-01 1.97411364587475e-03
2.08081818181818e-01 5.80960777767590e-01 2.00491501152440e-03
2.16936363636364e-01 5.77326184681497e-01 2.03434881129092e-03
2.25790909090909e-01 5.73714330257959e-01 2.06249131274757e-03
2.34645454545455e-01 5.70125072224192e-01 2.08941185992707e-03
2.43500000000000e-01 5.66558269228421e-01 2.11517375627801e-03
2.52354545454545e-01 5.63013780773440e-01 2.13983500655569e-03
2.61209090909091e-01 5.59491467269645e-01 2.16344894296826e-03
2.70063636363636e-01 5.55991189973139e-01 2.18606475847780e-03
2.78918181818182e-01 5.52512811034623e-01 2.20772796226858e-03
2.87772727272727e-01 5.49056193441539e-01 2.22848077228878e-03
2.96627272727273e-01 5.45621201063287e-01 2.24836245212918e-03
3.05481818181818e-01 5.42207698608087e-01 2.26740961315777e-03
3.14336363636364e-01 5.38815551620326e-01 2.28565646047694e-03
3.23190909090909e-01 5.35444626507044e-01 2.30313502547082e-03
3.32045454545455e-01 5.32094790490227e-01 2.31987536243636e-03
3.40900000000000e-01 5.28765911642758e-01 2.33590572334287e-03
3.49754545454545e-01 5.25457858843247e-01 2.35125271328818e-03
3.58609090909091e-01 5.22170501809690e-01 2.36594142818776e-03
3.67463636363636e-01 5.18903711056613e-01 2.37999557815153e-03
3.76318181818182e-01 5.15657357926646e-01 2.39343759734805e-03
3.85172727272727e-01 5.12431314549792e-01 2.40628874311476e-03
3.94027272727273e-01 5.09225453873088e-01 2.41856918317187e-03
4.02881818181818e-01 5.06039649629664e-01 2.43029808194792e-03
4.11736363636364e-01 5.02873776335238e-01 2.44149366417488e-03
4.20590909090909e-01 4.99727709305829e-01 2.45217328654132e-03
4.29445454545455e-01 4.96601324622622e-01 2.46235349615436e-03
4.38300000000000e-01 4.93494499156577e-01 2.47205008473315e-03
4.47154545454545e-01 4.90407110534799e-01 2.48127813848255e-03
4.56009090909091e-01 4.87339037163815e-01 2.49005208327025e-03
4.64863636363636e-01 4.84290158197346e-01 2.49838572642076e-03
4.73718181818182e-01 4.81260353558351e-01 2.50629229466334e-03
4.82572727272727e-01 4.78249503908111e-01 2.51378446941433e-03
4.91427272727273e-01 4.75257490667120e-01 2.52087441765936e-03
5.00281818181818e-01 4.72284195991271e-01 2.52757382681956e-03
5.09136363636364e-01 4.69329502768127e-01 2.53389392479278e-03
5.17990909090909e-01 4.66393294629416e-01 2.53984551032231e-03
5.26845454545455e-01 4.63475455923638e-01 2.54543897549245e-03
5.35700000000000e-01 4.60575871733842e-01 2.55068432744181e-03
5.44554545454546e-01 4.57694427851231e-01 2.55559120887424e-03
5.53409090909091e-01 4.54831010792082e-01 2.56016891680825e-03
5.62263636363636e-01 4.51985507772296e-01 2.56442642037020e-03
5.71118181818182e-01 4.49157806723514e-01 2.56837237706611e-03
5.79972727272727e-01 4.46347796268553e-01 2.57201514829436e-03
5.88827272727273e-01 4.43555365736771e-01 2.57536281249633e-03
5.97681818181818e-01 4.40780405144930e-01 2.57842318290344e-03
6.06536363636364e-01 4.38022805193476e-01 2.58120381374794e-03
6.15390909090909e-01 4.35282457275643e-01 2.58371201624597e-03
6.24245454545455e-01 4.32559253455304e-01 2.58595486873770e-03
6.33100000000000e-01 4.29853086480260e-01 2.58793922695535e-03
6.41954545454546e-01 4.27163849760799e-01 2.58967173395964e-03
6.50809090909091e-01 4.24491437382398e-01 2.59115882922200e-03
6.59663636363636e-01 4.21835744084960e-01 2.59240675745368e-03
6.68518181818182e-01 4.19196665274958e-01 2.59342157666777e-03
6.77372727272727e-01 4.16574097005321e-01 2.59420916605274e-03
6.86227272727273e-01 4.13967935987049e-01 2.59477523225639e-03
6.95081818181818e-01 4.11378079573384e-01 2.59512532002734e-03
7.03936363636364e-01 4.08804425756210e-01 2.59526481325556e-03
7.12790909090909e-01 4.06246873172811e-01 2.59519894478638e-03
7.21645454545455e-01 4.03705321087518e-01 2.59493280148046e-03
7.30500000000000e-01 4.01179669401857e-01 2.59447132966629e-03
7.39354545454545e-01 3.98669818636729e-01 2.59381934054765e-03
7.48209090909091e-01 3.96175669942137e-01 2.59298151511147e-03
7.57063636363636e-01 3.93697125079876e-01 2.59196240901913e-03
7.65918181818182e-01 3.91234086432859e-01 2.59076645703439e-03
7.74772727272727e-01 3.88786456988292e-01 2.58939797745958e-03
7.83627272727273e-01 3.86354140346621e-01 2.58786117535759e-03
7.92481818181818e-01 3.83937040708179e-01 2.58616014972689e-03
8.01336363636364e-01 3.81535062869734e-01 2.58429889243877e-03
8.10190909090909e-01 3.79148112229578e-01 2.58228129496404e-03
8.19045454545455e-01 3.76776094772023e-01 2.58011115106683e-03
8.27900000000000e-01 3.74418917075294e-01 2.57779215995737e-03
8.36754545454546e-01 3.72076486296436e-01 2.57532792950360e-03
8.45609090909091e-01 3.69748710178888e-01 2.57272197910641e-03
8.54463636363636e-01 3.67435497037797e-01 2.56997774264371e-03
8.63318181818182e-01 3.65136755767288e-01 2.56709857109770e-03
8.72172727272727e-01 3.62852395826161e-01 2.56408773525999e-03
8.81027272727273e-01 3.60582327244876e-01 2.56094842744630e-03
8.89881818181818e-01 3.58326460614113e-01 2.55768376675271e-03
8.98736363636364e-01 3.56084707081489e-01 2.55429679712668e-03
9.07590909090909e-01 3.53856978355419e-01 2.55079049235165e-03
9.16445454545455e-01 3.51643186691837e-01 2.54716775753496e-03
9.25300000000000e-01 3.49443244900397e-01 2.54343143105290e-03
9.34154545454546e-01 3.47257066331523e-01 2.53958428659151e-03
9.43009090909091e-01 3.45084564882374e-01 2.53562903493934e-03
9.51863636363636e-01 3.42925654984208e-01 2.53156832587783e-03
9.60718181818182e-01 3.40780251608129e-01 2.52740474983535e-03
9.69572727272727e-01 3.38648270252747e-01 2.52314083964210e-03
9.78427272727273e-01 3.36529626949712e-01 2.51877907144715e-03
9.87281818181818e-01 3.34424238253774e-01 2.51432186880000e-03
9.96136363636364e-01 3.32332021239690e-01 2.50977160280657e-03
1.00499090909091e+00 3.30252893496977e-01 2.50513058522125e-03
1.01384545454545e+00 3.28186773155161e-01 2.50040108779323e-03
1.02270000000000e+00 3.26133578817552e-01 2.49558532893182e-03
1.03155454545455e+00 3.24093229636507e-01 2.49068547970377e-03
1.04040909090909e+00 3.22065645231004e-01 2.48570366532756e-03
1.04926363636364e+00 3.20050745761452e-01 2.48064196553195e-03
1.05811818181818e+00 3.18048451849811e-01 2.47550241655411e-03
1.06697272727273e+00 3.16058684651987e-01 2.47028701144195e-03
1.07582727272727e+00 3.14081365780392e-01 2.46499770738623e-03
1.08468181818182e+00 3.12116417356238e-01 2.45963640420554e-03
1.09353636363636e+00 3.10163762005693e-01 2.45420497865175e-03
1.10239090909091e+00 3.08223322803480e-01 2.44870526356312e-03
1.11124545454545e+00 3.06295023340542e-01 2.44313905370013e-03
1.12010000000000e+00 3.04378787651429e-01 2.43750810743372e-03
1.12895454545455e+00 3.02474540279840e-01 2.43181414688088e-03
1.13780909090909e+00 3.00582206208161e-01 2.42605885951516e-03
1.14666363636364e+00 2.98701710920982e-01 2.42024389826736e-03
1.15551818181818e+00 2.96832980336688e-01 2.41437088306310e-03
1.16437272727273e+00 2.94975940869034e-01 2.40844140089295e-03
1.17322727272727e+00 2.93130519360717e-01 2.40245701213878e-03
1.18208181818182e+00 2.91296643127851e-01 2.39641923115949e-03
1.19093636363636e+00 2.89474239956447e-01 2.39032955675367e-03
1.19979090909091e+00 2.87663238053904e-01 2.38418945334030e-03
1.20864545454545e+00 2.85863566106719e-01 2.37800035601316e-03
1.21750000000000e+00 2.84075153218027e-01 2.37176367186738e-03
1.22635454545455e+00 2.82297928963590e-01 2.36548077997431e-03
1.23520909090909e+00 2.80531823331094e-01 2.35915303265389e-03
1.24406363636364e+00 2.78776766774484e-01 2.35278175543126e-03
1.25291818181818e+00 2.77032690154956e-01 2.34636824825696e-03
1.26177272727273e+00 2.75299524793696e-01 2.33991378544716e-03
1.27062727272727e+00 2.73577202414499e-01 2.33341962121248e-03
1.27948181818182e+00 2.71865655181854e-01 2.32688697212981e-03
1.28833636363636e+00 2.70164815697721e-01 2.32031704433625e-03
1.29719090909091e+00 2.68474616959514e-01 2.31371101653203e-03
1.30604545454545e+00 2.66794992409659e-01 2.30707004441116e-03
1.31490000000000e+00 2.65125875881507e-01 2.30039526173209e-03
1.32375454545455e+00 2.63467201647478e-01 2.29368778020324e-03
1.33260909090909e+00 2.61818904366424e-01 2.28694869051387e-03
1.34146363636364e+00 2.60180919130413e-01 2.28017906221043e-03
1.35031818181818e+00 2.58553181413496e-01 2.27337994468943e-03
1.35917272727273e+00 2.56935627117171e-01 2.26655236706460e-03
1.36802727272727e+00 2.55328192520513e-01 2.25969734304409e-03
1.37688181818182e+00 2.53730814312978e-01 2.25281585508905e-03
1.38573636363636e+00 2.52143429591445e-01 2.24590887879020e-03
1.39459090909091e+00 2.50565975823607e-01 2.23897736749989e-03
1.40344545454545e+00 2.48998390890784e-01 2.23202225625084e-03
1.41230000000000e+00 2.47440613040809e-01 2.22504446263854e-03
1.42115454545455e+00 2.45892580929666e-01 2.21804488665867e-03
1.43000909090909e+00 2.44354233575590e-01 2.21102441155969e-03
1.43886363636364e+00 2.42825510399570e-01 2.20398390367522e-03
1.44771818181818e+00 2.41306351180630e-01 2.19692421324811e-03
1.45657272727273e+00 2.39796696095228e-01 2.18984617425896e-03
1.46542727272727e+00 2.38296485673682e-01 2.18275060875774e-03
1.47428181818182e+00 2.36805660828579e-01 2.17563831252866e-03
1.48313636363636e+00 2.35324162852050e-01 2.16851007701521e-03
1.49199090909091e+00 2.33851933383716e-01 2.16136667540684e-03
1.50084545454545e+00 2.32388914447848e-01 2.15420886612879e-03
1.50970000000000e+00 2.30935048412142e-01 2.14703739358163e-03
1.51855454545455e+00 2.29490278023885e-01 2.13985298795393e-03
1.52740909090909e+00 2.28054546369757e-01 2.13265636593926e-03
1.53626363636364e+00 2.26627796911050e-01 2.12544823054729e-03
1.54511818181818e+00 2.25209973444457e-01 2.11822927179826e-03
1.55397272727273e+00 2.23801020136370e-01 2.11100016653242e-03
1.56282727272727e+00 2.22400881484634e-01 2.10376158227876e-03
1.57168181818182e+00 2.21009502343268e-01 2.09651416426502e-03
1.58053636363636e+00 2.19626827919938e-01 2.08925855519221e-03
1.58939090909091e+00 2.18252803747776e-01 2.08199538262277e-03
1.59824545454545e+00 2.16887375717774e-01 2.07472526210306e-03
1.60710000000000e+00 2.15530490042550e-01 2.06744879779199e-03
1.61595454545455e+00 2.14182093287904e-01 2.06016658226416e-03
1.62480909090909e+00 2.12842132337458e-01 2.05287919712040e-03
1.63366363636364e+00 2.11510554423410e-01 2.04558721279055e-03
1.64251818181818e+00 2.10187307092011e-01 2.03829118912623e-03
1.65137272727273e+00 2.08872338233547e-01 2.03099167520438e-03
1.66022727272727e+00 2.07565596048632e-01 2.02368921279624e-03
1.66908181818182e+00 2.06267029069801e-01 2.01638432458081e-03
1.67793636363636e+00 2.04976586159173e-01 2.00907753202217e-03
1.68679090909091e+00 2.03694216483571e-01 2.00176934392161e-03
1.69564545454545e+00 2.02419869542878e-01 1.99446025922392e-03
1.70450000000000e+00 2.01153495138060e-01 1.98715076755706e-03
1.71335454545455e+00 1.99895043398812e-01 1.97984134903429e-03
1.72220909090909e+00 1.98644464752327e-01 1.97253247477948e-03
1.73106363636364e+00 1.97401709950260e-01 1.96522460673042e-03
1.73991818181818e+00 1.96166730038221e-01 1.95791819814980e-03
1.74877272727273e+00 1.94939476382067e-01 1.95061369342934e-03
1.75762727272727e+00 1.93719900638109e-01 1.94331153121209e-03
1.76648181818182e+00 1.92507954772018e-01 1.93601213368345e-03
1.77533636363636e+00 1.91303591056680e-01 1.92871592276636e-03
1.78419090909091e+00 1.90106762050143e-01 1.92142330971711e-03
1.79304545454545e+00 1.88917420620525e-01 1.91413469765488e-03
1.80190000000000e+00 1.87735519917704e-01 1.90685048202986e-03
1.81075454545455e+00 1.86561013397612e-01 1.89957105042969e-03
1.81960909090909e+00 1.85393854794569e-01 1.89229678303549e-03
1.82846363636364e+00 1.84233998144991e-01 1.88502805242998e-03
1.83731818181818e+00 1.83081397760349e-01 1.87776522404148e-03
1.84617272727273e+00 1.81936008250306e-01 1.87050865595387e-03
1.85502727272727e+00 1.80797784496283e-01 1.86325870172426e-03
1.86388181818182e+00 1.79666681668088e-01 1.85601570064182e-03
1.87273636363636e+00 1.78542655221917e-01 1.84877999242470e-03
1.88159090909091e+00 1.77425660880770e-01 1.84155190775263e-03
1.89044545454545e+00 1.76315654656383e-01 1.83433177055393e-03
1.89930000000000e+00 1.75212592824096e-01 1.82711989841442e-03
1.90815454545455e+00 1.74116431944258e-01 1.81991660239108e-03
1.91700909090909e+00 1.73027128837657e-01 1.81272218741069e-03
1.92586363636364e+00 1.71944640606416e-01 1.80553695208576e-03
1.93471818181818e+00 1.70868924609963e-01 1.79836118910344e-03
1.94357272727273e+00 1.69799938485439e-01 1.79119518504307e-03
1.95242727272727e+00 1.68737640124194e-01 1.78403922292558e-03
1.96128181818182e+00 1.67681987686437e-01 1.77689357334198e-03
1.97013636363636e+00 1.66632939599387e-01 1.76975850781164e-03
1.97899090909091e+00 1.65590454539823e-01 1.76263429015833e-03
1.98784545454545e+00 1.64554491453457e-01 1.75552117858210e-03
1.99670000000000e+00 1.63525009532553e-01 1.74841942601837e-03
2.00555454545455e+00 1.62501968234849e-01 1.74132927996089e-03
2.01440909090909e+00 1.61485327261666e-01 1.73425098281259e-03
2.02326363636364e+00 1.60475046576385e-01 1.72718477171041e-03
2.03211818181818e+00 1.59471086383028e-01 1.72013087886794e-03
2.04097272727273e+00 1.58473407144314e-01 1.71308953140263e-03
2.04982727272727e+00 1.57481969560697e-01 1.70606095364626e-03
2.05868181818182e+00 1.56496734583314e-01 1.69904535905770e-03
2.06753636363636e+00 1.55517663412268e-01 1.69204296238113e-03
2.07639090909091e+00 1.54544717481040e-01 1.68505397178168e-03
2.08524545454545e+00 1.53577858473648e-01 1.67807859072614e-03
2.09410000000000e+00 1.52617048304667e-01 1.67111701830049e-03
2.10295454545455e+00 1.51662249135995e-01 1.66416944904263e-03
2.11180909090909e+00 1.50713423357297e-01 1.65723607325250e-03
2.12066363636364e+00 1.49770533602390e-01 1.65031707682711e-03
2.12951818181818e+00 1.48833542730105e-01 1.64341264156362e-03
2.13837272727273e+00 1.47902413840294e-01 1.63652294499670e-03
2.14722727272727e+00 1.46977110255098e-01 1.62964816249647e-03
2.15608181818182e+00 1.46057595530411e-01 1.62278845988865e-03
2.16493636363636e+00 1.45143833454290e-01 1.61594400453419e-03
2.17379090909091e+00 1.44235788033000e-01 1.60911495815086e-03
2.18264545454545e+00 1.43333423506239e-01 1.60230147852337e-03
2.19150000000000e+00 1.42436704329266e-01 1.59550371978494e-03
2.20035454545455e+00 1.41545595187788e-01 1.58872183226064e-03
2.20920909090909e+00 1.40660060980460e-01 1.58195596274243e-03
2.21806363636364e+00 1.39780066833433e-01 1.57520625433469e-03
2.22691818181818e+00 1.38905578083225e-01 1.56847284672310e-03
2.23577272727273e+00 1.38036560290943e-01 1.56175587602234e-03
2.24462727272727e+00 1.37172979225503e-01 1.55505547668476e-03
2.25348181818182e+00 1.36314800873808e-01 1.54837177475908e-03
2.26233636363636e+00 1.35461991439267e-01 1.54170489799854e-03
2.27119090909091e+00 1.34614517329282e-01 1.53505496930268e-03
2.28004545454545e+00 1.33772345168781e-01 1.52842210827472e-03
2.28890000000000e+00 1.32935441784206e-01 1.52180643147228e-03
2.29775454545455e+00 1.32103774216747e-01 1.51520805226084e-03
2.30660909090909e+00 1.31277309706658e-01 1.50862708105879e-03
2.31546363636364e+00 1.30456015706202e-01 1.50206362519307e-03
2.32431818181818e+00 1.29639859864283e-01 1.49551778913939e-03
2.33317272727273e+00 1.28828810039107e-01 1.48898967437936e-03
2.34202727272727e+00 1.28022834283130e-01 1.48247938113892e-03
2.35088181818182e+00 1.27221900852102e-01 1.47598700222602e-03
2.35973636363636e+00 1.26425978203695e-01 1.46951263226133e-03
2.36859090909091e+00 1.25635034986252e-01 1.46305636168167e-03
2.37744545454545e+00 1.24849040050851e-01 1.45661827816018e-03
2.38630000000000e+00 1.24067962436919e-01 1.45019846683012e-03
2.39515454545455e+00 1.23291771384033e-01 1.44379701014830e-03
2.40400909090909e+00 1.22520436317826e-01 1.43741398811426e-03
2.41286363636364e+00 1.21753926861529e-01 1.43104947813554e-03
2.42171818181818e+00 1.20992212822164e-01 1.42470355524268e-03
2.43057272727273e+00 1.20235264201830e-01 1.41837629195607e-03
2.43942727272727e+00 1.19483051184177e-01 1.41206775987122e-03
2.44828181818182e+00 1.18735544142459e-01 1.40577802402084e-03
2.45713636363636e+00 1.17992713638258e-01 1.39950715131225e-03
2.46599090909091e+00 1.17254530411360e-01 1.39325520504033e-03
2.47484545454545e+00 1.16520965390512e-01 1.38702224618349e-03
2.48370000000000e+00 1.15791989680493e-01 1.38080833360441e-03
2.49255454545455e+00 1.15067574572641e-01 1.37461352392305e-03
2.50140909090909e+00 1.14347691532172e-01 1.36843787171291e-03
2.51026363636364e+00 1.13632312208492e-01 1.36228142937580e-03
2.51911818181818e+00 1.12921408422760e-01 1.35614424733469e-03
2.52797272727273e+00 1.12214952177982e-01 1.35002637391010e-03
2.53682727272727e+00 1.11512915646820e-01 1.34392785676685e-03
2.54568181818182e+00 1.10815271178785e-01 1.33784873775221e-03
2.55453636363636e+00 1.10121991299044e-01 1.33178906061506e-03
2.56339090909091e+00 1.09433048699297e-01 1.32574886598088e-03
2.57224545454545e+00 1.08748416247390e-01 1.31972819253613e-03
2.58110000000000e+00 1.08068066975665e-01 1.31372707720836e-03
2.58995454545455e+00 1.07391974090374e-01 1.30774555504830e-03
2.59880909090909e+00 1.06720110960251e-01 1.30178365940627e-03
2.60766363636364e+00 1.06052451125733e-01 1.29584142181593e-03
2.61651818181818e+00 1.05388968287752e-01 1.28991887216752e-03
2.62537272727273e+00 1.04729636316761e-01 1.28401603859301e-03
2.63422727272727e+00 1.04074429241744e-01 1.27813294878837e-03
2.64308181818182e+00 1.03423321256641e-01 1.27226962528374e-03
2.65193636363636e+00 1.02776286719241e-01 1.26642609251122e-03
2.66079090909091e+00 1.02133300142937e-01 1.26060237220003e-03
2.66964545454545e+00 1.01494336205342e-01 1.25479848445951e-03
2.67850000000000e+00 1.00859369737768e-01 1.24901444794137e-03
2.68735454545455e+00 1.00228375733659e-01 1.24325027973015e-03
2.69620909090909e+00 9.96013293382817e-02 1.23750599550231e-03
2.70506363636364e+00 9.89782058569746e-02 1.23178160941819e-03
2.71391818181818e+00 9.83589807450383e-02 1.22607713427809e-03
2.72277272727273e+00 9.77436296158177e-02 1.22039258141581e-03
2.73162727272727e+00 9.71321282307809e-02 1.21472796190792e-03
2.74048181818182e+00 9.65244525052635e-02 1.20908328223758e-03
2.74933636363636e+00 9.59205785074407e-02 1.20345855076967e-03
2.75819090909091e+00 9.53204824508756e-02 1.19785377352888e-03
2.76704545454545e+00 9.47241407022343e-02 1.19226895519080e-03
2.77590000000000e+00 9.41315297717888e-02 1.18670409922824e-03
2.78475454545455e+00 9.35426263209736e-02 1.18115920780990e-03
2.79360909090909e+00 9.29574071530680e-02 1.17563428194343e-03
