Energy (eV)          EEDF (eV^-(3/2))     First Anisotropy
7.15833333333333e-03 2.86666164397230e-01 1.38354419983486e-04
2.14750000000000e-02 2.85021444097423e-01 2.28575506320694e-04
3.57916666666667e-02 2.83386160234292e-01 3.02045167169531e-04
5.01083333333333e-02 2.81760258657979e-01 3.58043385024653e-04
6.44250000000000e-02 2.80143685538689e-01 4.04898116476008e-04
7.87416666666667e-02 2.78536387358204e-01 4.45752836110535e-04
9.30583333333333e-02 2.76938310899988e-01 4.82231739126115e-04
1.07375000000000e-01 2.75349403250066e-01 5.15314123025976e-04
1.21691666666667e-01 2.73769611819106e-01 5.45648491565563e-04
1.36008333333333e-01 2.72198884289502e-01 5.73692502729032e-04
1.50325000000000e-01 2.70637168658237e-01 5.99784425616897e-04
1.64641666666667e-01 2.69084413231189e-01 6.24183274695549e-04
1.78958333333333e-01 2.67540566590066e-01 6.47092985734873e-04
1.93275000000000e-01 2.66005577621701e-01 6.68677799331268e-04
2.07591666666667e-01 2.64479395514162e-01 6.89072494488364e-04
2.21908333333333e-01 2.62961969731275e-01 7.08389432534505e-04
2.36225000000000e-01 2.61453250034549e-01 7.26723556372356e-04
2.50541666666667e-01 2.59953186480120e-01 7.44156036884345e-04
2.64858333333333e-01 2.58461729398023e-01 7.60756980356756e-04
2.79175000000000e-01 2.56978829409504e-01 7.76587481151170e-04
2.93491666666667e-01 2.55504437424405e-01 7.91701210578297e-04
3.07808333333333e-01 2.54038504623720e-01 8.06145654837982e-04
3.22125000000000e-01 2.52580982473728e-01 8.19963096218288e-04
3.36441666666667e-01 2.51131822723661e-01 8.33191405929472e-04
3.50758333333333e-01 2.49690977390652e-01 8.45864681993626e-04
3.65075000000000e-01 2.48258398771555e-01 8.58013771270819e-04
3.79391666666667e-01 2.46834039440812e-01 8.69666705865255e-04
3.93708333333333e-01 2.45417852237220e-01 8.80849061837293e-04
4.08025000000000e-01 2.44009790274000e-01 8.91584259925263e-04
4.22341666666667e-01 2.42609806936802e-01 9.01893824397383e-04
4.36658333333333e-01 2.41217855871916e-01 9.11797598675597e-04
4.50975000000000e-01 2.39833890994961e-01 9.21313929532494e-04
4.65291666666667e-01 2.38457866488998e-01 9.30459829977439e-04
4.79608333333333e-01 2.37089736793910e-01 9.39251115847892e-04
4.93925000000000e-01 2.35729456613984e-01 9.47702524261186e-04
5.08241666666667e-01 2.34376980916111e-01 9.55827821172601e-04
5.22558333333333e-01 2.33032264920126e-01 9.63639891634833e-04
5.36875000000000e-01 2.31695264105487e-01 9.71150819036919e-04
5.51191666666667e-01 2.30365934209547e-01 9.78371959044028e-04
5.65508333333333e-01 2.29044231218704e-01 9.85314001342904e-04
5.79825000000000e-01 2.27730111374322e-01 9.91987024401208e-04
5.94141666666667e-01 2.26423531171065e-01 9.98400548070325e-04
6.08458333333333e-01 2.25124447348742e-01 1.00456357705863e-03
6.22775000000000e-01 2.23832816897584e-01 1.01048463981491e-03
6.37091666666667e-01 2.22548597056635e-01 1.01617182708034e-03
6.51408333333333e-01 2.21271745306193e-01 1.02163282324627e-03
6.65725000000000e-01 2.20002219372542e-01 1.02687493460378e-03
6.80041666666667e-01 2.18739977226390e-01 1.03190511834511e-03
6.94358333333333e-01 2.17484977075830e-01 1.03673000565077e-03
7.08675000000000e-01 2.16237177370601e-01 1.04135592261545e-03
7.22991666666667e-01 2.14996536800573e-01 1.04578891257706e-03
7.37308333333333e-01 2.13763014289160e-01 1.05003475341400e-03
7.51625000000000e-01 2.12536568997178e-01 1.05409897330462e-03
7.65941666666667e-01 2.11317160321365e-01 1.05798686828019e-03
7.80258333333333e-01 2.10104747888201e-01 1.06170351537873e-03
7.94575000000000e-01 2.08899291557409e-01 1.06525378468264e-03
8.08891666666667e-01 2.07700751420509e-01 1.06864235337877e-03
8.23208333333333e-01 2.06509087795004e-01 1.07187371588934e-03
8.37525000000000e-01 2.05324261227565e-01 1.07495219317847e-03
8.51841666666667e-01 2.04146232492614e-01 1.07788194420787e-03
8.66158333333333e-01 2.02974962586842e-01 1.08066697382433e-03
8.80475000000000e-01 2.01810412732107e-01 1.08331114002904e-03
8.94791666666667e-01 2.00652544374058e-01 1.08581816345735e-03
9.09108333333333e-01 1.99501319176941e-01 1.08819163357623e-03
9.23425000000000e-01 1.98356699026250e-01 1.09043501441155e-03
9.37741666666667e-01 1.97218646027379e-01 1.09255165250472e-03
9.52058333333333e-01 1.96087122500696e-01 1.09454478181920e-03
9.66375000000000e-01 1.94962090983974e-01 1.09641752828541e-03
9.80691666666667e-01 1.93843514231068e-01 1.09817291656636e-03
9.95008333333333e-01 1.92731355207236e-01 1.09981387477475e-03
1.00932500000000e+00 1.91625577088063e-01 1.10134323408121e-03
1.02364166666667e+00 1.90526143274564e-01 1.10276374171127e-03
1.03795833333333e+00 1.89433017356169e-01 1.10407806096968e-03
1.05227500000000e+00 1.88346163141984e-01 1.10528876614682e-03
1.06659166666667e+00 1.87265544658928e-01 1.10639836174325e-03
1.08090833333333e+00 1.86191126119977e-01 1.10740927799611e-03
1.09522500000000e+00 1.85122871953592e-01 1.10832386631036e-03
1.10954166666667e+00 1.84060746801924e-01 1.10914441734421e-03
1.12385833333333e+00 1.83004715490786e-01 1.10987315630148e-03
1.13817500000000e+00 1.81954743057394e-01 1.11051223816138e-03
1.15249166666667e+00 1.80910794748640e-01 1.11106376476486e-03
1.16680833333333e+00 1.79872835992648e-01 1.11152977995554e-03
1.18112500000000e+00 1.78840832424973e-01 1.11191226468249e-03
1.19544166666667e+00 1.77814749886930e-01 1.11221315320124e-03
1.20975833333333e+00 1.76794554398618e-01 1.11243432812557e-03
1.22407500000000e+00 1.75780212183688e-01 1.11257761545964e-03
1.23839166666667e+00 1.74771689667735e-01 1.11264480000704e-03
1.25270833333333e+00 1.73768953452674e-01 1.11263762038043e-03
1.26702500000000e+00 1.72771970340189e-01 1.11255776400602e-03
1.28134166666667e+00 1.71780707330181e-01 1.11240688181822e-03
1.29565833333333e+00 1.70795131596397e-01 1.11218658326289e-03
1.30997500000000e+00 1.69815210508666e-01 1.11189843130679e-03
1.32429166666667e+00 1.68840911631386e-01 1.11154395648278e-03
1.33860833333333e+00 1.67872202700330e-01 1.11112465191433e-03
1.35292500000000e+00 1.66909051643746e-01 1.11064196835439e-03
1.36724166666667e+00 1.65951426580892e-01 1.11009732763647e-03
1.38155833333333e+00 1.64999295799928e-01 1.10949211774092e-03
1.39587500000000e+00 1.64052627777963e-01 1.10882768788227e-03
1.41019166666667e+00 1.63111391179639e-01 1.10810536141354e-03
1.42450833333333e+00 1.62175554836031e-01 1.10732643094990e-03
1.43882500000000e+00 1.61245087763719e-01 1.10649215351875e-03
1.45314166666667e+00 1.60319959163408e-01 1.10560376295791e-03
1.46745833333333e+00 1.59400138399782e-01 1.10466246510875e-03
1.48177500000000e+00 1.58485595019660e-01 1.10366943303937e-03
1.49609166666667e+00 1.57576298750652e-01 1.10262581897270e-03
1.51040833333333e+00 1.56672219481904e-01 1.10153274955765e-03
1.52472500000000e+00 1.55773327281399e-01 1.10039132117318e-03
1.53904166666667e+00 1.54879592394647e-01 1.09920261141762e-03
1.55335833333333e+00 1.53990985226270e-01 1.09796767446432e-03
1.56767500000000e+00 1.53107476356495e-01 1.09668753645243e-03
1.58199166666667e+00 1.52229036539882e-01 1.09536320656525e-03
1.59630833333333e+00 1.51355636687694e-01 1.09399567247453e-03
1.61062500000000e+00 1.50487247883636e-01 1.09258589582197e-03
1.62494166666667e+00 1.49623841382618e-01 1.09113482291131e-03
1.63925833333333e+00 1.48765388593861e-01 1.08964338024492e-03
1.65357500000000e+00 1.47911861095934e-01 1.08811247009839e-03
1.66789166666667e+00 1.47063230635542e-01 1.08654298084836e-03
1.68220833333333e+00 1.46219469111335e-01 1.08493578260317e-03
1.69652500000000e+00 1.45380548588275e-01 1.08329172287239e-03
1.71084166666667e+00 1.44546441296456e-01 1.08161163655050e-03
1.72515833333333e+00 1.43717119615572e-01 1.07989634164260e-03
1.73947500000000e+00 1.42892556088652e-01 1.07814663502925e-03
1.75379166666667e+00 1.42072723420919e-01 1.07636330212450e-03
1.76810833333333e+00 1.41257594464865e-01 1.07454711269696e-03
1.78242500000000e+00 1.40447142233410e-01 1.07269881673002e-03
1.79674166666667e+00 1.39641339898777e-01 1.07081915377073e-03
1.81105833333333e+00 1.38840160778163e-01 1.06890884884581e-03
1.82537500000000e+00 1.38043578346333e-01 1.06696860841711e-03
1.83969166666667e+00 1.37251566234528e-01 1.06499912943636e-03
1.85400833333333e+00 1.36464098216688e-01 1.06300109535560e-03
1.86832500000000e+00 1.35681148221520e-01 1.06097517217694e-03
1.88264166666667e+00 1.34902690331434e-01 1.05892201722706e-03
1.89695833333333e+00 1.34128698769289e-01 1.05684227526106e-03
1.91127500000000e+00 1.33359147909969e-01 1.05473657460536e-03
1.92559166666667e+00 1.32594012279334e-01 1.05260553566478e-03
1.93990833333333e+00 1.31833266541477e-01 1.05044976711859e-03
1.95422500000000e+00 1.31076885509819e-01 1.04826986215518e-03
1.96854166666667e+00 1.30324844146090e-01 1.04606640672367e-03
1.98285833333333e+00 1.29577117548059e-01 1.04383997582067e-03
1.99717500000000e+00 1.28833680960179e-01 1.04159112981510e-03
2.01149166666667e+00 1.28094509772596e-01 1.03932042245521e-03
2.02580833333333e+00 1.27359579509327e-01 1.03702839724465e-03
2.04012500000000e+00 1.26628865838483e-01 1.03471558385560e-03
2.05444166666667e+00 1.25902344571298e-01 1.03238250590180e-03
2.06875833333333e+00 1.25179991650737e-01 1.03002967740186e-03
2.08307500000000e+00 1.24461783161320e-01 1.02765759927913e-03
2.09739166666667e+00 1.23747695328165e-01 1.02526676691003e-03
2.11170833333333e+00 1.23037704506014e-01 1.02285766667290e-03
2.12602500000000e+00 1.22331787188666e-01 1.02043077253290e-03
2.14034166666667e+00 1.21629920008047e-01 1.01798655337473e-03
2.15465833333333e+00 1.20932079723622e-01 1.01552546963491e-03
2.16897500000000e+00 1.20238243231468e-01 1.01304796996990e-03
2.18329166666667e+00 1.19548387563359e-01 1.01055449838163e-03
2.19760833333333e+00 1.18862489876555e-01 1.00804549093126e-03
2.21192500000000e+00 1.18180527462523e-01 1.00552137248859e-03
2.22624166666667e+00 1.17502477746049e-01 1.00298256365818e-03
2.24055833333333e+00 1.16828318275374e-01 1.00042947757319e-03
2.25487500000000e+00 1.16158026730591e-01 9.97862516723692e-04
2.26919166666667e+00 1.15491580922773e-01 9.95282079691183e-04
2.28350833333333e+00 1.14828958784450e-01 9.92688558020214e-04
2.29782500000000e+00 1.14170138377690e-01 9.90082333123895e-04
2.31214166666667e+00 1.13515097893244e-01 9.87463782833701e-04
2.32645833333333e+00 1.12863815641352e-01 9.84833278347184e-04
2.34077500000000e+00 1.12216270059519e-01 9.82191181208701e-04
2.35509166666667e+00 1.11572439711682e-01 9.79537849681098e-04
2.36940833333333e+00 1.10932303279320e-01 9.76873635767531e-04
2.38372500000000e+00 1.10295839568954e-01 9.74198882265575e-04
2.39804166666667e+00 1.09663027511319e-01 9.71513928967273e-04
2.41235833333333e+00 1.09033846152782e-01 9.68819109753067e-04
2.42667500000000e+00 1.08408274662560e-01 9.66114749717577e-04
2.44099166666667e+00 1.07786292331915e-01 9.63401171203797e-04
2.45530833333333e+00 1.07167878565854e-01 9.60678690967384e-04
2.46962500000000e+00 1.06553012890081e-01 9.57947617371949e-04
2.48394166666667e+00 1.05941674950220e-01 9.55208256263386e-04
2.49825833333333e+00 1.05333844503774e-01 9.52460908202913e-04
2.51257500000000e+00 1.04729501426840e-01 9.49705865729938e-04
2.52689166666667e+00 1.04128625713335e-01 9.46943419081836e-04
2.54120833333333e+00 1.03531197467228e-01 9.44173853493668e-04
2.55552500000000e+00 1.02937196909009e-01 9.41397446527281e-04
2.56984166666667e+00 1.02346604374933e-01 9.38614473641584e-04
2.58415833333333e+00 1.01759400309501e-01 9.35825205557244e-04
2.59847500000000e+00 1.01175565271702e-01 9.33029905650267e-04
2.61279166666667e+00 1.00595079934274e-01 9.30228835377562e-04
2.62710833333333e+00 1.00017925076420e-01 9.27422251705000e-04
2.64142500000000e+00 9.94440815898355e-02 9.24610404563708e-04
2.65574166666667e+00 9.88735304779828e-02 9.21793542135841e-04
2.67005833333333e+00 9.83062528490388e-02 9.18971908344106e-04
2.68437500000000e+00 9.77422299217116e-02 9.16145740369211e-04
2.69869166666667e+00 9.71814430245294e-02 9.13315273800252e-04
2.71300833333333e+00 9.66238735890110e-02 9.10480740184199e-04
2.72732500000000e+00 9.60695031552810e-02 9.07642364602946e-04
2.74164166666667e+00 9.55183133713722e-02 9.04800370692403e-04
2.75595833333333e+00 9.49702859866102e-02 9.01954978250535e-04
2.77027500000000e+00 9.44254028570349e-02 8.99106400872132e-04
2.78459166666667e+00 9.38836459447180e-02 8.96254850840986e-04
2.79890833333333e+00 9.33449973113509e-02 8.93400536794875e-04
2.81322500000000e+00 9.28094391234832e-02 8.90543661416690e-04
2.82754166666667e+00 9.22769536518518e-02 8.87684426203530e-04
2.84185833333333e+00 9.17475232651675e-02 8.84823029187048e-04
2.85617500000000e+00 9.12211304351749e-02 8.81959662679377e-04
2.87049166666667e+00 9.06977577359958e-02 8.79094517923000e-04
2.88480833333333e+00 9.01773878381042e-02 8.76227782865102e-04
2.89912500000000e+00 8.96600035132170e-02 8.73359639956714e-04
2.91344166666667e+00 8.91455876336500e-02 8.70490270687154e-04
2.92775833333333e+00 8.86341231664751e-02 8.67619853410698e-04
2.94207500000000e+00 8.81255931782478e-02 8.64748561197791e-04
2.95639166666667e+00 8.76199808343758e-02 8.61876566257162e-04
2.97070833333333e+00 8.71172693934518e-02 8.59004037813890e-04
2.98502500000000e+00 8.66174422118243e-02 8.56131140011145e-04
2.99934166666667e+00 8.61204827429781e-02 8.53258036223302e-04
3.01365833333333e+00 8.56263745320367e-02 8.50384886983942e-04
3.02797500000000e+00 8.51351012201821e-02 8.47511847936864e-04
3.04229166666667e+00 8.46466465440473e-02 8.44639074043592e-04
3.05660833333333e+00 8.41609943303817e-02 8.41766717559717e-04
3.07092500000000e+00 8.36781285003265e-02 8.38894926034031e-04
3.08524166666667e+00 8.31980330688182e-02 8.36023846413475e-04
3.09955833333333e+00 8.27206921394116e-02 8.33153623066750e-04
3.11387500000000e+00 8.22460899084156e-02 8.30284395830064e-04
3.12819166666667e+00 8.17742106643085e-02 8.27416304012535e-04
3.14250833333333e+00 8.13050387827123e-02 8.24549484465851e-04
3.15682500000000e+00 8.08385587303948e-02 8.21684069675591e-04
3.17114166666667e+00 8.03747550646956e-02 8.18820191669690e-04
3.18545833333333e+00 7.99136124286469e-02 8.15957980133014e-04
3.19977500000000e+00 7.94551155548469e-02 8.13097560543167e-04
3.21409166666667e+00 7.89992492648960e-02 8.10239057984868e-04
3.22840833333333e+00 7.85459984646596e-02 8.07382595308158e-04
3.24272500000000e+00 7.80953481480167e-02 8.04528291307338e-04
3.25704166666667e+00 7.76472833963071e-02 8.01676264444055e-04
3.27135833333333e+00 7.72017893737304e-02 7.98826631048073e-04
3.28567500000000e+00 7.67588513309749e-02 7.95979503538278e-04
3.29999166666667e+00 7.63184546046758e-02 7.93134994057029e-04
3.31430833333333e+00 7.58805846129448e-02 7.90293212712350e-04
3.32862500000000e+00 7.54452268588849e-02 7.87454265839987e-04
3.34294166666667e+00 7.50123669300578e-02 7.84618259551246e-04
3.35725833333333e+00 7.45819904941417e-02 7.81785298015616e-04
3.37157500000000e+00 7.41540833023342e-02 7.78955481762930e-04
3.38589166666667e+00 7.37286311888305e-02 7.76128911147196e-04
3.40020833333333e+00 7.33056200666030e-02 7.73305684668632e-04
3.41452500000000e+00 7.28850359306984e-02 7.70485897314580e-04
3.42884166666667e+00 7.24668648577251e-02 7.67669643941753e-04
3.44315833333333e+00 7.20510930017516e-02 7.64857017636743e-04
3.45747500000000e+00 7.16377065975003e-02 7.62048108094909e-04
3.47179166666667e+00 7.12266919598447e-02 7.59243004923085e-04
3.48610833333333e+00 7.08180354798226e-02 7.56441796037352e-04
3.50042500000000e+00 7.04117236277305e-02 7.53644566078955e-04
3.51474166666667e+00 7.00077429526303e-02 7.50851399639876e-04
3.52905833333333e+00 6.96060800784729e-02 7.48062379697027e-04
3.54337500000000e+00 6.92067217070974e-02 7.45277586064205e-04
3.55769166666667e+00 6.88096546177468e-02 7.42497098542438e-04
3.57200833333333e+00 6.84148656632987e-02 7.39720995389585e-04
3.58632500000000e+00 6.80223417731723e-02 7.36949351807578e-04
3.60064166666667e+00 6.76320699528526e-02 7.34182243019433e-04
3.61495833333333e+00 6.72440372802258e-02 7.31419742773622e-04
3.62927500000000e+00 6.68582309083964e-02 7.28661921865544e-04
3.64359166666667e+00 6.64746380652205e-02 7.25908851143177e-04
3.65790833333333e+00 6.60932460497414e-02 7.23160600045302e-04
3.67222500000000e+00 6.57140422349207e-02 7.20417235156379e-04
3.68654166666667e+00 6.53370140671805e-02 7.17678823142743e-04
3.70085833333333e+00 6.49621490629360e-02 7.14945429323884e-04
3.71517500000000e+00 6.45894348112434e-02 7.12217116259716e-04
3.72949166666667e+00 6.42188589733510e-02 7.09493946619253e-04
3.74380833333333e+00 6.38504092793250e-02 7.06775981784158e-04
3.75812500000000e+00 6.34840735306184e-02 7.04063280467662e-04
3.77244166666667e+00 6.31198395996292e-02 7.01355901517417e-04
3.78675833333333e+00 6.27576954264183e-02 6.98653902550248e-04
3.80107500000000e+00 6.23976290212002e-02 6.95957338602216e-04
3.81539166666667e+00 6.20396284639099e-02 6.93266264867303e-04
3.82970833333333e+00 6.16836819010085e-02 6.90580735362812e-04
3.84402500000000e+00 6.13297775478996e-02 6.87900801609537e-04
3.85834166666667e+00 6.09779036885037e-02 6.85226515307954e-04
3.87265833333333e+00 6.06280486721494e-02 6.82557927033435e-04
3.88697500000000e+00 6.02802009159178e-02 6.79895084945903e-04
3.90129166666667e+00 5.99343489042245e-02 6.77238037405280e-04
3.91560833333333e+00 5.95904811857936e-02 6.74586831695625e-04
3.92992500000000e+00 5.92485863759320e-02 6.71941512763559e-04
3.94424166666667e+00 5.89086531561196e-02 6.69302125774449e-04
3.95855833333333e+00 5.85706702710631e-02 6.66668714864919e-04
3.97287500000000e+00 5.82346265309032e-02 6.64041321909240e-04
3.98719166666667e+00 5.79005108108116e-02 6.61419989017716e-04
4.00150833333333e+00 5.75683120481236e-02 6.58804757316948e-04
4.01582500000000e+00 5.72380192444790e-02 6.56195665743561e-04
4.03014166666667e+00 5.69096214654274e-02 6.53592753486258e-04
4.04445833333333e+00 5.65831078376352e-02 6.50996058792964e-04
4.05877500000000e+00 5.62584675509645e-02 6.48405617791347e-04
4.07309166666667e+00 5.59356898580846e-02 6.45821466876002e-04
4.08740833333333e+00 5.56147640717531e-02 6.43243641541883e-04
4.10172500000000e+00 5.52956795668327e-02 6.40672175230810e-04
4.11604166666667e+00 5.49784257799110e-02 6.38107101665210e-04
4.13035833333333e+00 5.46629922066511e-02 6.35548453707211e-04
4.14467500000000e+00 5.43493684037509e-02 6.32996262230538e-04
4.15899166666667e+00 5.40375439885685e-02 6.30450558402083e-04
4.17330833333333e+00 5.37275086365427e-02 6.27911372566089e-04
4.18762500000000e+00 5.34192520830941e-02 6.25378733140941e-04
4.20194166666667e+00 5.31127641232584e-02 6.22852668849640e-04
4.21625833333333e+00 5.28080346091727e-02 6.20333207628567e-04
4.23057500000000e+00 5.25050534519222e-02 6.17820375548448e-04
4.24489166666667e+00 5.22038106211795e-02 6.15314198995282e-04
4.25920833333333e+00 5.19042961427558e-02 6.12814703602895e-04
4.27352500000000e+00 5.16065001003947e-02 6.10321913197536e-04
4.28784166666667e+00 5.13104126354171e-02 6.07835851930513e-04
4.30215833333333e+00 5.10160239443364e-02 6.05356543233967e-04
4.31647500000000e+00 5.07233242805990e-02 6.02884008788552e-04
4.33079166666667e+00 5.04323039542376e-02 6.00418270608780e-04
4.34510833333333e+00 5.01429533295453e-02 5.97959350021650e-04
4.35942500000000e+00 4.98552628267681e-02 5.95507266656839e-04
4.37374166666667e+00 4.95692229217626e-02 5.93062040485926e-04
4.38805833333333e+00 4.92848241437306e-02 5.90623690823276e-04
4.40237500000000e+00 4.90020570768626e-02 5.88192235338172e-04
4.41669166666667e+00 4.87209123600020e-02 5.85767692049170e-04
4.43100833333333e+00 4.84413806844368e-02 5.83350078346638e-04
4.44532500000000e+00 4.81634527954962e-02 5.80939410026321e-04
4.45964166666667e+00 4.78871194922213e-02 5.78535703239931e-04
4.47395833333333e+00 4.76123716252121e-02 5.76138973538771e-04
4.48827500000000e+00 4.73392000981791e-02 5.73749234928303e-04
4.50259166666667e+00 4.70675958676195e-02 5.71366501775872e-04
4.51690833333333e+00 4.67975499407188e-02 5.68990787875085e-04
