Energy (eV)          EEDF (eV^-(3/2))     First Anisotropy
1.11000000000000e-03 6.79609922257218e+01 6.15678756914613e-02
3.33000000000000e-03 6.56553139850594e+01 1.00278592634032e-01
5.55000000000000e-03 6.34278593249414e+01 1.28753636037031e-01
7.77000000000000e-03 6.12759743934818e+01 1.48296990135051e-01
9.99000000000000e-03 5.91970953746843e+01 1.62948928820008e-01
1.22100000000000e-02 5.71887454338421e+01 1.74304636560379e-01
1.44300000000000e-02 5.52485317665679e+01 1.83222871952071e-01
1.66500000000000e-02 5.33741427479394e+01 1.90241390617885e-01
1.88700000000000e-02 5.15633451783650e+01 1.95728918824663e-01
2.10900000000000e-02 4.98139816228874e+01 1.99954085953562e-01
2.33100000000000e-02 4.81239678407545e+01 2.03121251880174e-01
2.55300000000000e-02 4.64912903021971e+01 2.05390985556247e-01
2.77500000000000e-02 4.49140037894531e+01 2.06892627190971e-01
2.99700000000000e-02 4.33902290791803e+01 2.07732428378151e-01
3.21900000000000e-02 4.19181507034974e+01 2.07999063450313e-01
3.44100000000000e-02 4.04960147869841e+01 2.07767497838867e-01
3.66300000000000e-02 3.91221269570657e+01 2.07101786279134e-01
3.88500000000000e-02 3.77948503252893e+01 2.06057149383171e-01
4.10700000000000e-02 3.65126035370895e+01 2.04681548989398e-01
4.32900000000000e-02 3.52738588877181e+01 2.03016906364893e-01
4.55100000000000e-02 3.40771405020938e+01 2.01100060175005e-01
4.77300000000000e-02 3.29210225764036e+01 1.98963531065827e-01
4.99500000000000e-02 3.18041276793598e+01 1.96636139997131e-01
5.21700000000000e-02 3.07251251110901e+01 1.94143514227565e-01
5.43900000000000e-02 2.96827293177041e+01 1.91508505769190e-01
5.66100000000000e-02 2.86756983596488e+01 1.88751540770075e-01
5.88300000000000e-02 2.77028324320268e+01 1.85890913754387e-01
6.10500000000000e-02 2.67629724351150e+01 1.82943037370988e-01
6.32700000000000e-02 2.58549985933812e+01 1.79922655893592e-01
6.54900000000000e-02 2.49778291213515e+01 1.76843028923253e-01
6.77100000000000e-02 2.41304189347413e+01 1.73716090393206e-01
6.99300000000000e-02 2.33117584053123e+01 1.70552586946721e-01
7.21500000000000e-02 2.25208721579735e+01 1.67362198965648e-01
7.43700000000000e-02 2.17568179086913e+01 1.64153646910550e-01
7.65900000000000e-02 2.10186853418267e+01 1.60934785149256e-01
7.88100000000000e-02 2.03055950255593e+01 1.57712685067388e-01
8.10300000000000e-02 1.96166973641076e+01 1.54493708948560e-01
8.32500000000000e-02 1.89511715854968e+01 1.51283575866089e-01
8.54700000000000e-02 1.83082247636684e+01 1.48087420628931e-01
8.76900000000000e-02 1.76870908737652e+01 1.44909846662316e-01
8.99100000000000e-02 1.70870298794686e+01 1.41754973570413e-01
9.21300000000000e-02 1.65073268512981e+01 1.38626480018557e-01
9.43500000000000e-02 1.59472911148242e+01 1.35527642481462e-01
9.65700000000000e-02 1.54062554277801e+01 1.32461370327796e-01
9.87900000000000e-02 1.48835751850901e+01 1.29430237647807e-01
1.01010000000000e-01 1.43786276508689e+01 1.26436512176971e-01
1.03230000000000e-01 1.38908112164773e+01 1.23482181623200e-01
1.05450000000000e-01 1.34195446837480e+01 1.20568977666536e-01
1.07670000000000e-01 1.29642665725307e+01 1.17698397867284e-01
1.09890000000000e-01 1.25244344517280e+01 1.14871725690269e-01
1.12110000000000e-01 1.20995242930283e+01 1.12090048828607e-01
1.14330000000000e-01 1.16890298465640e+01 1.09354275989409e-01
1.16550000000000e-01 1.12924620377507e+01 1.06665152285619e-01
1.18770000000000e-01 1.09093483845902e+01 1.04023273362404e-01
1.20990000000000e-01 1.05392324347426e+01 1.01429098372741e-01
1.23210000000000e-01 1.01816732216955e+01 9.88829619047504e-02
1.25430000000000e-01 9.83624473938498e+00 9.63850849527818e-02
1.27650000000000e-01 9.50253543463918e+00 9.39355850149342e-02
1.29870000000000e-01 9.18014771684292e+00 9.15344853914769e-02
1.32090000000000e-01 8.86869748423688e+00 8.91817237513860e-02
1.34310000000000e-01 8.56781366628802e+00 8.68771600277646e-02
1.36530000000000e-01 8.27713778158578e+00 8.46205836971906e-02
1.38750000000000e-01 7.99632351073724e+00 8.24117204929324e-02
1.40970000000000e-01 7.72503628375254e+00 8.02502385974319e-02
1.43190000000000e-01 7.46295288142879e+00 7.81357543553697e-02
1.45410000000000e-01 7.20976105025766e+00 7.60678375449708e-02
1.47630000000000e-01 6.96515913039781e+00 7.40460162419410e-02
1.49850000000000e-01 6.72885569626892e+00 7.20697813074625e-02
1.52070000000000e-01 6.50056920933904e+00 7.01385905290079e-02
1.54290000000000e-01 6.28002768269173e+00 6.82518724403422e-02
1.56510000000000e-01 6.06696835697323e+00 6.64090298448927e-02
1.58730000000000e-01 5.86113738733360e+00 6.46094430647008e-02
1.60950000000000e-01 5.66228954098884e+00 6.28524729353748e-02
1.63170000000000e-01 5.47018790504368e+00 6.11374635658377e-02
1.65390000000000e-01 5.28460360422695e+00 5.94637448801905e-02
1.67610000000000e-01 5.10531552820313e+00 5.78306349576465e-02
1.69830000000000e-01 4.93211006813534e+00 5.62374421852705e-02
1.72050000000000e-01 4.76478086218574e+00 5.46834672371299e-02
1.74270000000000e-01 4.60312854965031e+00 5.31680048924272e-02
1.76490000000000e-01 4.44696053343486e+00 5.16903457042494e-02
1.78710000000000e-01 4.29609075058953e+00 5.02497775296936e-02
1.80930000000000e-01 4.15033945062811e+00 4.88455869313425e-02
1.83150000000000e-01 4.00953298136830e+00 4.74770604593267e-02
1.85370000000000e-01 3.87350358203766e+00 4.61434858225397e-02
1.87590000000000e-01 3.74208918339868e+00 4.48441529569581e-02
1.89810000000000e-01 3.61513321465498e+00 4.35783549984398e-02
1.92030000000000e-01 3.49248441690848e+00 4.23453891668552e-02
1.94250000000000e-01 3.37399666294528e+00 4.11445575679145e-02
1.96470000000000e-01 3.25952878313564e+00 3.99751679186098e-02
1.98690000000000e-01 3.14894439724051e+00 3.88365342017739e-02
2.00910000000000e-01 3.04211175192429e+00 3.77279772548730e-02
2.03130000000000e-01 2.93890356378021e+00 3.66488252977944e-02
2.05350000000000e-01 2.83919686768133e+00 3.55984144040625e-02
2.07570000000000e-01 2.74287287027644e+00 3.45760889196098e-02
2.09790000000000e-01 2.64981680845632e+00 3.35812018329455e-02
2.12010000000000e-01 2.55991781262176e+00 3.26131151003022e-02
2.14230000000000e-01 2.47306877459042e+00 3.16711999290939e-02
2.16450000000000e-01 2.38916621998515e+00 3.07548370227960e-02
2.18670000000000e-01 2.30811018495168e+00 2.98634167901411e-02
2.20890000000000e-01 2.22980409705892e+00 2.89963395213313e-02
2.23110000000000e-01 2.15415466023987e+00 2.81530155337854e-02
2.25330000000000e-01 2.08107174363602e+00 2.73328652897641e-02
2.27550000000000e-01 2.01046827421296e+00 2.65353194880618e-02
2.29770000000000e-01 1.94226013301912e+00 2.57598191318068e-02
2.31990000000000e-01 1.87636605496411e+00 2.50058155742683e-02
2.34210000000000e-01 1.81270753199716e+00 2.42727705444437e-02
2.36430000000000e-01 1.75120871957049e+00 2.35601561540811e-02
2.38650000000000e-01 1.69179634627597e+00 2.28674548876747e-02
2.40870000000000e-01 1.63439962654748e+00 2.21941595768719e-02
2.43090000000000e-01 1.57895017632508e+00 2.15397733606300e-02
2.45310000000000e-01 1.52538193158022e+00 2.09038096323689e-02
2.47530000000000e-01 1.47363106960530e+00 2.02857919752831e-02
2.49750000000000e-01 1.42363593297346e+00 1.96852540868958e-02
2.51970000000000e-01 1.37533695607820e+00 1.91017396938624e-02
2.54190000000000e-01 1.32867659416525e+00 1.85348024579641e-02
2.56410000000000e-01 1.28359925477214e+00 1.79840058741626e-02
2.58630000000000e-01 1.24005123149380e+00 1.74489231615307e-02
2.60850000000000e-01 1.19798063999519e+00 1.69291371478158e-02
2.63070000000000e-01 1.15733735619492e+00 1.64242401483376e-02
2.65290000000000e-01 1.11807295654597e+00 1.59338338398734e-02
2.67510000000000e-01 1.08014066034251e+00 1.54575291301394e-02
2.69730000000000e-01 1.04349527398411e+00 1.49949460234295e-02
2.71950000000000e-01 1.00809313713076e+00 1.45457134829357e-02
2.74170000000000e-01 9.73892070684745e-01 1.41094692902351e-02
2.76390000000000e-01 9.40851326537302e-01 1.36858599023900e-02
2.78610000000000e-01 9.08931539020144e-01 1.32745403070792e-02
2.80830000000000e-01 8.78094678004127e-01 1.28751738761447e-02
2.83050000000000e-01 8.48304003589079e-01 1.24874322179082e-02
2.85270000000000e-01 8.19524022330856e-01 1.21109950285872e-02
2.87490000000000e-01 7.91720444953458e-01 1.17455499431120e-02
2.89710000000000e-01 7.64860145495825e-01 1.13907923856229e-02
2.91930000000000e-01 7.38911121844636e-01 1.10464254199047e-02
2.94150000000000e-01 7.13842457606100e-01 1.07121595999935e-02
2.96370000000000e-01 6.89624285271293e-01 1.03877128211738e-02
2.98590000000000e-01 6.66227750631175e-01 1.00728101715609e-02
3.00810000000000e-01 6.43624978398874e-01 9.76718378445305e-03
3.03030000000000e-01 6.21789038998290e-01 9.47057269161693e-03
3.05250000000000e-01 6.00693916479444e-01 9.18272267765705e-03
3.07470000000000e-01 5.80314477522345e-01 8.90338613560584e-03
3.09690000000000e-01 5.60626441492447e-01 8.63232192385843e-03
3.11910000000000e-01 5.41606351512024e-01 8.36929522456331e-03
3.14130000000000e-01 5.23231546512989e-01 8.11407740356971e-03
3.16350000000000e-01 5.05480134237857e-01 7.86644587202129e-03
3.18570000000000e-01 4.88330965156702e-01 7.62618394967661e-03
3.20790000000000e-01 4.71763607269013e-01 7.39308073002810e-03
3.23010000000000e-01 4.55758321760433e-01 7.16693094728068e-03
3.25230000000000e-01 4.40296039485389e-01 6.94753484524631e-03
3.27450000000000e-01 4.25358338247570e-01 6.73469804820175e-03
3.29670000000000e-01 4.10927420851211e-01 6.52823143374956e-03
3.31890000000000e-01 3.96986093897017e-01 6.32795100771762e-03
3.34110000000000e-01 3.83517747297458e-01 6.13367778112521e-03
3.36330000000000e-01 3.70506334487052e-01 5.94523764923877e-03
3.38550000000000e-01 3.57936353304038e-01 5.76246127273635e-03
3.40770000000000e-01 3.45792827520660e-01 5.58518396099330e-03
3.42990000000000e-01 3.34061289000074e-01 5.41324555749873e-03
3.45210000000000e-01 3.22727760458604e-01 5.24649032740818e-03
3.47430000000000e-01 3.11778738812814e-01 5.08476684723405e-03
3.49650000000000e-01 3.01201179091557e-01 4.92792789667210e-03
3.51870000000000e-01 2.90982478893828e-01 4.77583035255895e-03
3.54090000000000e-01 2.81110463373915e-01 4.62833508495313e-03
3.56310000000000e-01 2.71573370735943e-01 4.48530685532956e-03
3.58530000000000e-01 2.62359838220542e-01 4.34661421687458e-03
3.60750000000000e-01 2.53458888566938e-01 4.21212941686673e-03
3.62970000000000e-01 2.44859916934334e-01 4.08172830112674e-03
3.65190000000000e-01 2.36552678267011e-01 3.95529022051807e-03
3.67410000000000e-01 2.28527275088076e-01 3.83269793947767e-03
3.69630000000000e-01 2.20774145707334e-01 3.71383754655565e-03
3.71850000000000e-01 2.13284052829221e-01 3.59859836694053e-03
3.74070000000000e-01 2.06048072547233e-01 3.48687287694626e-03
3.76290000000000e-01 1.99057583711729e-01 3.37855662043582e-03
3.78510000000000e-01 1.92304257658460e-01 3.27354812715506e-03
3.80730000000000e-01 1.85780048285557e-01 3.17174883295018e-03
3.82950000000000e-01 1.79477182467184e-01 3.07306300184098e-03
3.85170000000000e-01 1.73388150792419e-01 2.97739764992194e-03
3.87390000000000e-01 1.67505698618326e-01 2.88466247106204e-03
3.89610000000000e-01 1.61822817426578e-01 2.79476976437454e-03
3.91830000000000e-01 1.56332736473305e-01 2.70763436342676e-03
3.94050000000000e-01 1.51028914722243e-01 2.62317356716045e-03
3.96270000000000e-01 1.45905033051561e-01 2.54130707249244e-03
3.98490000000000e-01 1.40954986725081e-01 2.46195690856536e-03
4.00710000000000e-01 1.36172878118924e-01 2.38504737261823e-03
4.02930000000000e-01 1.31553009694915e-01 2.31050496744665e-03
4.05150000000000e-01 1.27089877212381e-01 2.23825834042200e-03
4.07370000000000e-01 1.22778163170236e-01 2.16823822403957e-03
4.09590000000000e-01 1.18612730471571e-01 2.10037737796519e-03
4.11810000000000e-01 1.14588616303165e-01 2.03461053255056e-03
4.14030000000000e-01 1.10701026222654e-01 1.97087433378713e-03
4.16250000000000e-01 1.06945328446297e-01 1.90910728966869e-03
4.18470000000000e-01 1.03317048330540e-01 1.84924971793362e-03
4.20690000000000e-01 9.98118630408001e-02 1.79124369515694e-03
4.22910000000000e-01 9.64255964011178e-02 1.73503300716361e-03
4.25130000000000e-01 9.31542139185456e-02 1.68056310073419e-03
4.27350000000000e-01 8.99938179763393e-02 1.62778103657453e-03
4.29570000000000e-01 8.69406431902284e-02 1.57663544352125e-03
4.31790000000000e-01 8.39910519222321e-02 1.52707647395558e-03
4.34010000000000e-01 8.11415299466747e-02 1.47905576039816e-03
4.36230000000000e-01 7.83886822632396e-02 1.43252637325754e-03
4.38450000000000e-01 7.57292290520701e-02 1.38744277970609e-03
4.40670000000000e-01 7.31600017661004e-02 1.34376080365700e-03
4.42890000000000e-01 7.06779393559601e-02 1.30143758681656e-03
4.45110000000000e-01 6.82800846229537e-02 1.26043155078638e-03
4.47330000000000e-01 6.59635806957714e-02 1.22070236019048e-03
4.49550000000000e-01 6.37256676267330e-02 1.18221088680277e-03
4.51770000000000e-01 6.15636791035083e-02 1.14491917465079e-03
4.53990000000000e-01 5.94750392723982e-02 1.10879040607185e-03
4.56210000000000e-01 5.74572596693906e-02 1.07378886869853e-03
4.58430000000000e-01 5.55079362553342e-02 1.03987992335047e-03
4.60650000000000e-01 5.36247465516993e-02 1.00702997281011e-03
4.62870000000000e-01 5.18054468735116e-02 9.75206431460321e-04
4.65090000000000e-01 5.00478696561632e-02 9.44377695762460e-04
4.67310000000000e-01 4.83499208729153e-02 9.14513115553613e-04
4.69530000000000e-01 4.67095775400160e-02 8.85582966142279e-04
4.71750000000000e-01 4.51248853064610e-02 8.57558421182289e-04
4.73970000000000e-01 4.35939561255249e-02 8.30411526305046e-04
4.76190000000000e-01 4.21149660052894e-02 8.04115173490552e-04
4.78410000000000e-01 4.06861528354884e-02 7.78643076158246e-04
4.80630000000000e-01 3.93058142880804e-02 7.53969744959000e-04
4.82850000000000e-01 3.79723057890469e-02 7.30070464249975e-04
4.85070000000000e-01 3.66840385590013e-02 7.06921269234554e-04
4.87290000000000e-01 3.54394777202722e-02 6.84498923749911e-04
4.89510000000000e-01 3.42371404682076e-02 6.62780898685133e-04
4.91730000000000e-01 3.30755943045195e-02 6.41745351013206e-04
4.93950000000000e-01 3.19534553305653e-02 6.21371103420638e-04
4.96170000000000e-01 3.08693865985325e-02 6.01637624518769e-04
4.98390000000000e-01 2.98220965185613e-02 5.82525009621200e-04
5.00610000000000e-01 2.88103373199087e-02 5.64013962072210e-04
5.02830000000000e-01 2.78329035643187e-02 5.46085775111312e-04
5.05050000000000e-01 2.68886307098302e-02 5.28722314259453e-04
5.07270000000000e-01 2.59763937233087e-02 5.11906000212780e-04
5.09490000000000e-01 2.50951057400503e-02 4.95619792230150e-04
5.11710000000000e-01 2.42437167688606e-02 4.79847172000942e-04
5.13930000000000e-01 2.34212124410660e-02 4.64572127980064e-04
5.16150000000000e-01 2.26266128019663e-02 4.49779140177321e-04
5.18370000000000e-01 2.18589711432890e-02 4.35453165388684e-04
5.20590000000000e-01 2.11173728752551e-02 4.21579622857282e-04
5.22810000000000e-01 2.04009344369106e-02 4.08144380352240e-04
5.25030000000000e-01 1.97088022434275e-02 3.95133740653766e-04
5.27250000000000e-01 1.90401516691192e-02 3.82534428433273e-04
5.29470000000000e-01 1.83941860649578e-02 3.70333577517467e-04
5.31690000000000e-01 1.77701358094244e-02 3.58518718525723e-04
5.33910000000000e-01 1.71672573915606e-02 3.47077766870317e-04
5.36130000000000e-01 1.65848325251284e-02 3.35999011109302e-04
5.38350000000000e-01 1.60221672928243e-02 3.25271101642174e-04
5.40570000000000e-01 1.54785913195262e-02 3.14883039738624e-04
5.42790000000000e-01 1.49534569735902e-02 3.04824166891003e-04
5.45010000000000e-01 1.44461385952438e-02 2.95084154481362e-04
5.47230000000000e-01 1.39560317511575e-02 2.85652993754107e-04
5.49450000000000e-01 1.34825525143059e-02 2.76520986085623e-04
5.51670000000000e-01 1.30251367682608e-02 2.67678733542425e-04
5.53890000000000e-01 1.25832395350869e-02 2.59117129719581e-04
5.56110000000000e-01 1.21563343260400e-02 2.50827350851420e-04
5.58330000000000e-01 1.17439125142933e-02 2.42800847186747e-04
5.60550000000000e-01 1.13454827289456e-02 2.35029334620954e-04
5.62770000000000e-01 1.09605702695878e-02 2.27504786577673e-04
5.64990000000000e-01 1.05887165407317e-02 2.20219426132779e-04
5.67210000000000e-01 1.02294785054264e-02 2.13165718373760e-04
5.69430000000000e-01 9.88242815741204e-03 2.06336362987679e-04
5.71650000000000e-01 9.54715201118058e-03 1.99724287071088e-04
5.73870000000000e-01 9.22325060933797e-03 1.93322638155491e-04
5.76090000000000e-01 8.91033804667932e-03 1.87124777442096e-04
5.78310000000000e-01 8.60804151041059e-03 1.81124273239776e-04
5.80530000000000e-01 8.31600083596902e-03 1.75314894600316e-04
5.82750000000000e-01 8.03386807791297e-03 1.69690605145227e-04
5.84970000000000e-01 7.76130709536999e-03 1.64245557078504e-04
5.87190000000000e-01 7.49799315154912e-03 1.58974085379911e-04
5.89410000000000e-01 7.24361252684042e-03 1.53870702173509e-04
5.91630000000000e-01 6.99786214504063e-03 1.48930091266288e-04
5.93850000000000e-01 6.76044921225968e-03 1.44147102851914e-04
5.96070000000000e-01 6.53109086807784e-03 1.39516748374736e-04
5.98290000000000e-01 6.30951384853793e-03 1.35034195549342e-04
6.00510000000000e-01 6.09545416057094e-03 1.30694763531077e-04
6.02730000000000e-01 5.88865676746730e-03 1.26493918233074e-04
6.04950000000000e-01 5.68887528501904e-03 1.22427267785462e-04
6.07170000000000e-01 5.49587168797067e-03 1.18490558132561e-04
6.09390000000000e-01 5.30941602642929e-03 1.14679668763961e-04
6.11610000000000e-01 5.12928615189580e-03 1.10990608575533e-04
6.13830000000000e-01 4.95526745259100e-03 1.07419511856504e-04
6.16050000000000e-01 4.78715259776103e-03 1.03962634398856e-04
6.18270000000000e-01 4.62474129065778e-03 1.00616349725400e-04
6.20490000000000e-01 4.46784002989968e-03 9.73771454330168e-05
6.22710000000000e-01 4.31626187892876e-03 9.42416196475944e-05
6.24930000000000e-01 4.16982624328919e-03 9.12064775873640e-05
6.27150000000000e-01 4.02835865546198e-03 8.82685282313731e-05
6.29370000000000e-01 3.89169056699949e-03 8.54246810899516e-05
6.31590000000000e-01 3.75965914771208e-03 8.26719430741371e-05
6.33810000000000e-01 3.63210709166770e-03 8.00074154610746e-05
6.36030000000000e-01 3.50888242977315e-03 7.74282909525140e-05
6.38250000000000e-01 3.38983834871385e-03 7.49318508236204e-05
6.40470000000000e-01 3.27483301603638e-03 7.25154621593716e-05
6.42690000000000e-01 3.16372941116527e-03 7.01765751759131e-05
6.44910000000000e-01 3.05639516215288e-03 6.79127206243113e-05
6.47130000000000e-01 2.95270238796777e-03 6.57215072742187e-05
6.49350000000000e-01 2.85252754613360e-03 6.36006194750471e-05
6.51570000000000e-01 2.75575128553722e-03 6.15478147923027e-05
6.53790000000000e-01 2.66225830423036e-03 5.95609217168076e-05
6.56010000000000e-01 2.57193721205570e-03 5.76378374446140e-05
6.58230000000000e-01 2.48468039793350e-03 5.57765257254615e-05
6.60450000000000e-01 2.40038390165073e-03 5.39750147777047e-05
6.62670000000000e-01 2.31894728999999e-03 5.22313952676974e-05
6.64890000000000e-01 2.24027353712055e-03 5.05438183516700e-05
6.67110000000000e-01 2.16426890889902e-03 4.89104937782062e-05
6.69330000000000e-01 2.09084285129191e-03 4.73296880494810e-05
6.71550000000000e-01 2.01990788243702e-03 4.57997226394639e-05
6.73770000000000e-01 1.95137948842506e-03 4.43189722673584e-05
6.75990000000000e-01 1.88517602260744e-03 4.28858632245918e-05
6.78210000000000e-01 1.82121860832017e-03 4.14988717537256e-05
6.80430000000000e-01 1.75943104490797e-03 4.01565224776984e-05
6.82650000000000e-01 1.69973971693669e-03 3.88573868778669e-05
6.84870000000000e-01 1.64207350648580e-03 3.76000818193522e-05
6.87090000000000e-01 1.58636370841655e-03 3.63832681222452e-05
6.89310000000000e-01 1.53254394851468e-03 3.52056491772671e-05
6.91530000000000e-01 1.48055010441039e-03 3.40659696045236e-05
6.93750000000000e-01 1.43032022918109e-03 3.29630139540339e-05
6.95970000000000e-01 1.38179447754615e-03 3.18956054467490e-05
6.98190000000000e-01 1.33491503456552e-03 3.08626047548212e-05
7.00410000000000e-01 1.28962604675741e-03 2.98629088199179e-05
