Energy (eV)          EEDF (eV^-(3/2))     First Anisotropy
5.78125000000000e-02 3.20051622011404e-02 2.11874996474573e-05
1.73437500000000e-01 3.16615845738115e-02 3.49161736807286e-05
2.89062500000000e-01 3.13216952760377e-02 4.59071529232504e-05
4.04687500000000e-01 3.09854547133546e-02 5.41446605892794e-05
5.20312500000000e-01 3.06528237163403e-02 6.09224346828590e-05
6.35937500000000e-01 3.03237635360587e-02 6.67324581587230e-05
7.51562500000000e-01 2.99982358395455e-02 7.18307351984812e-05
8.67187500000000e-01 2.96762027053436e-02 7.63726885229814e-05
9.82812500000000e-01 2.93576266190854e-02 8.04619412952899e-05
1.09843750000000e+00 2.90424704691221e-02 8.41721139783670e-05
1.21406250000000e+00 2.87306975422017e-02 8.75579849201628e-05
1.32968750000000e+00 2.84222715191908e-02 9.06617743549576e-05
1.44531250000000e+00 2.81171564708449e-02 9.35169409560014e-05
1.56093750000000e+00 2.78153168536222e-02 9.61506042230507e-05
1.67656250000000e+00 2.75167175055433e-02 9.85851590173534e-05
1.79218750000000e+00 2.72213236420951e-02 1.00839390829458e-04
1.90781250000000e+00 2.69291008521787e-02 1.02929269533906e-04
2.02343750000000e+00 2.66400150941006e-02 1.04868528831781e-04
2.13906250000000e+00 2.63540326916072e-02 1.06669098578963e-04
2.25468750000000e+00 2.60711203299621e-02 1.08341433535511e-04
2.37031250000000e+00 2.57912450520646e-02 1.09894767558027e-04
2.48593750000000e+00 2.55143742546108e-02 1.11337313070655e-04
2.60156250000000e+00 2.52404756842956e-02 1.12676419673371e-04
2.71718750000000e+00 2.49695174340553e-02 1.13918701761718e-04
2.83281250000000e+00 2.47014679393509e-02 1.15070142317494e-04
2.94843750000000e+00 2.44362959744906e-02 1.16136178144179e-04
3.06406250000000e+00 2.41739706489928e-02 1.17121770487810e-04
3.17968750000000e+00 2.39144614039873e-02 1.18031464026397e-04
3.29531250000000e+00 2.36577380086555e-02 1.18869436513124e-04
3.41093750000000e+00 2.34037705567086e-02 1.19639540843214e-04
3.52656250000000e+00 2.31525294629040e-02 1.20345340929037e-04
3.64218750000000e+00 2.29039854595987e-02 1.20990142476755e-04
3.75781250000000e+00 2.26581095933398e-02 1.21577019535253e-04
3.87343750000000e+00 2.24148732214918e-02 1.22108837516432e-04
3.98906250000000e+00 2.21742480088999e-02 1.22588273252376e-04
4.10468750000000e+00 2.19362059245891e-02 1.23017832550047e-04
4.22031250000000e+00 2.17007192384988e-02 1.23399865621169e-04
4.33593750000000e+00 2.14677605182525e-02 1.23736580698860e-04
4.45156250000000e+00 2.12373026259624e-02 1.24030056099576e-04
4.56718750000000e+00 2.10093187150674e-02 1.24282250946055e-04
4.68281250000000e+00 2.07837822272065e-02 1.24495014732134e-04
4.79843750000000e+00 2.05606668891242e-02 1.24670095881867e-04
4.91406250000000e+00 2.03399467096104e-02 1.24809149431963e-04
5.02968750000000e+00 2.01215959764724e-02 1.24913743947288e-04
5.14531250000000e+00 1.99055892535397e-02 1.24985367763124e-04
5.26093750000000e+00 1.96919013777007e-02 1.25025434634463e-04
5.37656250000000e+00 1.94805074559718e-02 1.25035288861421e-04
5.49218750000000e+00 1.92713828625970e-02 1.25016209950485e-04
5.60781250000000e+00 1.90645032361798e-02 1.24969416863279e-04
5.72343750000000e+00 1.88598444768446e-02 1.24896071897761e-04
5.83906250000000e+00 1.86573827434301e-02 1.24797284241093e-04
5.95468750000000e+00 1.84570944507110e-02 1.24674113228430e-04
6.07031250000000e+00 1.82589562666515e-02 1.24527571337737e-04
6.18593750000000e+00 1.80629451096864e-02 1.24358626947067e-04
6.30156250000000e+00 1.78690381460331e-02 1.24168206877618e-04
6.41718750000000e+00 1.76772127870309e-02 1.23957198743204e-04
6.53281250000000e+00 1.74874466865100e-02 1.23726453124462e-04
6.64843750000000e+00 1.72997177381885e-02 1.23476785583979e-04
6.76406250000000e+00 1.71140040730967e-02 1.23208978536852e-04
6.87968750000000e+00 1.69302840570299e-02 1.22923782989565e-04
6.99531250000000e+00 1.67485362880281e-02 1.22621920158731e-04
7.11093750000000e+00 1.65687395938828e-02 1.22304082980056e-04
7.22656250000000e+00 1.63908730296707e-02 1.21970937516815e-04
7.34218750000000e+00 1.62149158753134e-02 1.21623124276160e-04
7.45781250000000e+00 1.60408476331645e-02 1.21261259440854e-04
7.57343750000000e+00 1.58686480256207e-02 1.20885936023174e-04
7.68906250000000e+00 1.56982969927605e-02 1.20497724947165e-04
7.80468750000000e+00 1.55297746900070e-02 1.20097176064814e-04
7.92031250000000e+00 1.53630614858161e-02 1.19684819111183e-04
8.03593750000000e+00 1.51981379593897e-02 1.19261164603105e-04
8.15156250000000e+00 1.50349848984136e-02 1.18826704685642e-04
8.26718750000000e+00 1.48735832968186e-02 1.18381913930088e-04
8.38281250000000e+00 1.47139143525674e-02 1.17927250087005e-04
8.49843750000000e+00 1.45559594654636e-02 1.17463154797503e-04
8.61406250000000e+00 1.43997002349854e-02 1.16990054265623e-04
8.72968750000000e+00 1.42451184581417e-02 1.16508359894543e-04
8.84531250000000e+00 1.40921961273520e-02 1.16018468889023e-04
8.96093750000000e+00 1.39409154283481e-02 1.15520764826354e-04
9.07656250000000e+00 1.37912587380994e-02 1.15015618197884e-04
9.19218750000000e+00 1.36432086227597e-02 1.14503386923009e-04
9.30781250000000e+00 1.34967478356365e-02 1.13984416837421e-04
9.42343750000000e+00 1.33518593151814e-02 1.13459042157213e-04
9.53906250000000e+00 1.32085261830032e-02 1.12927585920343e-04
9.65468750000000e+00 1.30667317419013e-02 1.12390360406848e-04
9.77031250000000e+00 1.29264594739207e-02 1.11847667539105e-04
9.88593750000000e+00 1.27876930384278e-02 1.11299799263321e-04
1.00015625000000e+01 1.26504162702067e-02 1.10747037913359e-04
1.01171875000000e+01 1.25146131775763e-02 1.10189656557918e-04
1.02328125000000e+01 1.23802679405275e-02 1.09627919332049e-04
1.03484375000000e+01 1.22473649088799e-02 1.09062081753879e-04
1.04640625000000e+01 1.21158886004587e-02 1.08492391027372e-04
1.05796875000000e+01 1.19858236992917e-02 1.07919086331883e-04
1.06953125000000e+01 1.18571550538243e-02 1.07342399099273e-04
1.08109375000000e+01 1.17298676751553e-02 1.06762553279214e-04
1.09265625000000e+01 1.16039467352901e-02 1.06179765593328e-04
1.10421875000000e+01 1.14793775654138e-02 1.05594245778748e-04
1.11578125000000e+01 1.13561456541821e-02 1.05006196821659e-04
1.12734375000000e+01 1.12342366460311e-02 1.04415815181322e-04
1.13890625000000e+01 1.11136363395048e-02 1.03823291005072e-04
1.15046875000000e+01 1.09943306856009e-02 1.03228808334755e-04
1.16203125000000e+01 1.08763057861341e-02 1.02632545304996e-04
1.17359375000000e+01 1.07595478921169e-02 1.02034674333757e-04
1.18515625000000e+01 1.06440434021584e-02 1.01435362305489e-04
1.19671875000000e+01 1.05297788608793e-02 1.00834770747297e-04
1.20828125000000e+01 1.04167409573450e-02 1.00233055998418e-04
1.21984375000000e+01 1.03049165235144e-02 9.96303693733317e-05
1.23140625000000e+01 1.01942925327066e-02 9.90268573188010e-05
1.24296875000000e+01 1.00848560980827e-02 9.84226615651289e-05
1.25453125000000e+01 9.97659447114505e-03 9.78179192718901e-05
1.26609375000000e+01 9.86949504025194e-03 9.72127631683828e-05
1.27765625000000e+01 9.76354532914857e-03 9.66073216890518e-05
1.28921875000000e+01 9.65873299551357e-03 9.60017191040835e-05
1.30078125000000e+01 9.55504582952123e-03 9.53960756453951e-05
1.31234375000000e+01 9.45247175241917e-03 9.47905076282292e-05
1.32390625000000e+01 9.35099881512126e-03 9.41851275685228e-05
1.33546875000000e+01 9.25061519681563e-03 9.35800442962446e-05
1.34703125000000e+01 9.15130920358763e-03 9.29753630648671e-05
1.35859375000000e+01 9.05306926705761e-03 9.23711856571180e-05
1.37015625000000e+01 8.95588394303327e-03 9.17676104871988e-05
1.38171875000000e+01 8.85974191017649e-03 9.11647326995899e-05
1.39328125000000e+01 8.76463196868452e-03 9.05626442645765e-05
1.40484375000000e+01 8.67054303898525e-03 8.99614340706539e-05
1.41640625000000e+01 8.57746416044655e-03 8.93611880139094e-05
1.42796875000000e+01 8.48538449009944e-03 8.87619890845174e-05
1.43953125000000e+01 8.39429330137494e-03 8.81639174504524e-05
1.45109375000000e+01 8.30417998285454e-03 8.75670505385221e-05
1.46265625000000e+01 8.21503403703405e-03 8.69714631128459e-05
1.47421875000000e+01 8.12684507910070e-03 8.63772273508487e-05
1.48578125000000e+01 8.03960283572340e-03 8.57844129168819e-05
1.49734375000000e+01 7.95329714385600e-03 8.51930870335656e-05
1.50890625000000e+01 7.86791794955333e-03 8.46033145509204e-05
1.52046875000000e+01 7.78345530680003e-03 8.40151580133650e-05
1.53203125000000e+01 7.69989937635189e-03 8.34286777246792e-05
1.54359375000000e+01 7.61724042458967e-03 8.28439318110047e-05
1.55515625000000e+01 7.53546882238522e-03 8.22609762819351e-05
1.56671875000000e+01 7.45457504397973e-03 8.16798650897857e-05
1.57828125000000e+01 7.37454966587407e-03 8.11006501870823e-05
1.58984375000000e+01 7.29538336573102e-03 8.05233815823545e-05
1.60140625000000e+01 7.21706692128931e-03 7.99481073942854e-05
1.61296875000000e+01 7.13959120928928e-03 7.93748739042716e-05
1.62453125000000e+01 7.06294720441007e-03 7.88037256074498e-05
1.63609375000000e+01 6.98712597821828e-03 7.82347052622398e-05
1.64765625000000e+01 6.91211869812787e-03 7.76678539384693e-05
1.65921875000000e+01 6.83791662637119e-03 7.71032110640981e-05
1.67078125000000e+01 6.76451111898117e-03 7.65408144706175e-05
1.68234375000000e+01 6.69189362478429e-03 7.59807004371614e-05
1.69390625000000e+01 6.62005568440448e-03 7.54229037333596e-05
1.70546875000000e+01 6.54898892927766e-03 7.48674576609875e-05
1.71703125000000e+01 6.47868508067687e-03 7.43143940944418e-05
1.72859375000000e+01 6.40913594874783e-03 7.37637435200960e-05
1.74015625000000e+01 6.34033343155494e-03 7.32155350745527e-05
1.75171875000000e+01 6.27226951413742e-03 7.26697965818369e-05
1.76328125000000e+01 6.20493626757567e-03 7.21265545895648e-05
1.77484375000000e+01 6.13832584806755e-03 7.15858344041150e-05
1.78640625000000e+01 6.07243049601471e-03 7.10476601248435e-05
1.79796875000000e+01 6.00724253511863e-03 7.05120546773609e-05
1.80953125000000e+01 5.94275437148635e-03 6.99790398459070e-05
1.82109375000000e+01 5.87895849274591e-03 6.94486363048492e-05
1.83265625000000e+01 5.81584746717117e-03 6.89208636493335e-05
1.84421875000000e+01 5.75341394281607e-03 6.83957404251082e-05
1.85578125000000e+01 5.69165064665822e-03 6.78732841575471e-05
1.86734375000000e+01 5.63055038375163e-03 6.73535113799099e-05
1.87890625000000e+01 5.57010603638851e-03 6.68364376608337e-05
1.89046875000000e+01 5.51031056327022e-03 6.63220776311024e-05
1.90203125000000e+01 5.45115699868689e-03 6.58104450097193e-05
1.91359375000000e+01 5.39263845170607e-03 6.53015526292799e-05
1.92515625000000e+01 5.33474810536991e-03 6.47954124606765e-05
1.93671875000000e+01 5.27747921590109e-03 6.42920356371605e-05
1.94828125000000e+01 5.22082511191722e-03 6.37914324777766e-05
1.95984375000000e+01 5.16477919365363e-03 6.32936125101842e-05
1.97140625000000e+01 5.10933493219460e-03 6.27985844928889e-05
1.98296875000000e+01 5.05448586871278e-03 6.23063564368903e-05
1.99453125000000e+01 5.00022561371674e-03 6.18169356267766e-05
2.00609375000000e+01 4.94654784630673e-03 6.13303286412677e-05
2.01765625000000e+01 4.89344631343826e-03 6.08465413732414e-05
2.02921875000000e+01 4.84091482919372e-03 6.03655790492314e-05
2.04078125000000e+01 4.78894727406174e-03 5.98874462484345e-05
2.05234375000000e+01 4.73753759422435e-03 5.94121469212311e-05
2.06390625000000e+01 4.68667980085171e-03 5.89396844072243e-05
2.07546875000000e+01 4.63636796940451e-03 5.84700614528343e-05
2.08703125000000e+01 4.58659623894374e-03 5.80032802284334e-05
2.09859375000000e+01 4.53735881144801e-03 5.75393423450493e-05
2.11015625000000e+01 4.48864995113808e-03 5.70782488706422e-05
2.12171875000000e+01 4.44046398380868e-03 5.66200003459778e-05
2.13328125000000e+01 4.39279529616756e-03 5.61645968000959e-05
2.14484375000000e+01 4.34563833518151e-03 5.57120377653843e-05
2.15640625000000e+01 4.29898760742954e-03 5.52623222922781e-05
2.16796875000000e+01 4.25283767846292e-03 5.48154489635912e-05
2.17953125000000e+01 4.20718317217207e-03 5.43714159084793e-05
2.19109375000000e+01 4.16201877016036e-03 5.39302208160590e-05
2.20265625000000e+01 4.11733921112449e-03 5.34918609486887e-05
2.21421875000000e+01 4.07313929024160e-03 5.30563331549095e-05
2.22578125000000e+01 4.02941385856301e-03 5.26236338820654e-05
2.23734375000000e+01 3.98615782241431e-03 5.21937591886123e-05
2.24890625000000e+01 3.94336614280206e-03 5.17667047561136e-05
2.26046875000000e+01 3.90103383482676e-03 5.13424659009378e-05
2.27203125000000e+01 3.85915596710216e-03 5.09210375856707e-05
2.28359375000000e+01 3.81772766118076e-03 5.05024144302343e-05
2.29515625000000e+01 3.77674409098556e-03 5.00865907227377e-05
2.30671875000000e+01 3.73620048224780e-03 4.96735604300548e-05
2.31828125000000e+01 3.69609211195084e-03 4.92633172081309e-05
2.32984375000000e+01 3.65641430777996e-03 4.88558544120478e-05
2.34140625000000e+01 3.61716244757805e-03 4.84511651058326e-05
2.35296875000000e+01 3.57833195880717e-03 4.80492420720161e-05
2.36453125000000e+01 3.53991831801589e-03 4.76500778209626e-05
2.37609375000000e+01 3.50191705031237e-03 4.72536645999629e-05
2.38765625000000e+01 3.46432372884300e-03 4.68599944021055e-05
2.39921875000000e+01 3.42713397427679e-03 4.64690589749285e-05
2.41078125000000e+01 3.39034345429515e-03 4.60808498288520e-05
2.42234375000000e+01 3.35394788308724e-03 4.56953582453998e-05
2.43390625000000e+01 3.31794302085067e-03 4.53125752852232e-05
2.44546875000000e+01 3.28232467329765e-03 4.49324917959223e-05
2.45703125000000e+01 3.24708869116634e-03 4.45550984196724e-05
2.46859375000000e+01 3.21223096973754e-03 4.41803856006623e-05
2.48015625000000e+01 3.17774744835647e-03 4.38083435923467e-05
2.49171875000000e+01 3.14363410995975e-03 4.34389624645164e-05
2.50328125000000e+01 3.10988698060749e-03 4.30722321101960e-05
2.51484375000000e+01 3.07650212902028e-03 4.27081422523664e-05
2.52640625000000e+01 3.04347566612130e-03 4.23466824505201e-05
2.53796875000000e+01 3.01080374458322e-03 4.19878421070573e-05
2.54953125000000e+01 2.97848255838002e-03 4.16316104735141e-05
2.56109375000000e+01 2.94650834234367e-03 4.12779766566418e-05
2.57265625000000e+01 2.91487737172544e-03 4.09269296243303e-05
2.58421875000000e+01 2.88358596176207e-03 4.05784582113845e-05
2.59578125000000e+01 2.85263046724646e-03 4.02325511251556e-05
2.60734375000000e+01 2.82200728210307e-03 3.98891969510313e-05
2.61890625000000e+01 2.79171283896784e-03 3.95483841577841e-05
2.63046875000000e+01 2.76174360877259e-03 3.92101011027875e-05
2.64203125000000e+01 2.73209610033395e-03 3.88743360371057e-05
2.65359375000000e+01 2.70276685994663e-03 3.85410771104469e-05
2.66515625000000e+01 2.67375247098111e-03 3.82103123759926e-05
2.67671875000000e+01 2.64504955348564e-03 3.78820297951060e-05
2.68828125000000e+01 2.61665476379245e-03 3.75562172419222e-05
2.69984375000000e+01 2.58856479412831e-03 3.72328625078159e-05
2.71140625000000e+01 2.56077637222915e-03 3.69119533057602e-05
2.72296875000000e+01 2.53328626095887e-03 3.65934772745744e-05
2.73453125000000e+01 2.50609125793226e-03 3.62774219830567e-05
2.74609375000000e+01 2.47918819514194e-03 3.59637749340175e-05
2.75765625000000e+01 2.45257393858932e-03 3.56525235682092e-05
2.76921875000000e+01 2.42624538791945e-03 3.53436552681422e-05
2.78078125000000e+01 2.40019947605998e-03 3.50371573618170e-05
2.79234375000000e+01 2.37443316886372e-03 3.47330171263561e-05
2.80390625000000e+01 2.34894346475532e-03 3.44312217915342e-05
2.81546875000000e+01 2.32372739438151e-03 3.41317585432226e-05
2.82703125000000e+01 2.29878202026524e-03 3.38346145267418e-05
2.83859375000000e+01 2.27410443646350e-03 3.35397768501241e-05
2.85015625000000e+01 2.24969176822875e-03 3.32472325872951e-05
2.86171875000000e+01 2.22554117167408e-03 3.29569687811661e-05
2.87328125000000e+01 2.20164983344189e-03 3.26689724466452e-05
2.88484375000000e+01 2.17801497037619e-03 3.23832305735712e-05
2.89640625000000e+01 2.15463382919835e-03 3.20997301295661e-05
2.90796875000000e+01 2.13150368618636e-03 3.18184580628132e-05
2.91953125000000e+01 2.10862184685759e-03 3.15394013047576e-05
2.93109375000000e+01 2.08598564565482e-03 3.12625467727382e-05
2.94265625000000e+01 2.06359244563582e-03 3.09878813725440e-05
2.95421875000000e+01 2.04143963816609e-03 3.07153920009013e-05
2.96578125000000e+01 2.01952464261500e-03 3.04450655478960e-05
2.97734375000000e+01 1.99784490605517e-03 3.01768888993250e-05
2.98890625000000e+01 1.97639790296508e-03 2.99108489389859e-05
3.00046875000000e+01 1.95518113493486e-03 2.96469325509004e-05
3.01203125000000e+01 1.93419213037523e-03 2.93851266214791e-05
3.02359375000000e+01 1.91342844422960e-03 2.91254180416247e-05
3.03515625000000e+01 1.89288765768922e-03 2.88677937087713e-05
3.04671875000000e+01 1.87256737791144e-03 2.86122405288716e-05
3.05828125000000e+01 1.85246523774093e-03 2.83587454183260e-05
3.06984375000000e+01 1.83257889543393e-03 2.81072953058551e-05
3.08140625000000e+01 1.81290603438547e-03 2.78578771343198e-05
3.09296875000000e+01 1.79344436285949e-03 2.76104778624865e-05
3.10453125000000e+01 1.77419161372187e-03 2.73650844667437e-05
3.11609375000000e+01 1.75514554417634e-03 2.71216839427656e-05
3.12765625000000e+01 1.73630393550321e-03 2.68802633071277e-05
3.13921875000000e+01 1.71766459280087e-03 2.66408095988753e-05
3.15078125000000e+01 1.69922534473017e-03 2.64033098810430e-05
3.16234375000000e+01 1.68098404326141e-03 2.61677512421302e-05
3.17390625000000e+01 1.66293856342414e-03 2.59341207975314e-05
3.18546875000000e+01 1.64508680305961e-03 2.57024056909205e-05
3.19703125000000e+01 1.62742668257591e-03 2.54725930955946e-05
3.20859375000000e+01 1.60995614470567e-03 2.52446702157775e-05
3.22015625000000e+01 1.59267315426644e-03 2.50186242878788e-05
3.23171875000000e+01 1.57557569792360e-03 2.47944425817139e-05
3.24328125000000e+01 1.55866178395579e-03 2.45721124016883e-05
3.25484375000000e+01 1.54192944202295e-03 2.43516210879405e-05
3.26640625000000e+01 1.52537672293673e-03 2.41329560174478e-05
3.27796875000000e+01 1.50900169843347e-03 2.39161046050980e-05
3.28953125000000e+01 1.49280246094954e-03 2.37010543047238e-05
3.30109375000000e+01 1.47677712339914e-03 2.34877926101031e-05
3.31265625000000e+01 1.46092381895447e-03 2.32763070559259e-05
3.32421875000000e+01 1.44524070082827e-03 2.30665852187277e-05
3.33578125000000e+01 1.42972594205863e-03 2.28586147177908e-05
3.34734375000000e+01 1.41437773529625e-03 2.26523832160137e-05
3.35890625000000e+01 1.39919429259381e-03 2.24478784207495e-05
3.37046875000000e+01 1.38417384519775e-03 2.22450880846168e-05
3.38203125000000e+01 1.36931464334219e-03 2.20440000062766e-05
3.39359375000000e+01 1.35461495604511e-03 2.18446020311844e-05
3.40515625000000e+01 1.34007307090672e-03 2.16468820523141e-05
3.41671875000000e+01 1.32568729390993e-03 2.14508280108514e-05
3.42828125000000e+01 1.31145594922306e-03 2.12564278968645e-05
3.43984375000000e+01 1.29737737900459e-03 2.10636697499451e-05
3.45140625000000e+01 1.28344994321006e-03 2.08725416598269e-05
3.46296875000000e+01 1.26967201940097e-03 2.06830317669788e-05
3.47453125000000e+01 1.25604200255583e-03 2.04951282631712e-05
3.48609375000000e+01 1.24255830488318e-03 2.03088193920233e-05
3.49765625000000e+01 1.22921935563658e-03 2.01240934495222e-05
3.50921875000000e+01 1.21602360093168e-03 1.99409387845217e-05
3.52078125000000e+01 1.20296950356518e-03 1.97593437992214e-05
3.53234375000000e+01 1.19005554283577e-03 1.95792969496205e-05
3.54390625000000e+01 1.17728021436697e-03 1.94007867459528e-05
3.55546875000000e+01 1.16464202993188e-03 1.92238017531007e-05
3.56703125000000e+01 1.15213951727983e-03 1.90483305909890e-05
3.57859375000000e+01 1.13977121996484e-03 1.88743619349597e-05
3.59015625000000e+01 1.12753569717601e-03 1.87018845161274e-05
3.60171875000000e+01 1.11543152356963e-03 1.85308871217175e-05
3.61328125000000e+01 1.10345728910314e-03 1.83613585953831e-05
3.62484375000000e+01 1.09161159887091e-03 1.81932878375066e-05
3.63640625000000e+01 1.07989307294169e-03 1.80266638054857e-05
3.64796875000000e+01 1.06830034619791e-03 1.78614755139998e-05
