Energy (eV)          EEDF (eV^-(3/2))     First Anisotropy
6.45000000000000e-03 4.88412093090811e+00 5.53088697071585e-03
1.93500000000000e-02 4.71768908562024e+00 9.00773899580039e-03
3.22500000000000e-02 4.55692859030917e+00 1.15637794918072e-02
4.51500000000000e-02 4.40164618742516e+00 1.33169684615493e-02
5.80500000000000e-02 4.25165520488443e+00 1.46304363822305e-02
7.09500000000000e-02 4.10677533166183e+00 1.56475895370416e-02
8.38500000000000e-02 3.96683240103066e+00 1.64456456146395e-02
9.67500000000000e-02 3.83165818118887e+00 1.70729665165288e-02
1.09650000000000e-01 3.70109017301993e+00 1.75627172457226e-02
1.22550000000000e-01 3.57497141474518e+00 1.79390620019133e-02
1.35450000000000e-01 3.45315029323289e+00 1.82203849313799e-02
1.48350000000000e-01 3.33548036173720e+00 1.84211312824730e-02
1.61250000000000e-01 3.22182016384777e+00 1.85529369552285e-02
1.74150000000000e-01 3.11203306343852e+00 1.86253605199124e-02
1.87050000000000e-01 3.00598708041116e+00 1.86463788961783e-02
1.99950000000000e-01 2.90355473203580e+00 1.86227353066023e-02
2.12850000000000e-01 2.80461287969819e+00 1.85601910015588e-02
2.25750000000000e-01 2.70904258086911e+00 1.84637120889129e-02
2.38650000000000e-01 2.61672894611813e+00 1.83376112854056e-02
2.51550000000000e-01 2.52756100099976e+00 1.81856575443973e-02
2.64450000000000e-01 2.44143155264600e+00 1.80111622747106e-02
2.77350000000000e-01 2.35823706090487e+00 1.78170481618639e-02
2.90250000000000e-01 2.27787751387008e+00 1.76059048310035e-02
3.03150000000000e-01 2.20025630765212e+00 1.73800344007043e-02
3.16050000000000e-01 2.12528013024631e+00 1.71414891598894e-02
3.28950000000000e-01 2.05285884935816e+00 1.68921030283303e-02
3.41850000000000e-01 1.98290540405124e+00 1.66335180538525e-02
3.54750000000000e-01 1.91533570008719e+00 1.63672069045131e-02
3.67650000000000e-01 1.85006850883225e+00 1.60944920974440e-02
3.80550000000000e-01 1.78702536960856e+00 1.58165625448289e-02
3.93450000000000e-01 1.72613049537301e+00 1.55344878759854e-02
4.06350000000000e-01 1.66731068161014e+00 1.52492309019117e-02
4.19250000000000e-01 1.61049521832969e+00 1.49616585173184e-02
4.32150000000000e-01 1.55561580506281e+00 1.46725512796751e-02
4.45050000000000e-01 1.50260646875502e+00 1.43826118612400e-02
4.57950000000000e-01 1.45140348445693e+00 1.40924725355532e-02
4.70850000000000e-01 1.40194529871757e+00 1.38027018323512e-02
4.83750000000000e-01 1.35417245558819e+00 1.35138104727282e-02
4.96650000000000e-01 1.30802752514753e+00 1.32262566784521e-02
5.09550000000000e-01 1.26345503446267e+00 1.29404509347366e-02
5.22450000000000e-01 1.22040140090248e+00 1.26567602737842e-02
5.35350000000000e-01 1.17881486772354e+00 1.23755121365334e-02
5.48250000000000e-01 1.13864544185090e+00 1.20969978618363e-02
5.61150000000000e-01 1.09984483377918e+00 1.18214758454484e-02
5.74050000000000e-01 1.06236639952154e+00 1.15491744054754e-02
5.86950000000000e-01 1.02616508453679e+00 1.12802943860843e-02
5.99850000000000e-01 9.91197369567270e-01 1.10150115271959e-02
6.12750000000000e-01 9.57421218322351e-01 1.07534786243950e-02
6.25650000000000e-01 9.24796026944707e-01 1.04958275003261e-02
6.38550000000000e-01 8.93282575198541e-01 1.02421708062963e-02
6.51450000000000e-01 8.62842979321154e-01 9.99260367061619e-03
6.64350000000000e-01 8.33440646481135e-01 9.74720520832212e-03
6.77250000000000e-01 8.05040230788447e-01 9.50603990527945e-03
6.90150000000000e-01 7.77607590803510e-01 9.26915888824636e-03
7.03050000000000e-01 7.51109748494220e-01 9.03660109123347e-03
7.15950000000000e-01 7.25514849591543e-01 8.80839432740804e-03
7.28850000000000e-01 7.00792125296041e-01 8.58455627483807e-03
7.41750000000000e-01 6.76911855289290e-01 8.36509538353128e-03
7.54650000000000e-01 6.53845332005727e-01 8.15001171048585e-03
7.67550000000000e-01 6.31564826121969e-01 7.93929768881355e-03
7.80450000000000e-01 6.10043553222123e-01 7.73293883641440e-03
7.93350000000000e-01 5.89255641599018e-01 7.53091440916761e-03
8.06250000000000e-01 5.69176101152639e-01 7.33319800314277e-03
8.19150000000000e-01 5.49780793348384e-01 7.13975810992412e-03
8.32050000000000e-01 5.31046402199028e-01 6.95055862877458e-03
8.44950000000000e-01 5.12950406235504e-01 6.76555933903531e-03
8.57850000000000e-01 4.95471051432820e-01 6.58471633586130e-03
8.70750000000000e-01 4.78587325058547e-01 6.40798243212743e-03
8.83650000000000e-01 4.62278930412447e-01 6.23530752909812e-03
8.96550000000000e-01 4.46526262426891e-01 6.06663895823807e-03
9.09450000000000e-01 4.31310384098700e-01 5.90192179634396e-03
9.22350000000000e-01 4.16613003724111e-01 5.74109915599961e-03
9.35250000000000e-01 4.02416452909485e-01 5.58411245319602e-03
9.48150000000000e-01 3.88703665331318e-01 5.43090165380986e-03
9.61050000000000e-01 3.75458156220032e-01 5.28140550050137e-03
9.73950000000000e-01 3.62664002542886e-01 5.13556172147022e-03
9.86850000000000e-01 3.50305823862162e-01 4.99330722239687e-03
9.99750000000000e-01 3.38368763845639e-01 4.85457826279507e-03
1.01265000000000e+00 3.26838472407117e-01 4.71931061790894e-03
1.02555000000000e+00 3.15701088455523e-01 4.58743972720203e-03
1.03845000000000e+00 3.04943223231854e-01 4.45890083040783e-03
1.05135000000000e+00 2.94551944213944e-01 4.33362909204016e-03
1.06425000000000e+00 2.84514759569680e-01 4.21155971519497e-03
1.07715000000000e+00 2.74819603140004e-01 4.09262804541523e-03
1.09005000000000e+00 2.65454819933630e-01 3.97676966533438e-03
1.10295000000000e+00 2.56409152116044e-01 3.86392048076225e-03
1.11585000000000e+00 2.47671725475944e-01 3.75401679883032e-03
1.12875000000000e+00 2.39232036352861e-01 3.64699539876925e-03
1.14165000000000e+00 2.31079939010218e-01 3.54279359585071e-03
1.15455000000000e+00 2.23205633438681e-01 3.44134929898836e-03
1.16745000000000e+00 2.15599653575120e-01 3.34260106245867e-03
1.18035000000000e+00 2.08252855923019e-01 3.24648813216931e-03
1.19325000000000e+00 2.01156408560660e-01 3.15295048687389e-03
1.20615000000000e+00 1.94301780523868e-01 3.06192887470381e-03
1.21905000000000e+00 1.87680731550547e-01 2.97336484536228e-03
1.23195000000000e+00 1.81285302174684e-01 2.88720077830265e-03
1.24485000000000e+00 1.75107804157911e-01 2.80337990719022e-03
1.25775000000000e+00 1.69140811247119e-01 2.72184634092662e-03
1.27065000000000e+00 1.63377150247024e-01 2.64254508149690e-03
1.28355000000000e+00 1.57809892396939e-01 2.56542203888154e-03
1.29645000000000e+00 1.52432345041390e-01 2.49042404325924e-03
1.30935000000000e+00 1.47238043584573e-01 2.41749885471077e-03
1.32225000000000e+00 1.42220743718967e-01 2.34659517062024e-03
1.33515000000000e+00 1.37374413918764e-01 2.27766263095652e-03
1.34805000000000e+00 1.32693228189097e-01 2.21065182160511e-03
1.36095000000000e+00 1.28171559062343e-01 2.14551427590955e-03
1.37385000000000e+00 1.23803970833092e-01 2.08220247457001e-03
1.38675000000000e+00 1.19585213023630e-01 2.02066984403728e-03
1.39965000000000e+00 1.15510214072103e-01 1.96087075353063e-03
1.41255000000000e+00 1.11574075235763e-01 1.90276051079912e-03
1.42545000000000e+00 1.07772064701957e-01 1.84629535673819e-03
1.43835000000000e+00 1.04099611899808e-01 1.79143245896514e-03
1.45125000000000e+00 1.00552302005714e-01 1.73812990445034e-03
1.46415000000000e+00 9.71258706360944e-02 1.68634669129421e-03
1.47705000000000e+00 9.38161987209728e-02 1.63604271973384e-03
1.48995000000000e+00 9.06193075522580e-02 1.58717878245703e-03
1.50285000000000e+00 8.75313540007557e-02 1.53971655429636e-03
1.51575000000000e+00 8.45486258961676e-02 1.49361858137077e-03
1.52865000000000e+00 8.16675375645210e-02 1.44884826973703e-03
1.54155000000000e+00 7.88846255176664e-02 1.40536987360946e-03
1.55445000000000e+00 7.61965442896596e-02 1.36314848320185e-03
1.56735000000000e+00 7.36000624150242e-02 1.32215001224166e-03
1.58025000000000e+00 7.10920585440588e-02 1.28234118520286e-03
1.59315000000000e+00 6.86695176905201e-02 1.24368952430056e-03
1.60605000000000e+00 6.63295276071695e-02 1.20616333628726e-03
1.61895000000000e+00 6.40692752848273e-02 1.16973169908744e-03
1.63185000000000e+00 6.18860435707263e-02 1.13436444830472e-03
1.64475000000000e+00 5.97772079020974e-02 1.10003216363295e-03
1.65765000000000e+00 5.77402331510630e-02 1.06670615520029e-03
1.67055000000000e+00 5.57726705770433e-02 1.03435844987296e-03
1.68345000000000e+00 5.38721548830139e-02 1.00296177754339e-03
1.69635000000000e+00 5.20364013720730e-02 9.72489557425192e-04
1.70925000000000e+00 5.02632032009037e-02 9.42915884375936e-04
1.72215000000000e+00 4.85504287268260e-02 9.14215515266576e-04
1.73505000000000e+00 4.68960189452515e-02 8.86363855414954e-04
1.74795000000000e+00 4.52979850144604e-02 8.59336945099328e-04
1.76085000000000e+00 4.37544058647231e-02 8.33111446166268e-04
1.77375000000000e+00 4.22634258888948e-02 8.07664628746164e-04
1.78665000000000e+00 4.08232527117051e-02 7.82974358088228e-04
1.79955000000000e+00 3.94321550350616e-02 7.59019081525662e-04
1.81245000000000e+00 3.80884605567775e-02 7.35777815580788e-04
1.82535000000000e+00 3.67905539602199e-02 7.13230133218761e-04
1.83825000000000e+00 3.55368749724646e-02 6.91356151257595e-04
1.85115000000000e+00 3.43259164886202e-02 6.70136517941476e-04
1.86405000000000e+00 3.31562227600681e-02 6.49552400683403e-04
1.87695000000000e+00 3.20263876444410e-02 6.29585473982412e-04
1.88985000000000e+00 3.09350529152344e-02 6.10217907520095e-04
1.90275000000000e+00 2.98809066290202e-02 5.91432354440433e-04
1.91565000000000e+00 2.88626815483002e-02 5.73211939816240e-04
1.92855000000000e+00 2.78791536181011e-02 5.55540249305088e-04
1.94145000000000e+00 2.69291404944823e-02 5.38401317997021e-04
1.95435000000000e+00 2.60115001231863e-02 5.21779619455894e-04
1.96725000000000e+00 2.51251293667228e-02 5.05660054955715e-04
1.98015000000000e+00 2.42689626782367e-02 4.90027942912984e-04
1.99305000000000e+00 2.34419708205653e-02 4.74869008515608e-04
2.00595000000000e+00 2.26431596289456e-02 4.60169373548670e-04
2.01885000000000e+00 2.18715688158828e-02 4.45915546416982e-04
2.03175000000000e+00 2.11262708167452e-02 4.32094412364069e-04
2.04465000000000e+00 2.04063696746961e-02 4.18693223886916e-04
2.05755000000000e+00 1.97109999636232e-02 4.05699591345631e-04
2.07045000000000e+00 1.90393257477699e-02 3.93101473766940e-04
2.08335000000000e+00 1.83905395768192e-02 3.80887169840150e-04
2.09625000000000e+00 1.77638615152204e-02 3.69045309104105e-04
2.10915000000000e+00 1.71585382045927e-02 3.57564843323484e-04
2.12205000000000e+00 1.65738419580792e-02 3.46435038052581e-04
2.13495000000000e+00 1.60090698855606e-02 3.35645464384615e-04
2.14785000000000e+00 1.54635430486793e-02 3.25185990884494e-04
2.16075000000000e+00 1.49366056446560e-02 3.15046775702799e-04
2.17365000000000e+00 1.44276242179197e-02 3.05218258868705e-04
2.18655000000000e+00 1.39359868986015e-02 2.95691154759449e-04
2.19945000000000e+00 1.34611026669778e-02 2.86456444743865e-04
2.21235000000000e+00 1.30024006429786e-02 2.77505369997453e-04
2.22525000000000e+00 1.25593293999062e-02 2.68829424486365e-04
2.23815000000000e+00 1.21313563015401e-02 2.60420348117699e-04
2.25105000000000e+00 1.17179668618307e-02 2.52270120053371e-04
2.26395000000000e+00 1.13186641264119e-02 2.44370952184870e-04
2.27685000000000e+00 1.09329680751895e-02 2.36715282766123e-04
2.28975000000000e+00 1.05604150452872e-02 2.29295770201690e-04
2.30265000000000e+00 1.02005571736562e-02 2.22105286987538e-04
2.31555000000000e+00 9.85296185867842e-03 2.15136913801536e-04
2.32845000000000e+00 9.51721124011652e-03 2.08383933740909e-04
2.34135000000000e+00 9.19290169678474e-03 2.01839826703816e-04
2.35425000000000e+00 8.87964336133754e-03 1.95498263912258e-04
2.36715000000000e+00 8.57705965159221e-03 1.89353102573529e-04
2.38005000000000e+00 8.28478681782213e-03 1.83398380677412e-04
2.39295000000000e+00 8.00247350547664e-03 1.77628311926339e-04
2.40585000000000e+00 7.72978033280161e-03 1.72037280795788e-04
2.41875000000000e+00 7.46637948285313e-03 1.66619837722161e-04
2.43165000000000e+00 7.21195430941375e-03 1.61370694415439e-04
2.44455000000000e+00 6.96619895633755e-03 1.56284719293933e-04
2.45745000000000e+00 6.72881798986648e-03 1.51356933038453e-04
2.47035000000000e+00 6.49952604347594e-03 1.46582504263295e-04
2.48325000000000e+00 6.27804747482258e-03 1.41956745301414e-04
2.49615000000000e+00 6.06411603438204e-03 1.37475108101234e-04
2.50905000000000e+00 5.85747454537824e-03 1.33133180232552e-04
2.52195000000000e+00 5.65787459461936e-03 1.28926680999047e-04
2.53485000000000e+00 5.46507623386898e-03 1.24851457654908e-04
2.54775000000000e+00 5.27884769139337e-03 1.20903481723178e-04
2.56065000000000e+00 5.09896509333801e-03 1.17078845413395e-04
2.57355000000000e+00 4.92521219459864e-03 1.13373758136207e-04
2.58645000000000e+00 4.75738011886309e-03 1.09784543112616e-04
2.59935000000000e+00 4.59526710751153e-03 1.06307634075598e-04
2.61225000000000e+00 4.43867827707318e-03 1.02939572061852e-04
2.62515000000000e+00 4.28742538494795e-03 9.96770022914708e-05
2.63805000000000e+00 4.14132660311146e-03 9.65166711333977e-05
2.65095000000000e+00 4.00020629953118e-03 9.34554231545374e-05
2.66385000000000e+00 3.86389482703118e-03 9.04901982504412e-05
2.67675000000000e+00 3.73222831935144e-03 8.76180288555298e-05
2.68965000000000e+00 3.60504849415677e-03 8.48360372308574e-05
2.70255000000000e+00 3.48220246275833e-03 8.21414328274602e-05
2.71545000000000e+00 3.36354254631918e-03 7.95315097233644e-05
2.72835000000000e+00 3.24892609832276e-03 7.70036441323741e-05
2.74125000000000e+00 3.13821533309099e-03 7.45552919827978e-05
2.75415000000000e+00 3.03127716014579e-03 7.21839865643155e-05
2.76705000000000e+00 2.92798302421497e-03 6.98873362412141e-05
2.77995000000000e+00 2.82820875069000e-03 6.76630222302683e-05
2.79285000000000e+00 2.73183439635005e-03 6.55087964415813e-05
2.80575000000000e+00 2.63874410517275e-03 6.34224793807282e-05
2.81865000000000e+00 2.54882596905839e-03 6.14019581105899e-05
2.83155000000000e+00 2.46197189330002e-03 5.94451842712986e-05
2.84445000000000e+00 2.37807746663791e-03 5.75501721567525e-05
2.85735000000000e+00 2.29704183574196e-03 5.57149968461910e-05
2.87025000000000e+00 2.21876758397130e-03 5.39377923893588e-05
2.88315000000000e+00 2.14316061426531e-03 5.22167500438195e-05
2.89605000000000e+00 2.07013003602520e-03 5.05501165630151e-05
2.90895000000000e+00 1.99958805585029e-03 4.89361925336999e-05
2.92185000000000e+00 1.93144987199755e-03 4.73733307614089e-05
2.93475000000000e+00 1.86563357243751e-03 4.58599347026570e-05
2.94765000000000e+00 1.80206003638408e-03 4.43944569425911e-05
2.96055000000000e+00 1.74065283917985e-03 4.29753977168518e-05
2.97345000000000e+00 1.68133816042248e-03 4.16013034764340e-05
2.98635000000000e+00 1.62404469522183e-03 4.02707654943589e-05
2.99925000000000e+00 1.56870356848108e-03 3.89824185130061e-05
3.01215000000000e+00 1.51524825209884e-03 3.77349394309799e-05
3.02505000000000e+00 1.46361448499267e-03 3.65270460284119e-05
3.03795000000000e+00 1.41374019584787e-03 3.53574957296315e-05
3.05085000000000e+00 1.36556542849874e-03 3.42250844021616e-05
3.06375000000000e+00 1.31903226985250e-03 3.31286451910229e-05
3.07665000000000e+00 1.27408478026936e-03 3.20670473873581e-05
3.08955000000000e+00 1.23066892631485e-03 3.10391953304122e-05
3.10245000000000e+00 1.18873251580382e-03 3.00440273419284e-05
3.11535000000000e+00 1.14822513505777e-03 2.90805146920436e-05
3.12825000000000e+00 1.10909808830031e-03 2.81476605957963e-05
3.14115000000000e+00 1.07130433911771e-03 2.72444992393754e-05
3.15405000000000e+00 1.03479845391427e-03 2.63700948352654e-05
3.16695000000000e+00 9.99536547294526e-04 2.55235407054676e-05
3.17985000000000e+00 9.65476229306614e-04 2.47039583919942e-05
3.19275000000000e+00 9.32576554483355e-04 2.39104967938570e-05
3.20565000000000e+00 9.00797972619840e-04 2.31423313297913e-05
3.21855000000000e+00 8.70102281228320e-04 2.23986631259766e-05
3.23145000000000e+00 8.40452579613246e-04 2.16787182280360e-05
3.24435000000000e+00 8.11813224511254e-04 2.09817468366154e-05
3.25725000000000e+00 7.84149787242764e-04 2.03070225658606e-05
3.27015000000000e+00 7.57429012323694e-04 1.96538417241326e-05
3.28305000000000e+00 7.31618777487516e-04 1.90215226163161e-05
3.29595000000000e+00 7.06688055069611e-04 1.84094048670950e-05
3.30885000000000e+00 6.82606874707492e-04 1.78168487645868e-05
3.32175000000000e+00 6.59346287312062e-04 1.72432346237426e-05
3.33465000000000e+00 6.36878330266586e-04 1.66879621689366e-05
3.34755000000000e+00 6.15175993811551e-04 1.61504499351866e-05
3.36045000000000e+00 5.94213188575000e-04 1.56301346874596e-05
3.37335000000000e+00 5.73964714209298e-04 1.51264708575320e-05
3.38625000000000e+00 5.54406229096649e-04 1.46389299978935e-05
3.39915000000000e+00 5.35514221086915e-04 1.41670002521902e-05
3.41205000000000e+00 5.17265979232588e-04 1.37101858417222e-05
3.42495000000000e+00 4.99639566486923e-04 1.32680065675247e-05
3.43785000000000e+00 4.82613793332405e-04 1.28399973275702e-05
3.45075000000000e+00 4.66168192307863e-04 1.24257076486477e-05
3.46365000000000e+00 4.50282993403598e-04 1.20247012324834e-05
3.47655000000000e+00 4.34939100294949e-04 1.16365555156829e-05
3.48945000000000e+00 4.20118067385728e-04 1.12608612430842e-05
3.50235000000000e+00 4.05802077633921e-04 1.08972220541237e-05
3.51525000000000e+00 3.91973921133012e-04 1.05452540818292e-05
3.52815000000000e+00 3.78616974423164e-04 1.02045855640626e-05
3.54105000000000e+00 3.65715180507394e-04 9.87485646665103e-06
3.55395000000000e+00 3.53253029548728e-04 9.55571811804671e-06
3.56685000000000e+00 3.41215540225111e-04 9.24683285517621e-06
3.57975000000000e+00 3.29588241719677e-04 8.94787368014241e-06
3.59265000000000e+00 3.18357156324716e-04 8.65852392745443e-06
3.60555000000000e+00 3.07508782638434e-04 8.37847694147097e-06
3.61845000000000e+00 2.97030079334297e-04 8.10743576375012e-06
3.63135000000000e+00 2.86908449483458e-04 7.84511283000859e-06
3.64425000000000e+00 2.77131725411411e-04 7.59122967640195e-06
3.65715000000000e+00 2.67688154070672e-04 7.34551665484504e-06
3.67005000000000e+00 2.58566382911906e-04 7.10771265710069e-06
3.68295000000000e+00 2.49755446236502e-04 6.87756484737186e-06
3.69585000000000e+00 2.41244752014211e-04 6.65482840314152e-06
3.70875000000000e+00 2.33024069149978e-04 6.43926626401091e-06
3.72165000000000e+00 2.25083515184674e-04 6.23064888829395e-06
3.73455000000000e+00 2.17413544414943e-04 6.02875401713383e-06
3.74745000000000e+00 2.10004936417871e-04 5.83336644591359e-06
3.76035000000000e+00 2.02848784966697e-04 5.64427780273956e-06
3.77325000000000e+00 1.95936487324226e-04 5.46128633378334e-06
3.78615000000000e+00 1.89259733901091e-04 5.28419669527395e-06
3.79905000000000e+00 1.82810498266409e-04 5.11281975193804e-06
3.81195000000000e+00 1.76581027498846e-04 4.94697238169202e-06
3.82485000000000e+00 1.70563832866471e-04 4.78647728639570e-06
3.83775000000000e+00 1.64751680824213e-04 4.63116280848290e-06
3.85065000000000e+00 1.59137584318083e-04 4.48086275328989e-06
3.86355000000000e+00 1.53714794385716e-04 4.33541621690763e-06
3.87645000000000e+00 1.48476792043135e-04 4.19466741938879e-06
3.88935000000000e+00 1.43417280447984e-04 4.05846554314663e-06
3.90225000000000e+00 1.38530177329802e-04 3.92666457638644e-06
3.91515000000000e+00 1.33809607678251e-04 3.79912316141542e-06
3.92805000000000e+00 1.29249896680494e-04 3.67570444768147e-06
3.94095000000000e+00 1.24845562899245e-04 3.55627594939649e-06
3.95385000000000e+00 1.20591311683281e-04 3.44070940760285e-06
3.96675000000000e+00 1.16482028802501e-04 3.32888065654697e-06
3.97965000000000e+00 1.12512774299873e-04 3.22066949422750e-06
3.99255000000000e+00 1.08678776552888e-04 3.11595955698986e-06
4.00545000000000e+00 1.04975426537376e-04 3.01463819804266e-06
4.01835000000000e+00 1.01398272286781e-04 2.91659636977498e-06
4.03125000000000e+00 9.79430135402542e-05 2.82172850975771e-06
4.04415000000000e+00 9.46054965731109e-05 2.72993243031520e-06
4.05705000000000e+00 9.13817092034482e-05 2.64110921155714e-06
4.06995000000000e+00 8.82677759689178e-05 2.55516309776367e-06
