Energy (eV)          EEDF (eV^-(3/2))     First Anisotropy
6.34375000000000e-02 7.83145110249642e-02 7.28522383628712e-05
1.90312500000000e-01 7.66421944170537e-02 1.19416776490562e-04
3.17187500000000e-01 7.50055882132558e-02 1.55321699776896e-04
4.44062500000000e-01 7.34039298588321e-02 1.81225992697055e-04
5.70937500000000e-01 7.18364730825221e-02 2.01722888958743e-04
6.97812500000000e-01 7.03024875488322e-02 2.18588911584113e-04
8.24687500000000e-01 6.88012585177458e-02 2.32763239470126e-04
9.51562500000000e-01 6.73320865117000e-02 2.44824703400253e-04
1.07843750000000e+00 6.58942869896733e-02 2.55164786882605e-04
1.20531250000000e+00 6.44871900282330e-02 2.64065427586200e-04
1.33218750000000e+00 6.31101400093934e-02 2.71739108015491e-04
1.45906250000000e+00 6.17624953151392e-02 2.78351572049048e-04
1.58593750000000e+00 6.04436280284725e-02 2.84035636798593e-04
1.71281250000000e+00 5.91529236408429e-02 2.88900061825568e-04
1.83968750000000e+00 5.78897807658257e-02 2.93035498918455e-04
1.96656250000000e+00 5.66536108589139e-02 2.96518629080441e-04
2.09343750000000e+00 5.54438379432938e-02 2.99415126599593e-04
2.22031250000000e+00 5.42598983414763e-02 3.01781837552529e-04
2.34718750000000e+00 5.31012404126588e-02 3.03668416461227e-04
2.47406250000000e+00 5.19673242956958e-02 3.05118579595609e-04
2.60093750000000e+00 5.08576216575578e-02 3.06171080976011e-04
2.72781250000000e+00 4.97716154471612e-02 3.06860483834997e-04
2.85468750000000e+00 4.87087996544558e-02 3.07217778567700e-04
2.98156250000000e+00 4.76686790746559e-02 3.07270883667861e-04
3.10843750000000e+00 4.66507690775064e-02 3.07045056215267e-04
3.23531250000000e+00 4.56545953814755e-02 3.06563231559508e-04
3.36218750000000e+00 4.46796938327701e-02 3.05846306937138e-04
3.48906250000000e+00 4.37256101890692e-02 3.04913380222590e-04
3.61593750000000e+00 4.27918999078757e-02 3.03781952427588e-04
3.74281250000000e+00 4.18781279393881e-02 3.02468100648210e-04
3.86968750000000e+00 4.09838685237947e-02 3.00986626721904e-04
3.99656250000000e+00 4.01087049928964e-02 2.99351185767048e-04
4.12343750000000e+00 3.92522295759659e-02 2.97574397942412e-04
4.25031250000000e+00 3.84140432097523e-02 2.95667946117369e-04
4.37718750000000e+00 3.75937553525432e-02 2.93642661639003e-04
4.50406250000000e+00 3.67909838021963e-02 2.91508599984634e-04
4.63093750000000e+00 3.60053545180584e-02 2.89275107772801e-04
4.75781250000000e+00 3.52365014466854e-02 2.86950882353403e-04
4.88468750000000e+00 3.44840663512849e-02 2.84544024994462e-04
5.01156250000000e+00 3.37476986448006e-02 2.82062088518439e-04
5.13843750000000e+00 3.30270552265609e-02 2.79512120106619e-04
5.26531250000000e+00 3.23218003224156e-02 2.76900699879995e-04
5.39218750000000e+00 3.16316053282868e-02 2.74233975774225e-04
5.51906250000000e+00 3.09561486570599e-02 2.71517695150932e-04
5.64593750000000e+00 3.02951155887443e-02 2.68757233524786e-04
5.77281250000000e+00 2.96481981238343e-02 2.65957620733310e-04
5.89968750000000e+00 2.90150948398004e-02 2.63123564832170e-04
6.02656250000000e+00 2.83955107506458e-02 2.60259473961321e-04
6.15343750000000e+00 2.77891571694613e-02 2.57369476395818e-04
6.28031250000000e+00 2.71957515739160e-02 2.54457438968075e-04
6.40718750000000e+00 2.66150174746193e-02 2.51526984025376e-04
6.53406250000000e+00 2.60466842862946e-02 2.48581505066656e-04
6.66093750000000e+00 2.54904872017038e-02 2.45624181185593e-04
6.78781250000000e+00 2.49461670682637e-02 2.42657990432414e-04
6.91468750000000e+00 2.44134702672976e-02 2.39685722193989e-04
7.04156250000000e+00 2.38921485958648e-02 2.36709988680896e-04
7.16843750000000e+00 2.33819591511138e-02 2.33733235600409e-04
7.29531250000000e+00 2.28826642171051e-02 2.30757752085990e-04
7.42218750000000e+00 2.23940311540507e-02 2.27785679946491e-04
7.54906250000000e+00 2.19158322899184e-02 2.24819022291828e-04
7.67593750000000e+00 2.14478448143514e-02 2.21859651586141e-04
7.80281250000000e+00 2.09898506748526e-02 2.18909317174456e-04
7.92968750000000e+00 2.05416364751861e-02 2.15969652324421e-04
8.05656250000000e+00 2.01029933759477e-02 2.13042180820692e-04
8.18343750000000e+00 1.96737169972597e-02 2.10128323146098e-04
8.31031250000000e+00 1.92536073235421e-02 2.07229402280521e-04
8.43718750000000e+00 1.88424686103184e-02 2.04346649145698e-04
8.56406250000000e+00 1.84401092930111e-02 2.01481207721610e-04
8.69093750000000e+00 1.80463418976845e-02 1.98634139857905e-04
8.81781250000000e+00 1.76609829536939e-02 1.95806429801790e-04
8.94468750000000e+00 1.72838529082002e-02 1.92998988462028e-04
9.07156250000000e+00 1.69147760425088e-02 1.90212657427038e-04
9.19843750000000e+00 1.65535803901969e-02 1.87448212753617e-04
9.32531250000000e+00 1.62000976569873e-02 1.84706368541505e-04
9.45218750000000e+00 1.58541631423341e-02 1.81987780307805e-04
9.57906250000000e+00 1.55156156626830e-02 1.79293048174135e-04
9.70593750000000e+00 1.51842974763694e-02 1.76622719878442e-04
9.83281250000000e+00 1.48600542101215e-02 1.73977293622510e-04
9.95968750000000e+00 1.45427347871315e-02 1.71357220765368e-04
1.00865625000000e+01 1.42321913566636e-02 1.68762908371995e-04
1.02134375000000e+01 1.39282792251651e-02 1.66194721626130e-04
1.03403125000000e+01 1.36308567888484e-02 1.63652986115320e-04
1.04671875000000e+01 1.33397854677120e-02 1.61137989995739e-04
1.05940625000000e+01 1.30549296409720e-02 1.58649986043855e-04
1.07209375000000e+01 1.27761565838706e-02 1.56189193601468e-04
1.08478125000000e+01 1.25033364058350e-02 1.53755800420243e-04
1.09746875000000e+01 1.22363419899568e-02 1.51349964411422e-04
1.11015625000000e+01 1.19750489337634e-02 1.48971815306072e-04
1.12284375000000e+01 1.17193354912544e-02 1.46621456230823e-04
1.13553125000000e+01 1.14690825161759e-02 1.44298965203747e-04
1.14821875000000e+01 1.12241734065052e-02 1.42004396554757e-04
1.16090625000000e+01 1.09844940501226e-02 1.39737782274589e-04
1.17359375000000e+01 1.07499327716416e-02 1.37499133296230e-04
1.18628125000000e+01 1.05203802803758e-02 1.35288440712358e-04
1.19896875000000e+01 1.02957296194158e-02 1.33105676932169e-04
1.21165625000000e+01 1.00758761157947e-02 1.30950796780788e-04
1.22434375000000e+01 9.86071733171667e-03 1.28823738544234e-04
1.23703125000000e+01 9.65015301682762e-03 1.26724424962751e-04
1.24971875000000e+01 9.44408506150483e-03 1.24652764175146e-04
1.26240625000000e+01 9.24241745114412e-03 1.22608650616622e-04
1.27509375000000e+01 9.04505622142311e-03 1.20591965872461e-04
1.28778125000000e+01 8.85190941451981e-03 1.18602579489786e-04
1.30046875000000e+01 8.66288703626613e-03 1.16640349749469e-04
1.31315625000000e+01 8.47790101421623e-03 1.14705124400178e-04
1.32584375000000e+01 8.29686515661042e-03 1.12796741356418e-04
1.33853125000000e+01 8.11969511221523e-03 1.10915029362345e-04
1.35121875000000e+01 7.94630833102108e-03 1.09059808623019e-04
1.36390625000000e+01 7.77662402577921e-03 1.07230891404657e-04
1.37659375000000e+01 7.61056313435997e-03 1.05428082605416e-04
1.38928125000000e+01 7.44804828291482e-03 1.03651180298087e-04
1.40196875000000e+01 7.28900374982509e-03 1.01899976246077e-04
1.41465625000000e+01 7.13335543042047e-03 1.00174256393923e-04
1.42734375000000e+01 6.98103080245091e-03 9.84738013335557e-05
1.44003125000000e+01 6.83195889229590e-03 9.67983867474773e-05
1.45271875000000e+01 6.68607024189523e-03 9.51477838299083e-05
1.46540625000000e+01 6.54329687638595e-03 9.35217596869564e-05
1.47809375000000e+01 6.40357227243038e-03 9.19200777167870e-05
1.49078125000000e+01 6.26683132722044e-03 9.03424979707195e-05
1.50346875000000e+01 6.13301032814391e-03 8.87887774961414e-05
1.51615625000000e+01 6.00204692309837e-03 8.72586706620908e-05
1.52884375000000e+01 5.87388009143905e-03 8.57519294682870e-05
1.54153125000000e+01 5.74845011554711e-03 8.42683038383890e-05
1.55421875000000e+01 5.62569855300501e-03 8.28075418982084e-05
1.56690625000000e+01 5.50556820936603e-03 8.13693902395564e-05
1.57959375000000e+01 5.38800311150531e-03 7.99535941703898e-05
1.59228125000000e+01 5.27294848153988e-03 7.85598979518869e-05
1.60496875000000e+01 5.16035071130570e-03 7.71880450230430e-05
1.61765625000000e+01 5.05015733737960e-03 7.58377782133554e-05
1.63034375000000e+01 4.94231701663467e-03 7.45088399441507e-05
1.64303125000000e+01 4.83677950231764e-03 7.32009724190578e-05
1.65571875000000e+01 4.73349562063702e-03 7.19139178041273e-05
1.66840625000000e+01 4.63241724785130e-03 7.06474183980714e-05
1.68109375000000e+01 4.53349728784629e-03 6.94012167930660e-05
1.69378125000000e+01 4.43668965019133e-03 6.81750560265507e-05
1.70646875000000e+01 4.34194922866407e-03 6.69686797244312e-05
1.71915625000000e+01 4.24923188023383e-03 6.57818322360806e-05
1.73184375000000e+01 4.15849440449377e-03 6.46142587615022e-05
1.74453125000000e+01 4.06969452353218e-03 6.34657054710204e-05
1.75721875000000e+01 3.98279086223371e-03 6.23359196178393e-05
1.76990625000000e+01 3.89774292900118e-03 6.12246496437854e-05
1.78259375000000e+01 3.81451109688902e-03 6.01316452785584e-05
1.79528125000000e+01 3.73305658513968e-03 5.90566576327744e-05
1.80796875000000e+01 3.65334144111422e-03 5.79994392850918e-05
1.82065625000000e+01 3.57532852260881e-03 5.69597443636940e-05
1.83334375000000e+01 3.49898148054879e-03 5.59373286223803e-05
1.84603125000000e+01 3.42426474205234e-03 5.49319495115199e-05
1.85871875000000e+01 3.35114349385572e-03 5.39433662441042e-05
1.87140625000000e+01 3.27958366609258e-03 5.29713398571211e-05
1.88409375000000e+01 3.20955191641945e-03 5.20156332684756e-05
1.89678125000000e+01 3.14101561448044e-03 5.10760113296536e-05
1.90946875000000e+01 3.07394282670347e-03 5.01522408743357e-05
1.92215625000000e+01 3.00830230142128e-03 4.92440907631511e-05
1.93484375000000e+01 2.94406345431017e-03 4.83513319247503e-05
1.94753125000000e+01 2.88119635413959e-03 4.74737373933671e-05
1.96021875000000e+01 2.81967170882611e-03 4.66110823430432e-05
1.97290625000000e+01 2.75946085178517e-03 4.57631441186706e-05
1.98559375000000e+01 2.70053572857426e-03 4.49297022640048e-05
1.99828125000000e+01 2.64286888382132e-03 4.41105385467968e-05
2.01096875000000e+01 2.58643344843230e-03 4.33054369811796e-05
2.02365625000000e+01 2.53120312707184e-03 4.25141838474438e-05
2.03634375000000e+01 2.47715218591133e-03 4.17365677093327e-05
2.04903125000000e+01 2.42425544063858e-03 4.09723794289779e-05
2.06171875000000e+01 2.37248824472350e-03 4.02214121795905e-05
2.07440625000000e+01 2.32182647793441e-03 3.94834614560215e-05
2.08709375000000e+01 2.27224653509951e-03 3.87583250833008e-05
2.09978125000000e+01 2.22372531510841e-03 3.80458032232530e-05
2.11246875000000e+01 2.17624021014842e-03 3.73456983792927e-05
2.12515625000000e+01 2.12976909517081e-03 3.66578153994906e-05
2.13784375000000e+01 2.08429031758186e-03 3.59819614780001e-05
2.15053125000000e+01 2.03978268715421e-03 3.53179461549343e-05
2.16321875000000e+01 1.99622546615349e-03 3.46655813147711e-05
2.17590625000000e+01 1.95359835967587e-03 3.40246811833673e-05
2.18859375000000e+01 1.91188150619195e-03 3.33950623236584e-05
2.20128125000000e+01 1.87105546829250e-03 3.27765436301152e-05
2.21396875000000e+01 1.83110122363190e-03 3.21689463220279e-05
2.22665625000000e+01 1.79200015606489e-03 3.15720939356791e-05
2.23934375000000e+01 1.75373404697268e-03 3.09858123154739e-05
2.25203125000000e+01 1.71628506677418e-03 3.04099296040875e-05
2.26471875000000e+01 1.67963576661857e-03 2.98442762316848e-05
2.27740625000000e+01 1.64376907025525e-03 2.92886849042709e-05
2.29009375000000e+01 1.60866826607735e-03 2.87429905912228e-05
2.30278125000000e+01 1.57431699933524e-03 2.82070305120542e-05
2.31546875000000e+01 1.54069926451619e-03 2.76806441224623e-05
2.32815625000000e+01 1.50779939788686e-03 2.71636730997015e-05
2.34084375000000e+01 1.47560207019499e-03 2.66559613273308e-05
2.35353125000000e+01 1.44409227952691e-03 2.61573548793733e-05
2.36621875000000e+01 1.41325534431762e-03 2.56677020039310e-05
2.37890625000000e+01 1.38307689651014e-03 2.51868531062930e-05
2.39159375000000e+01 1.35354287486084e-03 2.47146607315749e-05
2.40428125000000e+01 1.32463951838784e-03 2.42509795469235e-05
2.41696875000000e+01 1.29635335995927e-03 2.37956663233165e-05
2.42965625000000e+01 1.26867122001839e-03 2.33485799169977e-05
2.44234375000000e+01 1.24158020044283e-03 2.29095812505743e-05
2.45503125000000e+01 1.21506767853479e-03 2.24785332938021e-05
2.46771875000000e+01 1.18912130113975e-03 2.20553010440906e-05
2.48040625000000e+01 1.16372897889063e-03 2.16397515067548e-05
2.49309375000000e+01 1.13887888057491e-03 2.12317536750359e-05
2.50578125000000e+01 1.11455942762207e-03 2.08311785099188e-05
2.51846875000000e+01 1.09075928870870e-03 2.04378989197663e-05
2.53115625000000e+01 1.06746737447878e-03 2.00517897397942e-05
2.54384375000000e+01 1.04467283237680e-03 1.96727277114067e-05
2.55653125000000e+01 1.02236504159112e-03 1.93005914614127e-05
2.56921875000000e+01 1.00053360810537e-03 1.89352614811417e-05
2.58190625000000e+01 9.79168359855474e-04 1.85766201054775e-05
2.59459375000000e+01 9.58259341990125e-04 1.82245514918272e-05
2.60728125000000e+01 9.37796812232458e-04 1.78789415990399e-05
2.61996875000000e+01 9.17771236340760e-04 1.75396781662932e-05
2.63265625000000e+01 8.98173283666120e-04 1.72066506919608e-05
2.64534375000000e+01 8.78993822804940e-04 1.68797504124746e-05
2.65803125000000e+01 8.60223917344277e-04 1.65588702811956e-05
2.67071875000000e+01 8.41854821698042e-04 1.62439049473048e-05
2.68340625000000e+01 8.23877977032113e-04 1.59347507347281e-05
2.69609375000000e+01 8.06285007276458e-04 1.56313056211049e-05
2.70878125000000e+01 7.89067715222419e-04 1.53334692168097e-05
2.72146875000000e+01 7.72218078703332e-04 1.50411427440401e-05
2.73415625000000e+01 7.55728246856707e-04 1.47542290159778e-05
2.74684375000000e+01 7.39590536466220e-04 1.44726324160332e-05
2.75953125000000e+01 7.23797428381828e-04 1.41962588771811e-05
2.77221875000000e+01 7.08341564016314e-04 1.39250158613959e-05
2.78490625000000e+01 6.93215741916658e-04 1.36588123391929e-05
2.79759375000000e+01 6.78412914408613e-04 1.33975587692854e-05
2.81028125000000e+01 6.63926184312936e-04 1.31411670783601e-05
2.82296875000000e+01 6.49748801731742e-04 1.28895506409809e-05
2.83565625000000e+01 6.35874160903476e-04 1.26426242596239e-05
2.84834375000000e+01 6.22295797125048e-04 1.24003041448504e-05
2.86103125000000e+01 6.09007383739694e-04 1.21625078956242e-05
2.87371875000000e+01 5.96002729189151e-04 1.19291544797753e-05
2.88640625000000e+01 5.83275774128786e-04 1.17001642146154e-05
2.89909375000000e+01 5.70820588604324e-04 1.14754587477105e-05
2.91178125000000e+01 5.58631369288865e-04 1.12549610378133e-05
2.92446875000000e+01 5.46702436778905e-04 1.10385953359574e-05
2.93715625000000e+01 5.35028232948089e-04 1.08262871667201e-05
2.94984375000000e+01 5.23603318357478e-04 1.06179633096531e-05
2.96253125000000e+01 5.12422369721119e-04 1.04135517808865e-05
2.97521875000000e+01 5.01480177425726e-04 1.02129818149068e-05
2.98790625000000e+01 4.90771643103335e-04 1.00161838465116e-05
3.00059375000000e+01 4.80291777255782e-04 9.82308949294339e-06
3.01328125000000e+01 4.70035696929919e-04 9.63363153620372e-06
3.02596875000000e+01 4.59998623442465e-04 9.44774390554999e-06
3.03865625000000e+01 4.50175880153442e-04 9.26536166017508e-06
3.05134375000000e+01 4.40562890287158e-04 9.08642097207278e-06
3.06403125000000e+01 4.31155174799718e-04 8.91085910908781e-06
3.07671875000000e+01 4.21948350292076e-04 8.73861441815340e-06
3.08940625000000e+01 4.12938126967649e-04 8.56962630871641e-06
3.10209375000000e+01 4.04120306633540e-04 8.40383523634984e-06
3.11478125000000e+01 3.95490780744450e-04 8.24118268655414e-06
3.12746875000000e+01 3.87045528488355e-04 8.08161115874706e-06
3.14015625000000e+01 3.78780614913063e-04 7.92506415044260e-06
3.15284375000000e+01 3.70692189092775e-04 7.77148614161882e-06
3.16553125000000e+01 3.62776482333796e-04 7.62082257927447e-06
3.17821875000000e+01 3.55029806418569e-04 7.47301986217417e-06
3.19090625000000e+01 3.47448551887190e-04 7.32802532578238e-06
3.20359375000000e+01 3.40029186355637e-04 7.18578722738500e-06
3.21628125000000e+01 3.32768252869899e-04 7.04625473139866e-06
3.22896875000000e+01 3.25662368295255e-04 6.90937789486719e-06
3.24165625000000e+01 3.18708221739945e-04 6.77510765314391e-06
3.25434375000000e+01 3.11902573012512e-04 6.64339580575985e-06
3.26703125000000e+01 3.05242251112069e-04 6.51419500247689e-06
3.27971875000000e+01 2.98724152750819e-04 6.38745872952432e-06
3.29240625000000e+01 2.92345240908121e-04 6.26314129601916e-06
3.30509375000000e+01 2.86102543415425e-04 6.14119782056800e-06
3.31778125000000e+01 2.79993151571435e-04 6.02158421804932e-06
3.33046875000000e+01 2.74014218786836e-04 5.90425718657645e-06
3.34315625000000e+01 2.68162959257965e-04 5.78917419463891e-06
3.35584375000000e+01 2.62436646668803e-04 5.67629346842080e-06
3.36853125000000e+01 2.56832612920685e-04 5.56557397929574e-06
3.38121875000000e+01 2.51348246889132e-04 5.45697543149673e-06
3.39390625000000e+01 2.45980993207238e-04 5.35045824995940e-06
3.40659375000000e+01 2.40728351075026e-04 5.24598356833726e-06
3.41928125000000e+01 2.35587873094236e-04 5.14351321718774e-06
3.43196875000000e+01 2.30557164127993e-04 5.04300971232795e-06
3.44465625000000e+01 2.25633880184824e-04 4.94443624335787e-06
3.45734375000000e+01 2.20815727326506e-04 4.84775666234990e-06
3.47003125000000e+01 2.16100460599239e-04 4.75293547270312e-06
3.48271875000000e+01 2.11485882987636e-04 4.65993781816131e-06
3.49540625000000e+01 2.06969844391056e-04 4.56872947199230e-06
3.50809375000000e+01 2.02550240621793e-04 4.47927682632708e-06
3.52078125000000e+01 1.98225012424656e-04 4.39154688165841e-06
3.53346875000000e+01 1.93992144517489e-04 4.30550723649544e-06
3.54615625000000e+01 1.89849664652176e-04 4.22112607717399e-06
3.55884375000000e+01 1.85795642695698e-04 4.13837216782058e-06
3.57153125000000e+01 1.81828189730815e-04 4.05721484046823e-06
3.58421875000000e+01 1.77945457175950e-04 3.97762398532283e-06
3.59690625000000e+01 1.74145635923864e-04 3.89957004117791e-06
3.60959375000000e+01 1.70426955498730e-04 3.82302398597659e-06
3.62228125000000e+01 1.66787683231206e-04 3.74795732751906e-06
3.63496875000000e+01 1.63226123451113e-04 3.67434209431338e-06
3.64765625000000e+01 1.59740616697367e-04 3.60215082656858e-06
3.66034375000000e+01 1.56329538944773e-04 3.53135656732797e-06
3.67303125000000e+01 1.52991300847332e-04 3.46193285374069e-06
3.68571875000000e+01 1.49724346997708e-04 3.39385370847105e-06
3.69840625000000e+01 1.46527155202505e-04 3.32709363124267e-06
3.71109375000000e+01 1.43398235773021e-04 3.26162759051612e-06
3.72378125000000e+01 1.40336130831150e-04 3.19743101529863e-06
3.73646875000000e+01 1.37339413630100e-04 3.13447978708420e-06
3.74915625000000e+01 1.34406687889624e-04 3.07275023192228e-06
3.76184375000000e+01 1.31536587145436e-04 3.01221911261335e-06
3.77453125000000e+01 1.28727774112530e-04 2.95286362102998e-06
3.78721875000000e+01 1.25978940062089e-04 2.89466137056145e-06
3.79990625000000e+01 1.23288804211698e-04 2.83759038868044e-06
3.81259375000000e+01 1.20656113128583e-04 2.78162910963024e-06
3.82528125000000e+01 1.18079640145590e-04 2.72675636723071e-06
3.83796875000000e+01 1.15558184789636e-04 2.67295138780161e-06
3.85065625000000e+01 1.13090572222364e-04 2.62019378320141e-06
3.86334375000000e+01 1.10675652692745e-04 2.56846354398020e-06
3.87603125000000e+01 1.08312301001364e-04 2.51774103264513e-06
3.88871875000000e+01 1.05999415976148e-04 2.46800697703669e-06
3.90140625000000e+01 1.03735919959294e-04 2.41924246381442e-06
3.91409375000000e+01 1.01520758305146e-04 2.37142893205054e-06
3.92678125000000e+01 9.93528988887942e-05 2.32454816692972e-06
3.93946875000000e+01 9.72313316251760e-05 2.27858229355377e-06
3.95215625000000e+01 9.51550679984360e-05 2.23351377084949e-06
3.96484375000000e+01 9.31231406013421e-05 2.18932538557861e-06
3.97753125000000e+01 9.11346026845345e-05 2.14600024644788e-06
3.99021875000000e+01 8.91885277154008e-05 2.10352177831798e-06
4.00290625000000e+01 8.72840089463703e-05 2.06187371651004e-06
