Energy (eV)          EEDF (eV^-(3/2))     First Anisotropy
1.71800000000000e-02 2.85496301489933e-01 2.12609171287741e-04
5.15400000000000e-02 2.81580806884898e-01 3.49846823249463e-04
8.59000000000000e-02 2.77719012092599e-01 4.58586850797283e-04
1.20260000000000e-01 2.73910180636703e-01 5.39245864229345e-04
1.54620000000000e-01 2.70153586141261e-01 6.04920617977534e-04
1.88980000000000e-01 2.66448512192322e-01 6.60614661125556e-04
2.23340000000000e-01 2.62794252201328e-01 7.08943043527405e-04
2.57700000000000e-01 2.59190109270364e-01 7.51500133190331e-04
2.92060000000000e-01 2.55635396059255e-01 7.89353316608221e-04
3.26420000000000e-01 2.52129434654486e-01 8.23263981334148e-04
3.60780000000000e-01 2.48671556439920e-01 8.53800858776975e-04
3.95140000000000e-01 2.45261101969284e-01 8.81403950139217e-04
4.29500000000000e-01 2.41897420840411e-01 9.06423213037609e-04
4.63860000000000e-01 2.38579871571199e-01 9.29143287070832e-04
4.98220000000000e-01 2.35307821477280e-01 9.49800001467418e-04
5.32580000000000e-01 2.32080646551355e-01 9.68591797505284e-04
5.66940000000000e-01 2.28897731344198e-01 9.85687872071675e-04
6.01300000000000e-01 2.25758468847279e-01 1.00123413286768e-03
6.35660000000000e-01 2.22662260377005e-01 1.01535764951950e-03
6.70020000000000e-01 2.19608515460548e-01 1.02817004435606e-03
7.04380000000000e-01 2.16596651723232e-01 1.03977011897368e-03
7.38740000000000e-01 2.13626094777471e-01 1.05024591918140e-03
7.73100000000000e-01 2.10696278113233e-01 1.05967638001709e-03
8.07460000000000e-01 2.07806642989995e-01 1.06813265188916e-03
8.41820000000000e-01 2.04956638330191e-01 1.07567918119145e-03
8.76180000000000e-01 2.02145720614115e-01 1.08237459947416e-03
9.10540000000000e-01 1.99373353776268e-01 1.08827246162505e-03
9.44900000000000e-01 1.96639009103126e-01 1.09342186371578e-03
9.79260000000000e-01 1.93942165132309e-01 1.09786796402197e-03
1.01362000000000e+00 1.91282307553135e-01 1.10165242544229e-03
1.04798000000000e+00 1.88658929108534e-01 1.10481379358980e-03
1.08234000000000e+00 1.86071529498316e-01 1.10738782183748e-03
1.11670000000000e+00 1.83519615283751e-01 1.10940775231345e-03
1.15106000000000e+00 1.81002699793472e-01 1.11090456007539e-03
1.18542000000000e+00 1.78520303030662e-01 1.11190716631928e-03
1.21978000000000e+00 1.76071951581514e-01 1.11244262539608e-03
1.25414000000000e+00 1.73657178524945e-01 1.11253628955533e-03
1.28850000000000e+00 1.71275523343553e-01 1.11221195465196e-03
1.32286000000000e+00 1.68926531835792e-01 1.11149198950525e-03
1.35722000000000e+00 1.66609756029352e-01 1.11039745115506e-03
1.39158000000000e+00 1.64324754095725e-01 1.10894818790077e-03
1.42594000000000e+00 1.62071090265946e-01 1.10716293171372e-03
1.46030000000000e+00 1.59848334747491e-01 1.10505938137093e-03
1.49466000000000e+00 1.57656063642306e-01 1.10265427745801e-03
1.52902000000000e+00 1.55493858865970e-01 1.09996347022216e-03
1.56338000000000e+00 1.53361308067965e-01 1.09700198111745e-03
1.59774000000000e+00 1.51258004553030e-01 1.09378405876760e-03
1.63210000000000e+00 1.49183547203610e-01 1.09032322997342e-03
1.66646000000000e+00 1.47137540403350e-01 1.08663234630934e-03
1.70082000000000e+00 1.45119593961657e-01 1.08272362678218e-03
1.73518000000000e+00 1.43129323039279e-01 1.07860869696603e-03
1.76954000000000e+00 1.41166348074920e-01 1.07429862497534e-03
1.80390000000000e+00 1.39230294712850e-01 1.06980395459440e-03
1.83826000000000e+00 1.37320793731513e-01 1.06513473584320e-03
1.87262000000000e+00 1.35437480973115e-01 1.06030055322757e-03
1.90698000000000e+00 1.33579997274173e-01 1.05531055189228e-03
1.94134000000000e+00 1.31747988397023e-01 1.05017346187171e-03
1.97570000000000e+00 1.29941104962264e-01 1.04489762061114e-03
2.01006000000000e+00 1.28159002382124e-01 1.03949099391286e-03
2.04442000000000e+00 1.26401340794747e-01 1.03396119544505e-03
2.07878000000000e+00 1.24667784999382e-01 1.02831550493696e-03
2.11314000000000e+00 1.22958004392450e-01 1.02256088517094e-03
2.14750000000000e+00 1.21271672904501e-01 1.01670399787128e-03
2.18186000000000e+00 1.19608468938028e-01 1.01075121857955e-03
2.21622000000000e+00 1.17968075306136e-01 1.00470865059720e-03
2.25058000000000e+00 1.16350179172050e-01 9.98582138069135e-04
2.28494000000000e+00 1.14754471989458e-01 9.92377278274271e-04
2.31930000000000e+00 1.13180649443663e-01 9.86099433183371e-04
2.35366000000000e+00 1.11628411393555e-01 9.79753740339109e-04
2.38802000000000e+00 1.10097461814365e-01 9.73345123107786e-04
2.42238000000000e+00 1.08587508741214e-01 9.66878300348420e-04
2.45674000000000e+00 1.07098264213434e-01 9.60357795540565e-04
2.49110000000000e+00 1.05629444219647e-01 9.53787945408729e-04
2.52546000000000e+00 1.04180768643606e-01 9.47172908078155e-04
2.55982000000000e+00 1.02751961210771e-01 9.40516670793639e-04
2.59418000000000e+00 1.01342749435626e-01 9.33823057230915e-04
2.62854000000000e+00 9.99528645697075e-02 9.27095734427241e-04
2.66290000000000e+00 9.85820415503569e-02 9.20338219355793e-04
2.69726000000000e+00 9.72300189501686e-02 9.13553885166858e-04
2.73162000000000e+00 9.58965389271340e-02 9.06745967116890e-04
2.76598000000000e+00 9.45813471754689e-02 8.99917568204605e-04
2.80034000000000e+00 9.32841928771155e-02 8.93071664532204e-04
2.83470000000000e+00 9.20048286539089e-02 8.86211110408444e-04
2.86906000000000e+00 9.07430105204002e-02 8.79338643208713e-04
2.90342000000000e+00 8.94984978373264e-02 8.72456888006599e-04
2.93778000000000e+00 8.82710532657187e-02 8.65568361990294e-04
2.97214000000000e+00 8.70604427216397e-02 8.58675478675896e-04
3.00650000000000e+00 8.58664353315417e-02 8.51780551929256e-04
3.04086000000000e+00 8.46888033882372e-02 8.44885799807155e-04
3.07522000000000e+00 8.35273223074732e-02 8.37993348227617e-04
3.10958000000000e+00 8.23817705851014e-02 8.31105234478737e-04
3.14394000000000e+00 8.12519297548351e-02 8.24223410574726e-04
3.17830000000000e+00 8.01375843465858e-02 8.17349746467220e-04
3.21266000000000e+00 7.90385218453720e-02 8.10486033119610e-04
3.24702000000000e+00 7.79545326507898e-02 8.03633985451338e-04
3.28138000000000e+00 7.68854100370410e-02 7.96795245158858e-04
3.31574000000000e+00 7.58309501135087e-02 7.89971383419654e-04
3.35010000000000e+00 7.47909517858734e-02 7.83163903485019e-04
3.38446000000000e+00 7.37652167177630e-02 7.76374243167203e-04
3.41882000000000e+00 7.27535492929279e-02 7.69603777226101e-04
3.45318000000000e+00 7.17557565779359e-02 7.62853819660280e-04
3.48754000000000e+00 7.07716482853779e-02 7.56125625907019e-04
3.52190000000000e+00 6.98010367375783e-02 7.49420394955737e-04
3.55626000000000e+00 6.88437368308037e-02 7.42739271378703e-04
3.59062000000000e+00 6.78995659999617e-02 7.36083347282937e-04
3.62498000000000e+00 6.69683441837848e-02 7.29453664187138e-04
3.65934000000000e+00 6.60498937904903e-02 7.22851214826757e-04
3.69370000000000e+00 6.51440396639129e-02 7.16276944890606e-04
3.72806000000000e+00 6.42506090501006e-02 7.09731754692084e-04
3.76242000000000e+00 6.33694315643690e-02 7.03216500777835e-04
3.79678000000000e+00 6.25003391588078e-02 6.96731997476683e-04
3.83114000000000e+00 6.16431660902321e-02 6.90279018391274e-04
3.86550000000000e+00 6.07977488885746e-02 6.83858297835119e-04
3.89986000000000e+00 5.99639263257098e-02 6.77470532217243e-04
3.93422000000000e+00 5.91415393847070e-02 6.71116381376527e-04
3.96858000000000e+00 5.83304312295037e-02 6.64796469868116e-04
4.00294000000000e+00 5.75304471749966e-02 6.58511388203735e-04
4.03730000000000e+00 5.67414346575409e-02 6.52261694047790e-04
4.07166000000000e+00 5.59632432058561e-02 6.46047913371151e-04
4.10602000000000e+00 5.51957244123289e-02 6.39870541564212e-04
4.14038000000000e+00 5.44387319047113e-02 6.33730044511016e-04
4.17474000000000e+00 5.36921213182062e-02 6.27626859625917e-04
4.20910000000000e+00 5.29557502679352e-02 6.21561396854211e-04
4.24346000000000e+00 5.22294783217854e-02 6.15534039638234e-04
4.27782000000000e+00 5.15131669736272e-02 6.09545145850233e-04
4.31218000000000e+00 5.08066796169004e-02 6.03595048693338e-04
4.34654000000000e+00 5.01098815185620e-02 5.97684057571775e-04
4.38090000000000e+00 4.94226397933917e-02 5.91812458931595e-04
4.41526000000000e+00 4.87448233786492e-02 5.85980517072962e-04
4.44962000000000e+00 4.80763030090799e-02 5.80188474935115e-04
4.48398000000000e+00 4.74169511922625e-02 5.74436554854927e-04
4.51834000000000e+00 4.67666421842954e-02 5.68724959300163e-04
4.55270000000000e+00 4.61252519658162e-02 5.63053871578365e-04
4.58706000000000e+00 4.54926582183502e-02 5.57423456522155e-04
4.62142000000000e+00 4.48687403009833e-02 5.51833861151859e-04
4.65578000000000e+00 4.42533792273547e-02 5.46285215316300e-04
4.69014000000000e+00 4.36464576429651e-02 5.40777632312568e-04
4.72450000000000e+00 4.30478598027963e-02 5.35311209485374e-04
4.75886000000000e+00 4.24574715492378e-02 5.29886028806889e-04
4.79322000000000e+00 4.18751802903160e-02 5.24502157437685e-04
4.82758000000000e+00 4.13008749782215e-02 5.19159648269364e-04
4.86194000000000e+00 4.07344460881319e-02 5.13858540449642e-04
4.89630000000000e+00 4.01757855973244e-02 5.08598859890459e-04
4.93066000000000e+00 3.96247869645747e-02 5.03380619759615e-04
4.96502000000000e+00 3.90813451098389e-02 4.98203820956585e-04
4.99938000000000e+00 3.85453563942137e-02 4.93068452573056e-04
5.03374000000000e+00 3.80167186001720e-02 4.87974492338646e-04
5.06810000000000e+00 3.74953309120686e-02 4.82921907052358e-04
5.10246000000000e+00 3.69810938969143e-02 4.77910653000226e-04
5.13682000000000e+00 3.64739094854128e-02 4.72940676359607e-04
5.17118000000000e+00 3.59736809532584e-02 4.68011913590578e-04
5.20554000000000e+00 3.54803129026897e-02 4.63124291814877e-04
5.23990000000000e+00 3.49937112442963e-02 4.58277729182767e-04
5.27426000000000e+00 3.45137831790756e-02 4.53472135228191e-04
5.30862000000000e+00 3.40404371807348e-02 4.48707411212757e-04
5.34298000000000e+00 3.35735829782364e-02 4.43983450458732e-04
5.37734000000000e+00 3.31131315385824e-02 4.39300138671447e-04
5.41170000000000e+00 3.26589950498354e-02 4.34657354251539e-04
5.44606000000000e+00 3.22110869043718e-02 4.30054968597291e-04
5.48042000000000e+00 3.17693216823652e-02 4.25492846397386e-04
5.51478000000000e+00 3.13336151354959e-02 4.20970845914372e-04
5.54914000000000e+00 3.09038841708844e-02 4.16488819259195e-04
5.58350000000000e+00 3.04800468352444e-02 4.12046612657036e-04
5.61786000000000e+00 3.00620222992541e-02 4.07644066704683e-04
5.65222000000000e+00 2.96497308421410e-02 4.03281016619785e-04
5.68658000000000e+00 2.92430938364790e-02 3.98957292482259e-04
5.72094000000000e+00 2.88420337331927e-02 3.94672719467983e-04
5.75530000000000e+00 2.84464740467688e-02 3.90427118075080e-04
5.78966000000000e+00 2.80563393406695e-02 3.86220304343061e-04
5.82402000000000e+00 2.76715552129461e-02 3.82052090064995e-04
5.85838000000000e+00 2.72920482820497e-02 3.77922282992917e-04
5.89274000000000e+00 2.69177461728372e-02 3.73830687036756e-04
5.92710000000000e+00 2.65485775027683e-02 3.69777102456859e-04
5.96146000000000e+00 2.61844718682926e-02 3.65761326050416e-04
5.99582000000000e+00 2.58253598314227e-02 3.61783151331944e-04
6.03018000000000e+00 2.54711729064922e-02 3.57842368707957e-04
6.06454000000000e+00 2.51218435470946e-02 3.53938765646079e-04
6.09890000000000e+00 2.47773051332018e-02 3.50072126838733e-04
6.13326000000000e+00 2.44374919584589e-02 3.46242234361537e-04
6.16762000000000e+00 2.41023392176538e-02 3.42448867826605e-04
6.20198000000000e+00 2.37717829943579e-02 3.38691804530939e-04
6.23634000000000e+00 2.34457602487371e-02 3.34970819599986e-04
6.27070000000000e+00 2.31242088055292e-02 3.31285686126529e-04
6.30506000000000e+00 2.28070673421868e-02 3.27636175305078e-04
6.33942000000000e+00 2.24942753771826e-02 3.24022056561905e-04
6.37378000000000e+00 2.21857732584748e-02 3.20443097680790e-04
6.40814000000000e+00 2.18815021521314e-02 3.16899064924657e-04
6.44250000000000e+00 2.15814040311095e-02 3.13389723153207e-04
6.47686000000000e+00 2.12854216641897e-02 3.09914835936677e-04
6.51122000000000e+00 2.09934986050610e-02 3.06474165665837e-04
6.54558000000000e+00 2.07055791815565e-02 3.03067473658314e-04
6.57994000000000e+00 2.04216084850360e-02 2.99694520261380e-04
6.61430000000000e+00 2.01415323599146e-02 2.96355064951294e-04
6.64866000000000e+00 1.98652973933348e-02 2.93048866429299e-04
6.68302000000000e+00 1.95928509049798e-02 2.89775682714401e-04
6.71738000000000e+00 1.93241409370275e-02 2.86535271232978e-04
6.75174000000000e+00 1.90591162442416e-02 2.83327388905342e-04
6.78610000000000e+00 1.87977262841982e-02 2.80151792229339e-04
6.82046000000000e+00 1.85399212076476e-02 2.77008237361063e-04
6.85482000000000e+00 1.82856518490073e-02 2.73896480192802e-04
6.88918000000000e+00 1.80348697169857e-02 2.70816276428245e-04
6.92354000000000e+00 1.77875269853344e-02 2.67767381655087e-04
6.95790000000000e+00 1.75435764837275e-02 2.64749551415061e-04
6.99226000000000e+00 1.73029716887657e-02 2.61762541271495e-04
7.02662000000000e+00 1.70656667151038e-02 2.58806106874465e-04
7.06098000000000e+00 1.68316163067003e-02 2.55880004023601e-04
7.09534000000000e+00 1.66007758281864e-02 2.52983988728671e-04
7.12970000000000e+00 1.63731012563536e-02 2.50117817267917e-04
7.16406000000000e+00 1.61485491717585e-02 2.47281246244266e-04
7.19842000000000e+00 1.59270767504421e-02 2.44474032639476e-04
7.23278000000000e+00 1.57086417557627e-02 2.41695933866272e-04
7.26714000000000e+00 1.54932025303413e-02 2.38946707818520e-04
7.30150000000000e+00 1.52807179881174e-02 2.36226112919509e-04
7.33586000000000e+00 1.50711476065131e-02 2.33533908168400e-04
7.37022000000000e+00 1.48644514187051e-02 2.30869853184876e-04
7.40458000000000e+00 1.46605900060031e-02 2.28233708252073e-04
7.43894000000000e+00 1.44595244903322e-02 2.25625234357810e-04
7.47330000000000e+00 1.42612165268181e-02 2.23044193234203e-04
7.50766000000000e+00 1.40656282964750e-02 2.20490347395679e-04
7.54202000000000e+00 1.38727224989928e-02 2.17963460175467e-04
7.57638000000000e+00 1.36824623456240e-02 2.15463295760598e-04
7.61074000000000e+00 1.34948115521671e-02 2.12989619225430e-04
7.64510000000000e+00 1.33097343320479e-02 2.10542196563794e-04
7.67946000000000e+00 1.31271953894937e-02 2.08120794719765e-04
7.71382000000000e+00 1.29471599128027e-02 2.05725181617122e-04
7.74818000000000e+00 1.27695935677049e-02 2.03355126187492e-04
7.78254000000000e+00 1.25944624908146e-02 2.01010398397281e-04
7.81690000000000e+00 1.24217332831717e-02 1.98690769273377e-04
7.85126000000000e+00 1.22513730038729e-02 1.96396010927691e-04
7.88562000000000e+00 1.20833491637892e-02 1.94125896580562e-04
7.91998000000000e+00 1.19176297193701e-02 1.91880200583039e-04
7.95434000000000e+00 1.17541830665329e-02 1.89658698438108e-04
7.98870000000000e+00 1.15929780346347e-02 1.87461166820891e-04
8.02306000000000e+00 1.14339838805289e-02 1.85287383597810e-04
8.05742000000000e+00 1.12771702827016e-02 1.83137127844789e-04
8.09178000000000e+00 1.11225073354892e-02 1.81010179864522e-04
8.12614000000000e+00 1.09699655433752e-02 1.78906321202793e-04
8.16050000000000e+00 1.08195158153651e-02 1.76825334663925e-04
8.19486000000000e+00 1.06711294594383e-02 1.74767004325378e-04
8.22922000000000e+00 1.05247781770769e-02 1.72731115551484e-04
8.26358000000000e+00 1.03804340578682e-02 1.70717455006373e-04
8.29794000000000e+00 1.02380695741824e-02 1.68725810666139e-04
8.33230000000000e+00 1.00976575759228e-02 1.66755971830228e-04
8.36666000000000e+00 9.95917128534779e-03 1.64807729132060e-04
8.40102000000000e+00 9.82258429196458e-03 1.62880874548996e-04
8.43538000000000e+00 9.68787054749204e-03 1.60975201411559e-04
8.46974000000000e+00 9.55500436089331e-03 1.59090504412007e-04
8.50410000000000e+00 9.42396039347625e-03 1.57226579612255e-04
8.53846000000000e+00 9.29471365406117e-03 1.55383224451162e-04
8.57282000000000e+00 9.16723949421476e-03 1.53560237751216e-04
8.60718000000000e+00 9.04151360354945e-03 1.51757419724617e-04
8.64154000000000e+00 8.91751200508721e-03 1.49974571978801e-04
8.67590000000000e+00 8.79521105068696e-03 1.48211497521407e-04
8.71026000000000e+00 8.67458741653462e-03 1.46468000764699e-04
8.74462000000000e+00 8.55561809869514e-03 1.44743887529488e-04
8.77898000000000e+00 8.43828040872539e-03 1.43038965048538e-04
8.81334000000000e+00 8.32255196934730e-03 1.41353041969489e-04
8.84770000000000e+00 8.20841071018037e-03 1.39685928357324e-04
8.88206000000000e+00 8.09583486353260e-03 1.38037435696364e-04
8.91642000000000e+00 7.98480296024926e-03 1.36407376891853e-04
8.95078000000000e+00 7.87529382561851e-03 1.34795566271081e-04
8.98514000000000e+00 7.76728657533322e-03 1.33201819584125e-04
9.01950000000000e+00 7.66076061150815e-03 1.31625954004196e-04
9.05386000000000e+00 7.55569561875178e-03 1.30067788127592e-04
9.08822000000000e+00 7.45207156029198e-03 1.28527141973282e-04
9.12258000000000e+00 7.34986867415483e-03 1.27003836982147e-04
9.15694000000000e+00 7.24906746939583e-03 1.25497696015857e-04
9.19130000000000e+00 7.14964872238285e-03 1.24008543355439e-04
9.22566000000000e+00 7.05159347313002e-03 1.22536204699514e-04
9.26002000000000e+00 6.95488302168186e-03 1.21080507162223e-04
9.29438000000000e+00 6.85949892454708e-03 1.19641279270863e-04
9.32874000000000e+00 6.76542299118125e-03 1.18218350963230e-04
9.36310000000000e+00 6.67263728051769e-03 1.16811553584684e-04
9.39746000000000e+00 6.58112409754598e-03 1.15420719884956e-04
9.43182000000000e+00 6.49086598993735e-03 1.14045684014701e-04
9.46618000000000e+00 6.40184574471642e-03 1.12686281521785e-04
9.50054000000000e+00 6.31404638497848e-03 1.11342349347359e-04
9.53490000000000e+00 6.22745116665190e-03 1.10013725821693e-04
9.56926000000000e+00 6.14204357530490e-03 1.08700250659791e-04
9.60362000000000e+00 6.05780732299604e-03 1.07401764956797e-04
9.63798000000000e+00 5.97472634516807e-03 1.06118111183189e-04
9.67234000000000e+00 5.89278479758422e-03 1.04849133179799e-04
9.70670000000000e+00 5.81196705330659e-03 1.03594676152636e-04
9.74106000000000e+00 5.73225769971595e-03 1.02354586667517e-04
9.77542000000000e+00 5.65364153557246e-03 1.01128712644551e-04
9.80978000000000e+00 5.57610356811663e-03 9.99169033524361e-05
9.84414000000000e+00 5.49962901021008e-03 9.87190094026190e-05
9.87850000000000e+00 5.42420327751555e-03 9.75348827432972e-05
9.91286000000000e+00 5.34981198571547e-03 9.63643766532633e-05
9.94722000000000e+00 5.27644094776882e-03 9.52073457356335e-05
9.98158000000000e+00 5.20407617120552e-03 9.40636459114353e-05
1.00159400000000e+01 5.13270385545792e-03 9.29331344130669e-05
1.00503000000000e+01 5.06231038922897e-03 9.18156697776436e-05
1.00846600000000e+01 4.99288234789638e-03 9.07111118402265e-05
1.01190200000000e+01 4.92440649095247e-03 8.96193217269479e-05
1.01533800000000e+01 4.85686975947908e-03 8.85401618480317e-05
1.01877400000000e+01 4.79025927365712e-03 8.74734958907124e-05
1.02221000000000e+01 4.72456233031028e-03 8.64191888120666e-05
1.02564600000000e+01 4.65976640048245e-03 8.53771068317585e-05
1.02908200000000e+01 4.59585912704832e-03 8.43471174247031e-05
1.03251800000000e+01 4.53282832235678e-03 8.33290893136458e-05
1.03595400000000e+01 4.47066196590663e-03 8.23228924616712e-05
1.03939000000000e+01 4.40934820205418e-03 8.13283980646442e-05
1.04282600000000e+01 4.34887533775227e-03 8.03454785435890e-05
1.04626200000000e+01 4.28923184032032e-03 7.93740075370039e-05
1.04969800000000e+01 4.23040633524492e-03 7.84138598931168e-05
1.05313400000000e+01 4.17238760401067e-03 7.74649116620950e-05
1.05657000000000e+01 4.11516458196066e-03 7.65270400881997e-05
1.06000600000000e+01 4.05872635618639e-03 7.56001236018997e-05
1.06344200000000e+01 4.00306216344654e-03 7.46840418119395e-05
1.06687800000000e+01 3.94816138811439e-03 7.37786754973694e-05
1.07031400000000e+01 3.89401356015328e-03 7.28839065995442e-05
1.07375000000000e+01 3.84060835311990e-03 7.19996182140858e-05
1.07718600000000e+01 3.78793558219499e-03 7.11256945828197e-05
1.08062200000000e+01 3.73598520224093e-03 7.02620210856817e-05
1.08405800000000e+01 3.68474730588613e-03 6.94084842326075e-05
