Energy (eV)          EEDF (eV^-(3/2))     First Anisotropy
1.91071428571429e-02 7.28870423608870e-02 3.65189611233886e-05
5.73214285714286e-02 7.24390846772145e-02 6.03206616998177e-05
9.55357142857143e-02 7.19938801038593e-02 7.96764221651980e-05
1.33750000000000e-01 7.15514117209360e-02 9.44093729440162e-05
1.71964285714286e-01 7.11116627108225e-02 1.06720227290665e-04
2.10178571428571e-01 7.06746163607949e-02 1.17440157698841e-04
2.48392857142857e-01 7.02402560628066e-02 1.26998861253906e-04
2.86607142857143e-01 6.98085653065035e-02 1.35655562771206e-04
3.24821428571429e-01 6.93795276851454e-02 1.43582016128173e-04
3.63035714285714e-01 6.89531268941541e-02 1.50899495508125e-04
4.01250000000000e-01 6.85293467265229e-02 1.57697687240935e-04
4.39464285714286e-01 6.81081710761616e-02 1.64045300455263e-04
4.77678571428571e-01 6.76895839359616e-02 1.69996462266006e-04
5.15892857142857e-01 6.72735693980567e-02 1.75594788264876e-04
5.54107142857143e-01 6.68601116505841e-02 1.80876088633808e-04
5.92321428571429e-01 6.64491949797338e-02 1.85870232737015e-04
6.30535714285714e-01 6.60408037689605e-02 1.90602473621093e-04
6.68750000000000e-01 6.56349224963250e-02 1.95094411916941e-04
7.06964285714286e-01 6.52315357359721e-02 1.99364713252511e-04
7.45178571428571e-01 6.48306281568509e-02 2.03429652708081e-04
7.83392857142857e-01 6.44321845226656e-02 2.07303534730775e-04
8.21607142857143e-01 6.40361896896863e-02 2.10999021579391e-04
8.59821428571429e-01 6.36426286077902e-02 2.14527393718394e-04
8.98035714285714e-01 6.32514863198043e-02 2.17898759343100e-04
9.36250000000000e-01 6.28627479595772e-02 2.21122223828959e-04
9.74464285714286e-01 6.24763987527770e-02 2.24206028546044e-04
1.01267857142857e+00 6.20924240158732e-02 2.27157665585529e-04
1.05089285714286e+00 6.17108091573825e-02 2.29983974350909e-04
1.08910714285714e+00 6.13315396704574e-02 2.32691220863440e-04
1.12732142857143e+00 6.09546011406851e-02 2.35285164510692e-04
1.16553571428571e+00 6.05799792456212e-02 2.37771118542245e-04
1.20375000000000e+00 6.02076597441181e-02 2.40153997399608e-04
1.24196428571429e+00 5.98376284889753e-02 2.42438359562347e-04
1.28017857142857e+00 5.94698714138071e-02 2.44628444383313e-04
1.31839285714286e+00 5.91043745445493e-02 2.46728203828823e-04
1.35660714285714e+00 5.87411239873995e-02 2.48741330867238e-04
1.39482142857143e+00 5.83801059367415e-02 2.50671281942809e-04
1.43303571428571e+00 5.80213066744101e-02 2.52521301179690e-04
1.47125000000000e+00 5.76647125613607e-02 2.54294437539891e-04
1.50946428571429e+00 5.73103100473655e-02 2.55993561969336e-04
1.54767857142857e+00 5.69580856606723e-02 2.57621382431433e-04
1.58589285714286e+00 5.66080260169538e-02 2.59180457117222e-04
1.62410714285714e+00 5.62601178096800e-02 2.60673206847119e-04
1.66232142857143e+00 5.59143478163242e-02 2.62101924104250e-04
1.70053571428571e+00 5.55707028977095e-02 2.63468785062916e-04
1.73875000000000e+00 5.52291699912495e-02 2.64775856702085e-04
1.77696428571429e+00 5.48897361186636e-02 2.66025104975247e-04
1.81517857142857e+00 5.45523883775431e-02 2.67218402008498e-04
1.85339285714286e+00 5.42171139485439e-02 2.68357532478336e-04
1.89160714285714e+00 5.38839000874606e-02 2.69444199920984e-04
1.92982142857143e+00 5.35527341302315e-02 2.70480030635627e-04
1.96803571428571e+00 5.32236034923439e-02 2.71466580728459e-04
2.00625000000000e+00 5.28964956632002e-02 2.72405339218160e-04
2.04446428571429e+00 5.25713982124192e-02 2.73297732452295e-04
2.08267857142857e+00 5.22482987827861e-02 2.74145127968796e-04
2.12089285714286e+00 5.19271850961702e-02 2.74948837917332e-04
2.15910714285714e+00 5.16080449468529e-02 2.75710122655599e-04
2.19732142857143e+00 5.12908662056518e-02 2.76430192413898e-04
2.23553571428571e+00 5.09756368193711e-02 2.77110211960674e-04
2.27375000000000e+00 5.06623448060127e-02 2.77751301904714e-04
2.31196428571429e+00 5.03509782600221e-02 2.78354541325405e-04
2.35017857142857e+00 5.00415253462868e-02 2.78920970029071e-04
2.38839285714286e+00 4.97339743050899e-02 2.79451590534130e-04
2.42660714285714e+00 4.94283134463993e-02 2.79947370311832e-04
2.46482142857143e+00 4.91245311533220e-02 2.80409242381365e-04
2.50303571428571e+00 4.88226158815903e-02 2.80838108696119e-04
2.54125000000000e+00 4.85225561554297e-02 2.81234840566010e-04
2.57946428571429e+00 4.82243405719918e-02 2.81600280349862e-04
2.61767857142857e+00 4.79279577961707e-02 2.81935242864928e-04
2.65589285714286e+00 4.76333965648078e-02 2.82240516610537e-04
2.69410714285714e+00 4.73406456817387e-02 2.82516865268058e-04
2.73232142857143e+00 4.70496940207230e-02 2.82765027754073e-04
2.77053571428571e+00 4.67605305249615e-02 2.82985720848105e-04
2.80875000000000e+00 4.64731442034884e-02 2.83179639162644e-04
2.84696428571429e+00 4.61875241349605e-02 2.83347456303388e-04
2.88517857142857e+00 4.59036594631299e-02 2.83489825798229e-04
2.92339285714286e+00 4.56215394004516e-02 2.83607381888508e-04
2.96160714285714e+00 4.53411532237429e-02 2.83700740593983e-04
2.99982142857143e+00 4.50624902766927e-02 2.83770499482021e-04
3.03803571428571e+00 4.47855399694076e-02 2.83817239807905e-04
3.07625000000000e+00 4.45102917752290e-02 2.83841526246384e-04
3.11446428571429e+00 4.42367352340047e-02 2.83843907729652e-04
3.15267857142857e+00 4.39648599480980e-02 2.83824918087462e-04
3.19089285714286e+00 4.36946555855097e-02 2.83785076578974e-04
3.22910714285714e+00 4.34261118760419e-02 2.83724888686226e-04
3.26732142857143e+00 4.31592186134656e-02 2.83644845734204e-04
3.30553571428571e+00 4.28939656550906e-02 2.83545426695763e-04
3.34375000000000e+00 4.26303429189376e-02 2.83427097797842e-04
3.38196428571429e+00 4.23683403865831e-02 2.83290313153800e-04
3.42017857142857e+00 4.21079480996151e-02 2.83135515221057e-04
3.45839285714286e+00 4.18491561623553e-02 2.82963135170064e-04
3.49660714285714e+00 4.15919547384433e-02 2.82773593499588e-04
3.53482142857143e+00 4.13363340527225e-02 2.82567299581181e-04
3.57303571428571e+00 4.10822843908320e-02 2.82344653220159e-04
3.61125000000000e+00 4.08297960966763e-02 2.82106044198931e-04
3.64946428571429e+00 4.05788595749166e-02 2.81851852771865e-04
3.68767857142857e+00 4.03294652878020e-02 2.81582450002964e-04
3.72589285714286e+00 4.00816037575582e-02 2.81298198028646e-04
3.76410714285714e+00 3.98352655633274e-02 2.80999450550812e-04
3.80232142857143e+00 3.95904413428183e-02 2.80686552347201e-04
3.84053571428571e+00 3.93471217919194e-02 2.80359840646455e-04
3.87875000000000e+00 3.91052976624208e-02 2.80019644644491e-04
3.91696428571429e+00 3.88649597642087e-02 2.79666285903606e-04
3.95517857142857e+00 3.86260989624166e-02 2.79300078608399e-04
3.99339285714286e+00 3.83887061795324e-02 2.78921329757090e-04
4.03160714285714e+00 3.81527723926429e-02 2.78530339567465e-04
4.06982142857143e+00 3.79182886348847e-02 2.78127400977228e-04
4.10803571428571e+00 3.76852459950761e-02 2.77712800871894e-04
4.14625000000000e+00 3.74536356156574e-02 2.77286819595022e-04
4.18446428571429e+00 3.72234486946322e-02 2.76849731278250e-04
4.22267857142857e+00 3.69946764829947e-02 2.76401804039815e-04
4.26089285714286e+00 3.67673102865964e-02 2.75943300126515e-04
4.29910714285714e+00 3.65413414636543e-02 2.75474476255315e-04
4.33732142857143e+00 3.63167614260314e-02 2.74995583117814e-04
4.37553571428571e+00 3.60935616388865e-02 2.74506866488114e-04
4.41375000000000e+00 3.58717336188042e-02 2.74008566738994e-04
4.45196428571429e+00 3.56512689355191e-02 2.73500919120623e-04
4.49017857142857e+00 3.54321592095824e-02 2.72984153917744e-04
4.52839285714286e+00 3.52143961140236e-02 2.72458496556599e-04
4.56660714285714e+00 3.49979713720864e-02 2.71924167897738e-04
4.60482142857143e+00 3.47828767583643e-02 2.71381383752748e-04
4.64303571428571e+00 3.45691040984671e-02 2.70830355891752e-04
4.68125000000000e+00 3.43566452673156e-02 2.70271291572677e-04
4.71946428571429e+00 3.41454921906797e-02 2.69704393780682e-04
4.75767857142857e+00 3.39356368430547e-02 2.69129861354913e-04
4.79589285714286e+00 3.37270712491439e-02 2.68547889070050e-04
4.83410714285714e+00 3.35197874817960e-02 2.67958667891015e-04
4.87232142857143e+00 3.33137776630149e-02 2.67362384506723e-04
4.91053571428571e+00 3.31090339636412e-02 2.66759222251911e-04
4.94875000000000e+00 3.29055486017932e-02 2.66149360653600e-04
4.98696428571429e+00 3.27033138442427e-02 2.65532975639714e-04
5.02517857142857e+00 3.25023220044755e-02 2.64910239642811e-04
5.06339285714286e+00 3.23025654440192e-02 2.64281321663060e-04
5.10160714285714e+00 3.21040365705580e-02 2.63646387492532e-04
5.13982142857143e+00 3.19067278388326e-02 2.63005599268417e-04
5.17803571428571e+00 3.17106317503370e-02 2.62359116320619e-04
5.21625000000000e+00 3.15157408518880e-02 2.61707094737567e-04
5.25446428571429e+00 3.13220477368600e-02 2.61049687550086e-04
5.29267857142857e+00 3.11295450434081e-02 2.60387044817516e-04
5.33089285714286e+00 3.09382254556616e-02 2.59719313676788e-04
5.36910714285714e+00 3.07480817019945e-02 2.59046638541925e-04
5.40732142857143e+00 3.05591065558311e-02 2.58369160677962e-04
5.44553571428571e+00 3.03712928353560e-02 2.57687018983256e-04
5.48375000000000e+00 3.01846334021986e-02 2.57000349575554e-04
5.52196428571429e+00 2.99991211625441e-02 2.56309285955818e-04
5.56017857142857e+00 2.98147490655018e-02 2.55613959080472e-04
5.59839285714286e+00 2.96315101041794e-02 2.54914497399958e-04
5.63660714285714e+00 2.94493973140937e-02 2.54211027037720e-04
5.67482142857143e+00 2.92684037738923e-02 2.53503671385040e-04
5.71303571428571e+00 2.90885226050771e-02 2.52792551825530e-04
5.75125000000000e+00 2.89097469707914e-02 2.52077787341657e-04
5.78946428571429e+00 2.87320700768215e-02 2.51359494661826e-04
5.82767857142857e+00 2.85554851700949e-02 2.50637788321683e-04
5.86589285714286e+00 2.83799855396498e-02 2.49912780694581e-04
5.90410714285714e+00 2.82055645151712e-02 2.49184582153316e-04
5.94232142857143e+00 2.80322154676387e-02 2.48453300685655e-04
5.98053571428571e+00 2.78599318090624e-02 2.47719042567101e-04
6.01875000000000e+00 2.76887069913626e-02 2.46981911987593e-04
6.05696428571429e+00 2.75185345072746e-02 2.46242011184418e-04
6.09517857142857e+00 2.73494078889636e-02 2.45499440494824e-04
6.13339285714286e+00 2.71813207089011e-02 2.44754298380152e-04
6.17160714285714e+00 2.70142665785139e-02 2.44006681572809e-04
6.20982142857143e+00 2.68482391487665e-02 2.43256684712080e-04
6.24803571428571e+00 2.66832321099090e-02 2.42504400970142e-04
6.28625000000000e+00 2.65192391904403e-02 2.41749921698431e-04
6.32446428571429e+00 2.63562541579265e-02 2.40993336548505e-04
6.36267857142857e+00 2.61942708177216e-02 2.40234733517510e-04
6.40089285714286e+00 2.60332830137609e-02 2.39474198967406e-04
6.43910714285714e+00 2.58732846273114e-02 2.38711817759166e-04
6.47732142857143e+00 2.57142695774973e-02 2.37947672908064e-04
6.51553571428571e+00 2.55562318210584e-02 2.37181846167445e-04
6.55375000000000e+00 2.53991653513888e-02 2.36414417693972e-04
6.59196428571429e+00 2.52430641992794e-02 2.35645466158051e-04
6.63017857142857e+00 2.50879224317328e-02 2.34875068783404e-04
6.66839285714286e+00 2.49337341526837e-02 2.34103301362432e-04
6.70660714285714e+00 2.47804935018414e-02 2.33330238379332e-04
6.74482142857143e+00 2.46281946551635e-02 2.32555952683976e-04
6.78303571428571e+00 2.44768318246252e-02 2.31780516037172e-04
6.82125000000000e+00 2.43263992573265e-02 2.31003998793968e-04
6.85946428571429e+00 2.41768912361663e-02 2.30226470005019e-04
6.89767857142857e+00 2.40283020787439e-02 2.29447997451272e-04
6.93589285714286e+00 2.38806261380133e-02 2.28668647656182e-04
6.97410714285714e+00 2.37338578012089e-02 2.27888485999071e-04
7.01232142857143e+00 2.35879914902743e-02 2.27107576406798e-04
7.05053571428571e+00 2.34430216616409e-02 2.26325981863748e-04
7.08875000000000e+00 2.32989428053978e-02 2.25543764112340e-04
7.12696428571429e+00 2.31557494459053e-02 2.24760983746366e-04
7.16517857142857e+00 2.30134361407738e-02 2.23977700241620e-04
7.20339285714286e+00 2.28719974814597e-02 2.23193971965614e-04
7.24160714285714e+00 2.27314280922675e-02 2.22409856282240e-04
7.27982142857143e+00 2.25917226307369e-02 2.21625409260306e-04
7.31803571428571e+00 2.24528757874316e-02 2.20840686151161e-04
7.35625000000000e+00 2.23148822851663e-02 2.20055741105576e-04
7.39446428571429e+00 2.21777368795644e-02 2.19270627259908e-04
7.43267857142857e+00 2.20414343581100e-02 2.18485396763264e-04
7.47089285714286e+00 2.19059695406891e-02 2.17700100785288e-04
7.50910714285714e+00 2.17713372786624e-02 2.16914789613004e-04
7.54732142857143e+00 2.16375324552151e-02 2.16129512375317e-04
7.58553571428571e+00 2.15045499851553e-02 2.15344317490865e-04
7.62375000000000e+00 2.13723848141925e-02 2.14559252400325e-04
7.66196428571429e+00 2.12410319194471e-02 2.13774363646270e-04
7.70017857142857e+00 2.11104863085663e-02 2.12989696897348e-04
7.73839285714286e+00 2.09807430202190e-02 2.12205296954442e-04
7.77660714285714e+00 2.08517971232312e-02 2.11421207840549e-04
7.81482142857143e+00 2.07236437169031e-02 2.10637472540361e-04
7.85303571428571e+00 2.05962779308165e-02 2.09854133420611e-04
7.89125000000000e+00 2.04696949241613e-02 2.09071231977023e-04
7.92946428571429e+00 2.03438898861997e-02 2.08288808908396e-04
7.96767857142857e+00 2.02188580354431e-02 2.07506904138299e-04
8.00589285714286e+00 2.00945946201030e-02 2.06725556819855e-04
8.04410714285714e+00 1.99710949172851e-02 2.05944805419355e-04
8.08232142857143e+00 1.98483542332769e-02 2.05164687470118e-04
8.12053571428571e+00 1.97263679033634e-02 2.04385239967311e-04
8.15875000000000e+00 1.96051312911972e-02 2.03606499128723e-04
8.19696428571429e+00 1.94846397892233e-02 2.02828500463693e-04
8.23517857142857e+00 1.93648888179102e-02 2.02051278792603e-04
8.27339285714286e+00 1.92458738261625e-02 2.01274868250590e-04
8.31160714285714e+00 1.91275902905681e-02 2.00499302365447e-04
8.34982142857143e+00 1.90100337156594e-02 1.99724613824890e-04
8.38803571428571e+00 1.88931996337368e-02 1.98950834847782e-04
8.42625000000000e+00 1.87770836042797e-02 1.98177996957955e-04
8.46446428571429e+00 1.86616812143345e-02 1.97406131048426e-04
8.50267857142857e+00 1.85469880777965e-02 1.96635267398982e-04
8.54089285714286e+00 1.84329998357872e-02 1.95865435679003e-04
8.57910714285714e+00 1.83197121559509e-02 1.95096665020125e-04
8.61732142857143e+00 1.82071207326917e-02 1.94328983796253e-04
8.65553571428571e+00 1.80952212870049e-02 1.93562419972812e-04
8.69375000000000e+00 1.79840095659251e-02 1.92797000892820e-04
8.73196428571429e+00 1.78734813428813e-02 1.92032753336848e-04
8.77017857142857e+00 1.77636324170255e-02 1.91269703538937e-04
8.80839285714286e+00 1.76544586135780e-02 1.90507877188716e-04
8.84660714285714e+00 1.75459557831698e-02 1.89747299499277e-04
8.88482142857143e+00 1.74381198020570e-02 1.88987994999118e-04
8.92303571428571e+00 1.73309465719606e-02 1.88229987860981e-04
8.96125000000000e+00 1.72244320195480e-02 1.87473301699555e-04
8.99946428571429e+00 1.71185720967595e-02 1.86717959627488e-04
9.03767857142857e+00 1.70133627801786e-02 1.85963984269814e-04
9.07589285714286e+00 1.69088000713495e-02 1.85211397765495e-04
9.11410714285714e+00 1.68048799961602e-02 1.84460221830918e-04
9.15232142857143e+00 1.67015986050387e-02 1.83710477563131e-04
9.19053571428571e+00 1.65989519727983e-02 1.82962185749620e-04
9.22875000000000e+00 1.64969361981526e-02 1.82215366676899e-04
9.26696428571429e+00 1.63955474040130e-02 1.81470040182992e-04
9.30517857142857e+00 1.62947817369009e-02 1.80726225670541e-04
9.34339285714286e+00 1.61946353672368e-02 1.79983942107827e-04
9.38160714285714e+00 1.60951044887638e-02 1.79243208088297e-04
9.41982142857143e+00 1.59961853187249e-02 1.78504041644374e-04
9.45803571428571e+00 1.58978740977157e-02 1.77766460539459e-04
9.49625000000000e+00 1.58001670892285e-02 1.77030482086879e-04
9.53446428571429e+00 1.57030605799257e-02 1.76296123198995e-04
9.57267857142857e+00 1.56065508790880e-02 1.75563400399185e-04
9.61089285714286e+00 1.55106343188803e-02 1.74832329822489e-04
9.64910714285714e+00 1.54153072538107e-02 1.74102927271378e-04
9.68732142857143e+00 1.53205660608917e-02 1.73375208039583e-04
9.72553571428571e+00 1.52264071394993e-02 1.72649187187525e-04
9.76375000000000e+00 1.51328269109447e-02 1.71924879370935e-04
9.80196428571429e+00 1.50398218187252e-02 1.71202298886937e-04
9.84017857142857e+00 1.49473883280063e-02 1.70481459685001e-04
9.87839285714286e+00 1.48555229258662e-02 1.69762375367220e-04
9.91660714285714e+00 1.47642221207874e-02 1.69045059240691e-04
9.95482142857143e+00 1.46734824428038e-02 1.68329524150761e-04
9.99303571428571e+00 1.45833004433660e-02 1.67615782905538e-04
1.00312500000000e+01 1.44936726945816e-02 1.66903847291887e-04
1.00694642857143e+01 1.44045957912250e-02 1.66193729472261e-04
1.01076785714286e+01 1.43160663469604e-02 1.65485441632301e-04
1.01458928571429e+01 1.42280809971523e-02 1.64778994692534e-04
1.01841071428571e+01 1.41406363978440e-02 1.64074399688220e-04
1.02223214285714e+01 1.40537292256298e-02 1.63371667355683e-04
1.02605357142857e+01 1.39673561775300e-02 1.62670808137028e-04
1.02987500000000e+01 1.38815139708646e-02 1.61971831800558e-04
1.03369642857143e+01 1.37961993439500e-02 1.61274748604896e-04
1.03751785714286e+01 1.37114090534986e-02 1.60579568528127e-04
1.04133928571429e+01 1.36271398769847e-02 1.59886300488006e-04
1.04516071428571e+01 1.35433886116876e-02 1.59194953526229e-04
1.04898214285714e+01 1.34601520745698e-02 1.58505536417155e-04
1.05280357142857e+01 1.33774271021571e-02 1.57818057672073e-04
1.05662500000000e+01 1.32952105504177e-02 1.57132525180013e-04
1.06044642857143e+01 1.32134992954091e-02 1.56448947308240e-04
1.06426785714286e+01 1.31322902308486e-02 1.55767332173203e-04
1.06808928571429e+01 1.30515802703175e-02 1.55087686902973e-04
1.07191071428571e+01 1.29713663463662e-02 1.54410018756774e-04
1.07573214285714e+01 1.28916454103969e-02 1.53734334754843e-04
1.07955357142857e+01 1.28124144325484e-02 1.53060641682249e-04
1.08337500000000e+01 1.27336704015810e-02 1.52388945748929e-04
1.08719642857143e+01 1.26554103254781e-02 1.51719253630456e-04
1.09101785714286e+01 1.25776312291727e-02 1.51051571778231e-04
1.09483928571429e+01 1.25003301566050e-02 1.50385905721628e-04
1.09866071428571e+01 1.24235041698831e-02 1.49722261126761e-04
1.10248214285714e+01 1.23471503491703e-02 1.49060643446233e-04
1.10630357142857e+01 1.22712657925756e-02 1.48401057922542e-04
1.11012500000000e+01 1.21958476160427e-02 1.47743509266217e-04
1.11394642857143e+01 1.21208929539099e-02 1.47088002640369e-04
1.11776785714286e+01 1.20463989567828e-02 1.46434543007900e-04
1.12158928571429e+01 1.19723627934545e-02 1.45783134471062e-04
1.12541071428571e+01 1.18987816501186e-02 1.45133781272993e-04
1.12923214285714e+01 1.18256527302613e-02 1.44486487466184e-04
1.13305357142857e+01 1.17529732545567e-02 1.43841256915565e-04
1.13687500000000e+01 1.16807404607601e-02 1.43198092993701e-04
1.14069642857143e+01 1.16089516042296e-02 1.42556999512476e-04
1.14451785714286e+01 1.15376039559339e-02 1.41917980105097e-04
1.14833928571429e+01 1.14666948042457e-02 1.41281037600873e-04
1.15216071428571e+01 1.13962214542031e-02 1.40646174972999e-04
1.15598214285714e+01 1.13261812274066e-02 1.40013395024594e-04
1.15980357142857e+01 1.12565714619187e-02 1.39382700391489e-04
1.16362500000000e+01 1.11873895121615e-02 1.38754093253558e-04
1.16744642857143e+01 1.11186327494027e-02 1.38127576216568e-04
1.17126785714286e+01 1.10502985598891e-02 1.37503151727018e-04
1.17508928571429e+01 1.09823843465222e-02 1.36880821480105e-04
1.17891071428571e+01 1.09148875281654e-02 1.36260587316828e-04
1.18273214285714e+01 1.08478055395448e-02 1.35642450926693e-04
1.18655357142857e+01 1.07811358311529e-02 1.35026413850188e-04
1.19037500000000e+01 1.07148758691514e-02 1.34412477205301e-04
1.19419642857143e+01 1.06490231358230e-02 1.33800642522472e-04
1.19801785714286e+01 1.05835751278225e-02 1.33190911190358e-04
1.20183928571429e+01 1.05185293577432e-02 1.32583283895116e-04
1.20566071428571e+01 1.04538833534659e-02 1.31977761469757e-04
