Energy (eV)          EEDF (eV^-(3/2))     First Anisotropy
2.68571428571429e-03 2.80513694372963e+00 1.73769585195734e-03
8.05714285714286e-03 2.77753019381482e+00 2.86494138320557e-03
1.34285714285714e-02 2.75019513574484e+00 3.77017545933247e-03
1.88000000000000e-02 2.72312909553856e+00 4.45070639735362e-03
2.41714285714286e-02 2.69632942567617e+00 5.01236476651984e-03
2.95428571428571e-02 2.66979350468735e+00 5.49534100733816e-03
3.49142857142857e-02 2.64351873698162e+00 5.92052123144866e-03
4.02857142857143e-02 2.61750255233283e+00 6.30056966320683e-03
4.56571428571429e-02 2.59174240589805e+00 6.64391935231740e-03
5.10285714285714e-02 2.56623577793336e+00 6.95655442413547e-03
5.64000000000000e-02 2.54098017338562e+00 7.24292215926711e-03
6.17714285714286e-02 2.51597312181016e+00 7.50644628782838e-03
6.71428571428571e-02 2.49121217707496e+00 7.74983696146344e-03
7.25142857142857e-02 2.46669491715615e+00 7.97528843395178e-03
7.78857142857143e-02 2.44241894379545e+00 8.18461074357722e-03
8.32571428571428e-02 2.41838188237213e+00 8.37932062608639e-03
8.86285714285714e-02 2.39458138166259e+00 8.56070620713588e-03
9.40000000000000e-02 2.37101511352834e+00 8.72987418643040e-03
9.93714285714286e-02 2.34768077277059e+00 8.88778502716209e-03
1.04742857142857e-01 2.32457607685475e+00 9.03527969238922e-03
1.10114285714286e-01 2.30169876587535e+00 9.17310035838534e-03
1.15485714285714e-01 2.27904660182529e+00 9.30190659355458e-03
1.20857142857143e-01 2.25661736892505e+00 9.42228819491233e-03
1.26228571428571e-01 2.23440887338136e+00 9.53477565470186e-03
1.31600000000000e-01 2.21241894263329e+00 9.63984851167733e-03
1.36971428571429e-01 2.19064542583739e+00 9.73794227606842e-03
1.42342857142857e-01 2.16908619300169e+00 9.82945416026204e-03
1.47714285714286e-01 2.14773913539485e+00 9.91474785119316e-03
1.53085714285714e-01 2.12660216475688e+00 9.99415754959496e-03
1.58457142857143e-01 2.10567321351944e+00 1.00679913110210e-02
1.63828571428571e-01 2.08495023458902e+00 1.01365340369174e-02
1.69200000000000e-01 2.06443120076536e+00 1.02000499043999e-02
1.74571428571429e-01 2.04411410503972e+00 1.02587845213029e-02
1.79942857142857e-01 2.02399695992623e+00 1.03129667890709e-02
1.85314285714286e-01 2.00407779771739e+00 1.03628105162895e-02
1.90685714285714e-01 1.98435466986240e+00 1.04085158501594e-02
1.96057142857143e-01 1.96482564709098e+00 1.04502704675890e-02
2.01428571428571e-01 1.94548881921503e+00 1.04882507466488e-02
2.06800000000000e-01 1.92634229465522e+00 1.05226226889332e-02
2.12171428571429e-01 1.90738420063059e+00 1.05535427911216e-02
2.17542857142857e-01 1.88861268261635e+00 1.05811588172072e-02
2.22914285714286e-01 1.87002590450685e+00 1.06056104824256e-02
2.28285714285714e-01 1.85162204810529e+00 1.06270300833452e-02
2.33657142857143e-01 1.83339931318908e+00 1.06455430083257e-02
2.39028571428571e-01 1.81535591732684e+00 1.06612683017667e-02
2.44400000000000e-01 1.79749009548034e+00 1.06743190754058e-02
2.49771428571429e-01 1.77980010012516e+00 1.06848029266819e-02
2.55142857142857e-01 1.76228420079719e+00 1.06928223144314e-02
2.60514285714286e-01 1.74494068419577e+00 1.06984748957554e-02
2.65885714285714e-01 1.72776785375326e+00 1.07018538475646e-02
2.71257142857143e-01 1.71076402966296e+00 1.07030481121262e-02
2.76628571428571e-01 1.69392754870959e+00 1.07021427122547e-02
2.82000000000000e-01 1.67725676392707e+00 1.06992189544014e-02
2.87371428571429e-01 1.66075004467333e+00 1.06943546554474e-02
2.92742857142857e-01 1.64440577624268e+00 1.06876243474992e-02
2.98114285714286e-01 1.62822235992856e+00 1.06790994625483e-02
3.03485714285714e-01 1.61219821265353e+00 1.06688485152666e-02
3.08857142857143e-01 1.59633176697226e+00 1.06569372299581e-02
3.14228571428571e-01 1.58062147091422e+00 1.06434287372826e-02
3.19600000000000e-01 1.56506578768491e+00 1.06283836810654e-02
3.24971428571429e-01 1.54966319570892e+00 1.06118603529725e-02
3.30342857142857e-01 1.53441218829356e+00 1.05939148140439e-02
3.35714285714286e-01 1.51931127366340e+00 1.05746010043417e-02
3.41085714285714e-01 1.50435897463781e+00 1.05539708557963e-02
3.46457142857143e-01 1.48955382861710e+00 1.05320743605072e-02
3.51828571428571e-01 1.47489438743626e+00 1.05089597043590e-02
3.57200000000000e-01 1.46037921710124e+00 1.04846733250623e-02
3.62571428571429e-01 1.44600689780951e+00 1.04592599979960e-02
3.67942857142857e-01 1.43177602365488e+00 1.04327629132309e-02
3.73314285714286e-01 1.41768520264193e+00 1.04052237447867e-02
3.78685714285714e-01 1.40373305640205e+00 1.03766827249609e-02
3.84057142857143e-01 1.38991822016812e+00 1.03471786814388e-02
3.89428571428571e-01 1.37623934263847e+00 1.03167491341098e-02
3.94800000000000e-01 1.36269508574195e+00 1.02854303267039e-02
4.00171428571429e-01 1.34928412464256e+00 1.02532572846796e-02
4.05542857142857e-01 1.33600514747790e+00 1.02202638666560e-02
4.10914285714286e-01 1.32285685535935e+00 1.01864828103513e-02
4.16285714285714e-01 1.30983796211985e+00 1.01519457841538e-02
4.21657142857143e-01 1.29694719428093e+00 1.01166834067362e-02
4.27028571428571e-01 1.28418329092596e+00 1.00807253207689e-02
4.32400000000000e-01 1.27154500348963e+00 1.00441002095407e-02
4.37771428571429e-01 1.25903109575096e+00 1.00068358378209e-02
4.43142857142857e-01 1.24664034360006e+00 9.96895908768304e-03
4.48514285714286e-01 1.23437153502794e+00 9.93049599020444e-03
4.53885714285714e-01 1.22222346990109e+00 9.89147176278915e-03
4.59257142857143e-01 1.21019495992342e+00 9.85191081859006e-03
4.64628571428571e-01 1.19828482851818e+00 9.81183682479776e-03
4.70000000000000e-01 1.18649191063829e+00 9.77127271042094e-03
4.75371428571429e-01 1.17481505275093e+00 9.73024069623073e-03
4.80742857142857e-01 1.16325311262844e+00 9.68876232059028e-03
4.86114285714286e-01 1.15180495933064e+00 9.64685846204847e-03
4.91485714285714e-01 1.14046947300232e+00 9.60454936730409e-03
4.96857142857143e-01 1.12924554483196e+00 9.56185465453589e-03
5.02228571428571e-01 1.11813207694174e+00 9.51879336085242e-03
5.07600000000000e-01 1.10712798221580e+00 9.47538394475149e-03
5.12971428571429e-01 1.09623218427898e+00 9.43164430875138e-03
5.18342857142857e-01 1.08544361730835e+00 9.38759181855885e-03
5.23714285714286e-01 1.07476122601026e+00 9.34324331960838e-03
5.29085714285714e-01 1.06418396543767e+00 9.29861515861873e-03
5.34457142857143e-01 1.05371080094693e+00 9.25372318323910e-03
5.39828571428571e-01 1.04334070809537e+00 9.20858278154818e-03
5.45200000000000e-01 1.03307267248523e+00 9.16320888127645e-03
5.50571428571429e-01 1.02290568973827e+00 9.11761596735764e-03
5.55942857142857e-01 1.01283876532532e+00 9.07181809649506e-03
5.61314285714286e-01 1.00287091453961e+00 9.02582890954485e-03
5.66685714285714e-01 9.93001162331355e-01 8.97966164853149e-03
5.72057142857143e-01 9.83228543263765e-01 8.93332915406257e-03
5.77428571428571e-01 9.73552101417526e-01 8.88684389878885e-03
5.82800000000000e-01 9.63970890248644e-01 8.84021798466249e-03
5.88171428571429e-01 9.54483972560217e-01 8.79346315684460e-03
5.93542857142857e-01 9.45090420347748e-01 8.74659081500204e-03
5.98914285714286e-01 9.35789314770069e-01 8.69961202275123e-03
6.04285714285714e-01 9.26579745999044e-01 8.65253752135832e-03
6.09657142857143e-01 9.17460813175514e-01 8.60537772583044e-03
6.15028571428571e-01 9.08431624320241e-01 8.55814275364596e-03
6.20400000000000e-01 8.99491296204078e-01 8.51084242084875e-03
6.25771428571429e-01 8.90638954317924e-01 8.46348625326905e-03
6.31142857142857e-01 8.81873732731974e-01 8.41608349543551e-03
6.36514285714286e-01 8.73194774065107e-01 8.36864311789316e-03
6.41885714285714e-01 8.64601229348016e-01 8.32117382841512e-03
6.47257142857143e-01 8.56092257979606e-01 8.27368406734517e-03
6.52628571428571e-01 8.47667027643961e-01 8.22618203253577e-03
6.58000000000000e-01 8.39324714191513e-01 8.17867567478739e-03
6.63371428571429e-01 8.31064501607959e-01 8.13117270704029e-03
6.68742857142857e-01 8.22885581885882e-01 8.08368061150752e-03
6.74114285714286e-01 8.14787154993320e-01 8.03620664542141e-03
6.79485714285714e-01 8.06768428748831e-01 7.98875785033870e-03
6.84857142857143e-01 7.98828618778752e-01 7.94134104710262e-03
6.90228571428571e-01 7.90966948439768e-01 7.89396285767537e-03
6.95600000000000e-01 7.83182648709954e-01 7.84662970025373e-03
7.00971428571429e-01 7.75474958157236e-01 7.79934779689552e-03
7.06342857142857e-01 7.67843122822063e-01 7.75212317930000e-03
7.11714285714286e-01 7.60286396185684e-01 7.70496169337233e-03
7.17085714285714e-01 7.52804039055898e-01 7.65786900703521e-03
7.22457142857143e-01 7.45395319525446e-01 7.61085060505110e-03
7.27828571428571e-01 7.38059512899805e-01 7.56391180827024e-03
7.33200000000000e-01 7.30795901597122e-01 7.51705776863401e-03
7.38571428571429e-01 7.23603775116673e-01 7.47029347557451e-03
7.43942857142857e-01 7.16482429931436e-01 7.42362376074939e-03
7.49314285714286e-01 7.09431169456491e-01 7.37705330169917e-03
7.54685714285714e-01 7.02449303944355e-01 7.33058662847198e-03
7.60057142857143e-01 6.95536150444721e-01 7.28422811846092e-03
7.65428571428571e-01 6.88691032737113e-01 7.23798201346945e-03
7.70800000000000e-01 6.81913281238864e-01 7.19185241474472e-03
7.76171428571429e-01 6.75202232973902e-01 7.14584328839542e-03
7.81542857142857e-01 6.68557231474247e-01 7.09995846930437e-03
7.86914285714286e-01 6.61977626748831e-01 7.05420166408657e-03
7.92285714285714e-01 6.55462775187483e-01 7.00857645675293e-03
7.97657142857143e-01 6.49012039522139e-01 6.96308630366025e-03
8.03028571428571e-01 6.42624788764030e-01 6.91773454871517e-03
8.08400000000000e-01 6.36300398118962e-01 6.87252441852486e-03
8.13771428571429e-01 6.30038248956680e-01 6.82745902702142e-03
8.19142857142857e-01 6.23837728720418e-01 6.78254137872183e-03
8.24514285714286e-01 6.17698230896384e-01 6.73777437113350e-03
8.29885714285714e-01 6.11619154925552e-01 6.69316079963328e-03
8.35257142857143e-01 6.05599906166435e-01 6.64870335259342e-03
8.40628571428571e-01 5.99639895836504e-01 6.60440462497939e-03
8.46000000000000e-01 5.93738540934097e-01 6.56026711367466e-03
8.51371428571429e-01 5.87895264208558e-01 6.51629322145452e-03
8.56742857142857e-01 5.82109494077082e-01 6.47248525972021e-03
8.62114285714286e-01 5.76380664595026e-01 6.42884545046794e-03
8.67485714285714e-01 5.70708215374785e-01 6.38537593051675e-03
8.72857142857143e-01 5.65091591550180e-01 6.34207874684695e-03
8.78228571428571e-01 5.59530243721810e-01 6.29895586880306e-03
8.83600000000000e-01 5.54023627885015e-01 6.25600918362607e-03
8.88971428571429e-01 5.48571205400919e-01 6.21324049988937e-03
8.94342857142857e-01 5.43172442919905e-01 6.17065154980443e-03
8.99714285714286e-01 5.37826812352867e-01 6.12824399083958e-03
9.05085714285714e-01 5.32533790796532e-01 6.08601940940307e-03
9.10457142857143e-01 5.27292860499476e-01 6.04397931641634e-03
9.15828571428571e-01 5.22103508811145e-01 6.00212515829512e-03
9.21200000000000e-01 5.16965228115350e-01 5.96045831270757e-03
9.26571428571428e-01 5.11877515802308e-01 5.91898009156056e-03
9.31942857142857e-01 5.06839874198149e-01 5.87769174295341e-03
9.37314285714286e-01 5.01851810537202e-01 5.83659445251386e-03
9.42685714285714e-01 4.96912836893180e-01 5.79568934662199e-03
9.48057142857143e-01 4.92022470146823e-01 5.75497748822622e-03
9.53428571428571e-01 4.87180231938345e-01 5.71445988675006e-03
9.58800000000000e-01 4.82385648605985e-01 5.67413749408372e-03
9.64171428571429e-01 4.77638251159116e-01 5.63401120719052e-03
9.69542857142857e-01 4.72937575213246e-01 5.59408186977082e-03
9.74914285714286e-01 4.68283160963403e-01 5.55435027336670e-03
9.80285714285714e-01 4.63674553120658e-01 5.51481716019564e-03
9.85657142857143e-01 4.59111300881385e-01 5.47548321921102e-03
9.91028571428571e-01 4.54592957882903e-01 5.43634909505795e-03
9.96400000000000e-01 4.50119082146652e-01 5.39741538429995e-03
1.00177142857143e+00 4.45689236052416e-01 5.35868263416517e-03
1.00714285714286e+00 4.41302986290717e-01 5.32015135699094e-03
1.01251428571429e+00 4.36959903791772e-01 5.28182201808683e-03
1.01788571428571e+00 4.32659563725226e-01 5.24369503331400e-03
1.02325714285714e+00 4.28401545441638e-01 5.20577078233026e-03
1.02862857142857e+00 4.24185432431434e-01 5.16804960473641e-03
1.03400000000000e+00 4.20010812284108e-01 5.13053179016556e-03
1.03937142857143e+00 4.15877276685704e-01 5.09321761248466e-03
1.04474285714286e+00 4.11784421264533e-01 5.05610730858557e-03
1.05011428571429e+00 4.07731845666871e-01 5.01920105667892e-03
1.05548571428571e+00 4.03719153479069e-01 4.98249901140966e-03
1.06085714285714e+00 3.99745952188739e-01 4.94600129329903e-03
1.06622857142857e+00 3.95811853146441e-01 4.90970798965423e-03
1.07160000000000e+00 3.91916471527621e-01 4.87361914541152e-03
1.07697142857143e+00 3.88059426329020e-01 4.83773479441488e-03
1.08234285714286e+00 3.84240340228459e-01 4.80205493990832e-03
1.08771428571429e+00 3.80458839651690e-01 4.76657953457308e-03
1.09308571428571e+00 3.76714554700993e-01 4.73130851264903e-03
1.09845714285714e+00 3.73007119118957e-01 4.69624178019431e-03
1.10382857142857e+00 3.69336170252725e-01 4.66137921585810e-03
1.10920000000000e+00 3.65701349018485e-01 4.62672066242096e-03
1.11457142857143e+00 3.62102299897037e-01 4.59226595542342e-03
1.11994285714286e+00 3.58538670806214e-01 4.55801490521831e-03
1.12531428571429e+00 3.55010113159982e-01 4.52396727860446e-03
1.13068571428571e+00 3.51516281802910e-01 4.49012282823222e-03
1.13605714285714e+00 3.48056834976382e-01 4.45648128361806e-03
1.14142857142857e+00 3.44631434285226e-01 4.42304235180133e-03
1.14680000000000e+00 3.41239744664583e-01 4.38980570952920e-03
1.15217142857143e+00 3.37881434374833e-01 4.35677102947895e-03
1.15754285714286e+00 3.34556174885390e-01 4.32393796374039e-03
1.16291428571429e+00 3.31263640926982e-01 4.29130612691338e-03
1.16828571428571e+00 3.28003510431468e-01 4.25887512304616e-03
1.17365714285714e+00 3.24775464500314e-01 4.22664453734570e-03
1.17902857142857e+00 3.21579187373446e-01 4.19461393673578e-03
1.18440000000000e+00 3.18414366398344e-01 4.16278286263789e-03
1.18977142857143e+00 3.15280692024482e-01 4.13115085500601e-03
1.19514285714286e+00 3.12177857697378e-01 4.09971743711993e-03
1.20051428571429e+00 3.09105559904873e-01 4.06848210002528e-03
1.20588571428571e+00 3.06063498121821e-01 4.03744432722743e-03
1.21125714285714e+00 3.03051374780666e-01 4.00660358704286e-03
1.21662857142857e+00 3.00068895242386e-01 3.97595933307409e-03
1.22200000000000e+00 2.97115767767645e-01 3.94551099753997e-03
1.22737142857143e+00 2.94191703510895e-01 3.91525801332027e-03
1.23274285714286e+00 2.91296416423683e-01 3.88519979995072e-03
1.23811428571429e+00 2.88429623295642e-01 3.85533574929358e-03
1.24348571428571e+00 2.85591043703616e-01 3.82566524818973e-03
1.24885714285714e+00 2.82780399984211e-01 3.79618767139920e-03
1.25422857142857e+00 2.79997417206677e-01 3.76690238200524e-03
1.25960000000000e+00 2.77241823145991e-01 3.73780872525297e-03
1.26497142857143e+00 2.74513348276724e-01 3.70890604877850e-03
1.27034285714286e+00 2.71811725684723e-01 3.68019368970753e-03
1.27571428571429e+00 2.69136691103433e-01 3.65167096145595e-03
1.28108571428571e+00 2.66487982867079e-01 3.62333717451930e-03
1.28645714285714e+00 2.63865341885048e-01 3.59519162995661e-03
1.29182857142857e+00 2.61268511616583e-01 3.56723361973448e-03
1.29720000000000e+00 2.58697238045672e-01 3.53946242103338e-03
1.30257142857143e+00 2.56151269674767e-01 3.51187731482179e-03
1.30794285714286e+00 2.53630357444052e-01 3.48447757396805e-03
1.31331428571429e+00 2.51134254763643e-01 3.45726245107734e-03
1.31868571428571e+00 2.48662717470470e-01 3.43023119758206e-03
1.32405714285714e+00 2.46215503804378e-01 3.40338305772631e-03
1.32942857142857e+00 2.43792374384506e-01 3.37671726885807e-03
1.33480000000000e+00 2.41393092185858e-01 3.35023305616772e-03
1.34017142857143e+00 2.39017422532960e-01 3.32392964975083e-03
1.34554285714286e+00 2.36665133025992e-01 3.29780627365010e-03
1.35091428571429e+00 2.34335993569361e-01 3.27186213464459e-03
1.35628571428571e+00 2.32029776331954e-01 3.24609643978818e-03
1.36165714285714e+00 2.29746255724844e-01 3.22050839085505e-03
1.36702857142857e+00 2.27485208379250e-01 3.19509718458771e-03
1.37240000000000e+00 2.25246413124673e-01 3.16986200783400e-03
1.37777142857143e+00 2.23029650982546e-01 3.14480205322890e-03
1.38314285714286e+00 2.20834705098611e-01 3.11991650909112e-03
1.38851428571429e+00 2.18661360768265e-01 3.09520454908645e-03
1.39388571428571e+00 2.16509405399917e-01 3.07066534834843e-03
1.39925714285714e+00 2.14378628494184e-01 3.04629807834858e-03
1.40462857142857e+00 2.12268821623323e-01 3.02210190710587e-03
1.41000000000000e+00 2.10179778410831e-01 2.99807599469190e-03
1.41537142857143e+00 2.08111294525139e-01 2.97421950764963e-03
1.42074285714286e+00 2.06063167617664e-01 2.95053160967535e-03
1.42611428571429e+00 2.04035197345298e-01 2.92701145208558e-03
1.43148571428571e+00 2.02027185336608e-01 2.90365818864060e-03
1.43685714285714e+00 2.00038935172421e-01 2.88047097080601e-03
1.44222857142857e+00 1.98070252366632e-01 2.85744894792950e-03
1.44760000000000e+00 1.96120944347171e-01 2.83459126308527e-03
1.45297142857143e+00 1.94190820449781e-01 2.81189706633727e-03
1.45834285714286e+00 1.92279691861230e-01 2.78936550614254e-03
1.46371428571429e+00 1.90387371639272e-01 2.76699572055717e-03
1.46908571428571e+00 1.88513674681450e-01 2.74478685087287e-03
1.47445714285714e+00 1.86658417706982e-01 2.72273803723862e-03
1.47982857142857e+00 1.84821419238854e-01 2.70084841880948e-03
1.48520000000000e+00 1.83002499586054e-01 2.67911712990433e-03
1.49057142857143e+00 1.81201480837476e-01 2.65754331221013e-03
1.49594285714286e+00 1.79418186809827e-01 2.63612610684998e-03
1.50131428571429e+00 1.77652443065344e-01 2.61486464626804e-03
1.50668571428571e+00 1.75904076882990e-01 2.59375806677835e-03
1.51205714285714e+00 1.74172917241556e-01 2.57280550451948e-03
1.51742857142857e+00 1.72458794802943e-01 2.55200609557876e-03
1.52280000000000e+00 1.70761541895592e-01 2.53135897243903e-03
1.52817142857143e+00 1.69080992508528e-01 2.51086327521319e-03
1.53354285714286e+00 1.67416982243550e-01 2.49051814432254e-03
1.53891428571429e+00 1.65769348330960e-01 2.47032271300725e-03
1.54428571428571e+00 1.64137929602955e-01 2.45027611887863e-03
1.54965714285714e+00 1.62522566477859e-01 2.43037750017973e-03
1.55502857142857e+00 1.60923100944522e-01 2.41062599588922e-03
1.56040000000000e+00 1.59339376546863e-01 2.39102074243450e-03
1.56577142857143e+00 1.57771238378072e-01 2.37156088403702e-03
1.57114285714286e+00 1.56218533036712e-01 2.35224556595303e-03
1.57651428571429e+00 1.54681108640677e-01 2.33307392755885e-03
1.58188571428571e+00 1.53158814802608e-01 2.31404511298952e-03
1.58725714285714e+00 1.51651502615176e-01 2.29515826768196e-03
1.59262857142857e+00 1.50159024636528e-01 2.27641253846100e-03
1.59800000000000e+00 1.48681234875859e-01 2.25780707049851e-03
1.60337142857143e+00 1.47217988787800e-01 2.23934101684275e-03
1.60874285714286e+00 1.45769143232081e-01 2.22101353217703e-03
1.61411428571429e+00 1.44334556485924e-01 2.20282376643432e-03
1.61948571428571e+00 1.42914088221313e-01 2.18477087459754e-03
1.62485714285714e+00 1.41507599491264e-01 2.16685401350333e-03
1.63022857142857e+00 1.40114952716246e-01 2.14907234191214e-03
1.63560000000000e+00 1.38736011670713e-01 2.13142501769538e-03
1.64097142857143e+00 1.37370641477687e-01 2.11391120661606e-03
1.64634285714286e+00 1.36018708571677e-01 2.09653007656334e-03
1.65171428571429e+00 1.34680080709679e-01 2.07928079165503e-03
1.65708571428571e+00 1.33354626950156e-01 2.06216252126855e-03
1.66245714285714e+00 1.32042217640226e-01 2.04517443708496e-03
1.66782857142857e+00 1.30742724402993e-01 2.02831571314588e-03
1.67320000000000e+00 1.29456020124978e-01 2.01158552325019e-03
1.67857142857143e+00 1.28181978950897e-01 1.99498304904732e-03
1.68394285714286e+00 1.26920476249567e-01 1.97850747471093e-03
1.68931428571429e+00 1.25671388623659e-01 1.96215798149038e-03
1.69468571428571e+00 1.24434593890259e-01 1.94593375603517e-03
