Energy (eV)          EEDF (eV^-(3/2))     First Anisotropy
2.04545454545455e-02 6.74407546076090e-02 3.40703167514283e-05
6.13636363636364e-02 6.70194358665016e-02 5.62732220735241e-05
1.02272727272727e-01 6.66007492058785e-02 7.43226575336520e-05
1.43181818181818e-01 6.61846781810461e-02 8.80566663014218e-05
1.84090909090909e-01 6.57712064528835e-02 9.95289879494702e-05
2.25000000000000e-01 6.53603177828961e-02 1.09515399656237e-04
2.65909090909091e-01 6.49519960357689e-02 1.18417016181251e-04
3.06818181818182e-01 6.45462251733665e-02 1.26475852244180e-04
3.47727272727273e-01 6.41429892597410e-02 1.33852280541598e-04
3.88636363636364e-01 6.37422724584858e-02 1.40659554040798e-04
4.29545454545455e-01 6.33440590321188e-02 1.46981438237195e-04
4.70454545454545e-01 6.29483333414681e-02 1.52882114993819e-04
5.11363636363636e-01 6.25550798450499e-02 1.58412151680217e-04
5.52272727272727e-01 6.21642830984810e-02 1.63612300680163e-04
5.93181818181818e-01 6.17759277538600e-02 1.68516025747685e-04
6.34090909090909e-01 6.13899985591651e-02 1.73151242960971e-04
6.75000000000000e-01 6.10064803576562e-02 1.77541556754991e-04
7.15909090909091e-01 6.06253580878274e-02 1.81707160292956e-04
7.56818181818182e-01 6.02466167811396e-02 1.85665505336256e-04
7.97727272727273e-01 5.98702415631453e-02 1.89431810346924e-04
8.38636363636364e-01 5.94962176523204e-02 1.93019452685848e-04
8.79545454545455e-01 5.91245303594839e-02 1.96440275390049e-04
9.20454545454545e-01 5.87551650872210e-02 1.99704830543418e-04
9.61363636363636e-01 5.83881073293076e-02 2.02822574598168e-04
1.00227272727273e+00 5.80233426701457e-02 2.05802026671432e-04
1.04318181818182e+00 5.76608567852257e-02 2.08650898718300e-04
1.08409090909091e+00 5.73006354377480e-02 2.11376202572000e-04
1.12500000000000e+00 5.69426644805763e-02 2.13984339446086e-04
1.16590909090909e+00 5.65869298518785e-02 2.16481173871728e-04
1.20681818181818e+00 5.62334175839681e-02 2.18872097910790e-04
1.24772727272727e+00 5.58821137931921e-02 2.21162085984252e-04
1.28863636363636e+00 5.55330046826350e-02 2.23355739540958e-04
1.32954545454545e+00 5.51860765415759e-02 2.25457327198368e-04
1.37045454545455e+00 5.48413157449505e-02 2.27470819032274e-04
1.41136363636364e+00 5.44987087528053e-02 2.29399916361874e-04
1.45227272727273e+00 5.41582421097868e-02 2.31248077745778e-04
1.49318181818182e+00 5.38199024446016e-02 2.33018541767623e-04
1.53409090909091e+00 5.34836764694911e-02 2.34714347079409e-04
1.57500000000000e+00 5.31495509797098e-02 2.36338350469461e-04
1.61590909090909e+00 5.28175128509422e-02 2.37893241448313e-04
1.65681818181818e+00 5.24875490450630e-02 2.39381556947761e-04
1.69772727272727e+00 5.21596466032613e-02 2.40805694511220e-04
1.73863636363636e+00 5.18337926476841e-02 2.42167922302404e-04
1.77954545454545e+00 5.15099743809301e-02 2.43470389480180e-04
1.82045454545455e+00 5.11881790855474e-02 2.44715135192842e-04
1.86136363636364e+00 5.08683941235288e-02 2.45904096689267e-04
1.90227272727273e+00 5.05506069358259e-02 2.47039116656347e-04
1.94318181818182e+00 5.02348050418503e-02 2.48121949872591e-04
1.98409090909091e+00 4.99209760389835e-02 2.49154269250373e-04
2.02500000000000e+00 4.96091076020896e-02 2.50137671639300e-04
2.06590909090909e+00 4.92991874815285e-02 2.51073681937342e-04
2.10681818181818e+00 4.89912035072349e-02 2.51963758293897e-04
2.14772727272727e+00 4.86851435836262e-02 2.52809296926946e-04
2.18863636363636e+00 4.83809956906840e-02 2.53611635052437e-04
2.22954545454545e+00 4.80787478834827e-02 2.54372054743447e-04
2.27045454545455e+00 4.77783882917196e-02 2.55091786196887e-04
2.31136363636364e+00 4.74799051192460e-02 2.55772010744487e-04
2.35227272727273e+00 4.71832866436104e-02 2.56413863635610e-04
2.39318181818182e+00 4.68885212155944e-02 2.57018436613232e-04
2.43409090909091e+00 4.65955972587556e-02 2.57586780298630e-04
2.47500000000000e+00 4.63045032689726e-02 2.58119906658721e-04
2.51590909090909e+00 4.60152278128432e-02 2.58618790294211e-04
2.55681818181818e+00 4.57277595307207e-02 2.59084370869542e-04
2.59772727272727e+00 4.54420871327461e-02 2.59517555412649e-04
2.63863636363636e+00 4.51581993995911e-02 2.59919219193127e-04
2.67954545454545e+00 4.48760851820175e-02 2.60290207537527e-04
2.72045454545455e+00 4.45957334004391e-02 2.60631337280575e-04
2.76136363636364e+00 4.43171330444851e-02 2.60943398122081e-04
2.80227272727273e+00 4.40402731725712e-02 2.61227153899030e-04
2.84318181818182e+00 4.37651429114682e-02 2.61483343779716e-04
2.88409090909091e+00 4.34917314558747e-02 2.61712683383385e-04
2.92500000000000e+00 4.32200280679928e-02 2.61915866051315e-04
2.96590909090909e+00 4.29500220761968e-02 2.62093563177285e-04
3.00681818181818e+00 4.26817028773683e-02 2.62246425583342e-04
3.04772727272727e+00 4.24150599336991e-02 2.62375084843508e-04
3.08863636363636e+00 4.21500827732137e-02 2.62480153439726e-04
3.12954545454545e+00 4.18867609893575e-02 2.62562225770226e-04
3.17045454545455e+00 4.16250842405885e-02 2.62621878889262e-04
3.21136363636364e+00 4.13650422499693e-02 2.62659673205521e-04
3.25227272727273e+00 4.11066248047668e-02 2.62676153143693e-04
3.29318181818182e+00 4.08498217560495e-02 2.62671847771913e-04
3.33409090909091e+00 4.05946230182886e-02 2.62647271395375e-04
3.37500000000000e+00 4.03410185689623e-02 2.62602924309479e-04
3.41590909090909e+00 4.00889984474256e-02 2.62539292761204e-04
3.45681818181818e+00 3.98385527567475e-02 2.62456849842106e-04
3.49772727272727e+00 3.95896716610741e-02 2.62356056357970e-04
3.53863636363636e+00 3.93423453859989e-02 2.62237360703442e-04
3.57954545454545e+00 3.90965642181782e-02 2.62101199495277e-04
3.62045454545455e+00 3.88523185049503e-02 2.61947997988910e-04
3.66136363636364e+00 3.86095986539549e-02 2.61778170474489e-04
3.70227272727273e+00 3.83683951327589e-02 2.61592120655072e-04
3.74318181818182e+00 3.81286984684803e-02 2.61390242008090e-04
3.78409090909091e+00 3.78904992474169e-02 2.61172918129534e-04
3.82500000000000e+00 3.76537881146762e-02 2.60940523229529e-04
3.86590909090909e+00 3.74185557732009e-02 2.60693421944001e-04
3.90681818181818e+00 3.71847929852398e-02 2.60431969972798e-04
3.94772727272727e+00 3.69524905701339e-02 2.60156514706725e-04
3.98863636363636e+00 3.67216394045783e-02 2.59867394990502e-04
4.02954545454545e+00 3.64922304222633e-02 2.59564941558442e-04
4.07045454545455e+00 3.62642546135191e-02 2.59249477287355e-04
4.11136363636364e+00 3.60377030249603e-02 2.58921317438345e-04
4.15227272727273e+00 3.58125667591369e-02 2.58580769889205e-04
4.19318181818182e+00 3.55888369741829e-02 2.58228135357783e-04
4.23409090909091e+00 3.53665048834701e-02 2.57863707615778e-04
4.27500000000000e+00 3.51455617552623e-02 2.57487773841387e-04
4.31590909090909e+00 3.49259989118653e-02 2.57100614372793e-04
4.35681818181818e+00 3.47078077308200e-02 2.56702503195882e-04
4.39772727272727e+00 3.44909796430176e-02 2.56293708426483e-04
4.43863636363636e+00 3.42755061328828e-02 2.55874492033615e-04
4.47954545454545e+00 3.40613787380391e-02 2.55445110160297e-04
4.52045454545455e+00 3.38485890489767e-02 2.55005813286401e-04
4.56136363636364e+00 3.36371287087214e-02 2.54556846385100e-04
4.60227272727273e+00 3.34269894125076e-02 2.54098449073927e-04
4.64318181818182e+00 3.32181629074520e-02 2.53630855760686e-04
4.68409090909091e+00 3.30106409922287e-02 2.53154295783649e-04
4.72500000000000e+00 3.28044155167476e-02 2.52668993677601e-04
4.76590909090909e+00 3.25994783814059e-02 2.52175168910322e-04
4.80681818181818e+00 3.23958215380645e-02 2.51673036272976e-04
4.84772727272727e+00 3.21934369884279e-02 2.51162806268115e-04
4.88863636363636e+00 3.19923167841679e-02 2.50644684825773e-04
4.92954545454545e+00 3.17924530266111e-02 2.50118873551749e-04
4.97045454545455e+00 3.15938378664295e-02 2.49585569837623e-04
5.01136363636364e+00 3.13964635033310e-02 2.49044966966715e-04
5.05227272727273e+00 3.12003221857545e-02 2.48497254216833e-04
5.09318181818182e+00 3.10054062105648e-02 2.47942616959936e-04
5.13409090909091e+00 3.08117079227500e-02 2.47381236758166e-04
5.17500000000000e+00 3.06192197151210e-02 2.46813291573510e-04
5.21590909090909e+00 3.04279340276474e-02 2.46238955506325e-04
5.25681818181818e+00 3.02378433482641e-02 2.45658399118352e-04
5.29772727272727e+00 3.00489402114651e-02 2.45071789754799e-04
5.33863636363636e+00 2.98612171983830e-02 2.44479291268174e-04
5.37954545454545e+00 2.96746669364980e-02 2.43881064217840e-04
5.42045454545455e+00 2.94892820993483e-02 2.43277265947217e-04
5.46136363636364e+00 2.93050554062418e-02 2.42668050658289e-04
5.50227272727273e+00 2.91219796219711e-02 2.42053569484120e-04
5.54318181818182e+00 2.89400475565289e-02 2.41433970559443e-04
5.58409090909091e+00 2.87592520648258e-02 2.40809399088851e-04
5.62500000000000e+00 2.85795860464093e-02 2.40179997517460e-04
5.66590909090909e+00 2.84010424448715e-02 2.39545905280451e-04
5.70681818181818e+00 2.82236142485196e-02 2.38907259076595e-04
5.74772727272727e+00 2.80472944891462e-02 2.38264193141616e-04
5.78863636363636e+00 2.78720762420763e-02 2.37616838986641e-04
5.82954545454545e+00 2.76979526258946e-02 2.36965325563095e-04
5.87045454545455e+00 2.75249168021760e-02 2.36309779318553e-04
5.91136363636364e+00 2.73529619752162e-02 2.35650324250828e-04
5.95227272727273e+00 2.71820813917659e-02 2.34987081960725e-04
5.99318181818182e+00 2.70122683407648e-02 2.34320171703572e-04
6.03409090909091e+00 2.68435161530781e-02 2.33649710439042e-04
6.07500000000000e+00 2.66758182012352e-02 2.32975812973506e-04
6.11590909090909e+00 2.65091678988970e-02 2.32298591724607e-04
6.15681818181818e+00 2.63435587014178e-02 2.31618156956718e-04
6.19772727272727e+00 2.61789841047624e-02 2.30934617016831e-04
6.23863636363636e+00 2.60154376455281e-02 2.30248078090284e-04
6.27954545454545e+00 2.58529129006905e-02 2.29558644339869e-04
6.32045454545455e+00 2.56914034873517e-02 2.28866417947371e-04
6.36136363636364e+00 2.55309030624887e-02 2.28171499153793e-04
6.40227272727273e+00 2.53714053227055e-02 2.27473986298761e-04
6.44318181818182e+00 2.52129040039847e-02 2.26773975859049e-04
6.48409090909091e+00 2.50553928814419e-02 2.26071562485959e-04
6.52500000000000e+00 2.48988657690811e-02 2.25366839126228e-04
6.56590909090909e+00 2.47433165193157e-02 2.24659896803001e-04
6.60681818181818e+00 2.45887390234395e-02 2.23950824821117e-04
6.64772727272727e+00 2.44351272106700e-02 2.23239710973028e-04
6.68863636363636e+00 2.42824750481501e-02 2.22526641312590e-04
6.72954545454545e+00 2.41307765407116e-02 2.21811700274233e-04
6.77045454545455e+00 2.39800257306396e-02 2.21094970704527e-04
6.81136363636364e+00 2.38302166974382e-02 2.20376533892815e-04
6.85227272727273e+00 2.36813435575985e-02 2.19656469601244e-04
6.89318181818182e+00 2.35334004643674e-02 2.18934856094201e-04
6.93409090909091e+00 2.33863816075178e-02 2.18211770166905e-04
6.97500000000000e+00 2.32402812131206e-02 2.17487287249599e-04
7.01590909090909e+00 2.30950935431117e-02 2.16761481204974e-04
7.05681818181818e+00 2.29508128956889e-02 2.16034424508866e-04
7.09772727272727e+00 2.28074336044618e-02 2.15306188431682e-04
7.13863636363636e+00 2.26649500384393e-02 2.14576842829850e-04
7.17954545454545e+00 2.25233566018084e-02 2.13846456249180e-04
7.22045454545455e+00 2.23826477337148e-02 2.13115095949319e-04
7.26136363636364e+00 2.22428179080436e-02 2.12382827927473e-04
7.30227272727273e+00 2.21038616332036e-02 2.11649716941713e-04
7.34318181818182e+00 2.19657734519104e-02 2.10915826533907e-04
7.38409090909091e+00 2.18285479409729e-02 2.10181219051938e-04
7.42500000000000e+00 2.16921797110798e-02 2.09445955740506e-04
7.46590909090909e+00 2.15566634064078e-02 2.08710096554462e-04
7.50681818181818e+00 2.14219937049559e-02 2.07973700318965e-04
7.54772727272727e+00 2.12881653177882e-02 2.07236824890483e-04
7.58863636363636e+00 2.11551729890101e-02 2.06499526965033e-04
7.62954545454545e+00 2.10230114955618e-02 2.05761862168729e-04
7.67045454545454e+00 2.08916756470132e-02 2.05023885076980e-04
7.71136363636364e+00 2.07611602853601e-02 2.04285649233189e-04
7.75227272727273e+00 2.06314602848215e-02 2.03547207167125e-04
7.79318181818182e+00 2.05025705516387e-02 2.02808610412990e-04
7.83409090909091e+00 2.03744860238746e-02 2.02069909527013e-04
7.87500000000000e+00 2.02472016712156e-02 2.01331154167209e-04
7.91590909090909e+00 2.01207124946145e-02 2.00592392921803e-04
7.95681818181818e+00 1.99950135265744e-02 1.99853673451971e-04
7.99772727272727e+00 1.98700998304704e-02 1.99115042635473e-04
8.03863636363636e+00 1.97459665005181e-02 1.98376546390669e-04
8.07954545454546e+00 1.96226086615807e-02 1.97638229756361e-04
8.12045454545455e+00 1.95000214689775e-02 1.96900136907159e-04
8.16136363636364e+00 1.93782001082937e-02 1.96162311168363e-04
8.20227272727273e+00 1.92571397951914e-02 1.95424795030603e-04
8.24318181818182e+00 1.91368357752214e-02 1.94687630164321e-04
8.28409090909091e+00 1.90172833236371e-02 1.93950857433866e-04
8.32500000000000e+00 1.88984777452083e-02 1.93214516968059e-04
8.36590909090909e+00 1.87804143738966e-02 1.92478648002583e-04
8.40681818181818e+00 1.86630885730961e-02 1.91743289007849e-04
8.44772727272727e+00 1.85464957350248e-02 1.91008477817756e-04
8.48863636363636e+00 1.84306312806864e-02 1.90274251468236e-04
8.52954545454545e+00 1.83154906596910e-02 1.89540646268130e-04
8.57045454545455e+00 1.82010693500760e-02 1.88807697811600e-04
8.61136363636364e+00 1.80873628581285e-02 1.88075440990126e-04
8.65227272727273e+00 1.79743667182090e-02 1.87343910004312e-04
8.69318181818182e+00 1.78620764925758e-02 1.86613138375633e-04
8.73409090909091e+00 1.77504877712112e-02 1.85883158957795e-04
8.77500000000000e+00 1.76395961716477e-02 1.85154003999514e-04
8.81590909090909e+00 1.75293973386718e-02 1.84425704999919e-04
8.85681818181818e+00 1.74198869445283e-02 1.83698292823506e-04
8.89772727272727e+00 1.73110606883726e-02 1.82971797815876e-04
8.93863636363636e+00 1.72029142962287e-02 1.82246249655719e-04
8.97954545454545e+00 1.70954435208211e-02 1.81521677418134e-04
9.02045454545454e+00 1.69886441414079e-02 1.80798109584649e-04
9.06136363636364e+00 1.68825119636155e-02 1.80075574052989e-04
9.10227272727273e+00 1.67770428192733e-02 1.79354098146772e-04
9.14318181818182e+00 1.66722325662504e-02 1.78633708625029e-04
9.18409090909091e+00 1.65680770882929e-02 1.77914431691490e-04
9.22500000000000e+00 1.64645722948619e-02 1.77196293050713e-04
9.26590909090909e+00 1.63617141208629e-02 1.76479317775421e-04
9.30681818181818e+00 1.62594985268190e-02 1.75763530410147e-04
9.34772727272727e+00 1.61579214983773e-02 1.75048955075625e-04
9.38863636363636e+00 1.60569790462634e-02 1.74335615333139e-04
9.42954545454545e+00 1.59566672061250e-02 1.73623534241211e-04
9.47045454545455e+00 1.58569820383761e-02 1.72912734363824e-04
9.51136363636364e+00 1.57579196280420e-02 1.72203237778458e-04
9.55227272727273e+00 1.56594760846061e-02 1.71495066084029e-04
9.59318181818182e+00 1.55616475418566e-02 1.70788240408757e-04
9.63409090909091e+00 1.54644301577349e-02 1.70082781417796e-04
9.67500000000000e+00 1.53678201141849e-02 1.69378709363575e-04
9.71590909090909e+00 1.52718136169042e-02 1.68676043964113e-04
9.75681818181818e+00 1.51764068954923e-02 1.67974804496709e-04
9.79772727272727e+00 1.50815962030036e-02 1.67275009892333e-04
9.83863636363636e+00 1.49873778159010e-02 1.66576678611272e-04
9.87954545454545e+00 1.48937480339087e-02 1.65879828694067e-04
9.92045454545454e+00 1.48007031798680e-02 1.65184477768321e-04
9.96136363636364e+00 1.47082395995918e-02 1.64490643055345e-04
1.00022727272727e+01 1.46163536617219e-02 1.63798341497242e-04
1.00431818181818e+01 1.45250417573140e-02 1.63107589439983e-04
1.00840909090909e+01 1.44343003004267e-02 1.62418402802122e-04
1.01250000000000e+01 1.43441257273378e-02 1.61730796936160e-04
1.01659090909091e+01 1.42545144974658e-02 1.61044787524895e-04
1.02068181818182e+01 1.41654630905848e-02 1.60360389882104e-04
1.02477272727273e+01 1.40769680093465e-02 1.59677618161719e-04
1.02886363636364e+01 1.39890257782514e-02 1.58996486562466e-04
1.03295454545455e+01 1.39016329435123e-02 1.58317008932157e-04
1.03704545454545e+01 1.38147860729185e-02 1.57639198773525e-04
1.04113636363636e+01 1.37284817557009e-02 1.56963069249373e-04
1.04522727272727e+01 1.36427166023983e-02 1.56288633188068e-04
1.04931818181818e+01 1.35574872447248e-02 1.55615903089314e-04
1.05340909090909e+01 1.34727903354366e-02 1.54944891129235e-04
1.05750000000000e+01 1.33886225482011e-02 1.54275608808546e-04
1.06159090909091e+01 1.33049805782499e-02 1.53608068033789e-04
1.06568181818182e+01 1.32218611398849e-02 1.52942280402809e-04
1.06977272727273e+01 1.31392609687262e-02 1.52278256482028e-04
1.07386363636364e+01 1.30571768207869e-02 1.51616006906164e-04
1.07795454545455e+01 1.29756054723465e-02 1.50955542016373e-04
1.08204545454545e+01 1.28945437198235e-02 1.50296871865145e-04
1.08613636363636e+01 1.28139883796497e-02 1.49640006220612e-04
1.09022727272727e+01 1.27339362881457e-02 1.48984954571115e-04
1.09431818181818e+01 1.26543843013964e-02 1.48331726130093e-04
1.09840909090909e+01 1.25753292951276e-02 1.47680329840310e-04
1.10250000000000e+01 1.24967681645829e-02 1.47030774051796e-04
1.10659090909091e+01 1.24186978251043e-02 1.46383067509909e-04
1.11068181818182e+01 1.23411152098936e-02 1.45737218701798e-04
1.11477272727273e+01 1.22640172720204e-02 1.45093235195316e-04
1.11886363636364e+01 1.21874009835891e-02 1.44451124643935e-04
1.12295454545455e+01 1.21112633356202e-02 1.43810894455630e-04
1.12704545454545e+01 1.20356013379319e-02 1.43172551797007e-04
1.13113636363636e+01 1.19604120190225e-02 1.42536103596877e-04
1.13522727272727e+01 1.18856924259543e-02 1.41901556550101e-04
1.13931818181818e+01 1.18114396242371e-02 1.41268917121708e-04
1.14340909090909e+01 1.17376506977136e-02 1.40638191550467e-04
1.14750000000000e+01 1.16643227484440e-02 1.40009385553901e-04
1.15159090909091e+01 1.15914528972224e-02 1.39382505231936e-04
1.15568181818182e+01 1.15190382815649e-02 1.38757556468694e-04
1.15977272727273e+01 1.14470760575057e-02 1.38134544327358e-04
1.16386363636364e+01 1.13755633988459e-02 1.37513473969260e-04
1.16795454545455e+01 1.13044974970427e-02 1.36894350350650e-04
1.17204545454545e+01 1.12338755610988e-02 1.36277178226179e-04
1.17613636363636e+01 1.11636948174525e-02 1.35661962151901e-04
1.18022727272727e+01 1.10939525098698e-02 1.35048706488534e-04
1.18431818181818e+01 1.10246458993352e-02 1.34437415404939e-04
1.18840909090909e+01 1.09557722639448e-02 1.33828092881107e-04
1.19250000000000e+01 1.08873288987988e-02 1.33220742437816e-04
1.19659090909091e+01 1.08193131164613e-02 1.32615367963762e-04
1.20068181818182e+01 1.07517222451490e-02 1.32011973167598e-04
1.20477272727273e+01 1.06845536303408e-02 1.31410561023613e-04
1.20886363636364e+01 1.06178046340990e-02 1.30811134613006e-04
1.21295454545455e+01 1.05514726349656e-02 1.30213696845995e-04
1.21704545454545e+01 1.04855550278596e-02 1.29618250464777e-04
1.22113636363636e+01 1.04200492239742e-02 1.29024798046063e-04
1.22522727272727e+01 1.03549526506759e-02 1.28433342003838e-04
1.22931818181818e+01 1.02902627514028e-02 1.27843884592291e-04
1.23340909090909e+01 1.02259769855647e-02 1.27256427908354e-04
1.23750000000000e+01 1.01620928284429e-02 1.26670973643782e-04
1.24159090909091e+01 1.00986077716000e-02 1.26087523842814e-04
1.24568181818182e+01 1.00355193212474e-02 1.25506080399891e-04
1.24977272727273e+01 9.97282499968901e-03 1.24926644551526e-04
1.25386363636364e+01 9.91052234470770e-03 1.24349217646931e-04
1.25795454545455e+01 9.84860890946826e-03 1.23773800893214e-04
1.26204545454545e+01 9.78708226242148e-03 1.23200395357896e-04
1.26613636363636e+01 9.72593998720838e-03 1.22629001971035e-04
1.27022727272727e+01 9.66517968256578e-03 1.22059621527572e-04
1.27431818181818e+01 9.60479896223176e-03 1.21492254689826e-04
1.27840909090909e+01 9.54479545485194e-03 1.20926901989646e-04
1.28250000000000e+01 9.48516680388636e-03 1.20363563600914e-04
1.28659090909091e+01 9.42591066797504e-03 1.19802240034033e-04
1.29068181818182e+01 9.36702471946466e-03 1.19242931675261e-04
