Energy (eV)          EEDF (eV^-(3/2))     First Anisotropy
1.68627450980392e-02 1.01566500892713e-01 5.33584727277049e-05
5.05882352941176e-02 1.00879285453288e-01 8.81081234946189e-05
8.43137254901961e-02 1.00196719825245e-01 1.16307724677006e-04
1.18039215686274e-01 9.95187725435591e-02 1.37728154753372e-04
1.51764705882353e-01 9.88454123656569e-02 1.55590557418224e-04
1.85490196078431e-01 9.81766082533062e-02 1.71112604290827e-04
2.19215686274510e-01 9.75123293787975e-02 1.84924342265441e-04
2.52941176470588e-01 9.68525451234550e-02 1.97406179560551e-04
2.86666666666667e-01 9.61972250734520e-02 2.08810370580564e-04
3.20392156862745e-01 9.55463390259318e-02 2.19315176146635e-04
3.54117647058823e-01 9.48998569795775e-02 2.29052534285661e-04
3.87843137254902e-01 9.42577491360689e-02 2.38123605941248e-04
4.21568627450980e-01 9.36199858987734e-02 2.46608147781854e-04
4.55294117647059e-01 9.29865378699077e-02 2.54570479184418e-04
4.89019607843137e-01 9.23573758536054e-02 2.62063451413986e-04
5.22745098039216e-01 9.17324708499598e-02 2.69131183664446e-04
5.56470588235294e-01 9.11117940552770e-02 2.75811005542833e-04
5.90196078431372e-01 9.04953168607741e-02 2.82134872640160e-04
6.23921568627451e-01 8.98830108502518e-02 2.88130419874866e-04
6.57647058823529e-01 8.92748478018555e-02 2.93821761231283e-04
6.91372549019608e-01 8.86707996836051e-02 2.99230106812832e-04
7.25098039215686e-01 8.80708386531862e-02 3.04374245434169e-04
7.58823529411765e-01 8.74749370566772e-02 3.09270927999557e-04
7.92549019607843e-01 8.68830674265178e-02 3.13935174800865e-04
8.26274509803921e-01 8.62952024825586e-02 3.18380525309576e-04
8.60000000000000e-01 8.57113151284270e-02 3.22619242867110e-04
8.93725490196078e-01 8.51313784510868e-02 3.26662483404169e-04
9.27450980392157e-01 8.45553657196024e-02 3.30520436397705e-04
9.61176470588235e-01 8.39832503839093e-02 3.34202443206389e-04
9.94901960784314e-01 8.34150060730150e-02 3.37717097114196e-04
1.02862745098039e+00 8.28506065932589e-02 3.41072327516928e-04
1.06235294117647e+00 8.22900259322389e-02 3.44275473552275e-04
1.09607843137255e+00 8.17332382511931e-02 3.47333347141603e-04
1.12980392156863e+00 8.11802178861899e-02 3.50252286185589e-04
1.16352941176471e+00 8.06309393469455e-02 3.53038201978532e-04
1.19725490196078e+00 8.00853773156484e-02 3.55696620291002e-04
1.23098039215686e+00 7.95435066457926e-02 3.58232717384708e-04
1.26470588235294e+00 7.90053023610181e-02 3.60651351710735e-04
1.29843137254902e+00 7.84707396539599e-02 3.62957091913194e-04
1.33215686274510e+00 7.79397938851041e-02 3.65154241656727e-04
1.36588235294118e+00 7.74124405816526e-02 3.67246861712097e-04
1.39960784313725e+00 7.68886554363945e-02 3.69238789665164e-04
1.43333333333333e+00 7.63684143065861e-02 3.71133657558046e-04
1.46705882352941e+00 7.58516932128378e-02 3.72934907724777e-04
1.50078431372549e+00 7.53384683380089e-02 3.74645807045089e-04
1.53450980392157e+00 7.48287160261095e-02 3.76269459807645e-04
1.56823529411765e+00 7.43224127812106e-02 3.77808819347222e-04
1.60196078431373e+00 7.38195352663605e-02 3.79266698597599e-04
1.63568627450980e+00 7.33200603025095e-02 3.80645779682909e-04
1.66941176470588e+00 7.28239648674414e-02 3.81948622654027e-04
1.70313725490196e+00 7.23312260947120e-02 3.83177673462508e-04
1.73686274509804e+00 7.18418212725958e-02 3.84335271253568e-04
1.77058823529412e+00 7.13557278430370e-02 3.85423655047878e-04
1.80431372549020e+00 7.08729234006130e-02 3.86444969875848e-04
1.83803921568627e+00 7.03933856915002e-02 3.87401272419343e-04
1.87176470588235e+00 6.99170926124482e-02 3.88294536207803e-04
1.90549019607843e+00 6.94440222097608e-02 3.89126656412829e-04
1.93921568627451e+00 6.89741526782843e-02 3.89899454278864e-04
1.97294117647059e+00 6.85074623604022e-02 3.90614681223948e-04
2.00666666666667e+00 6.80439297450371e-02 3.91274022640572e-04
2.04039215686274e+00 6.75835334666592e-02 3.91879101423575e-04
2.07411764705882e+00 6.71262523043014e-02 3.92431481249164e-04
2.10784313725490e+00 6.66720651805811e-02 3.92932669626494e-04
2.14156862745098e+00 6.62209511607291e-02 3.93384120741425e-04
2.17529411764706e+00 6.57728894516239e-02 3.93787238109783e-04
2.20901960784314e+00 6.53278594008340e-02 3.94143377055684e-04
2.24274509803922e+00 6.48858404956656e-02 3.94453847029397e-04
2.27647058823529e+00 6.44468123622171e-02 3.94719913777330e-04
2.31019607843137e+00 6.40107547644401e-02 3.94942801375985e-04
2.34392156862745e+00 6.35776476032068e-02 3.95123694140263e-04
2.37764705882353e+00 6.31474709153833e-02 3.95263738415764e-04
2.41137254901961e+00 6.27202048729095e-02 3.95364044263861e-04
2.44509803921569e+00 6.22958297818853e-02 3.95425687047280e-04
2.47882352941176e+00 6.18743260816628e-02 3.95449708923764e-04
2.51254901960784e+00 6.14556743439446e-02 3.95437120254253e-04
2.54627450980392e+00 6.10398552718884e-02 3.95388900931619e-04
2.58000000000000e+00 6.06268496992174e-02 3.95306002008275e-04
2.61372549019608e+00 6.02166385877712e-02 3.95189345756696e-04
2.64745098039216e+00 5.98092030313676e-02 3.95039827547173e-04
2.68117647058823e+00 5.94045242501489e-02 3.94858317670777e-04
2.71490196078431e+00 5.90025835913249e-02 3.94645661197079e-04
2.74862745098039e+00 5.86033625283134e-02 3.94402679314205e-04
2.78235294117647e+00 5.82068426598860e-02 3.94130170234389e-04
2.81607843137255e+00 5.78130057093201e-02 3.93828910053945e-04
2.84980392156863e+00 5.74218335235566e-02 3.93499653570476e-04
2.88352941176471e+00 5.70333080723626e-02 3.93143135059885e-04
2.91725490196078e+00 5.66474114475011e-02 3.92760069015639e-04
2.95098039215686e+00 5.62641258619051e-02 3.92351150852770e-04
2.98470588235294e+00 5.58834336488577e-02 3.91917057578488e-04
3.01843137254902e+00 5.55053172611780e-02 3.91458448431545e-04
3.05215686274510e+00 5.51297592704122e-02 3.90975965492089e-04
3.08588235294118e+00 5.47567423660304e-02 3.90470234263765e-04
3.11960784313725e+00 5.43862493546284e-02 3.89941864229624e-04
3.15333333333333e+00 5.40182631591355e-02 3.89391449383245e-04
3.18705882352941e+00 5.36527668180272e-02 3.88819568736608e-04
3.22078431372549e+00 5.32897434845437e-02 3.88226786805850e-04
3.25450980392157e+00 5.29291764259129e-02 3.87613654076252e-04
3.28823529411765e+00 5.25710490225794e-02 3.86980707447432e-04
3.32196078431373e+00 5.22153447674385e-02 3.86328470659830e-04
3.35568627450980e+00 5.18620472650753e-02 3.85657454703629e-04
3.38941176470588e+00 5.15111402310088e-02 3.84968158210794e-04
3.42313725490196e+00 5.11626074909418e-02 3.84261067831240e-04
3.45686274509804e+00 5.08164329800147e-02 3.83536658594009e-04
3.49058823529412e+00 5.04726007420653e-02 3.82795394253873e-04
3.52431372549020e+00 5.01310949288936e-02 3.82037727624504e-04
3.55803921568627e+00 4.97918997995311e-02 3.81264100898784e-04
3.59176470588235e+00 4.94549997195154e-02 3.80474945956667e-04
3.62549019607843e+00 4.91203791601694e-02 3.79670684661336e-04
3.65921568627451e+00 4.87880226978854e-02 3.78851729144263e-04
3.69294117647059e+00 4.84579150134144e-02 3.78018482079630e-04
3.72666666666667e+00 4.81300408911602e-02 3.77171336948642e-04
3.76039215686274e+00 4.78043852184776e-02 3.76310678294149e-04
3.79411764705882e+00 4.74809329849759e-02 3.75436881966093e-04
3.82784313725490e+00 4.71596692818274e-02 3.74550315358217e-04
3.86156862745098e+00 4.68405793010799e-02 3.73651337636283e-04
3.89529411764706e+00 4.65236483349741e-02 3.72740299958363e-04
3.92901960784314e+00 4.62088617752660e-02 3.71817545687464e-04
3.96274509803922e+00 4.58962051125532e-02 3.70883410596788e-04
3.99647058823529e+00 4.55856639356064e-02 3.69938223067981e-04
4.03019607843137e+00 4.52772239307049e-02 3.68982304282798e-04
4.06392156862745e+00 4.49708708809771e-02 3.68015968408231e-04
4.09764705882353e+00 4.46665906657449e-02 3.67039522775473e-04
4.13137254901961e+00 4.43643692598733e-02 3.66053268053125e-04
4.16509803921569e+00 4.40641927331234e-02 3.65057498414750e-04
4.19882352941176e+00 4.37660472495107e-02 3.64052501700874e-04
4.23254901960784e+00 4.34699190666670e-02 3.63038559575883e-04
4.26627450980392e+00 4.31757945352076e-02 3.62015947679983e-04
4.30000000000000e+00 4.28836600981014e-02 3.60984935980818e-04
4.33372549019608e+00 4.25935022893803e-02 3.59945788299013e-04
4.36745098039216e+00 4.23053077355313e-02 3.58898762859699e-04
4.40117647058823e+00 4.20190631528529e-02 3.57844112843825e-04
4.43490196078431e+00 4.17347553475228e-02 3.56782085888792e-04
4.46862745098039e+00 4.14523712149907e-02 3.55712924425341e-04
4.50235294117647e+00 4.11718977393735e-02 3.54636865799754e-04
4.53607843137255e+00 4.08933219928558e-02 3.53554142392372e-04
4.56980392156863e+00 4.06166311350940e-02 3.52464981732660e-04
4.60352941176471e+00 4.03418124126243e-02 3.51369606610908e-04
4.63725490196078e+00 4.00688531582749e-02 3.50268235186664e-04
4.67098039215686e+00 3.97977407905821e-02 3.49161081094106e-04
4.70470588235294e+00 3.95284628132105e-02 3.48048353544348e-04
4.73843137254902e+00 3.92610068143769e-02 3.46930257424902e-04
4.77215686274510e+00 3.89953604662783e-02 3.45806993396357e-04
4.80588235294118e+00 3.87315115245236e-02 3.44678757986315e-04
4.83960784313725e+00 3.84694478275693e-02 3.43545743680738e-04
4.87333333333333e+00 3.82091572961588e-02 3.42408139012824e-04
4.90705882352941e+00 3.79506279327659e-02 3.41266128649465e-04
4.94078431372549e+00 3.76938478210413e-02 3.40119893475284e-04
4.97450980392157e+00 3.74388051252639e-02 3.38969610674481e-04
5.00823529411765e+00 3.71854880897950e-02 3.37815453810525e-04
5.04196078431372e+00 3.69338850385363e-02 3.36657592903672e-04
5.07568627450980e+00 3.66839843743922e-02 3.35496194506455e-04
5.10941176470588e+00 3.64357745787347e-02 3.34331421777236e-04
5.14313725490196e+00 3.61892442108727e-02 3.33163434551854e-04
5.17686274509804e+00 3.59443819075248e-02 3.31992389413392e-04
5.21058823529412e+00 3.57011763822952e-02 3.30818439760154e-04
5.24431372549020e+00 3.54596164251540e-02 3.29641735871887e-04
5.27803921568627e+00 3.52196909019199e-02 3.28462424974484e-04
5.31176470588235e+00 3.49813887537476e-02 3.27280651302943e-04
5.34549019607843e+00 3.47446989966174e-02 3.26096556162687e-04
5.37921568627451e+00 3.45096107208296e-02 3.24910277989524e-04
5.41294117647059e+00 3.42761130905010e-02 3.23721952408046e-04
5.44666666666667e+00 3.40441953430660e-02 3.22531712288609e-04
5.48039215686274e+00 3.38138467887802e-02 3.21339687802929e-04
5.51411764705882e+00 3.35850568102277e-02 3.20146006478340e-04
5.54784313725490e+00 3.33578148618317e-02 3.18950793250782e-04
5.58156862745098e+00 3.31321104693687e-02 3.17754170516456e-04
5.61529411764706e+00 3.29079332294853e-02 3.16556258182292e-04
5.64901960784314e+00 3.26852728092190e-02 3.15357173715221e-04
5.68274509803922e+00 3.24641189455217e-02 3.14157032190372e-04
5.71647058823529e+00 3.22444614447870e-02 3.12955946338014e-04
5.75019607843137e+00 3.20262901823797e-02 3.11754026589470e-04
5.78392156862745e+00 3.18095951021700e-02 3.10551381121983e-04
5.81764705882353e+00 3.15943662160690e-02 3.09348115902539e-04
5.85137254901961e+00 3.13805936035693e-02 3.08144334730746e-04
5.88509803921569e+00 3.11682674112870e-02 3.06940139280619e-04
5.91882352941176e+00 3.09573778525079e-02 3.05735629141573e-04
5.95254901960784e+00 3.07479152067362e-02 3.04530901858419e-04
5.98627450980392e+00 3.05398698192467e-02 3.03326052970423e-04
6.02000000000000e+00 3.03332321006394e-02 3.02121176171886e-04
6.05372549019608e+00 3.01279925260611e-02 3.00916362980652e-04
6.08745098039216e+00 2.99241416357832e-02 2.99711703021660e-04
6.12117647058823e+00 2.97216700337421e-02 2.98507284312344e-04
6.15490196078431e+00 2.95205683874493e-02 2.97303192921622e-04
6.18862745098039e+00 2.93208274275617e-02 2.96099513130186e-04
6.22235294117647e+00 2.91224379474538e-02 2.94896327464030e-04
6.25607843137255e+00 2.89253908027938e-02 2.93693716727263e-04
6.28980392156863e+00 2.87296769111219e-02 2.92491760034138e-04
6.32352941176471e+00 2.85352872514317e-02 2.91290534840567e-04
6.35725490196078e+00 2.83422128637544e-02 2.90090116974866e-04
6.39098039215686e+00 2.81504448487458e-02 2.88890580667824e-04
6.42470588235294e+00 2.79599743672761e-02 2.87691998582234e-04
6.45843137254902e+00 2.77707926400225e-02 2.86494441841777e-04
6.49215686274510e+00 2.75828909470646e-02 2.85297980059287e-04
6.52588235294118e+00 2.73962606274823e-02 2.84102681364429e-04
6.55960784313725e+00 2.72108930789568e-02 2.82908612430866e-04
6.59333333333333e+00 2.70267797573737e-02 2.81715838502815e-04
6.62705882352941e+00 2.68439121764299e-02 2.80524423421064e-04
6.66078431372549e+00 2.66622819072417e-02 2.79334429648537e-04
6.69450980392157e+00 2.64818805779567e-02 2.78145918295278e-04
6.72823529411765e+00 2.63026998733678e-02 2.76958949142887e-04
6.76196078431373e+00 2.61247315345300e-02 2.75773580668585e-04
6.79568627450980e+00 2.59479673583796e-02 2.74589870068753e-04
6.82941176470588e+00 2.57723991973562e-02 2.73407873281967e-04
6.86313725490196e+00 2.55980189590270e-02 2.72227645011609e-04
6.89686274509804e+00 2.54248186057142e-02 2.71049238748064e-04
6.93058823529412e+00 2.52527901541238e-02 2.69872706790418e-04
6.96431372549020e+00 2.50819256749785e-02 2.68698100267752e-04
6.99803921568627e+00 2.49122172926515e-02 2.67525469160094e-04
7.03176470588235e+00 2.47436571848039e-02 2.66354862318880e-04
7.06549019607843e+00 2.45762375820241e-02 2.65186327487062e-04
7.09921568627451e+00 2.44099507674693e-02 2.64019911318799e-04
7.13294117647059e+00 2.42447890765105e-02 2.62855659398804e-04
7.16666666666667e+00 2.40807448963785e-02 2.61693616261337e-04
7.20039215686274e+00 2.39178106658135e-02 2.60533825408778e-04
7.23411764705882e+00 2.37559788747164e-02 2.59376329329880e-04
7.26784313725490e+00 2.35952420638026e-02 2.58221169517713e-04
7.30156862745098e+00 2.34355928242583e-02 2.57068386487228e-04
7.33529411764706e+00 2.32770237973990e-02 2.55918019792478e-04
7.36901960784314e+00 2.31195276743300e-02 2.54770108043587e-04
7.40274509803922e+00 2.29630971956100e-02 2.53624688923326e-04
7.43647058823529e+00 2.28077251509162e-02 2.52481799203436e-04
7.47019607843137e+00 2.26534043787119e-02 2.51341474760625e-04
7.50392156862745e+00 2.25001277659169e-02 2.50203750592267e-04
7.53764705882353e+00 2.23478882475787e-02 2.49068660831846e-04
7.57137254901961e+00 2.21966788065479e-02 2.47936238764080e-04
7.60509803921569e+00 2.20464924731539e-02 2.46806516839779e-04
7.63882352941176e+00 2.18973223248844e-02 2.45679526690463e-04
7.67254901960784e+00 2.17491614860657e-02 2.44555299142665e-04
7.70627450980392e+00 2.16020031275460e-02 2.43433864231992e-04
7.74000000000000e+00 2.14558404663807e-02 2.42315251293295e-04
7.77372549019608e+00 2.13106667653344e-02 2.41199488744090e-04
7.80745098039216e+00 2.11664753331296e-02 2.40086604251841e-04
7.84117647058823e+00 2.10232595235759e-02 2.38976624902856e-04
7.87490196078431e+00 2.08810127354519e-02 2.37869576980602e-04
7.90862745098039e+00 2.07397284122011e-02 2.36765486056949e-04
7.94235294117647e+00 2.05994000416298e-02 2.35664377004556e-04
7.97607843137255e+00 2.04600211556068e-02 2.34566274009026e-04
8.00980392156863e+00 2.03215853297655e-02 2.33471200580908e-04
8.04352941176471e+00 2.01840861832073e-02 2.32379179567455e-04
8.07725490196078e+00 2.00475173782080e-02 2.31290233164203e-04
8.11098039215686e+00 1.99118726199256e-02 2.30204382926310e-04
8.14470588235294e+00 1.97771456561098e-02 2.29121649779694e-04
8.17843137254902e+00 1.96433302768141e-02 2.28042054032013e-04
8.21215686274510e+00 1.95104203141094e-02 2.26965615383430e-04
8.24588235294117e+00 1.93784096418002e-02 2.25892352937214e-04
8.27960784313725e+00 1.92472921751413e-02 2.24822285210128e-04
8.31333333333333e+00 1.91170618705583e-02 2.23755430142656e-04
8.34705882352941e+00 1.89877127253685e-02 2.22691805109089e-04
8.38078431372549e+00 1.88592387775041e-02 2.21631426927358e-04
8.41450980392157e+00 1.87316341052379e-02 2.20574311868768e-04
8.44823529411765e+00 1.86048928269100e-02 2.19520475667523e-04
8.48196078431372e+00 1.84790091006567e-02 2.18469933530121e-04
8.51568627450980e+00 1.83539771241414e-02 2.17422700144578e-04
8.54941176470588e+00 1.82297911342868e-02 2.16378789689488e-04
8.58313725490196e+00 1.81064454070099e-02 2.15338215842952e-04
8.61686274509804e+00 1.79839342569575e-02 2.14300991791340e-04
8.65058823529412e+00 1.78622520372445e-02 2.13267130237872e-04
8.68431372549020e+00 1.77413931391935e-02 2.12236643411109e-04
8.71803921568627e+00 1.76213519920765e-02 2.11209543073316e-04
8.75176470588235e+00 1.75021230628577e-02 2.10185840528619e-04
8.78549019607843e+00 1.73837008559389e-02 2.09165546631045e-04
8.81921568627451e+00 1.72660799129060e-02 2.08148671792469e-04
8.85294117647059e+00 1.71492548122772e-02 2.07135225990405e-04
8.88666666666666e+00 1.70332201692537e-02 2.06125218775637e-04
8.92039215686274e+00 1.69179706354709e-02 2.05118659279780e-04
8.95411764705882e+00 1.68035008987520e-02 2.04115556222655e-04
8.98784313725490e+00 1.66898056828635e-02 2.03115917919605e-04
9.02156862745098e+00 1.65768797472716e-02 2.02119752288656e-04
9.05529411764706e+00 1.64647178869007e-02 2.01127066857525e-04
9.08901960784314e+00 1.63533149318940e-02 2.00137868770588e-04
9.12274509803921e+00 1.62426657473743e-02 1.99152164795703e-04
9.15647058823529e+00 1.61327652332081e-02 1.98169961330913e-04
9.19019607843137e+00 1.60236083237701e-02 1.97191264411013e-04
9.22392156862745e+00 1.59151899877101e-02 1.96216079714044e-04
9.25764705882353e+00 1.58075052277204e-02 1.95244412567712e-04
9.29137254901961e+00 1.57005490803063e-02 1.94276267955641e-04
9.32509803921569e+00 1.55943166155566e-02 1.93311650523537e-04
9.35882352941176e+00 1.54888029369170e-02 1.92350564585284e-04
9.39254901960784e+00 1.53840031809638e-02 1.91393014128935e-04
9.42627450980392e+00 1.52799125171802e-02 1.90439002822561e-04
9.46000000000000e+00 1.51765261477333e-02 1.89488534068891e-04
9.49372549019608e+00 1.50738393071458e-02 1.88541610863747e-04
9.52745098039216e+00 1.49718472624003e-02 1.87598235900134e-04
9.56117647058823e+00 1.48705453123954e-02 1.86658411673480e-04
9.59490196078431e+00 1.47699287878379e-02 1.85722140336973e-04
9.62862745098039e+00 1.46699930510278e-02 1.84789423757188e-04
9.66235294117647e+00 1.45707334956447e-02 1.83860263519331e-04
9.69607843137255e+00 1.44721455465351e-02 1.82934660932392e-04
9.72980392156863e+00 1.43742246595019e-02 1.82012617034252e-04
9.76352941176470e+00 1.42769663210947e-02 1.81094132596669e-04
9.79725490196078e+00 1.41803660484019e-02 1.80179208130209e-04
9.83098039215686e+00 1.40844193888439e-02 1.79267843889069e-04
9.86470588235294e+00 1.39891219199681e-02 1.78360039875869e-04
9.89843137254902e+00 1.38944692492449e-02 1.77455795846321e-04
9.93215686274510e+00 1.38004570138651e-02 1.76555111313840e-04
9.96588235294118e+00 1.37070808805393e-02 1.75657985554122e-04
9.99960784313725e+00 1.36143365452976e-02 1.74764417652299e-04
1.00333333333333e+01 1.35222197332000e-02 1.73874406420900e-04
1.00670588235294e+01 1.34307261983250e-02 1.72987950404606e-04
1.01007843137255e+01 1.33398517234793e-02 1.72105047972147e-04
1.01345098039216e+01 1.32495921200040e-02 1.71225696864191e-04
1.01682352941176e+01 1.31599432284570e-02 1.70349895439487e-04
1.02019607843137e+01 1.30709009157798e-02 1.69477641848420e-04
1.02356862745098e+01 1.29824610777631e-02 1.68608933195973e-04
1.02694117647059e+01 1.28946196379671e-02 1.67743766811037e-04
1.03031372549020e+01 1.28073725475340e-02 1.66882139826395e-04
1.03368627450980e+01 1.27207157850013e-02 1.66024049182719e-04
1.03705882352941e+01 1.26346453561155e-02 1.65169491631951e-04
1.04043137254902e+01 1.25491572936499e-02 1.64318463740981e-04
1.04380392156863e+01 1.24642476572200e-02 1.63470961895676e-04
1.04717647058824e+01 1.23799125331031e-02 1.62626982304261e-04
1.05054901960784e+01 1.22961480340570e-02 1.61786520625158e-04
1.05392156862745e+01 1.22129502999256e-02 1.60949573103005e-04
1.05729411764706e+01 1.21303154950953e-02 1.60116135814786e-04
1.06066666666667e+01 1.20482398106965e-02 1.59286203906287e-04
1.06403921568627e+01 1.19667194636312e-02 1.58459772749214e-04
