Energy (eV)          EEDF (eV^-(3/2))     First Anisotropy
4.46500000000000e-03 2.28567391513000e+02 0.00000000000000e+00
1.33950000000000e-02 1.61241883997211e+02 0.00000000000000e+00
2.23250000000000e-02 1.13747394074325e+02 0.00000000000000e+00
3.12550000000000e-02 8.02426102818528e+01 0.00000000000000e+00
4.01850000000000e-02 5.66068045535881e+01 0.00000000000000e+00
4.91150000000000e-02 3.99330269854494e+01 0.00000000000000e+00
5.80450000000000e-02 2.81705822612018e+01 0.00000000000000e+00
6.69750000000000e-02 1.98728161835640e+01 0.00000000000000e+00
7.59050000000000e-02 1.40191927665494e+01 0.00000000000000e+00
8.48350000000000e-02 9.88977928494193e+00 0.00000000000000e+00
9.37650000000000e-02 6.97670229189242e+00 0.00000000000000e+00
1.02695000000000e-01 4.92168464707882e+00 0.00000000000000e+00
1.11625000000000e-01 3.47198128167813e+00 0.00000000000000e+00
1.20555000000000e-01 2.44929427314652e+00 0.00000000000000e+00
1.29485000000000e-01 1.72784411832105e+00 0.00000000000000e+00
1.38415000000000e-01 1.21890020727536e+00 0.00000000000000e+00
1.47345000000000e-01 8.59867912586696e-01 0.00000000000000e+00
1.56275000000000e-01 6.06590123361238e-01 0.00000000000000e+00
1.65205000000000e-01 4.27916395499063e-01 0.00000000000000e+00
1.74135000000000e-01 3.01871782089441e-01 0.00000000000000e+00
1.83065000000000e-01 2.12954151278960e-01 0.00000000000000e+00
1.91995000000000e-01 1.50227590777285e-01 0.00000000000000e+00
2.00925000000000e-01 1.05977408259977e-01 0.00000000000000e+00
2.09855000000000e-01 7.47613071832616e-02 0.00000000000000e+00
2.18785000000000e-01 5.27400428404400e-02 0.00000000000000e+00
2.27715000000000e-01 3.72052365536247e-02 0.00000000000000e+00
2.36645000000000e-01 2.62462742246726e-02 0.00000000000000e+00
2.45575000000000e-01 1.85153213495589e-02 0.00000000000000e+00
2.54505000000000e-01 1.30615538701934e-02 0.00000000000000e+00
2.63435000000000e-01 9.21421704128451e-03 0.00000000000000e+00
2.72365000000000e-01 6.50012981056141e-03 0.00000000000000e+00
2.81295000000000e-01 4.58548863835522e-03 0.00000000000000e+00
2.90225000000000e-01 3.23481325224007e-03 0.00000000000000e+00
2.99155000000000e-01 2.28198510608922e-03 0.00000000000000e+00
3.08085000000000e-01 1.60981658548819e-03 0.00000000000000e+00
3.17015000000000e-01 1.13563819150164e-03 0.00000000000000e+00
3.25945000000000e-01 8.01131081405785e-04 0.00000000000000e+00
3.34875000000000e-01 5.65154478246054e-04 0.00000000000000e+00
3.43805000000000e-01 3.98685797736249e-04 0.00000000000000e+00
3.52735000000000e-01 2.81251182526039e-04 0.00000000000000e+00
3.61665000000000e-01 1.98407437940956e-04 0.00000000000000e+00
3.70595000000000e-01 1.39965674372408e-04 0.00000000000000e+00
3.79525000000000e-01 9.87381834362119e-05 0.00000000000000e+00
3.88455000000000e-01 6.96544271443524e-05 0.00000000000000e+00
3.97385000000000e-01 4.91374162655350e-05 0.00000000000000e+00
4.06315000000000e-01 3.46637791198636e-05 0.00000000000000e+00
4.15245000000000e-01 2.44534140007983e-05 0.00000000000000e+00
4.24175000000000e-01 1.72505558100497e-05 0.00000000000000e+00
4.33105000000000e-01 1.21693304561041e-05 0.00000000000000e+00
4.42035000000000e-01 8.58480186844698e-06 0.00000000000000e+00
4.50965000000000e-01 6.05611158200766e-06 0.00000000000000e+00
4.59895000000000e-01 4.27225788734042e-06 0.00000000000000e+00
4.68825000000000e-01 3.01384596515172e-06 0.00000000000000e+00
4.77755000000000e-01 2.12610468309437e-06 0.00000000000000e+00
4.86685000000000e-01 1.49985141103528e-06 0.00000000000000e+00
4.95615000000000e-01 1.05806373179635e-06 0.00000000000000e+00
5.04545000000000e-01 7.46406512209155e-07 0.00000000000000e+00
5.13475000000000e-01 5.26549266103628e-07 0.00000000000000e+00
5.22405000000000e-01 3.71451916749325e-07 0.00000000000000e+00
5.31335000000000e-01 2.62039158230624e-07 0.00000000000000e+00
5.40265000000000e-01 1.84854397971924e-07 0.00000000000000e+00
5.49195000000000e-01 1.30404740575026e-07 0.00000000000000e+00
5.58125000000000e-01 9.19934637801940e-08 0.00000000000000e+00
5.67055000000000e-01 6.48963936507274e-08 0.00000000000000e+00
5.75985000000000e-01 4.57808819867147e-08 0.00000000000000e+00
5.84915000000000e-01 3.22959264387106e-08 0.00000000000000e+00
5.93845000000000e-01 2.27830225035263e-08 0.00000000000000e+00
6.02775000000000e-01 1.60721853073713e-08 0.00000000000000e+00
6.11705000000000e-01 1.13380540494352e-08 0.00000000000000e+00
6.20635000000000e-01 7.99838150005380e-09 0.00000000000000e+00
6.29565000000000e-01 5.64242385346448e-09 0.00000000000000e+00
6.38495000000000e-01 3.98042365720249e-09 0.00000000000000e+00
6.47425000000000e-01 2.80797276175719e-09 0.00000000000000e+00
6.56355000000000e-01 1.98087231656938e-09 0.00000000000000e+00
6.65285000000000e-01 1.39739786225543e-09 0.00000000000000e+00
6.74215000000000e-01 9.85788316138365e-10 0.00000000000000e+00
6.83145000000000e-01 6.95420130861259e-10 0.00000000000000e+00
6.92075000000000e-01 4.90581142512965e-10 0.00000000000000e+00
7.01005000000000e-01 3.46078358547462e-10 0.00000000000000e+00
7.09935000000000e-01 2.44139490648564e-10 0.00000000000000e+00
7.18865000000000e-01 1.72227154406033e-10 0.00000000000000e+00
7.27795000000000e-01 1.21496905871316e-10 0.00000000000000e+00
7.36725000000000e-01 8.57094700728929e-11 0.00000000000000e+00
7.45655000000000e-01 6.04633772974992e-11 0.00000000000000e+00
7.54585000000000e-01 4.26536296527163e-11 0.00000000000000e+00
7.63515000000000e-01 3.00898197201156e-11 0.00000000000000e+00
7.72445000000000e-01 2.12267340003829e-11 0.00000000000000e+00
7.81375000000000e-01 1.49743082715047e-11 0.00000000000000e+00
7.90305000000000e-01 1.05635614129809e-11 0.00000000000000e+00
7.99235000000000e-01 7.45201899831104e-12 0.00000000000000e+00
8.08165000000000e-01 5.25699477478761e-12 0.00000000000000e+00
8.17095000000000e-01 3.70852437016166e-12 0.00000000000000e+00
8.26025000000000e-01 2.61616257829334e-12 0.00000000000000e+00
8.34955000000000e-01 1.84556064701392e-12 0.00000000000000e+00
8.43885000000000e-01 1.30194282651517e-12 0.00000000000000e+00
8.52815000000000e-01 9.18449971425688e-13 0.00000000000000e+00
8.61745000000000e-01 6.47916584993003e-13 0.00000000000000e+00
8.70675000000000e-01 4.57069970242751e-13 0.00000000000000e+00
8.79605000000000e-01 3.22438046095032e-13 0.00000000000000e+00
8.88535000000000e-01 2.27462533831232e-13 0.00000000000000e+00
