Energy (eV)          EEDF (eV^-(3/2))     First Anisotropy
1.03000000000000e-02 6.64921518855954e+00 1.03372401481316e-02
3.09000000000000e-02 6.20699605615792e+00 1.65577578741149e-02
5.15000000000000e-02 5.79418757682081e+00 2.05425195680758e-02
7.21000000000000e-02 5.40883373722743e+00 2.28626965933524e-02
9.27000000000000e-02 5.04910861256958e+00 2.42743458746431e-02
1.13300000000000e-01 4.71330771475928e+00 2.50903012043669e-02
1.33900000000000e-01 4.39983991604086e+00 2.54845829644213e-02
1.54500000000000e-01 4.10721990973915e+00 2.55684126141156e-02
1.75100000000000e-01 3.83406117242040e+00 2.54187775780729e-02
1.95700000000000e-01 3.57906939411853e+00 2.50917444882678e-02
2.16300000000000e-01 3.34103634549716e+00 2.46295709988362e-02
2.36900000000000e-01 3.11883415288799e+00 2.40648839185405e-02
2.57500000000000e-01 2.91140995407912e+00 2.34233126981993e-02
2.78100000000000e-01 2.71778090953059e+00 2.27252416107742e-02
2.98700000000000e-01 2.53702954537888e+00 2.19870265191009e-02
3.19300000000000e-01 2.36829940616409e+00 2.12218695100760e-02
3.39900000000000e-01 2.21079099668094e+00 2.04404656183659e-02
3.60500000000000e-01 2.06375799372508e+00 1.96514923514765e-02
3.81100000000000e-01 1.92650370978457e+00 1.88619875417467e-02
4.01700000000000e-01 1.79837779192057e+00 1.80776458362020e-02
4.22300000000000e-01 1.67877314019538e+00 1.73030546010480e-02
4.42900000000000e-01 1.56712303104660e+00 1.65418838494594e-02
4.63500000000000e-01 1.46289843197685e+00 1.57970406974333e-02
4.84100000000000e-01 1.36560549483540e+00 1.50707960533284e-02
5.04700000000000e-01 1.27478321581394e+00 1.43648892946446e-02
5.25300000000000e-01 1.19000125106908e+00 1.36806152968572e-02
5.45900000000000e-01 1.11085787762103e+00 1.30188971731755e-02
5.66500000000000e-01 1.03697808986678e+00 1.23803473434223e-02
5.87100000000000e-01 9.68011822688448e-01 1.17653189966858e-02
6.07700000000000e-01 9.03632292737251e-01 1.11739495930343e-02
6.28300000000000e-01 8.43534450033659e-01 1.06061977278965e-02
6.48900000000000e-01 7.87433532546945e-01 1.00618744330916e-02
6.69500000000000e-01 7.35063716905242e-01 9.54066979276247e-03
6.90100000000000e-01 6.86176858842796e-01 9.04217559748380e-03
7.10700000000000e-01 6.40541317416247e-01 8.56590463600278e-03
7.31300000000000e-01 5.97940857418714e-01 8.11130712433446e-03
7.51900000000000e-01 5.58173624790996e-01 7.67778469098576e-03
7.72500000000000e-01 5.21051190175065e-01 7.26470227091329e-03
7.93100000000000e-01 4.86397656077911e-01 6.87139820638437e-03
8.13700000000000e-01 4.54048823415215e-01 6.49719280785968e-03
8.34300000000000e-01 4.23851413485673e-01 6.14139559052150e-03
8.54900000000000e-01 3.95662341689450e-01 5.80331137071094e-03
8.75500000000000e-01 3.69348039549408e-01 5.48224538018157e-03
8.96100000000000e-01 3.44783821822658e-01 5.17750753383203e-03
9.16700000000000e-01 3.21853295703594e-01 4.88841596772942e-03
9.37300000000000e-01 3.00447809319045e-01 4.61429994820296e-03
9.57900000000000e-01 2.80465936902335e-01 4.35450223910570e-03
9.78500000000000e-01 2.61812998206869e-01 4.10838100263034e-03
9.99100000000000e-01 2.44400609882046e-01 3.87531129901133e-03
1.01970000000000e+00 2.28146266685810e-01 3.65468624179311e-03
1.04030000000000e+00 2.12972950549484e-01 3.44591785787894e-03
1.06090000000000e+00 1.98808765642511e-01 3.24843769512197e-03
1.08150000000000e+00 1.85586597707935e-01 3.06169721462978e-03
1.10210000000000e+00 1.73243796054443e-01 2.88516800010276e-03
1.12270000000000e+00 1.61721876698159e-01 2.71834181231145e-03
1.14330000000000e+00 1.50966245247567e-01 2.56073051314826e-03
1.16390000000000e+00 1.40925938218524e-01 2.41186588049237e-03
1.18450000000000e+00 1.31553381553625e-01 2.27129933233751e-03
1.20510000000000e+00 1.22804165201710e-01 2.13860157619697e-03
1.22570000000000e+00 1.14636832689409e-01 2.01336219767262e-03
1.24630000000000e+00 1.07012684687641e-01 1.89518920021402e-03
1.26690000000000e+00 9.98955956423107e-02 1.78370850646628e-03
1.28750000000000e+00 9.32518426003434e-02 1.67856343018071e-03
1.30810000000000e+00 8.70499454199768e-02 1.57941412641596e-03
1.32870000000000e+00 8.12605176081853e-02 1.48593702666589e-03
1.34930000000000e+00 7.58561270784535e-02 1.39782426459523e-03
1.36990000000000e+00 7.08111661691271e-02 1.31478309722817e-03
1.39050000000000e+00 6.61017303064499e-02 1.23653532570404e-03
1.41110000000000e+00 6.17055047373541e-02 1.16281671907459e-03
1.43170000000000e+00 5.76016587953084e-02 1.09337644405918e-03
1.45230000000000e+00 5.37707471982249e-02 1.02797650318655e-03
1.47290000000000e+00 5.01946179107415e-02 9.66391183326586e-04
1.49350000000000e+00 4.68563261343057e-02 9.08406516245459e-04
1.51410000000000e+00 4.37400540175163e-02 8.53819752495553e-04
1.53470000000000e+00 4.08310357062865e-02 8.02438849672308e-04
1.55530000000000e+00 3.81154873786941e-02 7.54081975827964e-04
1.57590000000000e+00 3.55805419330011e-02 7.08577028623342e-04
1.59650000000000e+00 3.32141880193747e-02 6.65761170618609e-04
1.61710000000000e+00 3.10052131264242e-02 6.25480380949297e-04
1.63770000000000e+00 2.89431504528795e-02 5.87589023501698e-04
1.65830000000000e+00 2.70182293126727e-02 5.51949431589014e-04
1.67890000000000e+00 2.52213288384278e-02 5.18431509034383e-04
1.69950000000000e+00 2.35439347639909e-02 4.86912347486588e-04
1.72010000000000e+00 2.19780990812224e-02 4.57275859727301e-04
1.74070000000000e+00 2.05164023798947e-02 4.29412428673303e-04
1.76130000000000e+00 1.91519186922483e-02 4.03218571731832e-04
1.78190000000000e+00 1.78781826756302e-02 3.78596620130790e-04
1.80250000000000e+00 1.66891589777149e-02 3.55454412816759e-04
1.82310000000000e+00 1.55792136391528e-02 3.33705004491693e-04
1.84370000000000e+00 1.45430873981402e-02 3.13266387342885e-04
1.86430000000000e+00 1.35758707704227e-02 2.94061226009452e-04
1.88490000000000e+00 1.26729807866510e-02 2.76016605321652e-04
1.90550000000000e+00 1.18301392768653e-02 2.59063790345986e-04
1.92610000000000e+00 1.10433525992124e-02 2.43137998268876e-04
1.94670000000000e+00 1.03088927168444e-02 2.28178181654274e-04
1.96730000000000e+00 9.62327953333542e-03 2.14126822615277e-04
1.98790000000000e+00 8.98326440291640e-03 2.00929737446512e-04
2.00850000000000e+00 8.38581473739388e-03 1.88535891272283e-04
2.02910000000000e+00 7.82809963681603e-03 1.76897222274958e-04
2.04970000000000e+00 7.30747647579959e-03 1.65968475078695e-04
2.07030000000000e+00 6.82147838195935e-03 1.55707042874895e-04
2.09090000000000e+00 6.36780254710942e-03 1.46072817887872e-04
2.11150000000000e+00 5.94429931585097e-03 1.37028049791655e-04
2.13210000000000e+00 5.54896199984500e-03 1.28537211701696e-04
2.15270000000000e+00 5.17991736950679e-03 1.20566873378285e-04
2.17330000000000e+00 4.83541677806907e-03 1.13085581291597e-04
2.19390000000000e+00 4.51382787595665e-03 1.06063745211487e-04
2.21450000000000e+00 4.21362687621306e-03 9.94735309982125e-05
2.23510000000000e+00 3.93339133432998e-03 9.32887592832686e-05
2.25570000000000e+00 3.67179340826852e-03 8.74848097423046e-05
2.27630000000000e+00 3.42759356673590e-03 8.20385306746691e-05
2.29690000000000e+00 3.19963471590560e-03 7.69281536164477e-05
2.31750000000000e+00 2.98683671675158e-03 7.21332127258872e-05
2.33810000000000e+00 2.78819126701793e-03 6.76344686918030e-05
2.35870000000000e+00 2.60275712357316e-03 6.34138369269528e-05
2.37930000000000e+00 2.42965564251129e-03 5.94543198193854e-05
2.39990000000000e+00 2.26806661586725e-03 5.57399428254505e-05
2.42050000000000e+00 2.11722438521970e-03 5.22556941984650e-05
2.44110000000000e+00 1.97641421376632e-03 4.89874681569677e-05
2.46170000000000e+00 1.84496889968147e-03 4.59220113060731e-05
2.48230000000000e+00 1.72226561470899e-03 4.30468721346408e-05
2.50290000000000e+00 1.60772295301078e-03 4.03503534198101e-05
2.52350000000000e+00 1.50079817628737e-03 3.78214673789379e-05
2.54410000000000e+00 1.40098464211725e-03 3.54498934170994e-05
2.56470000000000e+00 1.30780940332951e-03 3.32259383260890e-05
2.58530000000000e+00 1.22083096703493e-03 3.11404987983044e-05
2.60590000000000e+00 1.13963720269713e-03 2.91850261259950e-05
2.62650000000000e+00 1.06384338933154e-03 2.73514929631527e-05
2.64710000000000e+00 9.93090392579250e-04 2.56323620337902e-05
2.66770000000000e+00 9.27042963018179e-04 2.40205566765272e-05
2.68830000000000e+00 8.65388147648344e-04 2.25094331212850e-05
2.70890000000000e+00 8.07833807024482e-04 2.10927543994884e-05
2.72950000000000e+00 7.54107231009657e-04 1.97646657944985e-05
2.75010000000000e+00 7.03953846590896e-04 1.85196717440670e-05
2.77070000000000e+00 6.57136011634097e-04 1.73526141114168e-05
2.79130000000000e+00 6.13431888862632e-04 1.62586517461247e-05
2.81190000000000e+00 5.72634394724215e-04 1.52332412603276e-05
2.83250000000000e+00 5.34550218165456e-04 1.42721189498914e-05
2.85310000000000e+00 4.98998904664736e-04 1.33712837940910e-05
2.87370000000000e+00 4.65812001183273e-04 1.25269814710591e-05
2.89430000000000e+00 4.34832257982908e-04 1.17356893297708e-05
2.91490000000000e+00 4.05912883528567e-04 1.09941022626648e-05
2.93550000000000e+00 3.78916848944892e-04 1.02991194261486e-05
2.95610000000000e+00 3.53716238731363e-04 9.64783175922632e-06
2.97670000000000e+00 3.30191644659376e-04 9.03751025330920e-06
2.99730000000000e+00 3.08231599979401e-04 8.46559492894332e-06
3.01790000000000e+00 2.87732051257292e-04 7.92968447771863e-06
3.03850000000000e+00 2.68595865337175e-04 7.42752653001314e-06
3.05910000000000e+00 2.50732369094726e-04 6.95700851148803e-06
3.07970000000000e+00 2.34056919800070e-04 6.51614905338495e-06
3.10030000000000e+00 2.18490504054544e-04 6.10308992369600e-06
3.12090000000000e+00 2.03959363400946e-04 5.71608844818391e-06
3.14150000000000e+00 1.90394644833326e-04 5.35351039203002e-06
3.16210000000000e+00 1.77732074550298e-04 5.01382327458888e-06
3.18270000000000e+00 1.65911653406039e-04 4.69559009133275e-06
3.20330000000000e+00 1.54877372615912e-04 4.39746341858461e-06
3.22390000000000e+00 1.44576948369650e-04 4.11817987806709e-06
3.24450000000000e+00 1.34961574094606e-04 3.85655493964339e-06
3.26510000000000e+00 1.25985689195233e-04 3.61147804189831e-06
3.28570000000000e+00 1.17606763172986e-04 3.38190801140621e-06
3.30630000000000e+00 1.09785094103769e-04 3.16686876266432e-06
3.32690000000000e+00 1.02483620518024e-04 2.96544526173525e-06
3.34750000000000e+00 9.56677457921111e-05 2.77677973764753e-06
3.36810000000000e+00 8.93051742188824e-05 2.60006812654980e-06
3.38870000000000e+00 8.33657579807071e-05 2.43455673450646e-06
3.40930000000000e+00 7.78213542998539e-05 2.27953910566301e-06
3.42990000000000e+00 7.26456920893701e-05 2.13435308330100e-06
3.45050000000000e+00 6.78142474726050e-05 1.99837805204822e-06
3.47110000000000e+00 6.33041275815531e-05 1.87103235021157e-06
3.49170000000000e+00 5.90939620834167e-05 1.75177084186156e-06
3.51230000000000e+00 5.51638019214073e-05 1.64008263891944e-06
3.53290000000000e+00 5.14950247899897e-05 1.53548896408384e-06
3.55350000000000e+00 4.80702468966811e-05 1.43754114598517e-06
3.57410000000000e+00 4.48732405923042e-05 1.34581873847510e-06
3.59470000000000e+00 4.18888574794036e-05 1.25992775644618e-06
3.61530000000000e+00 3.91029566344873e-05 1.17949902103671e-06
3.63590000000000e+00 3.65023376039896e-05 1.10418660750744e-06
3.65650000000000e+00 3.40746778564690e-05 1.03366638948371e-06
3.67710000000000e+00 3.18084743946710e-05 9.67634673638609e-07
3.69770000000000e+00 2.96929892507951e-05 9.05806919252406e-07
3.71830000000000e+00 2.77181986067067e-05 8.47916537421687e-07
3.73890000000000e+00 2.58747452980088e-05 7.93713765009467e-07
3.75950000000000e+00 2.41538944769244e-05 7.42964608726432e-07
3.78010000000000e+00 2.25474922239060e-05 6.95449855014477e-07
3.80070000000000e+00 2.10479269118606e-05 6.50964141667832e-07
3.82130000000000e+00 1.96480931399245e-05 6.09315087375331e-07
3.84190000000000e+00 1.83413580658914e-05 5.70322475600668e-07
3.86250000000000e+00 1.71215299777703e-05 5.33817489436767e-07
3.88310000000000e+00 1.59828289555526e-05 4.99641994276448e-07
3.90370000000000e+00 1.49198594841766e-05 4.67647865335128e-07
3.92430000000000e+00 1.39275848879206e-05 4.37696357243223e-07
3.94490000000000e+00 1.30013034650869e-05 4.09657513096748e-07
3.96550000000000e+00 1.21366262098954e-05 3.83409610515168e-07
3.98610000000000e+00 1.13294560160269e-05 3.58838642406327e-07
4.00670000000000e+00 1.05759682632753e-05 3.35837830279861e-07
4.02730000000000e+00 9.87259269532255e-06 3.14307168083561e-07
4.04790000000000e+00 9.21599650276856e-06 2.94152994662021e-07
4.06850000000000e+00 8.60306853125652e-06 2.75287593054217e-07
4.08910000000000e+00 8.03090453986850e-06 2.57628814956813e-07
4.10970000000000e+00 7.49679343994027e-06 2.41099728783373e-07
4.13030000000000e+00 6.99820444909083e-06 2.25628289846784e-07
4.15090000000000e+00 6.53277509959843e-06 2.11147031283339e-07
4.17150000000000e+00 6.09830004430318e-06 1.97592774422492e-07
4.19210000000000e+00 5.69272060699505e-06 1.84906357386630e-07
4.21270000000000e+00 5.31411502777396e-06 1.73032380780593e-07
4.23330000000000e+00 4.96068935716128e-06 1.61918969401478e-07
4.25390000000000e+00 4.63076895581641e-06 1.51517548965626e-07
4.27450000000000e+00 4.32279055958147e-06 1.41782636912077e-07
4.29510000000000e+00 4.03529487225567e-06 1.32671646400251e-07
4.31570000000000e+00 3.76691965100188e-06 1.24144702674489e-07
4.33630000000000e+00 3.51639325162187e-06 1.16164471019658e-07
4.35690000000000e+00 3.28252860311557e-06 1.08695995580266e-07
4.37750000000000e+00 3.06421758297429e-06 1.01706548360974e-07
4.39810000000000e+00 2.86042576655598e-06 9.51654877688558e-08
4.41870000000000e+00 2.67018752566372e-06 8.90441260977187e-08
4.43930000000000e+00 2.49260145310280e-06 8.33156053922323e-08
4.45990000000000e+00 2.32682609153671e-06 7.79547811647208e-08
4.48050000000000e+00 2.17207594640390e-06 7.29381134704408e-08
4.50110000000000e+00 2.02761776400339e-06 6.82435648780644e-08
4.52170000000000e+00 1.89276705711358e-06 6.38505049010733e-08
4.54230000000000e+00 1.76688486168165e-06 5.97396204829597e-08
4.56290000000000e+00 1.64937470921572e-06 5.58928321546265e-08
4.58350000000000e+00 1.53967980053393e-06 5.22932155062924e-08
4.60410000000000e+00 1.43728036747904e-06 4.89249276386357e-08
4.62470000000000e+00 1.34169121009727e-06 4.57731382789332e-08
4.64530000000000e+00 1.25245939761195e-06 4.28239652676787e-08
4.66590000000000e+00 1.16916212229843e-06 4.00644141396504e-08
4.68650000000000e+00 1.09140469609131e-06 3.74823215407365e-08
4.70710000000000e+00 1.01881868043115e-06 3.50663022380827e-08
4.72770000000000e+00 9.51060140489468e-07 3.28056994963706e-08
4.74830000000000e+00 8.87808015499940e-07 3.06905386073195e-08
4.76890000000000e+00 8.28762597473898e-07 2.87114833729050e-08
4.78950000000000e+00 7.73644111091863e-07 2.68597953553440e-08
4.81010000000000e+00 7.22191388042182e-07 2.51272957186714e-08
4.83070000000000e+00 6.74160629525380e-07 2.35063294977646e-08
4.85130000000000e+00 6.29324251060594e-07 2.19897321410245e-08
4.87190000000000e+00 5.87469804120426e-07 2.05707981826110e-08
4.89250000000000e+00 5.48398969484590e-07 1.92432519092267e-08
4.91310000000000e+00 5.11926617542560e-07 1.80012198949560e-08
4.93370000000000e+00 4.77879931092633e-07 1.68392052856558e-08
4.95430000000000e+00 4.46097586480964e-07 1.57520637218740e-08
4.97490000000000e+00 4.16428989200566e-07 1.47349807962881e-08
4.99550000000000e+00 3.88733560328296e-07 1.37834509482261e-08
5.01610000000000e+00 3.62880070418756e-07 1.28932577039951e-08
5.03670000000000e+00 3.38746017698890e-07 1.20604551775110e-08
5.05730000000000e+00 3.16217047616969e-07 1.12813507511366e-08
5.07790000000000e+00 2.95186410995615e-07 1.05524888616993e-08
5.09850000000000e+00 2.75554458221423e-07 9.87063582141277e-09
5.11910000000000e+00 2.57228167074501e-07 9.23276560787615e-09
5.13970000000000e+00 2.40120701960622e-07 8.63604656149295e-09
5.16030000000000e+00 2.24151002457529e-07 8.07782893256140e-09
5.18090000000000e+00 2.09243399225756e-07 7.55563322394656e-09
5.20150000000000e+00 1.95327255464069e-07 7.06713927867536e-09
5.22210000000000e+00 1.82336632210616e-07 6.61017606500829e-09
5.24270000000000e+00 1.70209975903876e-07 6.18271211455265e-09
5.26330000000000e+00 1.58889826722989e-07 5.78284657180165e-09
5.28390000000000e+00 1.48322546325479e-07 5.40880081612607e-09
5.30450000000000e+00 1.38458063692324e-07 5.05891061972057e-09
5.32510000000000e+00 1.29249637876090e-07 4.73161880732463e-09
5.34570000000000e+00 1.20653636527971e-07 4.42546838571047e-09
5.36630000000000e+00 1.12629329154327e-07 4.13909611296459e-09
5.38690000000000e+00 1.05138694123098e-07 3.87122647949537e-09
5.40750000000000e+00 9.81462385056354e-08 3.62066607448407e-09
5.42810000000000e+00 9.16188299003126e-08 3.38629831316875e-09
5.44870000000000e+00 8.55255394410295e-08 3.16707850191641e-09
5.46930000000000e+00 7.98374952467510e-08 2.96202921950566e-09
5.48990000000000e+00 7.45277456176692e-08 2.77023599441600e-09
5.51050000000000e+00 6.95711313297752e-08 2.59084325920633e-09
5.53110000000000e+00 6.49441664227304e-08 2.42305056427042e-09
5.55170000000000e+00 6.06249269161761e-08 2.26610903438577e-09
5.57230000000000e+00 5.65929469271825e-08 2.11931805252901e-09
5.59290000000000e+00 5.28291216966123e-08 1.98202215642097e-09
5.61350000000000e+00 4.93156170649059e-08 1.85360813419137e-09
5.63410000000000e+00 4.60357849683576e-08 1.73350230642140e-09
5.65470000000000e+00 4.29740845554784e-08 1.62116798263493e-09
5.67530000000000e+00 4.01160085496701e-08 1.51610308107072e-09
5.69590000000000e+00 3.74480145092945e-08 1.41783790128057e-09
5.71650000000000e+00 3.49574606594270e-08 1.32593303976589e-09
5.73710000000000e+00 3.26325459912457e-08 1.23997743949017e-09
5.75770000000000e+00 3.04622543452279e-08 1.15958656469005e-09
5.77830000000000e+00 2.84363022132045e-08 1.08440069295566e-09
5.79890000000000e+00 2.65450900119405e-08 1.01408331706401e-09
5.81950000000000e+00 2.47796565973623e-08 9.48319649529551e-10
5.84010000000000e+00 2.31316368039061e-08 8.86815223285908e-10
5.86070000000000e+00 2.15932218077945e-08 8.29294582333816e-10
5.88130000000000e+00 2.01571221264323e-08 7.75500056584662e-10
5.90190000000000e+00 1.88165330785998e-08 7.25190615498130e-10
5.92250000000000e+00 1.75651025417836e-08 6.78140795458113e-10
5.94310000000000e+00 1.63969008538704e-08 6.34139696154534e-10
5.96370000000000e+00 1.53063927165868e-08 5.92990041541731e-10
5.98430000000000e+00 1.42884109675566e-08 5.54507301227567e-10
6.00490000000000e+00 1.33381320966994e-08 5.18518868412931e-10
6.02550000000000e+00 1.24510533909584e-08 4.84863290749876e-10
6.04610000000000e+00 1.16229715990636e-08 4.53389550719233e-10
6.06670000000000e+00 1.08499630152370e-08 4.23956392346364e-10
6.08730000000000e+00 1.01283648874695e-08 3.96431691277620e-10
6.10790000000000e+00 9.45475806227748e-09 3.70691865430876e-10
6.12850000000000e+00 8.82595078370396e-09 3.46621323612218e-10
6.14910000000000e+00 8.23896356979869e-09 3.24111949658052e-10
6.16970000000000e+00 7.69101509491794e-09 3.03062619818468e-10
6.19030000000000e+00 7.17950901094965e-09 2.83378751244170e-10
6.21090000000000e+00 6.70202164501892e-09 2.64971879576505e-10
6.23150000000000e+00 6.25629051538174e-09 2.47759263768424e-10
6.25210000000000e+00 5.84020361109190e-09 2.31663516384415e-10
6.27270000000000e+00 5.45178938464461e-09 2.16612257739897e-10
6.29330000000000e+00 5.08920741017909e-09 2.02537792345817e-10
6.31390000000000e+00 4.75073966297583e-09 1.89376806222730e-10
6.33450000000000e+00 4.43478237892794e-09 1.77070083740855e-10
6.35510000000000e+00 4.13983845541440e-09 1.65562242728898e-10
6.37570000000000e+00 3.86451035756818e-09 1.54801486675188e-10
6.39630000000000e+00 3.60749349632697e-09 1.44739372920315e-10
6.41690000000000e+00 3.36757004688964e-09 1.35330595811174e-10
6.43750000000000e+00 3.14360317828843e-09 1.26532783852528e-10
6.45810000000000e+00 2.93453166673477e-09 1.18306309954205e-10
6.47870000000000e+00 2.73936486721512e-09 1.10614113930008e-10
6.49930000000000e+00 2.55717801951079e-09 1.03421536458708e-10
