Energy (eV)          EEDF (eV^-(3/2))     First Anisotropy
4.35000000000000e-02 5.38978070624288e-02 3.67956091451120e-05
1.30500000000000e-01 5.32816440390610e-02 6.06164837919691e-05
2.17500000000000e-01 5.26725250290455e-02 7.96413040173335e-05
3.04500000000000e-01 5.20703695047737e-02 9.38658346391121e-05
3.91500000000000e-01 5.14750978592477e-02 1.05541453069052e-04
4.78500000000000e-01 5.08866313955440e-02 1.15525231794002e-04
5.65500000000000e-01 5.03048923164076e-02 1.24263603896367e-04
6.52500000000000e-01 4.97298037139670e-02 1.32027870996035e-04
7.39500000000000e-01 4.91612895595660e-02 1.38999089384992e-04
8.26500000000000e-01 4.85992746937128e-02 1.45306014435291e-04
9.13500000000000e-01 4.80436848161437e-02 1.51044536851377e-04
1.00050000000000e+00 4.74944464760000e-02 1.56288630576558e-04
1.08750000000000e+00 4.69514870621177e-02 1.61096969659061e-04
1.17450000000000e+00 4.64147347934283e-02 1.65517151771063e-04
1.26150000000000e+00 4.58841187094685e-02 1.69588514299870e-04
1.34850000000000e+00 4.53595686609996e-02 1.73344080370611e-04
1.43550000000000e+00 4.48410153007333e-02 1.76811944408195e-04
1.52250000000000e+00 4.43283900741637e-02 1.80016284002706e-04
1.60950000000000e+00 4.38216252105042e-02 1.82978115176736e-04
1.69650000000000e+00 4.33206537137278e-02 1.85715866936866e-04
1.78350000000000e+00 4.28254093537105e-02 1.88245825706245e-04
1.87050000000000e+00 4.23358266574749e-02 1.90582484227778e-04
1.95750000000000e+00 4.18518409005347e-02 1.92738819110438e-04
2.04450000000000e+00 4.13733880983380e-02 1.94726514245385e-04
2.13150000000000e+00 4.09004049978080e-02 1.96556142585388e-04
2.21850000000000e+00 4.04328290689811e-02 1.98237315492704e-04
2.30550000000000e+00 3.99705984967401e-02 1.99778806535211e-04
2.39250000000000e+00 3.95136521726418e-02 2.01188654940054e-04
2.47950000000000e+00 3.90619296868387e-02 2.02474252696461e-04
2.56650000000000e+00 3.86153713200922e-02 2.03642418399798e-04
2.65350000000000e+00 3.81739180358778e-02 2.04699460256451e-04
2.74050000000000e+00 3.77375114725799e-02 2.05651230160564e-04
2.82750000000000e+00 3.73060939357768e-02 2.06503170364969e-04
2.91450000000000e+00 3.68796083906128e-02 2.07260353968893e-04
3.00150000000000e+00 3.64579984542580e-02 2.07927520211645e-04
3.08850000000000e+00 3.60412083884548e-02 2.08509105378195e-04
3.17550000000000e+00 3.56291830921484e-02 2.09009269977699e-04
3.26250000000000e+00 3.52218680942030e-02 2.09431922740303e-04
3.34950000000000e+00 3.48192095461998e-02 2.09780741884942e-04
3.43650000000000e+00 3.44211542153186e-02 2.10059194035959e-04
3.52350000000000e+00 3.40276494773000e-02 2.10270551105371e-04
3.61050000000000e+00 3.36386433094884e-02 2.10417905407922e-04
3.69750000000000e+00 3.32540842839543e-02 2.10504183235008e-04
3.78450000000000e+00 3.28739215606956e-02 2.10532157079987e-04
3.87150000000000e+00 3.24981048809159e-02 2.10504456679059e-04
3.95850000000000e+00 3.21265845603807e-02 2.10423579008639e-04
4.04550000000000e+00 3.17593114828487e-02 2.10291897360452e-04
4.13250000000000e+00 3.13962370935783e-02 2.10111669599069e-04
4.21950000000000e+00 3.10373133929088e-02 2.09885045692694e-04
4.30650000000000e+00 3.06824929299146e-02 2.09614074596097e-04
4.39350000000000e+00 3.03317287961317e-02 2.09300710554540e-04
4.48050000000000e+00 2.99849746193569e-02 2.08946818888972e-04
4.56750000000000e+00 2.96421845575166e-02 2.08554181315367e-04
4.65450000000000e+00 2.93033132926067e-02 2.08124500844636e-04
4.74150000000000e+00 2.89683160247013e-02 2.07659406304212e-04
4.82850000000000e+00 2.86371484660299e-02 2.07160456517589e-04
4.91550000000000e+00 2.83097668351226e-02 2.06629144173975e-04
5.00250000000000e+00 2.79861278510218e-02 2.06066899416655e-04
5.08950000000000e+00 2.76661887275606e-02 2.05475093175561e-04
5.17650000000000e+00 2.73499071677062e-02 2.04855040266761e-04
5.26350000000000e+00 2.70372413579678e-02 2.04208002279186e-04
5.35050000000000e+00 2.67281499628693e-02 2.03535190266919e-04
5.43750000000000e+00 2.64225921194842e-02 2.02837767263326e-04
5.52450000000000e+00 2.61205274320333e-02 2.02116850631805e-04
5.61150000000000e+00 2.58219159665446e-02 2.01373514266464e-04
5.69850000000000e+00 2.55267182455736e-02 2.00608790654693e-04
5.78550000000000e+00 2.52348952429844e-02 1.99823672812514e-04
5.87250000000000e+00 2.49464083787904e-02 1.99019116102505e-04
5.95950000000000e+00 2.46612195140535e-02 1.98196039943293e-04
6.04650000000000e+00 2.43792909458425e-02 1.97355329418698e-04
6.13350000000000e+00 2.41005854022482e-02 1.96497836793912e-04
6.22050000000000e+00 2.38250660374564e-02 1.95624382945490e-04
6.30750000000000e+00 2.35526964268763e-02 1.94735758711262e-04
6.39450000000000e+00 2.32834405623253e-02 1.93832726165846e-04
6.48150000000000e+00 2.30172628472686e-02 1.92916019826875e-04
6.56850000000000e+00 2.27541280921131e-02 1.91986347796698e-04
6.65550000000000e+00 2.24940015095552e-02 1.91044392843885e-04
6.74250000000000e+00 2.22368487099822e-02 1.90090813428495e-04
6.82950000000000e+00 2.19826356969251e-02 1.89126244674821e-04
6.91650000000000e+00 2.17313288625649e-02 1.88151299294980e-04
7.00350000000000e+00 2.14828949832892e-02 1.87166568466464e-04
7.09050000000000e+00 2.12373012152999e-02 1.86172622666538e-04
7.17750000000000e+00 2.09945150902714e-02 1.85170012466148e-04
7.26450000000000e+00 2.07545045110577e-02 1.84159269285803e-04
7.35150000000000e+00 2.05172377474494e-02 1.83140906115729e-04
7.43850000000000e+00 2.02826834319790e-02 1.82115418202396e-04
7.52550000000000e+00 2.00508105557737e-02 1.81083283703402e-04
7.61250000000000e+00 1.98215884644558e-02 1.80044964312546e-04
7.69950000000000e+00 1.95949868540907e-02 1.79000905856751e-04
7.78650000000000e+00 1.93709757671799e-02 1.77951538866488e-04
7.87350000000000e+00 1.91495255887011e-02 1.76897279121117e-04
7.96050000000000e+00 1.89306070421927e-02 1.75838528170532e-04
8.04750000000000e+00 1.87141911858831e-02 1.74775673834442e-04
8.13450000000000e+00 1.85002494088653e-02 1.73709090680431e-04
8.22150000000000e+00 1.82887534273135e-02 1.72639140481941e-04
8.30850000000000e+00 1.80796752807446e-02 1.71566172657234e-04
8.39550000000000e+00 1.78729873283213e-02 1.70490524690303e-04
8.48250000000000e+00 1.76686622451982e-02 1.69412522534684e-04
8.56950000000000e+00 1.74666730189089e-02 1.68332481000992e-04
8.65650000000000e+00 1.72669929457955e-02 1.67250704129023e-04
8.74350000000000e+00 1.70695956274778e-02 1.66167485545174e-04
8.83050000000000e+00 1.68744549673635e-02 1.65083108805903e-04
8.91750000000000e+00 1.66815451671981e-02 1.63997847727895e-04
9.00450000000000e+00 1.64908407236545e-02 1.62911966705577e-04
9.09150000000000e+00 1.63023164249609e-02 1.61825721016578e-04
9.17850000000000e+00 1.61159473475682e-02 1.60739357115697e-04
9.26550000000000e+00 1.59317088528548e-02 1.59653112917891e-04
9.35250000000000e+00 1.57495765838695e-02 1.58567218070844e-04
9.43950000000000e+00 1.55695264621109e-02 1.57481894217524e-04
9.52650000000000e+00 1.53915346843448e-02 1.56397355249214e-04
9.61350000000000e+00 1.52155777194568e-02 1.55313807549410e-04
9.70050000000000e+00 1.50416323053419e-02 1.54231450229031e-04
9.78750000000000e+00 1.48696754458288e-02 1.53150475353290e-04
9.87450000000000e+00 1.46996844076396e-02 1.52071068160577e-04
9.96150000000000e+00 1.45316367173849e-02 1.50993407273718e-04
1.00485000000000e+01 1.43655101585924e-02 1.49917664903931e-04
1.01355000000000e+01 1.42012827687699e-02 1.48844007047771e-04
1.02225000000000e+01 1.40389328365017e-02 1.47772593677348e-04
1.03095000000000e+01 1.38784388985782e-02 1.46703578924121e-04
1.03965000000000e+01 1.37197797371587e-02 1.45637111256514e-04
1.04835000000000e+01 1.35629343769663e-02 1.44573333651612e-04
1.05705000000000e+01 1.34078820825143e-02 1.43512383761161e-04
1.06575000000000e+01 1.32546023553657e-02 1.42454394072081e-04
1.07445000000000e+01 1.31030749314228e-02 1.41399492061773e-04
1.08315000000000e+01 1.29532797782482e-02 1.40347800348361e-04
1.09185000000000e+01 1.28051970924169e-02 1.39299436836077e-04
1.10055000000000e+01 1.26588072968973e-02 1.38254514856004e-04
1.10925000000000e+01 1.25140910384641e-02 1.37213143302298e-04
1.11795000000000e+01 1.23710291851390e-02 1.36175426764130e-04
1.12665000000000e+01 1.22296028236618e-02 1.35141465653456e-04
1.13535000000000e+01 1.20897932569898e-02 1.34111356328780e-04
1.14405000000000e+01 1.19515820018258e-02 1.33085191215068e-04
1.15275000000000e+01 1.18149507861752e-02 1.32063058919947e-04
1.16145000000000e+01 1.16798815469297e-02 1.31045044346338e-04
1.17015000000000e+01 1.15463564274796e-02 1.30031228801619e-04
1.17885000000000e+01 1.14143577753529e-02 1.29021690103466e-04
1.18755000000000e+01 1.12838681398822e-02 1.28016502682488e-04
1.19625000000000e+01 1.11548702698966e-02 1.27015737681773e-04
1.20495000000000e+01 1.10273471114421e-02 1.26019463053426e-04
1.21365000000000e+01 1.09012818055263e-02 1.25027743652238e-04
1.22235000000000e+01 1.07766576858900e-02 1.24040641326570e-04
1.23105000000000e+01 1.06534582768035e-02 1.23058215006536e-04
1.23975000000000e+01 1.05316672908888e-02 1.22080520789587e-04
1.24845000000000e+01 1.04112686269662e-02 1.21107612023591e-04
1.25715000000000e+01 1.02922463679255e-02 1.20139539387487e-04
1.26585000000000e+01 1.01745847786220e-02 1.19176350969578e-04
1.27455000000000e+01 1.00582683037963e-02 1.18218092343573e-04
1.28325000000000e+01 9.94328156601734e-03 1.17264806642426e-04
1.29195000000000e+01 9.82960936365002e-03 1.16316534630044e-04
1.30065000000000e+01 9.71723666884520e-03 1.15373314770955e-04
1.30935000000000e+01 9.60614862555301e-03 1.14435183297968e-04
1.31805000000000e+01 9.49633054755889e-03 1.13502174277935e-04
1.32675000000000e+01 9.38776791654195e-03 1.12574319675632e-04
1.33545000000000e+01 9.28044638015564e-03 1.11651649415832e-04
1.34415000000000e+01 9.17435175013031e-03 1.10734191443646e-04
1.35285000000000e+01 9.06947000039750e-03 1.09821971783160e-04
1.36155000000000e+01 8.96578726523560e-03 1.08915014594437e-04
1.37025000000000e+01 8.86328983743677e-03 1.08013342228920e-04
1.37895000000000e+01 8.76196416649482e-03 1.07116975283305e-04
1.38765000000000e+01 8.66179685681378e-03 1.06225932651918e-04
1.39635000000000e+01 8.56277466593693e-03 1.05340231577635e-04
1.40505000000000e+01 8.46488450279614e-03 1.04459887701416e-04
1.41375000000000e+01 8.36811342598118e-03 1.03584915110456e-04
1.42245000000000e+01 8.27244864202879e-03 1.02715326385023e-04
1.43115000000000e+01 8.17787750373138e-03 1.01851132644027e-04
1.43985000000000e+01 8.08438750846500e-03 1.00992343589322e-04
1.44855000000000e+01 7.99196629653646e-03 1.00138967548813e-04
1.45725000000000e+01 7.90060164954935e-03 9.92910115183939e-05
1.46595000000000e+01 7.81028148878869e-03 9.84484812027398e-05
1.47465000000000e+01 7.72099387362415e-03 9.76113810550027e-05
1.48335000000000e+01 7.63272699993138e-03 9.67797143154341e-05
1.49205000000000e+01 7.54546919853149e-03 9.59534830489507e-05
1.50075000000000e+01 7.45920893364840e-03 9.51326881817058e-05
1.50945000000000e+01 7.37393480138370e-03 9.43173295366747e-05
1.51815000000000e+01 7.28963552820904e-03 9.35074058682852e-05
1.52685000000000e+01 7.20629996947575e-03 9.27029148961154e-05
1.53555000000000e+01 7.12391710794145e-03 9.19038533376847e-05
1.54425000000000e+01 7.04247605231356e-03 9.11102169403826e-05
1.55295000000000e+01 6.96196603580941e-03 9.03220005125398e-05
1.56165000000000e+01 6.88237641473285e-03 8.95391979536641e-05
1.57035000000000e+01 6.80369666706713e-03 8.87618022838808e-05
1.57905000000000e+01 6.72591639108381e-03 8.79898056725860e-05
1.58775000000000e+01 6.64902530396768e-03 8.72231994663379e-05
1.59645000000000e+01 6.57301324045727e-03 8.64619742160100e-05
1.60515000000000e+01 6.49787015150103e-03 8.57061197032207e-05
1.61385000000000e+01 6.42358610292875e-03 8.49556249660679e-05
1.62255000000000e+01 6.35015127413828e-03 8.42104783241765e-05
1.63125000000000e+01 6.27755595679719e-03 8.34706674030785e-05
1.63995000000000e+01 6.20579055355930e-03 8.27361791579602e-05
1.64865000000000e+01 6.13484557679588e-03 8.20069998967777e-05
1.65735000000000e+01 6.06471164734134e-03 8.12831153027498e-05
1.66605000000000e+01 5.99537949325329e-03 8.05645104562667e-05
1.67475000000000e+01 5.92683994858677e-03 7.98511698562263e-05
1.68345000000000e+01 5.85908395218244e-03 7.91430774407911e-05
1.69215000000000e+01 5.79210254646869e-03 7.84402166076046e-05
1.70085000000000e+01 5.72588687627742e-03 7.77425702334742e-05
1.70955000000000e+01 5.66042818767335e-03 7.70501206935287e-05
1.71825000000000e+01 5.59571782679674e-03 7.63628498798749e-05
1.72695000000000e+01 5.53174723871928e-03 7.56807392197613e-05
1.73565000000000e+01 5.46850796631312e-03 7.50037696932563e-05
1.74435000000000e+01 5.40599164913285e-03 7.43319218504604e-05
1.75305000000000e+01 5.34419002231013e-03 7.36651758282614e-05
1.76175000000000e+01 5.28309491546115e-03 7.30035113666520e-05
1.77045000000000e+01 5.22269825160639e-03 7.23469078246108e-05
1.77915000000000e+01 5.16299204610288e-03 7.16953441955557e-05
1.78785000000000e+01 5.10396840558855e-03 7.10487991223970e-05
1.79655000000000e+01 5.04561952693875e-03 7.04072509121850e-05
1.80525000000000e+01 4.98793769623462e-03 6.97706775503652e-05
1.81395000000000e+01 4.93091528774328e-03 6.91390567146607e-05
1.82265000000000e+01 4.87454476290970e-03 6.85123657885780e-05
1.83135000000000e+01 4.81881866936010e-03 6.78905818745595e-05
1.84005000000000e+01 4.76372963991665e-03 6.72736818067785e-05
1.84875000000000e+01 4.70927039162357e-03 6.66616421635885e-05
1.85745000000000e+01 4.65543372478427e-03 6.60544392796459e-05
1.86615000000000e+01 4.60221252200954e-03 6.54520492577044e-05
1.87485000000000e+01 4.54959974727658e-03 6.48544479800898e-05
1.88355000000000e+01 4.49758844499886e-03 6.42616111198647e-05
1.89225000000000e+01 4.44617173910650e-03 6.36735141516990e-05
1.90095000000000e+01 4.39534283213732e-03 6.30901323624430e-05
1.90965000000000e+01 4.34509500433810e-03 6.25114408614044e-05
1.91835000000000e+01 4.29542161277627e-03 6.19374145903522e-05
1.92705000000000e+01 4.24631609046167e-03 6.13680283332592e-05
1.93575000000000e+01 4.19777194547837e-03 6.08032567257592e-05
1.94445000000000e+01 4.14978276012642e-03 6.02430742643571e-05
1.95315000000000e+01 4.10234219007341e-03 5.96874553153857e-05
1.96185000000000e+01 4.05544396351573e-03 5.91363741237089e-05
1.97055000000000e+01 4.00908188034938e-03 5.85898048211955e-05
1.97925000000000e+01 3.96324981135038e-03 5.80477214349433e-05
1.98795000000000e+01 3.91794169736438e-03 5.75100978952902e-05
1.99665000000000e+01 3.87315154850565e-03 5.69769080435962e-05
2.00535000000000e+01 3.82887344336523e-03 5.64481256398041e-05
2.01405000000000e+01 3.78510152822802e-03 5.59237243697935e-05
2.02275000000000e+01 3.74183001629900e-03 5.54036778525236e-05
2.03145000000000e+01 3.69905318693812e-03 5.48879596469769e-05
2.04015000000000e+01 3.65676538490402e-03 5.43765432589061e-05
2.04885000000000e+01 3.61496101960643e-03 5.38694021473892e-05
2.05755000000000e+01 3.57363456436704e-03 5.33665097311922e-05
2.06625000000000e+01 3.53278055568888e-03 5.28678393949573e-05
2.07495000000000e+01 3.49239359253398e-03 5.23733644952108e-05
2.08365000000000e+01 3.45246833560939e-03 5.18830583661910e-05
2.09235000000000e+01 3.41299950666128e-03 5.13968943255126e-05
2.10105000000000e+01 3.37398188777712e-03 5.09148456796608e-05
2.10975000000000e+01 3.33541032069591e-03 5.04368857293319e-05
2.11845000000000e+01 3.29727970612618e-03 4.99629877746113e-05
2.12715000000000e+01 3.25958500307187e-03 4.94931251199930e-05
2.13585000000000e+01 3.22232122816592e-03 4.90272710792606e-05
2.14455000000000e+01 3.18548345501140e-03 4.85653989802149e-05
2.15325000000000e+01 3.14906681353025e-03 4.81074821692564e-05
2.16195000000000e+01 3.11306648931947e-03 4.76534940158365e-05
2.17065000000000e+01 3.07747772301457e-03 4.72034079167684e-05
2.17935000000000e+01 3.04229580966045e-03 4.67571973004043e-05
2.18805000000000e+01 3.00751609808929e-03 4.63148356306886e-05
2.19675000000000e+01 2.97313399030575e-03 4.58762964110787e-05
2.20545000000000e+01 2.93914494087904e-03 4.54415531883462e-05
2.21415000000000e+01 2.90554445634200e-03 4.50105795562646e-05
2.22285000000000e+01 2.87232809459707e-03 4.45833491591672e-05
2.23155000000000e+01 2.83949146432904e-03 4.41598356953960e-05
2.24025000000000e+01 2.80703022442445e-03 4.37400129206494e-05
2.24895000000000e+01 2.77494008339773e-03 4.33238546512056e-05
2.25765000000000e+01 2.74321679882384e-03 4.29113347670490e-05
2.26635000000000e+01 2.71185617677739e-03 4.25024272148925e-05
2.27505000000000e+01 2.68085407127822e-03 4.20971060110984e-05
2.28375000000000e+01 2.65020638374326e-03 4.16953452445010e-05
2.29245000000000e+01 2.61990906244467e-03 4.12971190791339e-05
2.30115000000000e+01 2.58995810197425e-03 4.09024017568623e-05
2.30985000000000e+01 2.56034954271383e-03 4.05111675999229e-05
2.31855000000000e+01 2.53107947031188e-03 4.01233910133809e-05
2.32725000000000e+01 2.50214401516594e-03 3.97390464874961e-05
2.33595000000000e+01 2.47353935191110e-03 3.93581086000032e-05
2.34465000000000e+01 2.44526169891425e-03 3.89805520183105e-05
2.35335000000000e+01 2.41730731777413e-03 3.86063515016212e-05
2.36205000000000e+01 2.38967251282714e-03 3.82354819029741e-05
2.37075000000000e+01 2.36235363065871e-03 3.78679181712060e-05
2.37945000000000e+01 2.33534705962032e-03 3.75036353528425e-05
2.38815000000000e+01 2.30864922935207e-03 3.71426085939151e-05
2.39685000000000e+01 2.28225661031060e-03 3.67848131417059e-05
2.40555000000000e+01 2.25616571330253e-03 3.64302243464255e-05
2.41425000000000e+01 2.23037308902312e-03 3.60788176628204e-05
2.42295000000000e+01 2.20487532760033e-03 3.57305686517213e-05
2.43165000000000e+01 2.17966905814396e-03 3.53854529815207e-05
2.44035000000000e+01 2.15475094830004e-03 3.50434464295868e-05
2.44905000000000e+01 2.13011770381028e-03 3.47045248836244e-05
2.45775000000000e+01 2.10576606807654e-03 3.43686643429710e-05
2.46645000000000e+01 2.08169282173033e-03 3.40358409198362e-05
2.47515000000000e+01 2.05789478220714e-03 3.37060308404832e-05
2.48385000000000e+01 2.03436880332578e-03 3.33792104463578e-05
2.49255000000000e+01 2.01111177487235e-03 3.30553561951646e-05
2.50125000000000e+01 1.98812062218914e-03 3.27344446618880e-05
2.50995000000000e+01 1.96539230576809e-03 3.24164525397621e-05
2.51865000000000e+01 1.94292382084899e-03 3.21013566411958e-05
2.52735000000000e+01 1.92071219702225e-03 3.17891338986473e-05
2.53605000000000e+01 1.89875449783617e-03 3.14797613654494e-05
2.54475000000000e+01 1.87704782040872e-03 3.11732162165906e-05
2.55345000000000e+01 1.85558929504384e-03 3.08694757494507e-05
2.56215000000000e+01 1.83437608485198e-03 3.05685173844975e-05
2.57085000000000e+01 1.81340538537510e-03 3.02703186659376e-05
2.57955000000000e+01 1.79267442421589e-03 2.99748572623223e-05
2.58825000000000e+01 1.77218046067124e-03 2.96821109671194e-05
2.59695000000000e+01 1.75192078536996e-03 2.93920576992465e-05
2.60565000000000e+01 1.73189271991453e-03 2.91046755035628e-05
2.61435000000000e+01 1.71209361652704e-03 2.88199425513226e-05
2.62305000000000e+01 1.69252085769914e-03 2.85378371405959e-05
2.63175000000000e+01 1.67317185584600e-03 2.82583376966564e-05
2.64045000000000e+01 1.65404405296420e-03 2.79814227723294e-05
2.64915000000000e+01 1.63513492029361e-03 2.77070710483100e-05
2.65785000000000e+01 1.61644195798299e-03 2.74352613334486e-05
2.66655000000000e+01 1.59796269475960e-03 2.71659725650049e-05
2.67525000000000e+01 1.57969468760240e-03 2.68991838088734e-05
2.68395000000000e+01 1.56163552141914e-03 2.66348742597738e-05
2.69265000000000e+01 1.54378280872705e-03 2.63730232414171e-05
2.70135000000000e+01 1.52613418933720e-03 2.61136102066447e-05
2.71005000000000e+01 1.50868733004249e-03 2.58566147375354e-05
2.71875000000000e+01 1.49143992430920e-03 2.56020165454906e-05
2.72745000000000e+01 1.47438969197201e-03 2.53497954712907e-05
2.73615000000000e+01 1.45753437893261e-03 2.50999314851266e-05
2.74485000000000e+01 1.44087175686169e-03 2.48524046866093e-05
