Energy (eV)          EEDF (eV^-(3/2))     First Anisotropy
8.79545454545455e-03 9.44168897315883e-01 7.44265204010950e-04
2.63863636363636e-02 9.29457931912110e-01 1.22353228158073e-03
4.39772727272727e-02 9.14976176031787e-01 1.60079817658075e-03
6.15681818181818e-02 9.00720058395219e-01 1.87879454895133e-03
7.91590909090909e-02 8.86686063362598e-01 2.10362508602438e-03
9.67500000000000e-02 8.72870730071872e-01 2.29295561353291e-03
1.14340909090909e-01 8.59270651527207e-01 2.45604472523079e-03
1.31931818181818e-01 8.45882473952980e-01 2.59855236454108e-03
1.49522727272727e-01 8.32702895742993e-01 2.72427744255018e-03
1.67113636363636e-01 8.19728666735262e-01 2.83593646347799e-03
1.84704545454545e-01 8.06956587409450e-01 2.93556333235898e-03
2.02295454545455e-01 7.94383508097313e-01 3.02473509290501e-03
2.19886363636364e-01 7.82006328205021e-01 3.10470868831892e-03
2.37477272727273e-01 7.69821995449881e-01 3.17650846452007e-03
2.55068181818182e-01 7.57827505106567e-01 3.24098465517589e-03
2.72659090909091e-01 7.46019899266098e-01 3.29885389555445e-03
2.90250000000000e-01 7.34396266106365e-01 3.35072814223598e-03
3.07840909090909e-01 7.22953739137011e-01 3.39713583594364e-03
3.25431818181818e-01 7.11689496607039e-01 3.43853774949262e-03
3.43022727272727e-01 7.00600760690584e-01 3.47533907617022e-03
3.60613636363636e-01 6.89684796842799e-01 3.50789879228569e-03
3.78204545454545e-01 6.78938913125479e-01 3.53653703649350e-03
3.95795454545455e-01 6.68360459543200e-01 3.56154099354027e-03
4.13386363636364e-01 6.57946827389654e-01 3.58316964351520e-03
4.30977272727273e-01 6.47695448604645e-01 3.60165763684933e-03
4.48568181818182e-01 6.37603795140598e-01 3.61721848703416e-03
4.66159090909091e-01 6.27669378339126e-01 3.63004722468122e-03
4.83750000000000e-01 6.17889748317304e-01 3.64032262366082e-03
5.01340909090909e-01 6.08262493344600e-01 3.64820907422395e-03
5.18931818181818e-01 5.98785239306191e-01 3.65385818378140e-03
5.36522727272727e-01 5.89455649058005e-01 3.65741014737133e-03
5.54113636363636e-01 5.80271421870712e-01 3.65899491887868e-03
5.71704545454545e-01 5.71230292862347e-01 3.65873323161083e-03
5.89295454545455e-01 5.62330032439772e-01 3.65673748476802e-03
6.06886363636364e-01 5.53568445748792e-01 3.65311251857300e-03
6.24477272727273e-01 5.44943372133008e-01 3.64795629515571e-03
6.42068181818182e-01 5.36452684600921e-01 3.64136049921071e-03
6.59659090909091e-01 5.28094289301403e-01 3.63341106998214e-03
6.77250000000000e-01 5.19866125007337e-01 3.62418867546084e-03
6.94840909090909e-01 5.11766162595881e-01 3.61376913064806e-03
7.12431818181818e-01 5.03792404583036e-01 3.60222377788476e-03
7.30022727272727e-01 4.95942884595379e-01 3.58961982872640e-03
7.47613636363636e-01 4.88215666897284e-01 3.57602066567788e-03
7.65204545454545e-01 4.80608845913563e-01 3.56148611965894e-03
7.82795454545455e-01 4.73120545759540e-01 3.54607272015598e-03
8.00386363636364e-01 4.65748919778416e-01 3.52983392240960e-03
8.17977272727273e-01 4.58492150085932e-01 3.51282031427062e-03
8.35568181818182e-01 4.51348447122038e-01 3.49507980498773e-03
8.53159090909091e-01 4.44316049209577e-01 3.47665779787491e-03
8.70750000000000e-01 4.37393222119844e-01 3.45759734949662e-03
8.88340909090909e-01 4.30578258637413e-01 3.43793931226573e-03
9.05931818181818e-01 4.23869478162034e-01 3.41772247010269e-03
9.23522727272727e-01 4.17265226270865e-01 3.39698366369548e-03
9.41113636363636e-01 4.10763874318401e-01 3.37575790152036e-03
9.58704545454545e-01 4.04363819034840e-01 3.35407846623476e-03
9.76295454545455e-01 3.98063482130712e-01 3.33197701236417e-03
9.93886363636364e-01 3.91861309907641e-01 3.30948365851472e-03
1.01147727272727e+00 3.85755772863300e-01 3.28662706770416e-03
1.02906818181818e+00 3.79745365344813e-01 3.26343452743898e-03
1.04665909090909e+00 3.73828605152483e-01 3.23993202612495e-03
1.06425000000000e+00 3.68004033180541e-01 3.21614431106053e-03
1.08184090909091e+00 3.62270213109188e-01 3.19209497421421e-03
1.09943181818182e+00 3.56625730892461e-01 3.16780649770947e-03
1.11702272727273e+00 3.51069194569875e-01 3.14330029515853e-03
1.13461363636364e+00 3.45599233868870e-01 3.11859678623122e-03
1.15220454545455e+00 3.40214499866899e-01 3.09371543845050e-03
1.16979545454545e+00 3.34913664658775e-01 3.06867481350350e-03
1.18738636363636e+00 3.29695421029119e-01 3.04349261077575e-03
1.20497727272727e+00 3.24558482130172e-01 3.01818570837494e-03
1.22256818181818e+00 3.19501581164364e-01 2.99277020182727e-03
1.24015909090909e+00 3.14523471071907e-01 2.96726144054772e-03
1.25775000000000e+00 3.09622924223269e-01 2.94167405690424e-03
1.27534090909091e+00 3.04798732153395e-01 2.91602201513807e-03
1.29293181818182e+00 3.00049705151218e-01 2.89031863116107e-03
1.31052272727273e+00 2.95374672080384e-01 2.86457659039890e-03
1.32811363636364e+00 2.90772480051846e-01 2.83880799251028e-03
1.34570454545455e+00 2.86241994139549e-01 2.81302437178942e-03
1.36329545454545e+00 2.81782097100558e-01 2.78723672200495e-03
1.38088636363636e+00 2.77391689099481e-01 2.76145551995260e-03
1.39847727272727e+00 2.73069687437361e-01 2.73569074784327e-03
1.41606818181818e+00 2.68815026284616e-01 2.70995191459910e-03
1.43365909090909e+00 2.64626656418201e-01 2.68424807607953e-03
1.45125000000000e+00 2.60503544962862e-01 2.65858785011488e-03
1.46884090909091e+00 2.56444675163396e-01 2.63297944765414e-03
1.48643181818182e+00 2.52449046051880e-01 2.60743068161771e-03
1.50402272727273e+00 2.48515672284015e-01 2.58194897468101e-03
1.52161363636364e+00 2.44643583868009e-01 2.55654138854221e-03
1.53920454545455e+00 2.40831825925370e-01 2.53121463454328e-03
1.55679545454545e+00 2.37079458455432e-01 2.50597508812725e-03
1.57438636363636e+00 2.33385556103509e-01 2.48082880262644e-03
1.59197727272727e+00 2.29749207932770e-01 2.45578152244597e-03
1.60956818181818e+00 2.26169517199563e-01 2.43083869567521e-03
1.62715909090909e+00 2.22645601132266e-01 2.40600548612747e-03
1.64475000000000e+00 2.19176590713599e-01 2.38128678152499e-03
1.66234090909091e+00 2.15761630486347e-01 2.35668721465173e-03
1.67993181818182e+00 2.12399878281494e-01 2.33221116710302e-03
1.69752272727273e+00 2.09090505072276e-01 2.30786277238490e-03
1.71511363636364e+00 2.05832694748880e-01 2.28364593617874e-03
1.73270454545455e+00 2.02625643917181e-01 2.25956434204258e-03
1.75029545454545e+00 1.99468561700623e-01 2.23562146030268e-03
1.76788636363636e+00 1.96360669545163e-01 2.21182055656583e-03
1.78547727272727e+00 1.93301201027322e-01 2.18816469989121e-03
1.80306818181818e+00 1.90289401665155e-01 2.16465677063786e-03
1.82065909090909e+00 1.87324528732195e-01 2.14129946798204e-03
1.83825000000000e+00 1.84405851074288e-01 2.11809531448074e-03
1.85584090909091e+00 1.81532648944380e-01 2.09504667106345e-03
1.87343181818182e+00 1.78704213779157e-01 2.07215573827575e-03
1.89102272727273e+00 1.75919848070788e-01 2.04942455709633e-03
1.90861363636364e+00 1.73178865179209e-01 2.02685502350318e-03
1.92620454545455e+00 1.70480589162799e-01 2.00444889153366e-03
1.94379545454545e+00 1.67824354611687e-01 1.98220777895967e-03
1.96138636363636e+00 1.65209506483643e-01 1.96013317273432e-03
1.97897727272727e+00 1.62635399942574e-01 1.93822643423480e-03
1.99656818181818e+00 1.60101400199487e-01 1.91648880431056e-03
2.01415909090909e+00 1.57606882355948e-01 1.89492140812944e-03
2.03175000000000e+00 1.55151231249974e-01 1.87352525771710e-03
2.04934090909091e+00 1.52733841315827e-01 1.85230126289684e-03
2.06693181818182e+00 1.50354116399758e-01 1.83125023127877e-03
2.08452272727273e+00 1.48011469648366e-01 1.81037286795409e-03
2.10211363636364e+00 1.45705323351930e-01 1.78966978623862e-03
2.11970454545455e+00 1.43435108801943e-01 1.76914150925150e-03
2.13729545454545e+00 1.41200266150863e-01 1.74878847362673e-03
2.15488636363636e+00 1.39000244274044e-01 1.72861103308058e-03
2.17247727272727e+00 1.36834500633847e-01 1.70860946185170e-03
2.19006818181818e+00 1.34702501145836e-01 1.68878395801893e-03
2.20765909090909e+00 1.32603720047067e-01 1.66913464669034e-03
2.22525000000000e+00 1.30537639766437e-01 1.64966158136846e-03
2.24284090909091e+00 1.28503750805875e-01 1.63036475209893e-03
2.26043181818182e+00 1.26501551587869e-01 1.61124408484405e-03
2.27802272727273e+00 1.24530548358951e-01 1.59229944064402e-03
2.29561363636364e+00 1.22590255058752e-01 1.57353062368726e-03
2.31320454545455e+00 1.20680193200144e-01 1.55493738203670e-03
2.33079545454545e+00 1.18799891751238e-01 1.53651941009285e-03
2.34838636363636e+00 1.16948887019220e-01 1.51827635096328e-03
2.36597727272727e+00 1.15126722536016e-01 1.50020779874957e-03
2.38356818181818e+00 1.13332948945717e-01 1.48231330075504e-03
2.40115909090909e+00 1.11567123893766e-01 1.46459235960805e-03
2.41875000000000e+00 1.09828811917869e-01 1.44704443393095e-03
2.43634090909091e+00 1.08117584347447e-01 1.42966894450040e-03
2.45393181818182e+00 1.06433019177154e-01 1.41246527334283e-03
2.47152272727273e+00 1.04774700983839e-01 1.39543276267320e-03
2.48911363636364e+00 1.03142220817001e-01 1.37857072103827e-03
2.50670454545455e+00 1.01535176097941e-01 1.36187842354768e-03
2.52429545454545e+00 9.99531705204781e-02 1.34535511351956e-03
2.54188636363636e+00 9.83958139532209e-02 1.32900000406380e-03
2.55947727272727e+00 9.68627223433643e-02 1.31281227961064e-03
2.57706818181818e+00 9.53535176219767e-02 1.29679109738674e-03
2.59465909090909e+00 9.38678276107652e-02 1.28093558883447e-03
2.61225000000000e+00 9.24052859302952e-02 1.26524485986451e-03
2.62984090909091e+00 9.09655319149654e-02 1.24971799556453e-03
2.64743181818182e+00 8.95482105078876e-02 1.23435405919842e-03
2.66502272727273e+00 8.81529721897080e-02 1.21915209108763e-03
2.68261363636364e+00 8.67794728868850e-02 1.20411111333418e-03
2.70020454545455e+00 8.54273738868385e-02 1.18923012976612e-03
2.71779545454545e+00 8.40963417544218e-02 1.17450812703655e-03
2.73538636363636e+00 8.27860482496905e-02 1.15994407568008e-03
2.75297727272727e+00 8.14961702469649e-02 1.14553693113246e-03
2.77056818181818e+00 8.02263896551416e-02 1.13128563471491e-03
2.78815909090909e+00 7.89763933392501e-02 1.11718911457979e-03
2.80575000000000e+00 7.77458730432318e-02 1.10324628571546e-03
2.82334090909091e+00 7.65345253180967e-02 1.08945605357571e-03
2.84093181818182e+00 7.53420514344164e-02 1.07581731308040e-03
2.85852272727273e+00 7.41681573214868e-02 1.06232894752588e-03
2.87611363636364e+00 7.30125534904783e-02 1.04898983224399e-03
2.89370454545455e+00 7.18749549630462e-02 1.03579883438810e-03
2.91129545454545e+00 7.07550812010536e-02 1.02275481366090e-03
2.92888636363636e+00 6.96526560373859e-02 1.00985662301266e-03
2.94647727272727e+00 6.85674076078533e-02 9.97103109314846e-04
2.96406818181818e+00 6.74990682841436e-02 9.84493114009565e-04
2.98165909090909e+00 6.64473746078241e-02 9.72025473732071e-04
2.99925000000000e+00 6.54120672253711e-02 9.59699020172474e-04
3.01684090909091e+00 6.43928908274975e-02 9.47512582891041e-04
3.03443181818182e+00 6.33895940762160e-02 9.35464988371162e-04
3.05202272727273e+00 6.24019295529559e-02 9.23555059002636e-04
3.06961363636364e+00 6.14296536941407e-02 9.11781615932879e-04
3.08720454545455e+00 6.04725267311238e-02 9.00143478770459e-04
3.10479545454545e+00 5.95303126310607e-02 8.88639466058435e-04
3.12238636363636e+00 5.86027790386993e-02 8.77268395727249e-04
3.13997727272727e+00 5.76896972190846e-02 8.66029085530685e-04
3.15756818181818e+00 5.67908420011490e-02 8.54920353465239e-04
3.17515909090909e+00 5.59059917221839e-02 8.43941018171012e-04
3.19275000000000e+00 5.50349281731767e-02 8.33089898714965e-04
3.21034090909091e+00 5.41774365475958e-02 8.22365816785781e-04
3.22793181818182e+00 5.33333053805334e-02 8.11767595823404e-04
3.24552272727273e+00 5.25023265045379e-02 8.01294060094352e-04
3.26311363636364e+00 5.16842949955857e-02 7.90944036924083e-04
3.28070454545455e+00 5.08790091225459e-02 7.80716356364893e-04
3.29829545454545e+00 5.00862702974319e-02 7.70609851493987e-04
3.31588636363636e+00 4.93058830264276e-02 7.60623358697422e-04
3.33347727272727e+00 4.85376548616803e-02 7.50755717942373e-04
3.35106818181818e+00 4.77813963538404e-02 7.41005773038155e-04
3.36865909090909e+00 4.70369210053424e-02 7.31372371884308e-04
3.38625000000000e+00 4.63040452244133e-02 7.21854366216168e-04
3.40384090909091e+00 4.55825882818585e-02 7.12450613322647e-04
3.42143181818182e+00 4.48723722602375e-02 7.03159975261925e-04
3.43902272727273e+00 4.41732220163192e-02 6.93981318034535e-04
3.45661363636364e+00 4.34849651357550e-02 6.84913513337367e-04
3.47420454545455e+00 4.28074318905599e-02 6.75955438224683e-04
3.49179545454545e+00 4.21404551972573e-02 6.67105975285538e-04
3.50938636363636e+00 4.14838705756736e-02 6.58364012811382e-04
3.52697727272727e+00 4.08375161083791e-02 6.49728444955722e-04
3.54456818181818e+00 4.02012324007572e-02 6.41198171886092e-04
3.56215909090909e+00 3.95748625416964e-02 6.32772099927087e-04
3.57975000000000e+00 3.89582520648957e-02 6.24449141293678e-04
3.59734090909091e+00 3.83512489124118e-02 6.16228215439786e-04
3.61493181818182e+00 3.77537033921828e-02 6.08108248360852e-04
3.63252272727273e+00 3.71654681461508e-02 6.00088171862905e-04
3.65011363636364e+00 3.65863981122234e-02 5.92166924944869e-04
3.66770454545455e+00 3.60163504885007e-02 5.84343453469457e-04
3.68529545454545e+00 3.54551846980589e-02 5.76616710257938e-04
3.70288636363636e+00 3.49027623542831e-02 5.68985655178093e-04
3.72047727272727e+00 3.43589472267418e-02 5.61449255226789e-04
3.73806818181818e+00 3.38236052075910e-02 5.54006484607482e-04
3.75565909090909e+00 3.32966042785022e-02 5.46656324801445e-04
3.77325000000000e+00 3.27778144781063e-02 5.39397764304259e-04
3.79084090909091e+00 3.22671078712534e-02 5.32229799687246e-04
3.80843181818182e+00 3.17643585134893e-02 5.25151434983178e-04
3.82602272727273e+00 3.12694424240180e-02 5.18161681045331e-04
3.84361363636364e+00 3.07822375537713e-02 5.11259556639538e-04
3.86120454545455e+00 3.03026237553103e-02 5.04444088134624e-04
3.87879545454545e+00 2.98304827531969e-02 4.97714309541036e-04
3.89638636363636e+00 2.93656981148253e-02 4.91069262544894e-04
3.91397727272727e+00 2.89081552217105e-02 4.84507996538446e-04
3.93156818181818e+00 2.84577412412226e-02 4.78029568647188e-04
3.94915909090909e+00 2.80143450987608e-02 4.71633043752740e-04
3.96675000000000e+00 2.75778574503626e-02 4.65317494241760e-04
3.98434090909091e+00 2.71481706567861e-02 4.59082000842892e-04
4.00193181818182e+00 2.67251787537857e-02 4.52925652089476e-04
4.01952272727273e+00 2.63087774291984e-02 4.46847543761065e-04
4.03711363636364e+00 2.58988639961345e-02 4.40846779747679e-04
4.05470454545455e+00 2.54953373676544e-02 4.34922471764707e-04
4.07229545454545e+00 2.50980980318403e-02 4.29073739354201e-04
4.08988636363636e+00 2.47070480272550e-02 4.23299709883070e-04
4.10747727272727e+00 2.43220909187855e-02 4.17599518538971e-04
4.12506818181818e+00 2.39431317738608e-02 4.11972308324077e-04
4.14265909090909e+00 2.35700771390411e-02 4.06417230046000e-04
4.16025000000000e+00 2.32028350169719e-02 4.00933442084257e-04
4.17784090909091e+00 2.28413148445372e-02 3.95520111051199e-04
4.19543181818182e+00 2.24854274679747e-02 3.90176411324509e-04
4.21302272727273e+00 2.21350851234719e-02 3.84901524562810e-04
4.23061363636364e+00 2.17902014146518e-02 3.79694640390673e-04
4.24820454545455e+00 2.14506912912674e-02 3.74554956139967e-04
4.26579545454545e+00 2.11164710282280e-02 3.69481676826966e-04
4.28338636363636e+00 2.07874582049512e-02 3.64474015127426e-04
4.30097727272727e+00 2.04635716850390e-02 3.59531191350292e-04
4.31856818181818e+00 2.01447315962679e-02 3.54652433410076e-04
4.33615909090909e+00 1.98308593108929e-02 3.49836976797420e-04
4.35375000000000e+00 1.95218774262567e-02 3.45084064365506e-04
4.37134090909091e+00 1.92177097463780e-02 3.40392946852529e-04
4.38893181818182e+00 1.89182812611100e-02 3.35762882476615e-04
4.40652272727273e+00 1.86235181297173e-02 3.31193136517196e-04
4.42411363636364e+00 1.83333476619669e-02 3.26682981858605e-04
4.44170454545455e+00 1.80476983002022e-02 3.22231698757980e-04
4.45929545454545e+00 1.77664996016966e-02 3.17838574807423e-04
4.47688636363636e+00 1.74896822212814e-02 3.13502904894920e-04
4.49447727272727e+00 1.72171778942457e-02 3.09223991164504e-04
4.51206818181818e+00 1.69489194195017e-02 3.05001142975676e-04
4.52965909090909e+00 1.66848406430124e-02 3.00833676861731e-04
4.54725000000000e+00 1.64248764414774e-02 2.96720916336780e-04
4.56484090909091e+00 1.61689627068183e-02 2.92662192309134e-04
4.58243181818182e+00 1.59170363287162e-02 2.88656842731423e-04
4.60002272727273e+00 1.56690351807204e-02 2.84704212239826e-04
4.61761363636364e+00 1.54248981043638e-02 2.80803652585859e-04
4.63520454545455e+00 1.51845648940808e-02 2.76954522429811e-04
4.65279545454545e+00 1.49479762823607e-02 2.73156187294455e-04
4.67038636363636e+00 1.47150739251308e-02 2.69408019518059e-04
4.68797727272727e+00 1.44858003873702e-02 2.65709398207013e-04
4.70556818181818e+00 1.42600991289447e-02 2.62059709188168e-04
4.72315909090909e+00 1.40379144906642e-02 2.58458344960540e-04
4.74075000000000e+00 1.38191916805566e-02 2.54904704522629e-04
4.75834090909091e+00 1.36038767607957e-02 2.51398193699681e-04
4.77593181818182e+00 1.33919166330655e-02 2.47938224842183e-04
4.79352272727273e+00 1.31832590268157e-02 2.44524216515746e-04
4.81111363636364e+00 1.29778524859160e-02 2.41155593844252e-04
4.82870454545455e+00 1.27756463559670e-02 2.37831788327253e-04
4.84629545454545e+00 1.25765907718083e-02 2.34552237789720e-04
4.86388636363636e+00 1.23806366452217e-02 2.31316386331384e-04
4.88147727272727e+00 1.21877356528259e-02 2.28123684276035e-04
4.89906818181818e+00 1.19978402241593e-02 2.24973588120808e-04
4.91665909090909e+00 1.18109035299492e-02 2.21865560485133e-04
4.93425000000000e+00 1.16268794705632e-02 2.18799069957359e-04
4.95184090909091e+00 1.14457226649964e-02 2.15773591353874e-04
4.96943181818182e+00 1.12673884386017e-02 2.12788605459902e-04
4.98702272727273e+00 1.10918328131634e-02 2.09843598763370e-04
5.00461363636364e+00 1.09190124956844e-02 2.06938063727756e-04
5.02220454545455e+00 1.07488848677097e-02 2.04071498631530e-04
5.03979545454545e+00 1.05814079748168e-02 2.01243407516908e-04
5.05738636363636e+00 1.04165405162688e-02 1.98453300138510e-04
5.07497727272727e+00 1.02542418348300e-02 1.95700691912125e-04
5.09256818181818e+00 1.00944719067396e-02 1.92985103863649e-04
5.11015909090909e+00 9.93719133184155e-03 1.90306062577941e-04
5.12775000000000e+00 9.78236132386789e-03 1.87663100063367e-04
5.14534090909091e+00 9.62994370116201e-03 1.85055753956958e-04
5.16293181818182e+00 9.47990087638963e-03 1.82483567301994e-04
5.18052272727273e+00 9.33219584815265e-03 1.79946088319965e-04
5.19811363636364e+00 9.18679219156660e-03 1.77442870627548e-04
5.21570454545455e+00 9.04365404927812e-03 1.74973473096056e-04
5.23329545454545e+00 8.90274612262226e-03 1.72537459801230e-04
5.25088636363636e+00 8.76403366291757e-03 1.70134399973096e-04
5.26847727272727e+00 8.62748246289711e-03 1.67763867946086e-04
5.28606818181818e+00 8.49305884827264e-03 1.65425443109408e-04
5.30365909090909e+00 8.36072966943032e-03 1.63118709857512e-04
5.32125000000000e+00 8.23046229325585e-03 1.60843257471039e-04
5.33884090909091e+00 8.10222459532022e-03 1.58598680279238e-04
5.35643181818182e+00 7.97598495124989e-03 1.56384577469360e-04
5.37402272727273e+00 7.85171222964393e-03 1.54200552891540e-04
5.39161363636364e+00 7.72937578415544e-03 1.52046215231343e-04
5.40920454545455e+00 7.60894544593402e-03 1.49921177887152e-04
5.42679545454545e+00 7.49039151618593e-03 1.47825058922294e-04
5.44438636363636e+00 7.37368475885014e-03 1.45757481017338e-04
5.46197727272727e+00 7.25879639338872e-03 1.43718071422712e-04
5.47956818181818e+00 7.14569808768932e-03 1.41706461911647e-04
5.49715909090909e+00 7.03436195107830e-03 1.39722288733316e-04
5.51475000000000e+00 6.92476052744274e-03 1.37765192508627e-04
5.53234090909091e+00 6.81686678864899e-03 1.35834818358729e-04
5.54993181818182e+00 6.71065412730279e-03 1.33930815741878e-04
