Energy (eV)          EEDF (eV^-(3/2))     First Anisotropy
3.38571428571429e-02 6.24124975807149e-02 3.94882024165351e-05
1.01571428571429e-01 6.17999542395910e-02 6.51051353981704e-05
1.69285714285714e-01 6.11934226660010e-02 8.56787138057002e-05
2.37000000000000e-01 6.05928438554749e-02 1.01146810447822e-04
3.04714285714286e-01 5.99981593853522e-02 1.13914179249603e-04
3.72428571428571e-01 5.94093114062525e-02 1.24894017127655e-04
4.40142857142857e-01 5.88262426380410e-02 1.34560874425326e-04
5.07857142857143e-01 5.82488963594380e-02 1.43202482234340e-04
5.75571428571429e-01 5.76772164074782e-02 1.51010432274590e-04
6.43285714285714e-01 5.71111471713975e-02 1.58120673771409e-04
7.11000000000000e-01 5.65506335842449e-02 1.64634237781408e-04
7.78714285714286e-01 5.59956211205034e-02 1.70628900120922e-04
8.46428571428571e-01 5.54460557897891e-02 1.76166224327439e-04
9.14142857142857e-01 5.49018841322399e-02 1.81296053149278e-04
9.81857142857143e-01 5.43630532113683e-02 1.86059500665590e-04
1.04957142857143e+00 5.38295106086821e-02 1.90491017074352e-04
1.11728571428571e+00 5.33012044276909e-02 1.94619859716128e-04
1.18500000000000e+00 5.27780832708630e-02 1.98471164266172e-04
1.25271428571429e+00 5.22600962546301e-02 2.02066744358323e-04
1.32042857142857e+00 5.17471929860614e-02 2.05425699462942e-04
1.38814285714286e+00 5.12393235749185e-02 2.08564884292740e-04
1.45585714285714e+00 5.07364386130797e-02 2.11499277636374e-04
1.52357142857143e+00 5.02384891810617e-02 2.14242273500826e-04
1.59128571428571e+00 4.97454268428076e-02 2.16805918697885e-04
1.65900000000000e+00 4.92572036310407e-02 2.19201102771342e-04
1.72671428571429e+00 4.87737720554498e-02 2.21437715270359e-04
1.79442857142857e+00 4.82950850859917e-02 2.23524775913366e-04
1.86214285714286e+00 4.78210961596929e-02 2.25470543013509e-04
1.92985714285714e+00 4.73517591653784e-02 2.27282605176161e-04
1.99757142857143e+00 4.68870284470082e-02 2.28967957373216e-04
2.06528571428571e+00 4.64268587989683e-02 2.30533068621456e-04
2.13300000000000e+00 4.59712054546463e-02 2.31983937343136e-04
2.20071428571429e+00 4.55200240912270e-02 2.33326140283004e-04
2.26842857142857e+00 4.50732708166761e-02 2.34564874808767e-04
2.33614285714286e+00 4.46309021737620e-02 2.35704995571508e-04
2.40385714285714e+00 4.41928751279195e-02 2.36751046972073e-04
2.47157142857143e+00 4.37591470688573e-02 2.37707290364840e-04
2.53928571428571e+00 4.33296758062350e-02 2.38577730444440e-04
2.60700000000000e+00 4.29044195602792e-02 2.39366136335384e-04
2.67471428571429e+00 4.24833369646232e-02 2.40076061358368e-04
2.74242857142857e+00 4.20663870556653e-02 2.40710860558024e-04
2.81014285714286e+00 4.16535292749323e-02 2.41273706244670e-04
2.87785714285714e+00 4.12447234590387e-02 2.41767602264505e-04
2.94557142857143e+00 4.08399298402621e-02 2.42195395720046e-04
3.01328571428571e+00 4.04391090425481e-02 2.42559789597264e-04
3.08100000000000e+00 4.00422220735554e-02 2.42863352225800e-04
3.14871428571429e+00 3.96492303262708e-02 2.43108526755211e-04
3.21642857142857e+00 3.92600955700433e-02 2.43297639677857e-04
3.28414285714286e+00 3.88747799518881e-02 2.43432908486111e-04
3.35185714285714e+00 3.84932459879586e-02 2.43516448940143e-04
3.41957142857143e+00 3.81154565634736e-02 2.43550280753784e-04
3.48728571428571e+00 3.77413749290112e-02 2.43536334590578e-04
3.55500000000000e+00 3.73709646936249e-02 2.43476456778709e-04
3.62271428571429e+00 3.70041898256519e-02 2.43372414439558e-04
3.69042857142857e+00 3.66410146450027e-02 2.43225900130504e-04
3.75814285714286e+00 3.62814038237589e-02 2.43038536044071e-04
3.82585714285714e+00 3.59253223787979e-02 2.42811878129096e-04
3.89357142857143e+00 3.55727356713007e-02 2.42547419068986e-04
3.96128571428571e+00 3.52236094033076e-02 2.42246592608078e-04
4.02900000000000e+00 3.48779096116732e-02 2.41910776066822e-04
4.09671428571429e+00 3.45356026683279e-02 2.41541293380891e-04
4.16442857142857e+00 3.41966552735485e-02 2.41139417854230e-04
4.23214285714286e+00 3.38610344560738e-02 2.40706374653890e-04
4.29985714285714e+00 3.35287075666414e-02 2.40243343346390e-04
4.36757142857143e+00 3.31996422772210e-02 2.39751459532402e-04
4.43528571428571e+00 3.28738065778108e-02 2.39231817757072e-04
4.50300000000000e+00 3.25511687710722e-02 2.38685472906893e-04
4.57071428571429e+00 3.22316974722130e-02 2.38113442142117e-04
4.63842857142857e+00 3.19153616030507e-02 2.37516706639948e-04
4.70614285714286e+00 3.16021303917932e-02 2.36896213171505e-04
4.77385714285714e+00 3.12919733673182e-02 2.36252875766646e-04
4.84157142857143e+00 3.09848603582299e-02 2.35587576630599e-04
4.90928571428571e+00 3.06807614898760e-02 2.34901168233064e-04
4.97700000000000e+00 3.03796471795476e-02 2.34194474096348e-04
5.04471428571429e+00 3.00814881360996e-02 2.33468290094954e-04
5.11242857142857e+00 2.97862553546691e-02 2.32723385618387e-04
5.18014285714286e+00 2.94939201162227e-02 2.31960504618092e-04
5.24785714285714e+00 2.92044539824545e-02 2.31180366758135e-04
5.31557142857143e+00 2.89178287947323e-02 2.30383667926327e-04
5.38328571428571e+00 2.86340166713184e-02 2.29571081810932e-04
5.45100000000000e+00 2.83529900030487e-02 2.28743260340132e-04
5.51871428571429e+00 2.80747214527709e-02 2.27900834596646e-04
5.58642857142857e+00 2.77991839506139e-02 2.27044415626729e-04
5.65414285714286e+00 2.75263506933745e-02 2.26174595163372e-04
5.72185714285714e+00 2.72561951399398e-02 2.25291946455755e-04
5.78957142857143e+00 2.69886910101675e-02 2.24397024541841e-04
5.85728571428571e+00 2.67238122822972e-02 2.23490367485340e-04
5.92500000000000e+00 2.64615331890410e-02 2.22572496607805e-04
5.99271428571429e+00 2.62018282168970e-02 2.21643917156758e-04
6.06042857142857e+00 2.59446721018905e-02 2.20705118888348e-04
6.12814285714286e+00 2.56900398288515e-02 2.19756576583398e-04
6.19585714285714e+00 2.54379066272864e-02 2.18798750666263e-04
6.26357142857143e+00 2.51882479702275e-02 2.17832087333069e-04
6.33128571428571e+00 2.49410395718193e-02 2.16857019551606e-04
6.39900000000000e+00 2.46962573837683e-02 2.15873967166817e-04
6.46671428571429e+00 2.44538775945734e-02 2.14883337404180e-04
6.53442857142857e+00 2.42138766256753e-02 2.13885525301521e-04
6.60214285714286e+00 2.39762311306630e-02 2.12880914087295e-04
6.66985714285714e+00 2.37409179915355e-02 2.11869875655683e-04
6.73757142857143e+00 2.35079143175435e-02 2.10852770605766e-04
6.80528571428571e+00 2.32771974429394e-02 2.09829949068876e-04
6.87300000000000e+00 2.30487449237413e-02 2.08801750735565e-04
6.94071428571429e+00 2.28225345369133e-02 2.07768505244675e-04
7.00842857142857e+00 2.25985442768696e-02 2.06730532511140e-04
7.07614285714286e+00 2.23767523546389e-02 2.05688143009580e-04
7.14385714285714e+00 2.21571371944682e-02 2.04641638147750e-04
7.21157142857143e+00 2.19396774326732e-02 2.03591310250438e-04
7.27928571428571e+00 2.17243519155396e-02 2.02537443256591e-04
7.34700000000000e+00 2.15111396963675e-02 2.01480312697296e-04
7.41471428571429e+00 2.13000200346222e-02 2.00420186003087e-04
7.48242857142857e+00 2.10909723927526e-02 1.99357322757787e-04
7.55014285714286e+00 2.08839764353331e-02 1.98291974915193e-04
7.61785714285714e+00 2.06790120259695e-02 1.97224387098535e-04
7.68557142857143e+00 2.04760592261700e-02 1.96154796550146e-04
7.75328571428571e+00 2.02750982933890e-02 1.95083433727368e-04
7.82100000000000e+00 2.00761096783192e-02 1.94010522250192e-04
7.88871428571429e+00 1.98790740240317e-02 1.92936279148424e-04
7.95642857142857e+00 1.96839721630723e-02 1.91860915061640e-04
8.02414285714286e+00 1.94907851165969e-02 1.90784634407405e-04
8.09185714285714e+00 1.92994940915459e-02 1.89707635625408e-04
8.15957142857143e+00 1.91100804795443e-02 1.88630111106421e-04
8.22728571428571e+00 1.89225258550772e-02 1.87552247707565e-04
8.29500000000000e+00 1.87368119730058e-02 1.86474226681615e-04
8.36271428571429e+00 1.85529207677079e-02 1.85396223878819e-04
8.43042857142857e+00 1.83708343504231e-02 1.84318409906764e-04
8.49814285714286e+00 1.81905350083925e-02 1.83240950262696e-04
8.56585714285714e+00 1.80120052022730e-02 1.82164005535358e-04
8.63357142857143e+00 1.78352275650732e-02 1.81087731322091e-04
8.70128571428571e+00 1.76601849004510e-02 1.80012278678394e-04
8.76900000000000e+00 1.74868601804312e-02 1.78937794036799e-04
8.83671428571428e+00 1.73152365445562e-02 1.77864419373816e-04
8.90442857142857e+00 1.71452972974542e-02 1.76792292339315e-04
8.97214285714286e+00 1.69770259079916e-02 1.75721546361847e-04
9.03985714285714e+00 1.68104060069035e-02 1.74652310817458e-04
9.10757142857143e+00 1.66454213857677e-02 1.73584710940704e-04
9.17528571428571e+00 1.64820559954178e-02 1.72518868219837e-04
9.24300000000000e+00 1.63202939438418e-02 1.71454900310417e-04
9.31071428571429e+00 1.61601194953509e-02 1.70392921174948e-04
9.37842857142857e+00 1.60015170683480e-02 1.69333041188698e-04
9.44614285714286e+00 1.58444712344992e-02 1.68275367224326e-04
9.51385714285714e+00 1.56889667165586e-02 1.67220002794549e-04
9.58157142857143e+00 1.55349883873845e-02 1.66167047960866e-04
9.64928571428571e+00 1.53825212684580e-02 1.65116599683048e-04
9.71700000000000e+00 1.52315505279477e-02 1.64068751730947e-04
9.78471428571429e+00 1.50820614799008e-02 1.63023594802399e-04
9.85242857142857e+00 1.49340395821921e-02 1.61981216610561e-04
9.92014285714286e+00 1.47874704357201e-02 1.60941701952458e-04
9.98785714285714e+00 1.46423397824067e-02 1.59905132869683e-04
1.00555714285714e+01 1.44986335041144e-02 1.58871588516276e-04
1.01232857142857e+01 1.43563376214152e-02 1.57841145353694e-04
1.01910000000000e+01 1.42154382920810e-02 1.56813876885626e-04
1.02587142857143e+01 1.40759218110910e-02 1.55789854813245e-04
1.03264285714286e+01 1.39377746052036e-02 1.54769148343653e-04
1.03941428571429e+01 1.38009832357649e-02 1.53751823482843e-04
1.04618571428571e+01 1.36655343960138e-02 1.52737944258719e-04
1.05295714285714e+01 1.35314149097852e-02 1.51727572390377e-04
1.05972857142857e+01 1.33986117302327e-02 1.50720767346576e-04
1.06650000000000e+01 1.32671119385569e-02 1.49717586062531e-04
1.07327142857143e+01 1.31369027439564e-02 1.48718084025664e-04
1.08004285714286e+01 1.30079714787315e-02 1.47722314639346e-04
1.08681428571429e+01 1.28803056007343e-02 1.46730328572641e-04
1.09358571428571e+01 1.27538926909107e-02 1.45742174871038e-04
1.10035714285714e+01 1.26287204520909e-02 1.44757900649942e-04
1.10712857142857e+01 1.25047767077963e-02 1.43777551143349e-04
1.11390000000000e+01 1.23820494010534e-02 1.42801169440600e-04
1.12067142857143e+01 1.22605265943001e-02 1.41828797473535e-04
1.12744285714286e+01 1.21401964649607e-02 1.40860475431197e-04
1.13421428571429e+01 1.20210473075862e-02 1.39896241161878e-04
1.14098571428571e+01 1.19030675316100e-02 1.38936131183448e-04
1.14775714285714e+01 1.17862456602188e-02 1.37980180399626e-04
1.15452857142857e+01 1.16705703292389e-02 1.37028422140700e-04
1.16130000000000e+01 1.15560302860296e-02 1.36080887919227e-04
1.16807142857143e+01 1.14426143893541e-02 1.35137608328825e-04
1.17484285714286e+01 1.13303116053749e-02 1.34198612505808e-04
1.18161428571429e+01 1.12191110095250e-02 1.33263927579281e-04
1.18838571428571e+01 1.11090017844560e-02 1.32333579591393e-04
1.19515714285714e+01 1.09999732189843e-02 1.31407593234955e-04
1.20192857142857e+01 1.08920147070516e-02 1.30485991887637e-04
1.20870000000000e+01 1.07851157466918e-02 1.29568797385497e-04
1.21547142857143e+01 1.06792659398761e-02 1.28656030842375e-04
1.22224285714286e+01 1.05744549888813e-02 1.27747712154638e-04
1.22901428571429e+01 1.04706726979294e-02 1.26843859495422e-04
1.23578571428571e+01 1.03679089713078e-02 1.25944490153871e-04
1.24255714285714e+01 1.02661538123868e-02 1.25049620292604e-04
1.24932857142857e+01 1.01653973226487e-02 1.24159264976558e-04
1.25610000000000e+01 1.00656297007243e-02 1.23273437963213e-04
1.26287142857143e+01 9.96684124221687e-03 1.22392152450435e-04
1.26964285714286e+01 9.86902233640611e-03 1.21515420620827e-04
1.27641428571429e+01 9.77216346768438e-03 1.20643253176492e-04
1.28318571428571e+01 9.67625521383426e-03 1.19775660105205e-04
1.28995714285714e+01 9.58128824511117e-03 1.18912650456330e-04
1.29672857142857e+01 9.48725332333746e-03 1.18054232365205e-04
1.30350000000000e+01 9.39414130100288e-03 1.17200412858954e-04
1.31027142857143e+01 9.30194312107454e-03 1.16351198539735e-04
1.31704285714286e+01 9.21064981399987e-03 1.15506595165425e-04
1.32381428571429e+01 9.12025249896692e-03 1.14666607221565e-04
1.33058571428571e+01 9.03074238232379e-03 1.13831238621517e-04
1.33735714285714e+01 8.94211075672255e-03 1.13000492499463e-04
1.34412857142857e+01 8.85434900027359e-03 1.12174371231087e-04
1.35090000000000e+01 8.76744857570622e-03 1.11352876253887e-04
1.35767142857143e+01 8.68140103016840e-03 1.10536008691961e-04
1.36444285714286e+01 8.59619799249887e-03 1.09723768970059e-04
1.37121428571429e+01 8.51183117433354e-03 1.08916156419622e-04
1.37798571428571e+01 8.42829236865381e-03 1.08113169919198e-04
1.38475714285714e+01 8.34557344898768e-03 1.07314807703239e-04
1.39152857142857e+01 8.26366636862044e-03 1.06521067379664e-04
1.39830000000000e+01 8.18256315981125e-03 1.05731945763643e-04
1.40507142857143e+01 8.10225593358639e-03 1.04947439449400e-04
1.41184285714286e+01 8.02273687725362e-03 1.04167544454882e-04
1.41861428571429e+01 7.94399825537387e-03 1.03392255859088e-04
1.42538571428571e+01 7.86603240842700e-03 1.02621568388287e-04
1.43215714285714e+01 7.78883175206611e-03 1.01855476239437e-04
1.43892857142857e+01 7.71238877638089e-03 1.01093973095129e-04
1.44570000000000e+01 7.63669604516650e-03 1.00337051969836e-04
1.45247142857143e+01 7.56174619571319e-03 9.95847057336393e-05
1.45924285714286e+01 7.48753193653907e-03 9.88369267849878e-05
1.46601428571429e+01 7.41404604824400e-03 9.80937067167490e-05
1.47278571428571e+01 7.34128138228207e-03 9.73550368532016e-05
1.47955714285714e+01 7.26923086026581e-03 9.66209080869599e-05
1.48632857142857e+01 7.19788747327857e-03 9.58913108916953e-05
1.49310000000000e+01 7.12724428119217e-03 9.51662351799335e-05
1.49987142857143e+01 7.05729441245545e-03 9.44456707830792e-05
1.50664285714286e+01 6.98803106202420e-03 9.37296071499727e-05
1.51341428571429e+01 6.91944749211167e-03 9.30180330392769e-05
1.52018571428571e+01 6.85153703105864e-03 9.23109370117320e-05
1.52695714285714e+01 6.78429307268401e-03 9.16083072795321e-05
1.53372857142857e+01 6.71770907564297e-03 9.09101317171559e-05
1.54050000000000e+01 6.65177856279029e-03 9.02163977298725e-05
1.54727142857143e+01 6.58649512096959e-03 8.95270926939717e-05
1.55404285714286e+01 6.52185239912162e-03 8.88422036790050e-05
1.56081428571429e+01 6.45784410894417e-03 8.81617171643589e-05
1.56758571428571e+01 6.39446402385111e-03 8.74856194907684e-05
1.57435714285714e+01 6.33170597836633e-03 8.68138967212055e-05
1.58112857142857e+01 6.26956386752472e-03 8.61465346500849e-05
1.58790000000000e+01 6.20803164627791e-03 8.54835186816578e-05
1.59467142857143e+01 6.14710332928596e-03 8.48248342340108e-05
1.60144285714286e+01 6.08677298918717e-03 8.41704664830453e-05
1.60821428571429e+01 6.02703475717826e-03 8.35204001012601e-05
1.61498571428571e+01 5.96788282205494e-03 8.28746196721422e-05
1.62175714285714e+01 5.90931142964623e-03 8.22331095616525e-05
1.62852857142857e+01 5.85131488225538e-03 8.15958539260720e-05
1.63530000000000e+01 5.79388753810527e-03 8.09628365995223e-05
1.64207142857143e+01 5.73702381113377e-03 8.03340414649059e-05
1.64884285714286e+01 5.68071816940994e-03 7.97094522178676e-05
1.65561428571429e+01 5.62496513564430e-03 7.90890521259806e-05
1.66238571428571e+01 5.56975928630384e-03 7.84728244092793e-05
1.66915714285714e+01 5.51509525108412e-03 7.78607521215080e-05
1.67592857142857e+01 5.46096771238748e-03 7.72528181567850e-05
1.68270000000000e+01 5.40737140480544e-03 7.66490051455787e-05
1.68947142857143e+01 5.35430111491866e-03 7.60492957954843e-05
1.69624285714286e+01 5.30175167984616e-03 7.54536726735307e-05
1.70301428571429e+01 5.24971798769397e-03 7.48621179841000e-05
1.70978571428571e+01 5.19819497673839e-03 7.42746139185538e-05
1.71655714285714e+01 5.14717763493344e-03 7.36911425454918e-05
1.72332857142857e+01 5.09666099942375e-03 7.31116858164057e-05
1.73010000000000e+01 5.04664015606154e-03 7.25362254694719e-05
1.73687142857143e+01 4.99711023921197e-03 7.19647433427355e-05
1.74364285714286e+01 4.94806643042322e-03 7.13972211732988e-05
1.75041428571429e+01 4.89950395882090e-03 7.08336403924855e-05
1.75718571428571e+01 4.85141810035403e-03 7.02739824471912e-05
1.76395714285714e+01 4.80380417733527e-03 6.97182286984587e-05
1.77072857142857e+01 4.75665755798632e-03 6.91663604262769e-05
1.77750000000000e+01 4.70997365598718e-03 6.86183587405741e-05
1.78427142857143e+01 4.66374793028735e-03 6.80742048691827e-05
1.79104285714286e+01 4.61797588388602e-03 6.75338799725562e-05
1.79781428571429e+01 4.57265306417865e-03 6.69973649547733e-05
1.80458571428571e+01 4.52777506226045e-03 6.64646407590395e-05
1.81135714285714e+01 4.48333751249733e-03 6.59356882739404e-05
1.81812857142857e+01 4.43933609210161e-03 6.54104883374916e-05
1.82490000000000e+01 4.39576652071130e-03 6.48890216547780e-05
1.83167142857143e+01 4.35262456020774e-03 6.43712690628612e-05
1.83844285714286e+01 4.30990601359598e-03 6.38572113597726e-05
1.84521428571429e+01 4.26760672530920e-03 6.33468291300781e-05
1.85198571428571e+01 4.22572258056511e-03 6.28401030167395e-05
1.85875714285714e+01 4.18424950496548e-03 6.23370136344283e-05
1.86552857142857e+01 4.14318346410017e-03 6.18375415729367e-05
1.87230000000000e+01 4.10252046315443e-03 6.13416673209816e-05
1.87907142857143e+01 4.06225654673328e-03 6.08493715099667e-05
1.88584285714286e+01 4.02238779783319e-03 6.03606347561203e-05
1.89261428571429e+01 3.98291033810940e-03 5.98754374994714e-05
1.89938571428571e+01 3.94382032728090e-03 5.93937602540315e-05
1.90615714285714e+01 3.90511396275669e-03 5.89155835276508e-05
1.91292857142857e+01 3.86678747926618e-03 5.84408878248746e-05
1.91970000000000e+01 3.82883714849278e-03 5.79696535764245e-05
1.92647142857143e+01 3.79125927890499e-03 5.75018613636021e-05
1.93324285714286e+01 3.75405021481155e-03 5.70374917725205e-05
1.94001428571429e+01 3.71720633659602e-03 5.65765252454176e-05
1.94678571428571e+01 3.68072406016640e-03 5.61189423109857e-05
1.95355714285714e+01 3.64459983660638e-03 5.56647235102578e-05
1.96032857142857e+01 3.60883015183038e-03 5.52138493989777e-05
1.96710000000000e+01 3.57341152624158e-03 5.47663004823327e-05
1.97387142857143e+01 3.53834051456990e-03 5.43220574216082e-05
1.98064285714286e+01 3.50361370500343e-03 5.38811008995533e-05
1.98741428571429e+01 3.46922771939398e-03 5.34434114830622e-05
1.99418571428571e+01 3.43517921274795e-03 5.30089698352932e-05
2.00095714285714e+01 3.40146487290083e-03 5.25777566471092e-05
2.00772857142857e+01 3.36808142019525e-03 5.21497526390470e-05
2.01450000000000e+01 3.33502560716180e-03 5.17249385008942e-05
2.02127142857143e+01 3.30229421836398e-03 5.13032950820623e-05
2.02804285714286e+01 3.26988406959927e-03 5.08848032672085e-05
2.03481428571429e+01 3.23779200807916e-03 5.04694438493792e-05
2.04158571428571e+01 3.20601491195794e-03 5.00571977254304e-05
2.04835714285714e+01 3.17454969002897e-03 4.96480458325964e-05
2.05512857142857e+01 3.14339328142413e-03 4.92419691501037e-05
2.06190000000000e+01 3.11254265531596e-03 4.88389486432378e-05
2.06867142857143e+01 3.08199481076956e-03 4.84389654387636e-05
2.07544285714286e+01 3.05174677600730e-03 4.80420007099950e-05
2.08221428571429e+01 3.02179560856637e-03 4.76480355595898e-05
2.08898571428571e+01 2.99213839486257e-03 4.72570511996288e-05
2.09575714285714e+01 2.96277224990675e-03 4.68690288929244e-05
2.10252857142857e+01 2.93369431702441e-03 4.64839499543312e-05
2.10930000000000e+01 2.90490176757767e-03 4.61017956989526e-05
2.11607142857143e+01 2.87639180082395e-03 4.57225476038400e-05
2.12284285714286e+01 2.84816164323905e-03 4.53461872017704e-05
2.12961428571429e+01 2.82020854865484e-03 4.49726959729226e-05
2.13638571428571e+01 2.79252979785526e-03 4.46020555108863e-05
