Energy (eV)          EEDF (eV^-(3/2))     First Anisotropy
2.18000000000000e-01 6.70632693686545e-01 2.13420763401988e-03
6.54000000000000e-01 4.72972010708478e-01 3.01496441696524e-03
1.09000000000000e+00 3.33569366688496e-01 2.82601205984032e-03
1.52600000000000e+00 2.35253925969725e-01 2.37622408014800e-03
1.96200000000000e+00 1.65915744103242e-01 1.90610628592394e-03
2.39800000000000e+00 1.17014132826310e-01 1.48848715416562e-03
2.83400000000000e+00 8.25256659945019e-02 1.14223742422396e-03
3.27000000000000e+00 5.82022477399822e-02 8.65809324130006e-04
3.70600000000000e+00 4.10478558538618e-02 6.50298558706241e-04
4.14200000000000e+00 2.89495085778612e-02 4.84985355684370e-04
4.57800000000000e+00 2.04169993649209e-02 3.59661750891991e-04
5.01400000000000e+00 1.43993415966295e-02 2.65497732398452e-04
5.45000000000000e+00 1.01553139474875e-02 1.95238291887271e-04
5.88600000000000e+00 7.16216090020215e-03 1.43108302607914e-04
6.32200000000000e+00 5.05120265366839e-03 1.04607412490132e-04
6.75800000000000e+00 3.56242321332189e-03 7.62815022972813e-05
7.19400000000000e+00 2.51244307958978e-03 5.55093344662983e-05
7.63000000000000e+00 1.77193158987206e-03 4.03190611433176e-05
8.06600000000000e+00 1.24967669305334e-03 2.92376165389413e-05
8.50200000000000e+00 8.81349960736072e-04 2.11707392971054e-05
8.93800000000000e+00 6.21582972305876e-04 1.53093434732466e-05
9.37400000000000e+00 4.38379087392173e-04 1.10575368098492e-05
9.81000000000000e+00 3.09172279204950e-04 7.97790392408045e-06
1.02460000000000e+01 2.18047577947693e-04 5.75027872087573e-06
1.06820000000000e+01 1.53780754119091e-04 4.14089887404977e-06
1.11180000000000e+01 1.08455780889752e-04 2.97946034776072e-06
1.15540000000000e+01 7.64897823254058e-05 2.14212995547845e-06
1.19900000000000e+01 5.39453660486324e-05 1.53901936755744e-06
1.24260000000000e+01 3.80456373341562e-05 1.10498046644404e-06
1.28620000000000e+01 2.68321567946583e-05 7.92861336049082e-07
1.32980000000000e+01 1.89237108036764e-05 5.68577787920031e-07
1.37340000000000e+01 1.33461813495541e-05 4.07519787989352e-07
1.41700000000000e+01 9.41255964345964e-06 2.91936442564288e-07
1.46060000000000e+01 6.63832423082165e-06 2.09036450081915e-07
1.50420000000000e+01 4.68176035666709e-06 1.49610459926234e-07
1.54780000000000e+01 3.30186945908585e-06 1.07033371774034e-07
1.59140000000000e+01 2.32868431835011e-06 7.65427265433859e-08
1.63500000000000e+01 1.64233344828570e-06 5.47174006144166e-08
1.67860000000000e+01 1.15827599907103e-06 3.91014076981401e-08
1.72220000000000e+01 8.16888489620899e-07 2.79326840263663e-08
1.76580000000000e+01 5.76120721667644e-07 1.99477365927965e-08
1.80940000000000e+01 4.06316272235495e-07 1.42410516951372e-08
1.85300000000000e+01 2.86559581827693e-07 1.01639916254115e-08
1.89660000000000e+01 2.02099693141673e-07 7.25214044358586e-09
1.94020000000000e+01 1.42533310899784e-07 5.17312840805102e-09
1.98380000000000e+01 1.00523382298324e-07 3.68918610981164e-09
2.02740000000000e+01 7.08953600032478e-08 2.63028555054171e-09
2.07100000000000e+01 4.99998304381955e-08 1.87488541862863e-09
2.11460000000000e+01 3.52629994929678e-08 1.33613472749296e-09
2.15820000000000e+01 2.48696670037333e-08 9.51992208136103e-10
2.20180000000000e+01 1.75396405799207e-08 6.78153260868958e-10
2.24540000000000e+01 1.23700486872872e-08 4.82988859178247e-10
2.28900000000000e+01 8.72412999734041e-09 3.43925556824101e-10
2.33260000000000e+01 6.15280069905580e-09 2.44857242815089e-10
2.37620000000000e+01 4.33933887434534e-09 1.74295250003572e-10
2.41980000000000e+01 3.06037246896268e-09 1.24046638787417e-10
2.46340000000000e+01 2.15836557595371e-09 8.82701605434800e-11
2.50700000000000e+01 1.52221404639711e-09 6.28021879203055e-11
2.55060000000000e+01 1.07356030362224e-09 4.46755514167787e-11
2.59420000000000e+01 7.57141696492278e-10 3.17761727123291e-11
2.63780000000000e+01 5.33983556054547e-10 2.25980980277188e-11
2.68140000000000e+01 3.76598514462567e-10 1.60687774902834e-11
2.72500000000000e+01 2.65600765205820e-10 1.14244775572902e-11
2.76860000000000e+01 1.87318228216030e-10 8.12146258551186e-12
2.81220000000000e+01 1.32108499743222e-10 5.77269048669114e-12
2.85580000000000e+01 9.31711551546237e-11 4.10270302149789e-12
2.89940000000000e+01 6.57101107780336e-11 2.91548798869350e-12
2.94300000000000e+01 4.63428692205839e-11 2.07158763663571e-12
2.98660000000000e+01 3.26838823153238e-11 1.47179623683589e-12
3.03020000000000e+01 2.30507126806784e-11 1.04555232472834e-12
3.07380000000000e+01 1.62568005220749e-11 7.42675136969515e-13
3.11740000000000e+01 1.14653098529167e-11 5.27482789614719e-13
3.16100000000000e+01 8.08605173231287e-12 3.74606418458465e-13
3.20460000000000e+01 5.70278810223404e-12 2.66011743231344e-13
3.24820000000000e+01 4.02196191857405e-12 1.88880096688356e-13
3.29180000000000e+01 2.83653844127979e-12 1.34101133332824e-13
3.33540000000000e+01 2.00050385651354e-12 9.52007993371247e-14
3.37900000000000e+01 1.41088011418591e-12 6.75789790379269e-14
3.42260000000000e+01 9.95040669441350e-13 4.79674348538860e-14
3.46620000000000e+01 7.01764752289810e-13 3.40444337339894e-14
3.50980000000000e+01 4.94928280502213e-13 2.41608032736853e-14
3.55340000000000e+01 3.49054297813632e-13 1.71452217288149e-14
3.59700000000000e+01 2.46174865373495e-13 1.21658411882371e-14
3.64060000000000e+01 1.73617871836132e-13 8.63195699864593e-15
3.68420000000000e+01 1.22446153774370e-13 6.12414185303690e-15
3.72780000000000e+01 8.63566660250717e-14 4.34460999048122e-15
3.77140000000000e+01 6.09041079453388e-14 3.08195746284517e-15
3.81500000000000e+01 4.29533762169625e-14 2.18611727495498e-15
3.85860000000000e+01 3.02934004072729e-14 1.55057188048355e-15
3.90220000000000e+01 2.13647957171050e-14 1.09972126000187e-15
3.94580000000000e+01 1.50677867092148e-14 7.79913115931041e-16
3.98940000000000e+01 1.06267431395387e-14 5.53074084168988e-16
4.03300000000000e+01 7.49464217493006e-15 3.92188136327418e-16
4.07660000000000e+01 5.28568918931062e-15 2.78086695756502e-16
4.12020000000000e+01 3.72779774589518e-15 1.97170132386618e-16
4.16380000000000e+01 2.62907551628354e-15 1.39790521132982e-16
4.20740000000000e+01 1.85418805994308e-15 9.91038454040139e-17
4.25100000000000e+01 1.30768908703523e-15 7.02554412809695e-17
4.29460000000000e+01 9.22263919876345e-16 4.98019765260662e-17
4.33820000000000e+01 6.50438048568627e-16 4.14027884729039e-17
