Energy (eV)          EEDF (eV^-(3/2))     First Anisotropy
3.86507936507937e-03 6.71444170242435e-01 3.14994211896415e-04
1.15952380952381e-02 6.67775458635522e-01 5.20473692945064e-04
1.93253968253968e-02 6.64126792527380e-01 6.87955632542011e-04
2.70555555555556e-02 6.60498062421141e-01 8.15724750107146e-04
3.47857142857143e-02 6.56889159379277e-01 9.22726913691416e-04
4.25158730158730e-02 6.53299975057329e-01 1.01611062615394e-03
5.02460317460317e-02 6.49730401724907e-01 1.09956805651380e-03
5.79761904761905e-02 6.46180332227973e-01 1.17532457056666e-03
6.57063492063492e-02 6.42649659998482e-01 1.24485330250140e-03
7.34365079365079e-02 6.39138279046369e-01 1.30919348965836e-03
8.11666666666667e-02 6.35646083971065e-01 1.36911299760771e-03
8.88968253968254e-02 6.32172969942155e-01 1.42519957095970e-03
9.66269841269841e-02 6.28718832698694e-01 1.47791580390002e-03
1.04357142857143e-01 6.25283568572935e-01 1.52763412642569e-03
1.12087301587302e-01 6.21867074417720e-01 1.57466004816933e-03
1.19817460317460e-01 6.18469247676686e-01 1.61924816860181e-03
1.27547619047619e-01 6.15089986353218e-01 1.66161354766603e-03
1.35277777777778e-01 6.11729189033798e-01 1.70193998625869e-03
1.43007936507937e-01 6.08386754807259e-01 1.74038617598496e-03
1.50738095238095e-01 6.05062583339801e-01 1.77709036047043e-03
1.58468253968254e-01 6.01756574845776e-01 1.81217394079458e-03
1.66198412698413e-01 5.98468630105020e-01 1.84574429646421e-03
1.73928571428571e-01 5.95198650398540e-01 1.87789701240380e-03
1.81658730158730e-01 5.91946537567227e-01 1.90871766428952e-03
1.89388888888889e-01 5.88712193988460e-01 1.93828327665532e-03
1.97119047619048e-01 5.85495522589592e-01 1.96666351655950e-03
2.04849206349206e-01 5.82296426794713e-01 1.99392167075080e-03
2.12579365079365e-01 5.79114810572418e-01 2.02011545618716e-03
2.20309523809524e-01 5.75950578430579e-01 2.04529772045622e-03
2.28039682539683e-01 5.72803635369680e-01 2.06951701434667e-03
2.35769841269841e-01 5.69673886923936e-01 2.09281807991414e-03
2.43500000000000e-01 5.66561239143653e-01 2.11524227657322e-03
2.51230158730159e-01 5.63465598604901e-01 2.13682794728996e-03
2.58960317460317e-01 5.60386872369218e-01 2.15761072751035e-03
2.66690476190476e-01 5.57324968018479e-01 2.17762381277514e-03
2.74420634920635e-01 5.54279793639559e-01 2.19689820026249e-03
2.82150793650794e-01 5.51251257832328e-01 2.21546290019524e-03
2.89880952380952e-01 5.48239269674291e-01 2.23334511468916e-03
2.97611111111111e-01 5.45243738750629e-01 2.25057039330222e-03
3.05341269841270e-01 5.42264575150322e-01 2.26716278715746e-03
3.13071428571429e-01 5.39301689434036e-01 2.28314497039953e-03
3.20801587301587e-01 5.36354992660982e-01 2.29853834977294e-03
3.28531746031746e-01 5.33424396376282e-01 2.31336316967775e-03
3.36261904761905e-01 5.30509812617050e-01 2.32763860622340e-03
3.43992063492064e-01 5.27611153883606e-01 2.34138284557364e-03
3.51722222222222e-01 5.24728333163105e-01 2.35461315418452e-03
3.59452380952381e-01 5.21861263918129e-01 2.36734594893050e-03
3.67182539682540e-01 5.19009860091854e-01 2.37959686046890e-03
3.74912698412698e-01 5.16174036082055e-01 2.39138078487761e-03
3.82642857142857e-01 5.13353706762045e-01 2.40271193029984e-03
3.90373015873016e-01 5.10548787470301e-01 2.41360386573822e-03
3.98103174603175e-01 5.07759194014867e-01 2.42406956547157e-03
4.05833333333333e-01 5.04984842649711e-01 2.43412144411661e-03
4.13563492063492e-01 5.02225650093444e-01 2.44377138708930e-03
4.21293650793651e-01 4.99481533526209e-01 2.45303079141509e-03
4.29023809523810e-01 4.96752410567660e-01 2.46191059091073e-03
4.36753968253968e-01 4.94038199294106e-01 2.47042128051410e-03
4.44484126984127e-01 4.91338818229470e-01 2.47857294435134e-03
4.52214285714286e-01 4.88654186348759e-01 2.48637528152864e-03
4.59944444444444e-01 4.85984223057830e-01 2.49383762497068e-03
4.67674603174603e-01 4.83328848208845e-01 2.50096895864511e-03
4.75404761904762e-01 4.80687982091901e-01 2.50777793887638e-03
4.83134920634921e-01 4.78061545438031e-01 2.51427291400740e-03
4.90865079365079e-01 4.75449459400507e-01 2.52046193789796e-03
4.98595238095238e-01 4.72851645568855e-01 2.52635278108370e-03
5.06325396825397e-01 4.70268025966102e-01 2.53195295219557e-03
5.14055555555556e-01 4.67698523031180e-01 2.53726970729187e-03
5.21785714285714e-01 4.65143059631908e-01 2.54231005958907e-03
5.29515873015873e-01 4.62601559057537e-01 2.54708079339760e-03
5.37246031746032e-01 4.60073945021129e-01 2.55158847703865e-03
5.44976190476191e-01 4.57560141643201e-01 2.55583947058502e-03
5.52706349206349e-01 4.55060073463566e-01 2.55983993294885e-03
5.60436507936508e-01 4.52573665434354e-01 2.56359583314931e-03
5.68166666666667e-01 4.50100842922061e-01 2.56711296077226e-03
5.75896825396825e-01 4.47641531692301e-01 2.57039693163374e-03
5.83626984126984e-01 4.45195657920643e-01 2.57345319190877e-03
5.91357142857143e-01 4.42763148190097e-01 2.57628703160514e-03
5.99087301587302e-01 4.40343929476657e-01 2.57890358794595e-03
6.06817460317460e-01 4.37937929159414e-01 2.58130784947473e-03
6.14547619047619e-01 4.35545075014243e-01 2.58350466414462e-03
6.22277777777778e-01 4.33165295215432e-01 2.58549874684253e-03
6.30007936507937e-01 4.30798518322121e-01 2.58729468267319e-03
6.37738095238095e-01 4.28444673287612e-01 2.58889692993133e-03
6.45468253968254e-01 4.26103689453395e-01 2.59030982695357e-03
6.53198412698413e-01 4.23775496550563e-01 2.59153759849303e-03
6.60928571428571e-01 4.21460024687065e-01 2.59258435808822e-03
6.68658730158730e-01 4.19157204356285e-01 2.59345411018700e-03
6.76388888888889e-01 4.16866966431395e-01 2.59415075603003e-03
6.84119047619048e-01 4.14589242166563e-01 2.59467809912562e-03
6.91849206349206e-01 4.12323963184953e-01 2.59503984692368e-03
6.99579365079365e-01 4.10071061486651e-01 2.59523961141407e-03
7.07309523809524e-01 4.07830469446425e-01 2.59528091777530e-03
7.15039682539683e-01 4.05602119802261e-01 2.59516720471803e-03
7.22769841269841e-01 4.03385945662810e-01 2.59490182559608e-03
7.30500000000000e-01 4.01181880502208e-01 2.59448805303123e-03
7.38230158730159e-01 3.98989858161020e-01 2.59392908321537e-03
7.45960317460317e-01 3.96809812835406e-01 2.59322803675281e-03
7.53690476190476e-01 3.94641679084029e-01 2.59238795936350e-03
7.61420634920635e-01 3.92485391823120e-01 2.59141182597960e-03
7.69150793650794e-01 3.90340886327277e-01 2.59030254455464e-03
7.76880952380952e-01 3.88208098219215e-01 2.58906295656608e-03
7.84611111111111e-01 3.86086963476177e-01 2.58769583661902e-03
7.92341269841270e-01 3.83977418427846e-01 2.58620389924879e-03
8.00071428571429e-01 3.81879399746528e-01 2.58458979840026e-03
8.07801587301587e-01 3.79792844453189e-01 2.58285612763734e-03
8.15531746031746e-01 3.77717689912905e-01 2.58100542351634e-03
8.23261904761905e-01 3.75653873835457e-01 2.57904016871923e-03
8.30992063492064e-01 3.73601334266010e-01 2.57696279214401e-03
8.38722222222222e-01 3.71560009590735e-01 2.57477566890838e-03
8.46452380952381e-01 3.69529838532455e-01 2.57248112340657e-03
8.54182539682540e-01 3.67510760151144e-01 2.57008143214802e-03
8.61912698412698e-01 3.65502713835055e-01 2.56757882367425e-03
8.69642857142857e-01 3.63505639305971e-01 2.56497547840207e-03
8.77373015873016e-01 3.61519476615033e-01 2.56227353141313e-03
8.85103174603175e-01 3.59544166143141e-01 2.55947507504154e-03
8.92833333333333e-01 3.57579648592519e-01 2.55658215865494e-03
9.00563492063492e-01 3.55625864991609e-01 2.55359678769891e-03
9.08293650793651e-01 3.53682756693180e-01 2.55052092895902e-03
9.16023809523810e-01 3.51750265366210e-01 2.54735650955740e-03
9.23753968253968e-01 3.49828333000519e-01 2.54410541660337e-03
9.31484126984127e-01 3.47916901902886e-01 2.54076949959367e-03
9.39214285714286e-01 3.46015914697320e-01 2.53735057263666e-03
9.46944444444444e-01 3.44125314317317e-01 2.53385041407281e-03
9.54674603174603e-01 3.42245044010191e-01 2.53027076604328e-03
9.62404761904762e-01 3.40375047333348e-01 2.52661333671293e-03
9.70134920634921e-01 3.38515268154484e-01 2.52287980232918e-03
9.77865079365079e-01 3.36665650644197e-01 2.51907180677289e-03
9.85595238095238e-01 3.34826139280036e-01 2.51519096045673e-03
9.93325396825397e-01 3.32996678844736e-01 2.51123884482386e-03
1.00105555555556e+00 3.31177214419093e-01 2.50721700826443e-03
1.00878571428571e+00 3.29367691394570e-01 2.50312697509988e-03
1.01651587301587e+00 3.27568055441635e-01 2.49897024096503e-03
1.02424603174603e+00 3.25778252538261e-01 2.49474826684361e-03
1.03197619047619e+00 3.23998228957591e-01 2.49046248998439e-03
1.03970634920635e+00 3.22227931266324e-01 2.48611432088854e-03
1.04743650793651e+00 3.20467306323094e-01 2.48170514390390e-03
1.05516666666667e+00 3.18716301276913e-01 2.47723631781741e-03
1.06289682539683e+00 3.16974863565568e-01 2.47270917090931e-03
1.07062698412698e+00 3.15242940929937e-01 2.46812501817345e-03
1.07835714285714e+00 3.13520481364458e-01 2.46348515070546e-03
1.08608730158730e+00 3.11807433163804e-01 2.45879082497685e-03
1.09381746031746e+00 3.10103744905159e-01 2.45404328027915e-03
1.10154761904762e+00 3.08409365446671e-01 2.44924373355078e-03
1.10927777777778e+00 3.06724243925911e-01 2.44439337984724e-03
1.11700793650794e+00 3.05048329758373e-01 2.43949339281297e-03
1.12473809523810e+00 3.03381572635938e-01 2.43454491999594e-03
1.13246825396825e+00 3.01723922539752e-01 2.42954909879835e-03
1.14019841269841e+00 3.00075329695328e-01 2.42450704653046e-03
1.14792857142857e+00 2.98435744614689e-01 2.41941985035834e-03
1.15565873015873e+00 2.96805118080252e-01 2.41428858347037e-03
1.16338888888889e+00 2.95183401143350e-01 2.40911430019700e-03
1.17111904761905e+00 2.93570545122761e-01 2.40389803638851e-03
1.17884920634921e+00 2.91966501603261e-01 2.39864080979543e-03
1.18657936507937e+00 2.90371222434164e-01 2.39334361564097e-03
1.19430952380952e+00 2.88784659740929e-01 2.38800744143281e-03
1.20203968253968e+00 2.87206765884346e-01 2.38263325763985e-03
1.20976984126984e+00 2.85637493498697e-01 2.37722200827127e-03
1.21750000000000e+00 2.84076795477066e-01 2.37177462589408e-03
1.22523015873016e+00 2.82524624969916e-01 2.36629202703503e-03
1.23296031746032e+00 2.80980935383690e-01 2.36077511248793e-03
1.24069047619048e+00 2.79445680379423e-01 2.35522476762527e-03
1.24842063492064e+00 2.77918813871341e-01 2.34964185822010e-03
1.25615079365079e+00 2.76400290037356e-01 2.34402724422769e-03
1.26388095238095e+00 2.74890063281864e-01 2.33838177104518e-03
1.27161111111111e+00 2.73388088270397e-01 2.33270626067982e-03
1.27934126984127e+00 2.71894319916190e-01 2.32700152572670e-03
1.28707142857143e+00 2.70408713378818e-01 2.32126836504024e-03
1.29480158730159e+00 2.68931224062862e-01 2.31550756398674e-03
1.30253174603175e+00 2.67461807616575e-01 2.30971989470227e-03
1.31026190476190e+00 2.66000419930542e-01 2.30390611215399e-03
1.31799206349206e+00 2.64547017147194e-01 2.29806696698621e-03
1.32572222222222e+00 2.63101555626812e-01 2.29220319732319e-03
1.33345238095238e+00 2.61663991979068e-01 2.28631552048640e-03
1.34118253968254e+00 2.60234283050715e-01 2.28040464602674e-03
1.34891269841270e+00 2.58812385924281e-01 2.27447127165048e-03
1.35664285714286e+00 2.57398257916797e-01 2.26851608343011e-03
1.36437301587302e+00 2.55991856578513e-01 2.26253975601976e-03
1.37210317460317e+00 2.54593139691619e-01 2.25654294894341e-03
1.37983333333333e+00 2.53202065278887e-01 2.25052631858753e-03
1.38756349206349e+00 2.51818591572535e-01 2.24449051050986e-03
1.39529365079365e+00 2.50442677043002e-01 2.23843615166797e-03
1.40302380952381e+00 2.49074280387642e-01 2.23236386258783e-03
1.41075396825397e+00 2.47713360529473e-01 2.22627425353011e-03
1.41848412698413e+00 2.46359876615960e-01 2.22016792466697e-03
1.42621428571429e+00 2.45013788017784e-01 2.21404546626459e-03
1.43394444444444e+00 2.43675054327623e-01 2.20790745518567e-03
1.44167460317460e+00 2.42343635368007e-01 2.20175446610071e-03
1.44940476190476e+00 2.41019491162756e-01 2.19558706426735e-03
1.45713492063492e+00 2.39702581963281e-01 2.18940579823504e-03
1.46486507936508e+00 2.38392868238173e-01 2.18321121122252e-03
1.47259523809524e+00 2.37090310672011e-01 2.17700383750928e-03
1.48032539682540e+00 2.35794870164200e-01 2.17078420258614e-03
1.48805555555556e+00 2.34506507827784e-01 2.16455281985019e-03
1.49578571428571e+00 2.33225184996691e-01 2.15831020117018e-03
1.50351587301587e+00 2.31950863199220e-01 2.15205685005838e-03
1.51124603174603e+00 2.30683504182365e-01 2.14579325477241e-03
1.51897619047619e+00 2.29423069902129e-01 2.13951989903776e-03
1.52670634920635e+00 2.28169522522384e-01 2.13323725863927e-03
1.53443650793651e+00 2.26922824413731e-01 2.12694580154625e-03
1.54216666666667e+00 2.25682938152377e-01 2.12064598804106e-03
1.54989682539683e+00 2.24449826519013e-01 2.11433826760478e-03
1.55762698412698e+00 2.23223452505418e-01 2.10802308881497e-03
1.56535714285714e+00 2.22003779290053e-01 2.10170089292946e-03
1.57308730158730e+00 2.20790770260367e-01 2.09537210740388e-03
1.58081746031746e+00 2.19584389003860e-01 2.08903715593770e-03
1.58854761904762e+00 2.18384599306983e-01 2.08269645526524e-03
1.59627777777778e+00 2.17191365154051e-01 2.07635041526269e-03
1.60400793650794e+00 2.16004650726170e-01 2.06999943905907e-03
1.61173809523810e+00 2.14824420400157e-01 2.06364392010116e-03
1.61946825396825e+00 2.13650638754586e-01 2.05728425143471e-03
1.62719841269841e+00 2.12483270547274e-01 2.05092081967216e-03
1.63492857142857e+00 2.11322280735781e-01 2.04455399889786e-03
1.64265873015873e+00 2.10167634469132e-01 2.03818416008893e-03
1.65038888888889e+00 2.09019297086775e-01 2.03181166809304e-03
1.65811904761905e+00 2.07877234117538e-01 2.02543688172118e-03
1.66584920634921e+00 2.06741411278599e-01 2.01906015384396e-03
1.67357936507937e+00 2.05611794474455e-01 2.01268182862437e-03
1.68130952380952e+00 2.04488349802455e-01 2.00630225022847e-03
1.68903968253968e+00 2.03371043532014e-01 1.99992175715176e-03
1.69676984126984e+00 2.02259842123462e-01 1.99354067648548e-03
1.70450000000000e+00 2.01154712220392e-01 1.98715933275911e-03
1.71223015873016e+00 2.00055620648647e-01 1.98077804509309e-03
1.71996031746032e+00 1.98962534415332e-01 1.97439712727929e-03
1.72769047619048e+00 1.97875420707824e-01 1.96801688786553e-03
1.73542063492063e+00 1.96794246892785e-01 1.96163762754589e-03
1.74315079365079e+00 1.95718980521239e-01 1.95525964734292e-03
1.75088095238095e+00 1.94649589309340e-01 1.94888324326758e-03
1.75861111111111e+00 1.93586041155751e-01 1.94250870092338e-03
1.76634126984127e+00 1.92528304134533e-01 1.93613630381231e-03
1.77407142857143e+00 1.91476346494183e-01 1.92976633065135e-03
1.78180158730159e+00 1.90430136656689e-01 1.92339905544314e-03
1.78953174603175e+00 1.89389643216576e-01 1.91703474754960e-03
1.79726190476190e+00 1.88354834939971e-01 1.91067366923119e-03
1.80499206349206e+00 1.87325680769251e-01 1.90431608333795e-03
1.81272222222222e+00 1.86302149805250e-01 1.89796224828114e-03
1.82045238095238e+00 1.85284211323276e-01 1.89161241295218e-03
1.82818253968254e+00 1.84271834766515e-01 1.88526682453056e-03
1.83591269841270e+00 1.83264989745109e-01 1.87892572595436e-03
1.84364285714286e+00 1.82263646035251e-01 1.87258935598180e-03
1.85137301587302e+00 1.81267773578273e-01 1.86625794925652e-03
1.85910317460317e+00 1.80277342479746e-01 1.85993173398604e-03
1.86683333333333e+00 1.79292323013760e-01 1.85361093917564e-03
1.87456349206349e+00 1.78312685606421e-01 1.84729578989189e-03
1.88229365079365e+00 1.77338400850648e-01 1.84098650247612e-03
1.89002380952381e+00 1.76369439500039e-01 1.83468329188838e-03
1.89775396825397e+00 1.75405772467986e-01 1.82838636932206e-03
1.90548412698413e+00 1.74447370826813e-01 1.82209594225868e-03
1.91321428571429e+00 1.73494205806902e-01 1.81581221452509e-03
1.92094444444444e+00 1.72546248795827e-01 1.80953538410292e-03
1.92867460317460e+00 1.71603471342300e-01 1.80326564993731e-03
1.93640476190476e+00 1.70665845140846e-01 1.79700320747241e-03
1.94413492063492e+00 1.69733342045492e-01 1.79074824414065e-03
1.95186507936508e+00 1.68805934064048e-01 1.78450094627482e-03
1.95959523809524e+00 1.67883593357271e-01 1.77826149685783e-03
1.96732539682540e+00 1.66966292238030e-01 1.77203007557106e-03
1.97505555555556e+00 1.66054003170477e-01 1.76580685671811e-03
1.98278571428571e+00 1.65146698773702e-01 1.75959201567823e-03
1.99051587301587e+00 1.64244351807388e-01 1.75338572466966e-03
1.99824603174603e+00 1.63346935184584e-01 1.74718814846814e-03
2.00597619047619e+00 1.62454421966339e-01 1.74099945095870e-03
2.01370634920635e+00 1.61566785360894e-01 1.73481979300309e-03
2.02143650793651e+00 1.60683998722875e-01 1.72864933248044e-03
2.02916666666667e+00 1.59806035552498e-01 1.72248822433041e-03
2.03689682539683e+00 1.58932869494774e-01 1.71633661859239e-03
2.04462698412698e+00 1.58064474342877e-01 1.71019466648603e-03
2.05235714285714e+00 1.57200824024809e-01 1.70406251641507e-03
2.06008730158730e+00 1.56341892615226e-01 1.69794030992878e-03
2.06781746031746e+00 1.55487654330440e-01 1.69182818789548e-03
2.07554761904762e+00 1.54638083527638e-01 1.68572628848898e-03
2.08327777777778e+00 1.53793154704121e-01 1.67963474722489e-03
2.09100793650794e+00 1.52952842496532e-01 1.67355369699895e-03
2.09873809523810e+00 1.52117121680099e-01 1.66748326623528e-03
2.10646825396825e+00 1.51285967171747e-01 1.66142358461821e-03
2.11419841269841e+00 1.50459354017676e-01 1.65537477932120e-03
2.12192857142857e+00 1.49637257404338e-01 1.64933697119638e-03
2.12965873015873e+00 1.48819652653762e-01 1.64331028059397e-03
2.13738888888889e+00 1.48006515222815e-01 1.63729482546096e-03
2.14511904761905e+00 1.47197820702463e-01 1.63129072137341e-03
2.15284920634921e+00 1.46393544817045e-01 1.62529808157088e-03
2.16057936507937e+00 1.45593663423537e-01 1.61931701520702e-03
2.16830952380952e+00 1.44798152514433e-01 1.61334763275459e-03
2.17603968253968e+00 1.44006988206170e-01 1.60739004244627e-03
2.18376984126984e+00 1.43220146749314e-01 1.60144434667796e-03
2.19150000000000e+00 1.42437604524195e-01 1.59551064749701e-03
2.19923015873016e+00 1.41659338040197e-01 1.58958904480575e-03
2.20696031746032e+00 1.40885323935056e-01 1.58367963639069e-03
2.21469047619048e+00 1.40115538974156e-01 1.57778251795397e-03
2.22242063492063e+00 1.39349960049836e-01 1.57189778145918e-03
2.23015079365079e+00 1.38588564184040e-01 1.56602552023129e-03
2.23788095238095e+00 1.37831328517537e-01 1.56016582559595e-03
2.24561111111111e+00 1.37078230319372e-01 1.55431878348338e-03
2.25334126984127e+00 1.36329246982792e-01 1.54848447960605e-03
2.26107142857143e+00 1.35584356024563e-01 1.54266299776153e-03
2.26880158730159e+00 1.34843535084297e-01 1.53685441985911e-03
2.27653174603175e+00 1.34106761923784e-01 1.53105882594708e-03
2.28426190476190e+00 1.33374014426319e-01 1.52527629264981e-03
2.29199206349206e+00 1.32645270599163e-01 1.51950689798147e-03
2.29972222222222e+00 1.31920508563475e-01 1.51375071817144e-03
2.30745238095238e+00 1.31199706563107e-01 1.50800782445606e-03
2.31518253968254e+00 1.30482842960782e-01 1.50227828796600e-03
2.32291269841270e+00 1.29769896237446e-01 1.49656217812251e-03
2.33064285714286e+00 1.29060844991626e-01 1.49085956266080e-03
2.33837301587302e+00 1.28355667938783e-01 1.48517050765514e-03
2.34610317460317e+00 1.27654343910676e-01 1.47949507604066e-03
2.35383333333333e+00 1.26956851857631e-01 1.47383333215876e-03
2.36156349206349e+00 1.26263170839151e-01 1.46818533875772e-03
2.36929365079365e+00 1.25573280032086e-01 1.46255115396091e-03
2.37702380952381e+00 1.24887158727063e-01 1.45693083588196e-03
2.38475396825397e+00 1.24204786327860e-01 1.45132444110816e-03
2.39248412698413e+00 1.23526142350792e-01 1.44573202472168e-03
2.40021428571429e+00 1.22851206424098e-01 1.44015364032261e-03
2.40794444444444e+00 1.22179958287324e-01 1.43458933863074e-03
2.41567460317460e+00 1.21512377793428e-01 1.42903917177868e-03
2.42340476190476e+00 1.20848444900007e-01 1.42350319047716e-03
2.43113492063492e+00 1.20188139676899e-01 1.41798144114952e-03
2.43886507936508e+00 1.19531442302842e-01 1.41247397029094e-03
