Energy (eV)          EEDF (eV^-(3/2))     First Anisotropy
4.67142857142857e-02 3.85330775568081e-02 2.43972878669471e-05
1.40142857142857e-01 3.81547457573134e-02 4.02243074517576e-05
2.33571428571429e-01 3.77801285567624e-02 5.29351981866280e-05
3.27000000000000e-01 3.74091894851917e-02 6.24916617247506e-05
4.20428571428571e-01 3.70418924279734e-02 7.03794619344351e-05
5.13857142857143e-01 3.66782016275717e-02 7.71628158546961e-05
6.07285714285714e-01 3.63180816755930e-02 8.31349251386775e-05
7.00714285714286e-01 3.59614975128681e-02 8.84735657926157e-05
7.94142857142857e-01 3.56084144236006e-02 9.32971145274053e-05
8.87571428571429e-01 3.52587980325431e-02 9.76895690862317e-05
9.81000000000000e-01 3.49126143027995e-02 1.01713353075505e-04
1.07442857142857e+00 3.45698295294669e-02 1.05416521594188e-04
1.16785714285714e+00 3.42304103425806e-02 1.08837112881927e-04
1.26128571428571e+00 3.38943236974786e-02 1.12005923628908e-04
1.35471428571429e+00 3.35615368739679e-02 1.14948357137555e-04
1.44814285714286e+00 3.32320174730987e-02 1.17685699820193e-04
1.54157142857143e+00 3.29057334140807e-02 1.20236029123269e-04
1.63500000000000e+00 3.25826529311122e-02 1.22614876159422e-04
1.72842857142857e+00 3.22627445684052e-02 1.24835719156297e-04
1.82185714285714e+00 3.19459771829177e-02 1.26910359283526e-04
1.91528571428571e+00 3.16323199353526e-02 1.28849211169451e-04
2.00871428571429e+00 3.13217422892098e-02 1.30661529894879e-04
2.10214285714286e+00 3.10142140077980e-02 1.32355592031769e-04
2.19557142857143e+00 3.07097051513219e-02 1.33938841076941e-04
2.28900000000000e+00 3.04081860739483e-02 1.35418005809813e-04
2.38242857142857e+00 3.01096274196558e-02 1.36799196880408e-04
2.47585714285714e+00 2.98140001232518e-02 1.38087987446615e-04
2.56928571428571e+00 2.95212754035771e-02 1.39289480537014e-04
2.66271428571429e+00 2.92314247620587e-02 1.40408365012498e-04
2.75614285714286e+00 2.89444199799268e-02 1.41448963489241e-04
2.84957142857143e+00 2.86602331154845e-02 1.42415273055136e-04
2.94300000000000e+00 2.83788365013777e-02 1.43311000297737e-04
3.03642857142857e+00 2.81002027409793e-02 1.44139591040380e-04
3.12985714285714e+00 2.78243047085403e-02 1.44904256662979e-04
3.22328571428571e+00 2.75511155436752e-02 1.45607997050937e-04
3.31671428571429e+00 2.72806086497245e-02 1.46253620087530e-04
3.41014285714286e+00 2.70127576911607e-02 1.46843759223554e-04
3.50357142857143e+00 2.67475365910343e-02 1.47380888863214e-04
3.59700000000000e+00 2.64849195284292e-02 1.47867338084956e-04
3.69042857142857e+00 2.62248809352426e-02 1.48305302439129e-04
3.78385714285714e+00 2.59673954958506e-02 1.48696854938375e-04
3.87728571428571e+00 2.57124381424510e-02 1.49043955907604e-04
3.97071428571429e+00 2.54599840533675e-02 1.49348461324409e-04
4.06414285714286e+00 2.52100086506291e-02 1.49612130706079e-04
4.15757142857143e+00 2.49624875975843e-02 1.49836634129834e-04
4.25100000000000e+00 2.47173967965283e-02 1.50023558668174e-04
4.34442857142857e+00 2.44747123857971e-02 1.50174413885496e-04
4.43785714285714e+00 2.42344107391481e-02 1.50290637244581e-04
4.53128571428571e+00 2.39964684617297e-02 1.50373599047568e-04
4.62471428571429e+00 2.37608623883902e-02 1.50424606518721e-04
4.71814285714286e+00 2.35275695814197e-02 1.50444907873101e-04
4.81157142857143e+00 2.32965673283219e-02 1.50435695963879e-04
4.90500000000000e+00 2.30678331396003e-02 1.50398111706808e-04
4.99842857142857e+00 2.28413447461154e-02 1.50333246936334e-04
5.09185714285714e+00 2.26170800982954e-02 1.50242147397944e-04
5.18528571428571e+00 2.23950173625910e-02 1.50125815523408e-04
5.27871428571429e+00 2.21751349198230e-02 1.49985212623811e-04
5.37214285714286e+00 2.19574113630758e-02 1.49821261213413e-04
5.46557142857143e+00 2.17418254956165e-02 1.49634847093211e-04
5.55900000000000e+00 2.15283563288296e-02 1.49426821352217e-04
5.65242857142857e+00 2.13169830798003e-02 1.49198001970324e-04
5.74585714285714e+00 2.11076851704260e-02 1.48949175628888e-04
5.83928571428571e+00 2.09004422242627e-02 1.48681099409589e-04
5.93271428571429e+00 2.06952340649299e-02 1.48394502052458e-04
6.02614285714286e+00 2.04920407141453e-02 1.48090085390607e-04
6.11957142857143e+00 2.02908423897816e-02 1.47768525629701e-04
6.21300000000000e+00 2.00916195039402e-02 1.47430474605159e-04
6.30642857142857e+00 1.98943526607313e-02 1.47076560732885e-04
6.39985714285714e+00 1.96990226553342e-02 1.46707390183811e-04
6.49328571428571e+00 1.95056104711670e-02 1.46323547996464e-04
6.58671428571429e+00 1.93140972783598e-02 1.45925598833149e-04
6.68014285714286e+00 1.91244644319205e-02 1.45514087921753e-04
6.77357142857143e+00 1.89366934699211e-02 1.45089541887229e-04
6.86700000000000e+00 1.87507661116999e-02 1.44652469587984e-04
6.96042857142857e+00 1.85666642558174e-02 1.44203362702497e-04
7.05385714285714e+00 1.83843699790953e-02 1.43742696534843e-04
7.14728571428571e+00 1.82038655340609e-02 1.43270930783761e-04
7.24071428571429e+00 1.80251333474927e-02 1.42788510012055e-04
7.33414285714286e+00 1.78481560187087e-02 1.42295864296053e-04
7.42757142857143e+00 1.76729163178741e-02 1.41793409791097e-04
7.52100000000000e+00 1.74993971843231e-02 1.41281549314310e-04
7.61442857142857e+00 1.73275817246724e-02 1.40760672716487e-04
7.70785714285714e+00 1.71574532118599e-02 1.40231157460016e-04
7.80128571428571e+00 1.69889950828254e-02 1.39693369174258e-04
7.89471428571429e+00 1.68221909371307e-02 1.39147661952865e-04
7.98814285714286e+00 1.66570245353626e-02 1.38594378820028e-04
8.08157142857143e+00 1.64934797975533e-02 1.38033852129551e-04
8.17500000000000e+00 1.63315408016136e-02 1.37466403986584e-04
8.26842857142857e+00 1.61711917815903e-02 1.36892346487276e-04
8.36185714285714e+00 1.60124171267169e-02 1.36311982148942e-04
8.45528571428571e+00 1.58552013793015e-02 1.35725604325802e-04
8.54871428571429e+00 1.56995292334213e-02 1.35133497398894e-04
8.64214285714286e+00 1.55453855334323e-02 1.34535937122074e-04
8.73557142857143e+00 1.53927552724947e-02 1.33933190912407e-04
8.82900000000000e+00 1.52416235911112e-02 1.33325518165084e-04
8.92242857142857e+00 1.50919757755136e-02 1.32713170408751e-04
9.01585714285714e+00 1.49437972567367e-02 1.32096391635562e-04
9.10928571428571e+00 1.47970736086878e-02 1.31475418621676e-04
9.20271428571429e+00 1.46517905469148e-02 1.30850481048127e-04
9.29614285714286e+00 1.45079339272155e-02 1.30221801764754e-04
9.38957142857143e+00 1.43654897442607e-02 1.29589597006910e-04
9.48300000000000e+00 1.42244441302310e-02 1.28954076636878e-04
9.57642857142857e+00 1.40847833533208e-02 1.28315444243945e-04
9.66985714285714e+00 1.39464938168421e-02 1.27673897404057e-04
9.76328571428571e+00 1.38095620574558e-02 1.27029627933011e-04
9.85671428571429e+00 1.36739747440107e-02 1.26382821961811e-04
9.95014285714286e+00 1.35397186762456e-02 1.25733660142696e-04
1.00435714285714e+01 1.34067807835044e-02 1.25082317784301e-04
1.01370000000000e+01 1.32751481235922e-02 1.24428965191459e-04
1.02304285714286e+01 1.31448078807447e-02 1.23773767575590e-04
1.03238571428571e+01 1.30157473655515e-02 1.23116884850364e-04
1.04172857142857e+01 1.28879540144199e-02 1.22458472932717e-04
1.05107142857143e+01 1.27614153846394e-02 1.21798683168471e-04
1.06041428571429e+01 1.26361191569069e-02 1.21137661584973e-04
1.06975714285714e+01 1.25120531340358e-02 1.20475550761716e-04
1.07910000000000e+01 1.23892052362644e-02 1.19812489092046e-04
1.08844285714286e+01 1.22675635036065e-02 1.19148610328147e-04
1.09778571428571e+01 1.21471160935030e-02 1.18484044295078e-04
1.10712857142857e+01 1.20278512807478e-02 1.17818917509210e-04
1.11647142857143e+01 1.19097574530878e-02 1.17153352755642e-04
1.12581428571429e+01 1.17928231133718e-02 1.16487468396034e-04
1.13515714285714e+01 1.16770368783526e-02 1.15821380047186e-04
1.14450000000000e+01 1.15623874744982e-02 1.15155199898033e-04
1.15384285714286e+01 1.14488637399945e-02 1.14489036283880e-04
1.16318571428571e+01 1.13364546226178e-02 1.13822994319947e-04
1.17252857142857e+01 1.12251491796089e-02 1.13157176449665e-04
1.18187142857143e+01 1.11149365737384e-02 1.12491682049537e-04
1.19121428571429e+01 1.10058060751391e-02 1.11826606790098e-04
1.20055714285714e+01 1.08977470601942e-02 1.11162044147330e-04
1.20990000000000e+01 1.07907490077854e-02 1.10498084772544e-04
1.21924285714286e+01 1.06848015010030e-02 1.09834816096088e-04
1.22858571428571e+01 1.05798942252147e-02 1.09172322892439e-04
1.23792857142857e+01 1.04760169678997e-02 1.08510687768959e-04
1.24727142857143e+01 1.03731596151196e-02 1.07849990798193e-04
1.25661428571429e+01 1.02713121530855e-02 1.07190308929057e-04
1.26595714285714e+01 1.01704646671241e-02 1.06531717351568e-04
1.27530000000000e+01 1.00706073383084e-02 1.05874288916524e-04
1.28464285714286e+01 9.97173044492095e-03 1.05218093767951e-04
1.29398571428571e+01 9.87382436069583e-03 1.04563199849276e-04
1.30332857142857e+01 9.77687955462467e-03 1.03909673340937e-04
1.31267142857143e+01 9.68088658778242e-03 1.03257578319313e-04
1.32201428571429e+01 9.58583611466947e-03 1.02606976214872e-04
1.33135714285714e+01 9.49171888225035e-03 1.01957927047377e-04
1.34070000000000e+01 9.39852572692023e-03 1.01310488891965e-04
1.35004285714286e+01 9.30624757575908e-03 1.00664717539053e-04
1.35938571428571e+01 9.21487544492801e-03 1.00020666949342e-04
1.36872857142857e+01 9.12440043945525e-03 9.93783896470594e-05
1.37807142857143e+01 9.03481375037451e-03 9.87379364042995e-05
1.38741428571429e+01 8.94610665587595e-03 9.80993557427090e-05
1.39675714285714e+01 8.85827052041205e-03 9.74626950537376e-05
1.40610000000000e+01 8.77129679196027e-03 9.68280001077010e-05
1.41544285714286e+01 8.68517700309918e-03 9.61953147395882e-05
1.42478571428571e+01 8.59990276954349e-03 9.55646812592753e-05
1.43412857142857e+01 8.51546578991604e-03 9.49361408059855e-05
1.44347142857143e+01 8.43185784316261e-03 9.43097330565467e-05
1.45281428571429e+01 8.34907078954008e-03 9.36854957673122e-05
1.46215714285714e+01 8.26709656978431e-03 9.30634657919154e-05
1.47150000000000e+01 8.18592720263524e-03 9.24436786300040e-05
1.48084285714286e+01 8.10555478576096e-03 9.18261681372744e-05
1.49018571428571e+01 8.02597149441748e-03 9.12109668962232e-05
1.49952857142857e+01 7.94716958121179e-03 9.05981065364490e-05
1.50887142857143e+01 7.86914137376209e-03 8.99876174653116e-05
1.51821428571429e+01 7.79187927554663e-03 8.93795284469021e-05
1.52755714285714e+01 7.71537576512921e-03 8.87738675280704e-05
1.53690000000000e+01 7.63962339391737e-03 8.81706616236627e-05
1.54624285714286e+01 7.56461478695645e-03 8.75699362491001e-05
1.55558571428571e+01 7.49034264170173e-03 8.69717158561846e-05
1.56492857142857e+01 7.41679972777669e-03 8.63760241231637e-05
1.57427142857143e+01 7.34397888485169e-03 8.57828837062337e-05
1.58361428571429e+01 7.27187302337344e-03 8.51923158525487e-05
1.59295714285714e+01 7.20047512384397e-03 8.46043412439211e-05
1.60230000000000e+01 7.12977823478657e-03 8.40189796155994e-05
1.61164285714286e+01 7.05977547342830e-03 8.34362495097396e-05
1.62098571428571e+01 6.99046002457377e-03 8.28561685801085e-05
1.63032857142857e+01 6.92182514036185e-03 8.22787538552761e-05
1.63967142857143e+01 6.85386413833925e-03 8.17040215094299e-05
1.64901428571429e+01 6.78657040208769e-03 8.11319865066317e-05
1.65835714285714e+01 6.71993738055234e-03 8.05626633704338e-05
1.66770000000000e+01 6.65395858619350e-03 7.99960658334269e-05
1.67704285714286e+01 6.58862759557331e-03 7.94322066100256e-05
1.68638571428571e+01 6.52393804832152e-03 7.88710976733988e-05
1.69572857142857e+01 6.45988364689325e-03 7.83127504946577e-05
1.70507142857143e+01 6.39645815481713e-03 7.77571758315398e-05
1.71441428571429e+01 6.33365539723430e-03 7.72043834013333e-05
1.72375714285714e+01 6.27146926027291e-03 7.66543825836593e-05
1.73310000000000e+01 6.20989368936625e-03 7.61071820982308e-05
1.74244285714286e+01 6.14892268975692e-03 7.55627897954530e-05
1.75178571428571e+01 6.08855032554621e-03 7.50212129084941e-05
1.76112857142857e+01 6.02877071945489e-03 7.44824582709615e-05
1.77047142857143e+01 5.96957805122791e-03 7.39465321220663e-05
1.77981428571429e+01 5.91096655809751e-03 7.34134398058480e-05
1.78915714285714e+01 5.85293053420054e-03 7.28831864135291e-05
1.79850000000000e+01 5.79546432904602e-03 7.23557764871566e-05
1.80784285714286e+01 5.73856234794823e-03 7.18312138266243e-05
1.81718571428571e+01 5.68221905115209e-03 7.13095017193829e-05
1.82652857142857e+01 5.62642895359853e-03 7.07906431387993e-05
1.83587142857143e+01 5.57118662347005e-03 7.02746405645218e-05
1.84521428571429e+01 5.51648668258832e-03 6.97614957058140e-05
1.85455714285714e+01 5.46232380587128e-03 6.92512100891939e-05
1.86390000000000e+01 5.40869271993525e-03 6.87437847857947e-05
1.87324285714286e+01 5.35558820346666e-03 6.82392202335076e-05
1.88258571428571e+01 5.30300508641664e-03 6.77375164465509e-05
1.89192857142857e+01 5.25093824977223e-03 6.72386731964359e-05
1.90127142857143e+01 5.19938262422884e-03 6.67426898463434e-05
1.91061428571429e+01 5.14833319053126e-03 6.62495650965490e-05
1.91995714285714e+01 5.09778497896775e-03 6.57592975224289e-05
1.92930000000000e+01 5.04773306809355e-03 6.52718853235738e-05
1.93864285714286e+01 4.99817258504952e-03 6.47873261598584e-05
1.94798571428571e+01 4.94909870481997e-03 6.43056173428213e-05
1.95732857142857e+01 4.90050665001054e-03 6.38267560009219e-05
1.96667142857143e+01 4.85239168963525e-03 6.33507389268229e-05
1.97601428571429e+01 4.80474913940860e-03 6.28775623430723e-05
1.98535714285714e+01 4.75757436127403e-03 6.24072223950350e-05
1.99470000000000e+01 4.71086276223718e-03 6.19397149199508e-05
2.00404285714286e+01 4.66460979463857e-03 6.14750352958044e-05
2.01338571428571e+01 4.61881095546923e-03 6.10131786162607e-05
2.02272857142857e+01 4.57346178615595e-03 6.05541398417239e-05
2.03207142857143e+01 4.52855787145189e-03 6.00979136584877e-05
2.04141428571429e+01 4.48409483968638e-03 5.96444942629976e-05
2.05075714285714e+01 4.44006836232549e-03 5.91938758137949e-05
2.06010000000000e+01 4.39647415290440e-03 5.87460522188550e-05
2.06944285714286e+01 4.35330796726046e-03 5.83010169962423e-05
2.07878571428571e+01 4.31056560290174e-03 5.78587634341510e-05
2.08812857142857e+01 4.26824289879992e-03 5.74192847290829e-05
2.09747142857143e+01 4.22633573437492e-03 5.69825738559390e-05
2.10681428571429e+01 4.18484002970796e-03 5.65486233693240e-05
2.11615714285714e+01 4.14375174513199e-03 5.61174258181508e-05
2.12550000000000e+01 4.10306688025404e-03 5.56889735497789e-05
2.13484285714286e+01 4.06278147415384e-03 5.52632585814914e-05
2.14418571428571e+01 4.02289160480088e-03 5.48402727470121e-05
2.15352857142857e+01 3.98339338885538e-03 5.44200078230237e-05
2.16287142857143e+01 3.94428298073798e-03 5.40024554093042e-05
2.17221428571429e+01 3.90555657281120e-03 5.35876067456780e-05
2.18155714285714e+01 3.86721039499755e-03 5.31754530925936e-05
2.19090000000000e+01 3.82924071388354e-03 5.27659855506610e-05
2.20024285714286e+01 3.79164383288862e-03 5.23591949421020e-05
2.20958571428571e+01 3.75441609172654e-03 5.19550719449815e-05
2.21892857142857e+01 3.71755386621465e-03 5.15536072091071e-05
2.22827142857143e+01 3.68105356742095e-03 5.11547912454277e-05
2.23761428571429e+01 3.64491164181802e-03 5.07586142573560e-05
2.24695714285714e+01 3.60912457092699e-03 5.03650664902835e-05
2.25630000000000e+01 3.57368887049584e-03 4.99741380652631e-05
2.26564285714286e+01 3.53860109064245e-03 4.95858188696315e-05
2.27498571428571e+01 3.50385781535686e-03 4.92000986800623e-05
2.28432857142857e+01 3.46945566231885e-03 4.88169672688150e-05
2.29367142857143e+01 3.43539128211524e-03 4.84364143016533e-05
2.30301428571429e+01 3.40166135837016e-03 4.80584291823607e-05
2.31235714285714e+01 3.36826260741304e-03 4.76830013738892e-05
2.32170000000000e+01 3.33519177752446e-03 4.73101202450390e-05
2.33104285714286e+01 3.30244564905685e-03 4.69397749695184e-05
2.34038571428571e+01 3.27002103397429e-03 4.65719546388093e-05
2.34972857142857e+01 3.23791477567832e-03 4.62066483596330e-05
2.35907142857143e+01 3.20612374828935e-03 4.58438451597175e-05
2.36841428571429e+01 3.17464485675628e-03 4.54835338444170e-05
2.37775714285714e+01 3.14347503654694e-03 4.51257032919461e-05
2.38710000000000e+01 3.11261125295549e-03 4.47703423119978e-05
2.39644285714286e+01 3.08205050120376e-03 4.44174395525655e-05
2.40578571428571e+01 3.05178980601561e-03 4.40669836035321e-05
2.41512857142857e+01 3.02182622145082e-03 4.37189630861145e-05
2.42447142857143e+01 2.99215683024495e-03 4.33733665658546e-05
2.43381428571429e+01 2.96277874390114e-03 4.30301824203780e-05
2.44315714285714e+01 2.93368910240146e-03 4.26893991109188e-05
2.45250000000000e+01 2.90488507357035e-03 4.23510050519060e-05
2.46184285714286e+01 2.87636385315936e-03 4.20149885249296e-05
2.47118571428571e+01 2.84812266445315e-03 4.16813377738670e-05
2.48052857142857e+01 2.82015875811148e-03 4.13500410870106e-05
2.48987142857143e+01 2.79246941156233e-03 4.10210867167093e-05
2.49921428571429e+01 2.76505192907828e-03 4.06944627573701e-05
2.50855714285714e+01 2.73790364150732e-03 4.03701573952736e-05
2.51790000000000e+01 2.71102190568760e-03 4.00481587882452e-05
2.52724285714286e+01 2.68440410451761e-03 3.97284549862102e-05
2.53658571428571e+01 2.65804764659148e-03 3.94110340185828e-05
2.54592857142857e+01 2.63194996604884e-03 3.90958839697095e-05
2.55527142857143e+01 2.60610852201653e-03 3.87829929046418e-05
2.56461428571429e+01 2.58052079867174e-03 3.84723487565505e-05
2.57395714285714e+01 2.55518430499094e-03 3.81639395566637e-05
2.58330000000000e+01 2.53009657421140e-03 3.78577533232176e-05
2.59264285714286e+01 2.50525516388897e-03 3.75537779880662e-05
2.60198571428571e+01 2.48065765556028e-03 3.72520014770055e-05
2.61132857142857e+01 2.45630165460022e-03 3.69524117791096e-05
2.62067142857143e+01 2.43218478970818e-03 3.66549968781466e-05
2.63001428571429e+01 2.40830471295966e-03 3.63597446486583e-05
2.63935714285714e+01 2.38465909957214e-03 3.60666430676764e-05
2.64870000000000e+01 2.36124564740942e-03 3.57756801122067e-05
2.65804285714286e+01 2.33806207702858e-03 3.54868436914297e-05
2.66738571428571e+01 2.31510613136711e-03 3.52001217205516e-05
2.67672857142857e+01 2.29237557560770e-03 3.49155021845552e-05
2.68607142857143e+01 2.26986819670528e-03 3.46329730748202e-05
2.69541428571429e+01 2.24758180342863e-03 3.43525222931736e-05
2.70475714285714e+01 2.22551422614210e-03 3.40741378469005e-05
2.71410000000000e+01 2.20366331634906e-03 3.37978077540798e-05
2.72344285714286e+01 2.18202694672964e-03 3.35235199809331e-05
2.73278571428571e+01 2.16060301085078e-03 3.32512625097557e-05
2.74212857142857e+01 2.13938942303815e-03 3.29810233975530e-05
2.75147142857143e+01 2.11838411794045e-03 3.27127907174589e-05
2.76081428571429e+01 2.09758505056254e-03 3.24465524701285e-05
2.77015714285714e+01 2.07699019606182e-03 3.21822967634077e-05
2.77950000000000e+01 2.05659754932759e-03 3.19200117249086e-05
2.78884285714286e+01 2.03640512501079e-03 3.16596854441055e-05
2.79818571428571e+01 2.01641095725525e-03 3.14013060348356e-05
2.80752857142857e+01 1.99661309957649e-03 3.11448616892560e-05
2.81687142857143e+01 1.97700962446016e-03 3.08903406236859e-05
2.82621428571429e+01 1.95759862338784e-03 3.06377309967571e-05
2.83555714285714e+01 1.93837820664712e-03 3.03870210750067e-05
2.84490000000000e+01 1.91934650294389e-03 3.01381991521170e-05
2.85424285714286e+01 1.90050165942523e-03 2.98912534953829e-05
2.86358571428571e+01 1.88184184143017e-03 2.96461724032468e-05
2.87292857142857e+01 1.86336523237517e-03 2.94029442549605e-05
2.88227142857143e+01 1.84507003338381e-03 2.91615574605049e-05
2.89161428571429e+01 1.82695446330636e-03 2.89220003849689e-05
2.90095714285714e+01 1.80901675854261e-03 2.86842615012143e-05
2.91030000000000e+01 1.79125517268436e-03 2.84483293152532e-05
2.91964285714286e+01 1.77366797653239e-03 2.82141923167521e-05
2.92898571428571e+01 1.75625345786543e-03 2.79818390320064e-05
2.93832857142857e+01 1.73900992133182e-03 2.77512580696649e-05
2.94767142857143e+01 1.72193568810801e-03 2.75224380744162e-05
