Energy (eV)          EEDF (eV^-(3/2))     First Anisotropy
9.90909090909091e-03 7.90277644584270e-01 6.23965308952151e-04
2.97272727272727e-02 7.77957019939428e-01 1.02576082191446e-03
4.95454545454545e-02 7.65828476892972e-01 1.34203275426058e-03
6.93636363636364e-02 7.53889020823472e-01 1.57507662113933e-03
8.91818181818182e-02 7.42135703844973e-01 1.76354519544916e-03
1.09000000000000e-01 7.30565623999374e-01 1.92224951254768e-03
1.28818181818182e-01 7.19175924562161e-01 2.05895209362759e-03
1.48636363636364e-01 7.07963793352124e-01 2.17839836937554e-03
1.68454545454545e-01 6.96926462040915e-01 2.28377347032674e-03
1.88272727272727e-01 6.86061205518524e-01 2.37735503787398e-03
2.08090909090909e-01 6.75365341031408e-01 2.46084841146684e-03
2.27909090909091e-01 6.64836227717821e-01 2.53557588095655e-03
2.47727272727273e-01 6.54471265886233e-01 2.60259135778985e-03
2.67545454545455e-01 6.44267896375869e-01 2.66275373289381e-03
2.87363636363636e-01 6.34223599959012e-01 2.71677591846959e-03
3.07181818181818e-01 6.24335896609820e-01 2.76525881084098e-03
3.27000000000000e-01 6.14602345004474e-01 2.80871553049066e-03
3.46818181818182e-01 6.05020541879607e-01 2.84758917966315e-03
3.66636363636364e-01 5.95588121439278e-01 2.88226612268775e-03
3.86454545454545e-01 5.86302754771008e-01 2.91308611505773e-03
4.06272727272727e-01 5.77162149293217e-01 2.94035016588208e-03
4.26090909090909e-01 5.68164048119643e-01 2.96432671902681e-03
4.45909090909091e-01 5.59306229573287e-01 2.98525658272301e-03
4.65727272727273e-01 5.50586506613364e-01 3.00335691719134e-03
4.85545454545455e-01 5.42002726295805e-01 3.01882448038210e-03
5.05363636363636e-01 5.33552769258061e-01 3.03183830936715e-03
5.25181818181818e-01 5.25234549144925e-01 3.04256194275651e-03
5.45000000000000e-01 5.17046012145352e-01 3.05114528283793e-03
5.64818181818182e-01 5.08985136467621e-01 3.05772617513573e-03
5.84636363636364e-01 5.01049931840230e-01 3.06243174610401e-03
6.04454545454545e-01 4.93238439020551e-01 3.06537954808425e-03
6.24272727272727e-01 4.85548729323262e-01 3.06667854959503e-03
6.44090909090909e-01 4.77978904106722e-01 3.06642998710806e-03
6.63909090909091e-01 4.70527094342316e-01 3.06472810590848e-03
6.83727272727273e-01 4.63191460139944e-01 3.06166081379423e-03
7.03545454545455e-01 4.55970190293928e-01 3.05731024975223e-03
7.23363636363636e-01 4.48861501845430e-01 3.05175329069307e-03
7.43181818181818e-01 4.41863639612611e-01 3.04506199548454e-03
7.63000000000000e-01 4.34974875787405e-01 3.03730399945825e-03
7.82818181818182e-01 4.28193509498658e-01 3.02854287146840e-03
8.02636363636364e-01 4.21517866392217e-01 3.01883842961397e-03
8.22454545454545e-01 4.14946298217544e-01 3.00824702492676e-03
8.42272727272727e-01 4.08477182428323e-01 2.99682180026726e-03
8.62090909090909e-01 4.02108921758693e-01 2.98461292014864e-03
8.81909090909091e-01 3.95839943852407e-01 2.97166777873211e-03
9.01727272727273e-01 3.89668700866594e-01 2.95803119303454e-03
9.21545454545455e-01 3.83593669089675e-01 2.94374557474829e-03
9.41363636363636e-01 3.77613348571358e-01 2.92885109080731e-03
9.61181818181818e-01 3.71726262733249e-01 2.91338580667524e-03
9.81000000000000e-01 3.65930958023620e-01 2.89738581752704e-03
1.00081818181818e+00 3.60226003551954e-01 2.88088537053207e-03
1.02063636363636e+00 3.54609990751682e-01 2.86391698096759e-03
1.04045454545455e+00 3.49081532993885e-01 2.84651154056865e-03
1.06027272727273e+00 3.43639265222932e-01 2.82869838970256e-03
1.08009090909091e+00 3.38281843767074e-01 2.81050542229356e-03
1.09990909090909e+00 3.33007945850563e-01 2.79195918027764e-03
1.11972727272727e+00 3.27816269319875e-01 2.77308490946000e-03
1.13954545454545e+00 3.22705532322663e-01 2.75390664259566e-03
1.15936363636364e+00 3.17674472948511e-01 2.73444724825612e-03
1.17918181818182e+00 3.12721849047088e-01 2.71472850362377e-03
1.19900000000000e+00 3.07846437789387e-01 2.69477116346520e-03
1.21881818181818e+00 3.03047035410558e-01 2.67459499581453e-03
1.23863636363636e+00 2.98322456912782e-01 2.65421883805386e-03
1.25845454545455e+00 2.93671535772768e-01 2.63366064867568e-03
1.27827272727273e+00 2.89093123618660e-01 2.61293753660608e-03
1.29809090909091e+00 2.84586090053195e-01 2.59206581242305e-03
1.31790909090909e+00 2.80149322266057e-01 2.57106103732634e-03
1.33772727272727e+00 2.75781724795814e-01 2.54993804424289e-03
1.35754545454545e+00 2.71482219259711e-01 2.52871098174481e-03
1.37736363636364e+00 2.67249744057212e-01 2.50739333342001e-03
1.39718181818182e+00 2.63083254199530e-01 2.48599795729233e-03
1.41700000000000e+00 2.58981720958427e-01 2.46453712375569e-03
1.43681818181818e+00 2.54944131643760e-01 2.44302252914890e-03
1.45663636363636e+00 2.50969489353498e-01 2.42146532621025e-03
1.47645454545455e+00 2.47056812727633e-01 2.39987615229302e-03
1.49627272727273e+00 2.43205135680696e-01 2.37826514112033e-03
1.51609090909091e+00 2.39413507239785e-01 2.35664195242714e-03
1.53590909090909e+00 2.35680991231963e-01 2.33501580066822e-03
1.55572727272727e+00 2.32006666079390e-01 2.31339546280938e-03
1.57554545454545e+00 2.28389624571957e-01 2.29178930450862e-03
1.59536363636364e+00 2.24828973621385e-01 2.27020528775730e-03
1.61518181818182e+00 2.21323834107171e-01 2.24865099473494e-03
1.63500000000000e+00 2.17873340592018e-01 2.22713365102178e-03
1.65481818181818e+00 2.14476641130988e-01 2.20566013025517e-03
1.67463636363636e+00 2.11132897061192e-01 2.18423697238613e-03
1.69445454545455e+00 2.07841282794747e-01 2.16287040059700e-03
1.71427272727273e+00 2.04600985596463e-01 2.14156632565321e-03
1.73409090909091e+00 2.01411205439324e-01 2.12033036463664e-03
1.75390909090909e+00 1.98271154749936e-01 2.09916785926021e-03
1.77372727272727e+00 1.95180058233326e-01 2.07808387803977e-03
1.79354545454545e+00 1.92137152681626e-01 2.05708323317518e-03
1.81336363636364e+00 1.89141686769443e-01 2.03617048306785e-03
1.83318181818182e+00 1.86192920917477e-01 2.01534994784801e-03
1.85300000000000e+00 1.83290127060039e-01 1.99462572460962e-03
1.87281818181818e+00 1.80432588482149e-01 1.97400168820745e-03
1.89263636363636e+00 1.77619599642605e-01 1.95348150295230e-03
1.91245454545455e+00 1.74850465999792e-01 1.93306863342780e-03
1.93227272727273e+00 1.72124503826426e-01 1.91276634551021e-03
1.95209090909091e+00 1.69441040082603e-01 1.89257771892169e-03
1.97190909090909e+00 1.66799412207126e-01 1.87250565959133e-03
1.99172727272727e+00 1.64198967968264e-01 1.85255289935790e-03
2.01154545454545e+00 1.61639065302783e-01 1.83272200744146e-03
2.03136363636364e+00 1.59119072145271e-01 1.81301539062113e-03
2.05118181818182e+00 1.56638366308929e-01 1.79343530385043e-03
2.07100000000000e+00 1.54196335294555e-01 1.77398386073966e-03
2.09081818181818e+00 1.51792376151952e-01 1.75466303265858e-03
2.11063636363636e+00 1.49425895331072e-01 1.73547465657766e-03
2.13045454545455e+00 1.47096308535478e-01 1.71642044229677e-03
2.15027272727273e+00 1.44803040567672e-01 1.69750197193772e-03
2.17009090909091e+00 1.42545525218699e-01 1.67872070869946e-03
2.18990909090909e+00 1.40323205096262e-01 1.66007800552793e-03
2.20972727272727e+00 1.38135531497929e-01 1.64157510375714e-03
2.22954545454545e+00 1.35981964275704e-01 1.62321314119097e-03
2.24936363636364e+00 1.33861971693440e-01 1.60499315121873e-03
2.26918181818182e+00 1.31775030323528e-01 1.58691607032255e-03
2.28900000000000e+00 1.29720624889280e-01 1.56898274552851e-03
2.30881818181818e+00 1.27698248147294e-01 1.55119393281035e-03
2.32863636363636e+00 1.25707400762223e-01 1.53355030251653e-03
2.34845454545455e+00 1.23747591183492e-01 1.51605244435292e-03
2.36827272727273e+00 1.21818335515993e-01 1.49870086620406e-03
2.38809090909091e+00 1.19919157424740e-01 1.48149600041228e-03
2.40790909090909e+00 1.18049587992787e-01 1.46443821002465e-03
2.42772727272727e+00 1.16209165613700e-01 1.44752778703615e-03
2.44754545454545e+00 1.14397435877627e-01 1.43076495822941e-03
2.46736363636364e+00 1.12613951452032e-01 1.41414988384722e-03
2.48718181818182e+00 1.10858271992685e-01 1.39768266303028e-03
2.50700000000000e+00 1.09129964013198e-01 1.38136333923748e-03
2.52681818181818e+00 1.07428600785340e-01 1.36519189842629e-03
2.54663636363636e+00 1.05753762233683e-01 1.34916827289469e-03
2.56645454545455e+00 1.04105034831887e-01 1.33329234479151e-03
2.58627272727273e+00 1.02482011494478e-01 1.31756394468888e-03
2.60609090909091e+00 1.00884291494931e-01 1.30198285617652e-03
2.62590909090909e+00 9.93114803478747e-02 1.28654882045033e-03
2.64572727272727e+00 9.77631897180542e-02 1.27126153447817e-03
2.66554545454545e+00 9.62390373244719e-02 1.25612065529724e-03
2.68536363636364e+00 9.47386468405397e-02 1.24112579855193e-03
2.70518181818182e+00 9.32616478177268e-02 1.22627654250113e-03
2.72500000000000e+00 9.18076755773020e-02 1.21157243202739e-03
2.74481818181818e+00 9.03763711259626e-02 1.19701297682399e-03
2.76463636363636e+00 8.89673810672028e-02 1.18259765415871e-03
2.78445454545455e+00 8.75803575140629e-02 1.16832591138535e-03
2.80427272727273e+00 8.62149579984866e-02 1.15419716447897e-03
2.82409090909091e+00 8.48708454011807e-02 1.14021080144673e-03
2.84390909090909e+00 8.35476878537663e-02 1.12636618574614e-03
2.86372727272727e+00 8.22451586617677e-02 1.11266265452635e-03
2.88354545454545e+00 8.09629362239675e-02 1.09909952183305e-03
2.90336363636364e+00 7.97007039487546e-02 1.08567607716580e-03
2.92318181818182e+00 7.84581501888388e-02 1.07239158846879e-03
2.94300000000000e+00 7.72349681512470e-02 1.05924530513269e-03
2.96281818181818e+00 7.60308558259821e-02 1.04623645629596e-03
2.98263636363636e+00 7.48455159114598e-02 1.03336425285605e-03
3.00245454545455e+00 7.36786557411059e-02 1.02062788928554e-03
3.02227272727273e+00 7.25299872073909e-02 1.00802654223434e-03
3.04209090909091e+00 7.13992267019442e-02 9.95559373089173e-04
3.06190909090909e+00 7.02860950341300e-02 9.83225530546607e-04
3.08172727272727e+00 6.91903173659585e-02 9.71024148998564e-04
3.10154545454545e+00 6.81116231442401e-02 9.58954350946108e-04
3.12136363636364e+00 6.70497460304620e-02 9.47015245650350e-04
3.14118181818182e+00 6.60044238451048e-02 9.35205931385460e-04
3.16100000000000e+00 6.49753984926983e-02 9.23525497706899e-04
3.18081818181818e+00 6.39624159015430e-02 9.11973023912210e-04
3.20063636363636e+00 6.29652259609815e-02 9.00547580515994e-04
3.22045454545455e+00 6.19835824596472e-02 8.89248230572779e-04
3.24027272727273e+00 6.10172430217669e-02 8.78074028393790e-04
3.26009090909091e+00 6.00659690561415e-02 8.67024021482922e-04
3.27990909090909e+00 5.91295256882958e-02 8.56097252488650e-04
3.29972727272727e+00 5.82076817055024e-02 8.45292757758730e-04
3.31954545454545e+00 5.73002094997031e-02 8.34609569171540e-04
3.33936363636364e+00 5.64068850087002e-02 8.24046712912215e-04
3.35918181818182e+00 5.55274876687547e-02 8.13603211181807e-04
3.37900000000000e+00 5.46618003521040e-02 8.03278083922856e-04
3.39881818181818e+00 5.38096093160600e-02 7.93070347452451e-04
3.41863636363636e+00 5.29707041502367e-02 7.82979015549553e-04
3.43845454545455e+00 5.21448777246012e-02 7.73003100422709e-04
3.45827272727273e+00 5.13319261360412e-02 7.63141611559085e-04
3.47809090909091e+00 5.05316486649742e-02 7.53393557197474e-04
3.49790909090909e+00 4.97438477187447e-02 7.43757945817606e-04
3.51772727272727e+00 4.89683287852128e-02 7.34233784866513e-04
3.53754545454545e+00 4.82049003847355e-02 7.24820082155604e-04
3.55736363636364e+00 4.74533740208271e-02 7.15515844771144e-04
3.57718181818182e+00 4.67135641398723e-02 7.06320080377509e-04
3.59700000000000e+00 4.59852880789775e-02 6.97231798536571e-04
3.61681818181818e+00 4.52683660230081e-02 6.88250009509461e-04
3.63663636363636e+00 4.45626209601926e-02 6.79373725060479e-04
3.65645454545455e+00 4.38678786384191e-02 6.70601959166233e-04
3.67627272727273e+00 4.31839675203987e-02 6.61933726998600e-04
3.69609090909091e+00 4.25107187468144e-02 6.53368046050430e-04
3.71590909090909e+00 4.18479660890557e-02 6.44903937276758e-04
3.73572727272727e+00 4.11955459100558e-02 6.36540423984027e-04
3.75554545454545e+00 4.05532971238930e-02 6.28276532900246e-04
3.77536363636364e+00 3.99210611543846e-02 6.20111293216953e-04
3.79518181818182e+00 3.92986819008887e-02 6.12043737586777e-04
3.81500000000000e+00 3.86860056947437e-02 6.04072903136094e-04
3.83481818181818e+00 3.80828812630196e-02 5.96197830423627e-04
3.85463636363636e+00 3.74891596911694e-02 5.88417564035460e-04
3.87445454545455e+00 3.69046943862626e-02 5.80731153104641e-04
3.89427272727273e+00 3.63293410393508e-02 5.73137650421368e-04
3.91409090909091e+00 3.57629575942063e-02 5.65636113296001e-04
3.93390909090909e+00 3.52054042078231e-02 5.58225604436323e-04
3.95372727272727e+00 3.46565432173809e-02 5.50905190985675e-04
3.97354545454545e+00 3.41162391062592e-02 5.43673945345056e-04
3.99336363636364e+00 3.35843584692783e-02 5.36530944338000e-04
4.01318181818182e+00 3.30607699837015e-02 5.29475269976085e-04
4.03300000000000e+00 3.25453443728203e-02 5.22506010238190e-04
4.05281818181818e+00 3.20379543753817e-02 5.15622258171126e-04
4.07263636363636e+00 3.15384747141675e-02 5.08823112329590e-04
4.09245454545455e+00 3.10467820650636e-02 5.02107677155895e-04
4.11227272727273e+00 3.05627550254641e-02 4.95475062207140e-04
4.13209090909091e+00 3.00862740877763e-02 4.88924382818123e-04
4.15190909090909e+00 2.96172216063895e-02 4.82454760777163e-04
4.17172727272727e+00 2.91554817698165e-02 4.76065323497525e-04
4.19154545454545e+00 2.87009405721014e-02 4.69755204650121e-04
4.21136363636364e+00 2.82534857836352e-02 4.63523543439991e-04
4.23118181818182e+00 2.78130069265880e-02 4.57369485194780e-04
4.25100000000000e+00 2.73793952444499e-02 4.51292181965446e-04
4.27081818181818e+00 2.69525436762511e-02 4.45290791752944e-04
4.29063636363636e+00 2.65323468301297e-02 4.39364478832703e-04
4.31045454545455e+00 2.61187009573094e-02 4.33512414030809e-04
4.33027272727273e+00 2.57115039255687e-02 4.27733774056205e-04
4.35009090909091e+00 2.53106551968024e-02 4.22027742010595e-04
4.36990909090909e+00 2.49160557993845e-02 4.16393507909791e-04
4.38972727272727e+00 2.45276083046806e-02 4.10830267972526e-04
4.40954545454545e+00 2.41452168029939e-02 4.05337225108050e-04
4.42936363636364e+00 2.37687868790564e-02 3.99913588292088e-04
4.44918181818182e+00 2.33982255912303e-02 3.94558573019614e-04
4.46900000000000e+00 2.30334414460159e-02 3.89271401768447e-04
4.48881818181818e+00 2.26743443763194e-02 3.84051303336429e-04
4.50863636363636e+00 2.23208457192156e-02 3.78897513079681e-04
4.52845454545455e+00 2.19728581940570e-02 3.73809273112031e-04
4.54827272727273e+00 2.16302958801904e-02 3.68785831730165e-04
4.56809090909091e+00 2.12930741979681e-02 3.63826443806013e-04
4.58790909090909e+00 2.09611098856119e-02 3.58930371189180e-04
4.60772727272727e+00 2.06343209794145e-02 3.54096882098305e-04
4.62754545454545e+00 2.03126267935041e-02 3.49325251496952e-04
4.64736363636364e+00 1.99959478992587e-02 3.44614760557212e-04
4.66718181818182e+00 1.96842061077089e-02 3.39964697008135e-04
4.68700000000000e+00 1.93773244481932e-02 3.35374355493608e-04
4.70681818181818e+00 1.90752271500419e-02 3.30843037005681e-04
4.72663636363636e+00 1.87778396238687e-02 3.26370049058351e-04
4.74645454545455e+00 1.84850884431551e-02 3.21954705830002e-04
4.76627272727273e+00 1.81969013255319e-02 3.17596327670060e-04
4.78609090909091e+00 1.79132071167191e-02 3.13294241400903e-04
4.80590909090909e+00 1.76339357711487e-02 3.09047780628473e-04
4.82572727272727e+00 1.73590183352802e-02 3.04856285222522e-04
4.84554545454545e+00 1.70883869305767e-02 3.00719101606312e-04
4.86536363636364e+00 1.68219747362115e-02 2.96635582296779e-04
4.88518181818182e+00 1.65597159741884e-02 2.92605086172527e-04
4.90500000000000e+00 1.63015458914623e-02 2.88626978750007e-04
4.92481818181818e+00 1.60474007445042e-02 2.84700631700002e-04
4.94463636363636e+00 1.57972177835624e-02 2.80825422973173e-04
4.96445454545455e+00 1.55509352371699e-02 2.77000736900295e-04
4.98427272727273e+00 1.53084922964190e-02 2.73225963769821e-04
5.00409090909091e+00 1.50698291013845e-02 2.69500500059967e-04
5.02390909090909e+00 1.48348867248889e-02 2.65823748678322e-04
5.04372727272727e+00 1.46036071584440e-02 2.62195118518748e-04
5.06354545454545e+00 1.43759332979285e-02 2.58614024684445e-04
5.08336363636364e+00 1.41518089290598e-02 2.55079888094538e-04
5.10318181818182e+00 1.39311787148171e-02 2.51592135690010e-04
5.12300000000000e+00 1.37139881804593e-02 2.48150200646632e-04
5.14281818181818e+00 1.35001837005200e-02 2.44753521962994e-04
5.16263636363636e+00 1.32897124855671e-02 2.41401544550057e-04
5.18245454545455e+00 1.30825225691695e-02 2.38093719300190e-04
5.20227272727273e+00 1.28785627946838e-02 2.34829502726124e-04
5.22209090909091e+00 1.26777828037826e-02 2.31608357139082e-04
5.24190909090909e+00 1.24801330228476e-02 2.28429750833393e-04
5.26172727272727e+00 1.22855646511257e-02 2.25293157709224e-04
5.28154545454545e+00 1.20940296486796e-02 2.22198057444096e-04
5.30136363636364e+00 1.19054807241807e-02 2.19143935156892e-04
5.32118181818182e+00 1.17198713242835e-02 2.16130281565730e-04
5.34100000000000e+00 1.15371556210673e-02 2.13156593151923e-04
5.36081818181818e+00 1.13572885010801e-02 2.10222371809407e-04
5.38063636363636e+00 1.11802255541996e-02 2.07327124907454e-04
5.40045454545455e+00 1.10059230626688e-02 2.04470365336797e-04
5.42027272727273e+00 1.08343379899936e-02 2.01651611201486e-04
5.44009090909091e+00 1.06654279712514e-02 1.98870385955305e-04
5.45990909090909e+00 1.04991513016853e-02 1.96126218543755e-04
5.47972727272727e+00 1.03354669267256e-02 1.93418643083166e-04
5.49954545454545e+00 1.01743344318538e-02 1.90747198992304e-04
5.51936363636364e+00 1.00157140323442e-02 1.88111430705775e-04
5.53918181818182e+00 9.85956656429008e-03 1.85510887794783e-04
5.55900000000000e+00 9.70585347407410e-03 1.82945125093086e-04
5.57881818181818e+00 9.55453680913949e-03 1.80413702398959e-04
5.59863636363636e+00 9.40557920861927e-03 1.77916184518023e-04
5.61845454545455e+00 9.25894389411185e-03 1.75452141292607e-04
5.63827272727273e+00 9.11459466035103e-03 1.73021147339082e-04
5.65809090909091e+00 8.97249586702286e-03 1.70622782152026e-04
5.67790909090909e+00 8.83261242920064e-03 1.68256630213137e-04
5.69772727272727e+00 8.69490980894019e-03 1.65922280718544e-04
5.71754545454545e+00 8.55935400675277e-03 1.63619327679495e-04
5.73736363636364e+00 8.42591155298375e-03 1.61347369678160e-04
5.75718181818182e+00 8.29454950023605e-03 1.59106009959697e-04
5.77700000000000e+00 8.16523541453975e-03 1.56894856528745e-04
5.79681818181818e+00 8.03793736757851e-03 1.54713521896225e-04
5.81663636363636e+00 7.91262392880645e-03 1.52561623107543e-04
5.83645454545455e+00 7.78926415768782e-03 1.50438781759803e-04
5.85627272727273e+00 7.66782759585580e-03 1.48344623778123e-04
5.87609090909091e+00 7.54828426020462e-03 1.46278779494869e-04
5.89590909090909e+00 7.43060463486674e-03 1.44240883732933e-04
5.91572727272727e+00 7.31475966413423e-03 1.42230575574172e-04
5.93554545454545e+00 7.20072074528507e-03 1.40247498436145e-04
5.95536363636364e+00 7.08845972133735e-03 1.38291299864255e-04
5.97518181818182e+00 6.97794887465408e-03 1.36361631601619e-04
5.99500000000000e+00 6.86916091953600e-03 1.34458149662723e-04
6.01481818181818e+00 6.76206899567461e-03 1.32580514118483e-04
6.03463636363636e+00 6.65664666152035e-03 1.30728389113717e-04
6.05445454545455e+00 6.55286788775408e-03 1.28901442875692e-04
6.07427272727273e+00 6.45070705069664e-03 1.27099347523797e-04
6.09409090909091e+00 6.35013892647886e-03 1.25321779129511e-04
6.11390909090909e+00 6.25113868431108e-03 1.23568417779835e-04
6.13372727272727e+00 6.15368188052172e-03 1.21838947380752e-04
6.15354545454545e+00 6.05774445252228e-03 1.20133055715471e-04
6.17336363636364e+00 5.96330271271712e-03 1.18450434267585e-04
6.19318181818182e+00 5.87033334310685e-03 1.16790778273843e-04
6.21300000000000e+00 5.77881338907360e-03 1.15153786780133e-04
6.23281818181818e+00 5.68872025386768e-03 1.13539162459080e-04
6.25263636363636e+00 5.60003169302837e-03 1.11946611619779e-04
