Energy (eV)          EEDF (eV^-(3/2))     First Anisotropy
2.41304347826087e-03 2.18817226089781e+00 1.18820498000895e-03
7.23913043478261e-03 2.17177025389242e+00 1.96130408615877e-03
1.20652173913043e-02 2.15549119236842e+00 2.58713091758450e-03
1.68913043478261e-02 2.13933415468334e+00 3.06135321243155e-03
2.17173913043478e-02 2.12329822628419e+00 3.45584944499795e-03
2.65434782608696e-02 2.10738249927328e+00 3.79782058621403e-03
3.13695652173913e-02 2.09158607271168e+00 4.10135527654914e-03
3.61956521739130e-02 2.07590805230077e+00 4.37496837139619e-03
4.10217391304348e-02 2.06034755049895e+00 4.62431173731563e-03
4.58478260869565e-02 2.04490368645657e+00 4.85338328149847e-03
5.06739130434783e-02 2.02957558584811e+00 5.06514487404264e-03
5.55000000000000e-02 2.01436238097018e+00 5.26186966336458e-03
6.03260869565217e-02 1.99926321056396e+00 5.44535154468452e-03
6.51521739130435e-02 1.98427721987944e+00 5.61703857602393e-03
6.99782608695652e-02 1.96940356052621e+00 5.77812174817915e-03
7.48043478260870e-02 1.95464139051621e+00 5.92959619525325e-03
7.96304347826087e-02 1.93998987413349e+00 6.07230468617964e-03
8.44565217391304e-02 1.92544818194580e+00 6.20696930816208e-03
8.92826086956522e-02 1.91101549075499e+00 6.33421508026142e-03
9.41086956521739e-02 1.89669098349979e+00 6.45458786242231e-03
9.89347826086956e-02 1.88247384927463e+00 6.56856818272635e-03
1.03760869565217e-01 1.86836328323627e+00 6.67658207475178e-03
1.08586956521739e-01 1.85435848656256e+00 6.77900966585242e-03
1.13413043478261e-01 1.84045866643266e+00 6.87619208268418e-03
1.18239130434783e-01 1.82666303596812e+00 6.96843705795421e-03
1.23065217391304e-01 1.81297081418905e+00 7.05602352216135e-03
1.27891304347826e-01 1.79938122596952e+00 7.13920540194818e-03
1.32717391304348e-01 1.78589350199374e+00 7.21821478648918e-03
1.37543478260870e-01 1.77250687871245e+00 7.29326458692062e-03
1.42369565217391e-01 1.75922059829973e+00 7.36455078534713e-03
1.47195652173913e-01 1.74603390861014e+00 7.43225434890063e-03
1.52021739130435e-01 1.73294606313608e+00 7.49654286838393e-03
1.56847826086957e-01 1.71995632096558e+00 7.55757196885964e-03
1.61673913043478e-01 1.70706394674033e+00 7.61548653017090e-03
1.66500000000000e-01 1.69426821061409e+00 7.67042173771392e-03
1.71326086956522e-01 1.68156838828332e+00 7.72250404058983e-03
1.76152173913043e-01 1.66896376072732e+00 7.77185194319545e-03
1.80978260869565e-01 1.65645361438946e+00 7.81857669974412e-03
1.85804347826087e-01 1.64403724106176e+00 7.86278297899234e-03
1.90630434782609e-01 1.63171393784477e+00 7.90456941450012e-03
1.95456521739130e-01 1.61948300710779e+00 7.94402910398126e-03
2.00282608695652e-01 1.60734375644936e+00 7.98125005513116e-03
2.05108695652174e-01 1.59529549865810e+00 8.01631558487043e-03
2.09934782608696e-01 1.58333755167378e+00 8.04930467789969e-03
2.14760869565217e-01 1.57146923854871e+00 8.08029230959152e-03
2.19586956521739e-01 1.55968988740942e+00 8.10934973752706e-03
2.24413043478261e-01 1.54799883141865e+00 8.13654476538623e-03
2.29239130434783e-01 1.53639540873750e+00 8.16194198233446e-03
2.34065217391304e-01 1.52487896248811e+00 8.18560298072985e-03
2.38891304347826e-01 1.51344884071643e+00 8.20758655454492e-03
2.43717391304348e-01 1.50210439635529e+00 8.22794888053176e-03
2.48543478260870e-01 1.49084498718774e+00 8.24674368400449e-03
2.53369565217391e-01 1.47966997581077e+00 8.26402239082548e-03
2.58195652173913e-01 1.46857872959916e+00 8.27983426699835e-03
2.63021739130435e-01 1.45757062066968e+00 8.29422654710696e-03
2.67847826086957e-01 1.44664502584556e+00 8.30724455268852e-03
2.72673913043478e-01 1.43580132662124e+00 8.31893180150977e-03
2.77500000000000e-01 1.42503890912727e+00 8.32933010183802e-03
2.82326086956522e-01 1.41435716413216e+00 8.33847966646988e-03
2.87152173913043e-01 1.40375548689718e+00 8.34641918574300e-03
2.91978260869565e-01 1.39323327725397e+00 8.35318589427334e-03
2.96804347826087e-01 1.38278993953287e+00 8.35881566682322e-03
3.01630434782609e-01 1.37242488252922e+00 8.36334308104542e-03
3.06456521739130e-01 1.36213751946989e+00 8.36680148254141e-03
3.11282608695652e-01 1.35192726798002e+00 8.36922304559238e-03
3.16108695652174e-01 1.34179355005013e+00 8.37063882992125e-03
3.20934782608696e-01 1.33173579200332e+00 8.37107883380540e-03
3.25760869565217e-01 1.32175342446286e+00 8.37057204383095e-03
3.30586956521739e-01 1.31184588231991e+00 8.36914648154996e-03
3.35413043478261e-01 1.30201260470155e+00 8.36682924728651e-03
3.40239130434783e-01 1.29225303493898e+00 8.36364656128717e-03
3.45065217391304e-01 1.28256662053611e+00 8.35962380243866e-03
3.49891304347826e-01 1.27295281313821e+00 8.35478554473471e-03
3.54717391304348e-01 1.26341106850087e+00 8.34915559162762e-03
3.59543478260870e-01 1.25394084645922e+00 8.34275700843801e-03
3.64369565217391e-01 1.24454161089733e+00 8.33561215295324e-03
3.69195652173913e-01 1.23521282971785e+00 8.32774270434140e-03
3.74021739130435e-01 1.22595397481190e+00 8.31916969049823e-03
3.78847826086956e-01 1.21676452202920e+00 8.30991351392842e-03
3.83673913043478e-01 1.20764395114834e+00 8.29999397626263e-03
3.88500000000000e-01 1.19859174584738e+00 8.28943029668406e-03
3.93326086956522e-01 1.18960739369658e+00 8.27824114852891e-03
3.98152173913043e-01 1.18069038606286e+00 8.26644467045806e-03
4.02978260869565e-01 1.17184021814816e+00 8.25405847649082e-03
4.07804347826087e-01 1.16305638893823e+00 8.24109968979210e-03
4.12630434782609e-01 1.15433840117432e+00 8.22758495566691e-03
4.17456521739130e-01 1.14568576132500e+00 8.21353045868681e-03
4.22282608695652e-01 1.13709797955824e+00 8.19895193900502e-03
4.27108695652174e-01 1.12857456971366e+00 8.18386470790772e-03
4.31934782608696e-01 1.12011504927503e+00 8.16828366264684e-03
4.36760869565217e-01 1.11171893934292e+00 8.15222330059746e-03
4.41586956521739e-01 1.10338576460765e+00 8.13569773277562e-03
4.46413043478261e-01 1.09511505332230e+00 8.11872069675770e-03
4.51239130434783e-01 1.08690633727608e+00 8.10130556902251e-03
4.56065217391304e-01 1.07875915176777e+00 8.08346537676424e-03
4.60891304347826e-01 1.07067303557946e+00 8.06521280920320e-03
4.65717391304348e-01 1.06264753095041e+00 8.04656022840561e-03
4.70543478260870e-01 1.05468218355114e+00 8.02751967965534e-03
4.75369565217391e-01 1.04677654245771e+00 8.00810290139330e-03
4.80195652173913e-01 1.03893016012621e+00 7.98832133474887e-03
4.85021739130435e-01 1.03114259236738e+00 7.96818613268795e-03
4.89847826086956e-01 1.02341339832152e+00 7.94770816878924e-03
4.94673913043478e-01 1.01574214043351e+00 7.92689804567464e-03
4.99500000000000e-01 1.00812838442800e+00 7.90576609953577e-03
5.04326086956522e-01 1.00057169929931e+00 7.88432241871146e-03
5.09152173913043e-01 9.93071657243397e-01 7.86257684393890e-03
5.13978260869565e-01 9.85627833677597e-01 7.84053896823869e-03
5.18804347826087e-01 9.78239807201804e-01 7.81821815487920e-03
5.23630434782609e-01 9.70907159574627e-01 7.79562354034672e-03
5.28456521739130e-01 9.63629475689707e-01 7.77276404077152e-03
5.33282608695652e-01 9.56406343552224e-01 7.74964835811820e-03
5.38108695652174e-01 9.49237354255569e-01 7.72628498615530e-03
5.42934782608696e-01 9.42122101958196e-01 7.70268221620967e-03
5.47760869565217e-01 9.35060183860649e-01 7.67884814271691e-03
5.52586956521739e-01 9.28051200182758e-01 7.65479066857709e-03
5.57413043478261e-01 9.21094754141008e-01 7.63051751032658e-03
5.62239130434783e-01 9.14190451926067e-01 7.60603620312612e-03
5.67065217391304e-01 9.07337902680511e-01 7.58135410558342e-03
5.71891304347826e-01 9.00536718476687e-01 7.55647840441483e-03
5.76717391304348e-01 8.93786514294752e-01 7.53141611894651e-03
5.81543478260869e-01 8.87086908000878e-01 7.50617410546847e-03
5.86369565217391e-01 8.80437520325620e-01 7.48075906144481e-03
5.91195652173913e-01 8.73837974842443e-01 7.45517752958749e-03
5.96021739130435e-01 8.67287897946413e-01 7.42943590179724e-03
6.00847826086957e-01 8.60786918833047e-01 7.40354042297996e-03
6.05673913043478e-01 8.54334669477324e-01 7.37749719474093e-03
6.10500000000000e-01 8.47930784612846e-01 7.35131217624336e-03
6.15326086956522e-01 8.41574901721082e-01 7.32499119588731e-03
6.20152173913043e-01 8.35266660980868e-01 7.29853994916744e-03
6.24978260869565e-01 8.29005705278241e-01 7.27196399636082e-03
6.29804347826087e-01 8.22791680176074e-01 7.24526877407860e-03
6.34630434782609e-01 8.16624233894017e-01 7.21845959551203e-03
6.39456521739130e-01 8.10503017288577e-01 7.19154165340373e-03
6.44282608695652e-01 8.04427683833356e-01 7.16452002292846e-03
6.49108695652174e-01 7.98397889599435e-01 7.13739966449118e-03
6.53934782608696e-01 7.92413293235900e-01 7.11018542644254e-03
6.58760869565217e-01 7.86473555950520e-01 7.08288204771555e-03
6.63586956521739e-01 7.80578341490570e-01 7.05549416038706e-03
6.68413043478261e-01 7.74727316123793e-01 7.02802629216622e-03
6.73239130434783e-01 7.68920148619500e-01 7.00048286880874e-03
6.78065217391304e-01 7.63156510229835e-01 6.97286821646632e-03
6.82891304347826e-01 7.57436074671153e-01 6.94518656397315e-03
6.87717391304348e-01 7.51758518105554e-01 6.91744204506454e-03
6.92543478260869e-01 7.46123519122545e-01 6.88963870053537e-03
6.97369565217391e-01 7.40530758720848e-01 6.86178048034045e-03
7.02195652173913e-01 7.34979920290343e-01 6.83387124563725e-03
7.07021739130435e-01 7.29470689594139e-01 6.80591477077401e-03
7.11847826086957e-01 7.24002754750792e-01 6.77791474522445e-03
7.16673913043478e-01 7.18575806216641e-01 6.74987477547039e-03
7.21500000000000e-01 7.13189536768293e-01 6.72179838473055e-03
7.26326086956522e-01 7.07843641492284e-01 6.69368902109968e-03
7.31152173913043e-01 7.02537817746491e-01 6.66555005503262e-03
7.35978260869565e-01 6.97271765164479e-01 6.63738477672718e-03
7.40804347826087e-01 6.92045185631288e-01 6.60919640426964e-03
7.45630434782609e-01 6.86857783266556e-01 6.58098808306384e-03
7.50456521739130e-01 6.81709264407766e-01 6.55276288739759e-03
7.55282608695652e-01 6.76599337593624e-01 6.52452382197053e-03
7.60108695652174e-01 6.71527713547561e-01 6.49627382338434e-03
7.64934782608696e-01 6.66494105161351e-01 6.46801576159367e-03
7.69760869565217e-01 6.61498227478864e-01 6.43975244132208e-03
7.74586956521739e-01 6.56539797679930e-01 6.41148660344350e-03
7.79413043478261e-01 6.51618535064332e-01 6.38322092633010e-03
7.84239130434783e-01 6.46734161035908e-01 6.35495802716500e-03
7.89065217391304e-01 6.41886399086790e-01 6.32670046322521e-03
7.93891304347826e-01 6.37074974781745e-01 6.29845073313480e-03
7.98717391304348e-01 6.32299615742638e-01 6.27021127808564e-03
8.03543478260869e-01 6.27560051633016e-01 6.24198448303031e-03
8.08369565217391e-01 6.22856014142801e-01 6.21377267784652e-03
8.13195652173913e-01 6.18187236973103e-01 6.18557813847322e-03
8.18021739130435e-01 6.13553455821142e-01 6.15740308802148e-03
8.22847826086957e-01 6.08954408365288e-01 6.12924969785997e-03
8.27673913043478e-01 6.04389834250210e-01 6.10112008867283e-03
8.32500000000000e-01 5.99859475072138e-01 6.07301632984594e-03
8.37326086956522e-01 5.95363074369382e-01 6.04494044545436e-03
8.42152173913043e-01 5.90900377592261e-01 6.01689441191971e-03
8.46978260869565e-01 5.86471132104354e-01 5.98888015559953e-03
8.51804347826087e-01 5.82075087162941e-01 5.96089955881607e-03
8.56630434782609e-01 5.77711993904806e-01 5.93295445907314e-03
8.61456521739130e-01 5.73381605332153e-01 5.90504664995833e-03
8.66282608695652e-01 5.69083676298623e-01 5.87717788202563e-03
8.71108695652174e-01 5.64817963495410e-01 5.84934986365653e-03
8.75934782608696e-01 5.60584225437495e-01 5.82156426190404e-03
8.80760869565217e-01 5.56382222449971e-01 5.79382270331731e-03
8.85586956521739e-01 5.52211716654474e-01 5.76612677474764e-03
8.90413043478261e-01 5.48072471955721e-01 5.73847802413910e-03
8.95239130434783e-01 5.43964254028138e-01 5.71087796129890e-03
9.00065217391304e-01 5.39886830302601e-01 5.68332805865333e-03
9.04891304347826e-01 5.35839969953267e-01 5.65582975198710e-03
9.09717391304348e-01 5.31823443884508e-01 5.62838444116671e-03
9.14543478260869e-01 5.27837024717939e-01 5.60099349084879e-03
9.19369565217391e-01 5.23880486779551e-01 5.57365823117245e-03
9.24195652173913e-01 5.19953606086930e-01 5.54637995843743e-03
9.29021739130435e-01 5.16056160336580e-01 5.51915993576828e-03
9.33847826086956e-01 5.12187928891339e-01 5.49199939376479e-03
9.38673913043478e-01 5.08348692767886e-01 5.46489953113817e-03
9.43500000000000e-01 5.04538234624346e-01 5.43786151403178e-03
9.48326086956522e-01 5.00756338751811e-01 5.41088648056268e-03
9.53152173913043e-01 4.97002791050577e-01 5.38397553878855e-03
9.57978260869565e-01 4.93277379029654e-01 5.35712976462517e-03
9.62804347826087e-01 4.89579891790831e-01 5.33035020643771e-03
9.67630434782609e-01 4.85910120016737e-01 5.30363788425496e-03
9.72456521739130e-01 4.82267855958996e-01 5.27699379031976e-03
9.77282608695652e-01 4.78652893426460e-01 5.25041888962908e-03
9.82108695652174e-01 4.75065027773543e-01 5.22391412046164e-03
9.86934782608696e-01 4.71504055888629e-01 5.19748039489516e-03
9.91760869565217e-01 4.67969776182581e-01 5.17111859931465e-03
9.96586956521739e-01 4.64461988577321e-01 5.14482959490981e-03
1.00141304347826e+00 4.60980494494511e-01 5.11861422164006e-03
1.00623913043478e+00 4.57525096834396e-01 5.09247328021256e-03
1.01106521739130e+00 4.54095600017319e-01 5.06640756711053e-03
1.01589130434783e+00 4.50691809864242e-01 5.04041785916958e-03
1.02071739130435e+00 4.47313533684455e-01 5.01450487581336e-03
1.02554347826087e+00 4.43960580262975e-01 4.98866934822314e-03
1.03036956521739e+00 4.40632759755146e-01 4.96291198562618e-03
1.03519565217391e+00 4.37329883770961e-01 4.93723345296145e-03
1.04002173913043e+00 4.34051765332530e-01 4.91163439477230e-03
1.04484782608696e+00 4.30798218893425e-01 4.88611545641902e-03
1.04967391304348e+00 4.27569060237937e-01 4.86067726296358e-03
1.05450000000000e+00 4.24364106561336e-01 4.83532038723475e-03
1.05932608695652e+00 4.21183176458008e-01 4.81004541443357e-03
1.06415217391304e+00 4.18026089824209e-01 4.78485291062507e-03
1.06897826086957e+00 4.14892667935250e-01 4.75974339173569e-03
1.07380434782609e+00 4.11782733433922e-01 4.73471738622408e-03
1.07863043478261e+00 4.08696110236642e-01 4.70977540449242e-03
1.08345652173913e+00 4.05632623607714e-01 4.68491791858432e-03
1.08828260869565e+00 4.02592100121224e-01 4.66014538381873e-03
1.09310869565217e+00 3.99574367677738e-01 4.63545825800631e-03
1.09793478260870e+00 3.96579255414553e-01 4.61085698225014e-03
1.10276086956522e+00 3.93606593776450e-01 4.58634195195579e-03
1.10758695652174e+00 3.90656214504750e-01 4.56191357540902e-03
1.11241304347826e+00 3.87727950550628e-01 4.53757224515633e-03
1.11723913043478e+00 3.84821636143175e-01 4.51331830984046e-03
1.12206521739130e+00 3.81937106778757e-01 4.48915213104426e-03
1.12689130434783e+00 3.79074199137275e-01 4.46507405551173e-03
1.13171739130435e+00 3.76232751147697e-01 4.44108438780804e-03
1.13654347826087e+00 3.73412601977627e-01 4.41718344548640e-03
1.14136956521739e+00 3.70613591952454e-01 4.39337153209687e-03
1.14619565217391e+00 3.67835562618440e-01 4.36964891927853e-03
1.15102173913043e+00 3.65078356709567e-01 4.34601586577848e-03
1.15584782608696e+00 3.62341818161387e-01 4.32247263435286e-03
1.16067391304348e+00 3.59625792033606e-01 4.29901947482475e-03
1.16550000000000e+00 3.56930124570232e-01 4.27565659849062e-03
1.17032608695652e+00 3.54254663189751e-01 4.25238422972887e-03
1.17515217391304e+00 3.51599256410298e-01 4.22920258073947e-03
1.17997826086957e+00 3.48963753907579e-01 4.20611182668139e-03
1.18480434782609e+00 3.46348006505285e-01 4.18311215577510e-03
1.18963043478261e+00 3.43751866102770e-01 4.16020374476363e-03
1.19445652173913e+00 3.41175185730859e-01 4.13738674260744e-03
1.19928260869565e+00 3.38617819522027e-01 4.11466128775026e-03
1.20410869565217e+00 3.36079622722376e-01 4.09202752346796e-03
1.20893478260870e+00 3.33560451622383e-01 4.06948558243761e-03
1.21376086956522e+00 3.31060163610145e-01 4.04703556346147e-03
1.21858695652174e+00 3.28578617162301e-01 4.02467757836524e-03
1.22341304347826e+00 3.26115671777056e-01 4.00241172901090e-03
1.22823913043478e+00 3.23671188025471e-01 3.98023808467101e-03
1.23306521739130e+00 3.21245027542624e-01 3.95815672757052e-03
1.23789130434783e+00 3.18837052962838e-01 3.93616773056108e-03
1.24271739130435e+00 3.16447127969113e-01 3.91427113514434e-03
1.24754347826087e+00 3.14075117284478e-01 3.89246699570070e-03
1.25236956521739e+00 3.11720886609365e-01 3.87075535778554e-03
1.25719565217391e+00 3.09384302669257e-01 3.84913624371467e-03
1.26202173913043e+00 3.07065233188628e-01 3.82760966779049e-03
1.26684782608696e+00 3.04763546900899e-01 3.80617564984205e-03
1.27167391304348e+00 3.02479113488404e-01 3.78483420157863e-03
1.27650000000000e+00 3.00211803627881e-01 3.76358530599451e-03
1.28132608695652e+00 2.97961488982303e-01 3.74242895879750e-03
1.28615217391304e+00 2.95728042142790e-01 3.72136514807438e-03
1.29097826086957e+00 2.93511336672461e-01 3.70039383427372e-03
1.29580434782609e+00 2.91311247098463e-01 3.67951499045014e-03
1.30063043478261e+00 2.89127648855765e-01 3.65872858250038e-03
1.30545652173913e+00 2.86960418329454e-01 3.63803455602002e-03
1.31028260869565e+00 2.84809432831206e-01 3.61743285015413e-03
1.31510869565217e+00 2.82674570607924e-01 3.59692340991785e-03
1.31993478260870e+00 2.80555710787836e-01 3.57650617375006e-03
1.32476086956522e+00 2.78452733420906e-01 3.55618105475345e-03
1.32958695652174e+00 2.76365519471285e-01 3.53594797840925e-03
1.33441304347826e+00 2.74293950765138e-01 3.51580686404517e-03
1.33923913043478e+00 2.72237910029601e-01 3.49575760659027e-03
1.34406521739130e+00 2.70197280885435e-01 3.47580011322089e-03
1.34889130434783e+00 2.68171947796508e-01 3.45593428535217e-03
1.35371739130435e+00 2.66161796107392e-01 3.43616000090711e-03
1.35854347826087e+00 2.64166712036164e-01 3.41647714992611e-03
1.36336956521739e+00 2.62186582625520e-01 3.39688561705194e-03
1.36819565217391e+00 2.60221295779045e-01 3.37738526988720e-03
1.37302173913043e+00 2.58270740240570e-01 3.35797597123925e-03
1.37784782608696e+00 2.56334805601359e-01 3.33865759001557e-03
1.38267391304348e+00 2.54413382253192e-01 3.31942999019602e-03
1.38750000000000e+00 2.52506361423033e-01 3.30029301420094e-03
1.39232608695652e+00 2.50613635166228e-01 3.28124651628155e-03
1.39715217391304e+00 2.48735096321067e-01 3.26229034609455e-03
1.40197826086957e+00 2.46870638542233e-01 3.24342433252893e-03
1.40680434782609e+00 2.45020156294161e-01 3.22464831615958e-03
1.41163043478261e+00 2.43183544807036e-01 3.20596213327507e-03
1.41645652173913e+00 2.41360700109080e-01 3.18736560524843e-03
1.42128260869565e+00 2.39551519007864e-01 3.16885854969409e-03
1.42610869565217e+00 2.37755899096547e-01 3.15044079039866e-03
1.43093478260870e+00 2.35973738711634e-01 3.13211214724992e-03
1.43576086956522e+00 2.34204936963855e-01 3.11387242106651e-03
1.44058695652174e+00 2.32449393731876e-01 3.09572142404137e-03
1.44541304347826e+00 2.30707009621373e-01 3.07765896475141e-03
1.45023913043478e+00 2.28977685994831e-01 3.05968483339836e-03
1.45506521739130e+00 2.27261324965418e-01 3.04179883140286e-03
1.45989130434783e+00 2.25557829357324e-01 3.02400075683161e-03
1.46471739130435e+00 2.23867102734543e-01 3.00629039004756e-03
1.46954347826087e+00 2.22189049394871e-01 2.98866752248109e-03
1.47436956521739e+00 2.20523574331496e-01 2.97113194245088e-03
1.47919565217391e+00 2.18870583260781e-01 2.95368342573295e-03
1.48402173913043e+00 2.17229982605816e-01 2.93632174544395e-03
1.48884782608696e+00 2.15601679501613e-01 2.91904668084108e-03
1.49367391304348e+00 2.13985581758206e-01 2.90185800838440e-03
1.49850000000000e+00 2.12381597887234e-01 2.88475548826468e-03
1.50332608695652e+00 2.10789637096272e-01 2.86773889140623e-03
1.50815217391304e+00 2.09209609253060e-01 2.85080798615841e-03
1.51297826086957e+00 2.07641424911177e-01 2.83396252519101e-03
1.51780434782609e+00 2.06084995304505e-01 2.81720227175051e-03
1.52263043478261e+00 2.04540232312556e-01 2.80052698671422e-03
