Energy (eV)          EEDF (eV^-(3/2))     First Anisotropy
2.07142857142857e-02 5.40627300882182e-02 2.55455644598654e-05
6.21428571428571e-02 5.37675374712075e-02 4.22097250984485e-05
1.03571428571429e-01 5.34739566605755e-02 5.57924968419630e-05
1.45000000000000e-01 5.31819788568252e-02 6.61546892043627e-05
1.86428571428571e-01 5.28915953053229e-02 7.48327677842370e-05
2.27857142857143e-01 5.26027973031008e-02 8.24064565104369e-05
2.69285714285714e-01 5.23155761912422e-02 8.91751786558497e-05
3.10714285714286e-01 5.20299233609322e-02 9.53194032902798e-05
3.52142857142857e-01 5.17458302488318e-02 1.00958595889077e-04
3.93571428571429e-01 5.14632883378027e-02 1.06177034030783e-04
4.35000000000000e-01 5.11822891587456e-02 1.11036987993141e-04
4.76428571428571e-01 5.09028242873929e-02 1.15586120777444e-04
5.17857142857143e-01 5.06248853467656e-02 1.19861946378215e-04
5.59285714285714e-01 5.03484640044282e-02 1.23894666471186e-04
6.00714285714286e-01 5.00735519745493e-02 1.27709055734474e-04
6.42142857142857e-01 4.98001410159469e-02 1.31325760812202e-04
6.83571428571428e-01 4.95282229320732e-02 1.34762221736785e-04
7.25000000000000e-01 4.92577895719582e-02 1.38033343131741e-04
7.66428571428571e-01 4.89888328283555e-02 1.41151993382909e-04
8.07857142857143e-01 4.87213446390277e-02 1.44129383159232e-04
8.49285714285714e-01 4.84553169850518e-02 1.46975357266432e-04
8.90714285714286e-01 4.81907418919623e-02 1.49698622948779e-04
9.32142857142857e-01 4.79276114284820e-02 1.52306931105509e-04
9.73571428571429e-01 4.76659177063849e-02 1.54807221274679e-04
1.01500000000000e+00 4.74056528810659e-02 1.57205739723227e-04
1.05642857142857e+00 4.71468091491995e-02 1.59508135322650e-04
1.09785714285714e+00 4.68893787529178e-02 1.61719539547984e-04
1.13928571428571e+00 4.66333539751102e-02 1.63844633230227e-04
1.18071428571429e+00 4.63787271408067e-02 1.65887701521175e-04
1.22214285714286e+00 4.61254906169317e-02 1.67852681129955e-04
1.26357142857143e+00 4.58736368121083e-02 1.69743200276933e-04
1.30500000000000e+00 4.56231581764118e-02 1.71562613183593e-04
1.34642857142857e+00 4.53740471992810e-02 1.73314028476450e-04
1.38785714285714e+00 4.51262964149684e-02 1.75000335231424e-04
1.42928571428571e+00 4.48798983965463e-02 1.76624225668839e-04
1.47071428571429e+00 4.46348457576412e-02 1.78188213395183e-04
1.51214285714286e+00 4.43911311522028e-02 1.79694650578971e-04
1.55357142857143e+00 4.41487472743035e-02 1.81145742765848e-04
1.59500000000000e+00 4.39076868579089e-02 1.82543562238927e-04
1.63642857142857e+00 4.36679426751880e-02 1.83890058758509e-04
1.67785714285714e+00 4.34295075407709e-02 1.85187070430631e-04
1.71928571428571e+00 4.31923743069954e-02 1.86436333455626e-04
1.76071428571429e+00 4.29565358652281e-02 1.87639489480247e-04
1.80214285714286e+00 4.27219851456443e-02 1.88798093251026e-04
1.84357142857143e+00 4.24887151170297e-02 1.89913619239013e-04
1.88500000000000e+00 4.22567187865627e-02 1.90987467862940e-04
1.92642857142857e+00 4.20259891984035e-02 1.92020970139981e-04
1.96785714285714e+00 4.17965194371320e-02 1.93015393082495e-04
2.00928571428571e+00 4.15683026238482e-02 1.93971944642803e-04
2.05071428571429e+00 4.13413319172126e-02 1.94891776995158e-04
2.09214285714286e+00 4.11156005132369e-02 1.95775990477441e-04
2.13357142857143e+00 4.08911016450892e-02 1.96625636960596e-04
2.17500000000000e+00 4.06678285828862e-02 1.97441723156864e-04
2.21642857142857e+00 4.04457746324884e-02 1.98225212778088e-04
2.25785714285714e+00 4.02249331383421e-02 1.98977029586591e-04
2.29928571428571e+00 4.00052974802021e-02 1.99698060237685e-04
2.34071428571429e+00 3.97868610739717e-02 2.00389155803115e-04
2.38214285714286e+00 3.95696173715013e-02 2.01051134035201e-04
2.42357142857143e+00 3.93535598603996e-02 2.01684781249666e-04
2.46500000000000e+00 3.91386820638342e-02 2.02290854271220e-04
2.50642857142857e+00 3.89249775394850e-02 2.02870081443950e-04
2.54785714285714e+00 3.87124398819359e-02 2.03423164540439e-04
2.58928571428571e+00 3.85010627198703e-02 2.03950780565079e-04
2.63071428571429e+00 3.82908397167607e-02 2.04453582437380e-04
2.67214285714286e+00 3.80817645706757e-02 2.04932200409376e-04
2.71357142857143e+00 3.78738310140966e-02 2.05387243196286e-04
2.75500000000000e+00 3.76670328137270e-02 2.05819299216722e-04
2.79642857142857e+00 3.74613637695702e-02 2.06228937028530e-04
2.83785714285714e+00 3.72568177169703e-02 2.06616706624986e-04
2.87928571428571e+00 3.70533885241792e-02 2.06983140673035e-04
2.92071428571429e+00 3.68510700929293e-02 2.07328754765908e-04
2.96214285714286e+00 3.66498563582486e-02 2.07654048374994e-04
3.00357142857143e+00 3.64497412882838e-02 2.07959505568364e-04
3.04500000000000e+00 3.62507188841163e-02 2.08245595855164e-04
3.08642857142857e+00 3.60527831789425e-02 2.08512774317053e-04
3.12785714285714e+00 3.58559282398340e-02 2.08761482547951e-04
3.16928571428571e+00 3.56601481656023e-02 2.08992149560311e-04
3.21071428571429e+00 3.54654370872808e-02 2.09205191806479e-04
3.25214285714286e+00 3.52717891679471e-02 2.09401013855848e-04
3.29357142857143e+00 3.50791986025512e-02 2.09580008873016e-04
3.33500000000000e+00 3.48876596177399e-02 2.09742559225089e-04
3.37642857142857e+00 3.46971664711203e-02 2.09889036445537e-04
3.41785714285714e+00 3.45077134527925e-02 2.10019801952589e-04
3.45928571428571e+00 3.43192948834585e-02 2.10135207747383e-04
3.50071428571429e+00 3.41319051148305e-02 2.10235596307717e-04
3.54214285714286e+00 3.39455385294603e-02 2.10321301093589e-04
3.58357142857143e+00 3.37601895405734e-02 2.10392646877659e-04
3.62500000000000e+00 3.35758525919001e-02 2.10449950202387e-04
3.66642857142857e+00 3.33925221570103e-02 2.10493519250149e-04
3.70785714285714e+00 3.32101927406567e-02 2.10523654416075e-04
3.74928571428571e+00 3.30288588770885e-02 2.10540648868310e-04
3.79071428571429e+00 3.28485151303990e-02 2.10544788371024e-04
3.83214285714286e+00 3.26691560943614e-02 2.10536351677179e-04
3.87357142857143e+00 3.24907763922694e-02 2.10515610764381e-04
3.91500000000000e+00 3.23133706767743e-02 2.10482831192346e-04
3.95642857142857e+00 3.21369336292802e-02 2.10438271920758e-04
3.99785714285714e+00 3.19614599611297e-02 2.10382185781613e-04
4.03928571428571e+00 3.17869444120894e-02 2.10314819943610e-04
4.08071428571429e+00 3.16133817506477e-02 2.10236415696975e-04
4.12214285714286e+00 3.14407667738574e-02 2.10147208768845e-04
4.16357142857143e+00 3.12690943071811e-02 2.10047429496227e-04
4.20500000000000e+00 3.10983592043356e-02 2.09937303114517e-04
4.24642857142857e+00 3.09285563467385e-02 2.09817049547426e-04
4.28785714285714e+00 3.07596806445604e-02 2.09686883806922e-04
4.32928571428571e+00 3.05917270353576e-02 2.09547016388007e-04
4.37071428571429e+00 3.04246904843284e-02 2.09397653034514e-04
4.41214285714286e+00 3.02585659841610e-02 2.09238994999463e-04
4.45357142857143e+00 3.00933485548858e-02 2.09071239174857e-04
4.49500000000000e+00 2.99290332437245e-02 2.08894578330733e-04
4.53642857142857e+00 2.97656151245826e-02 2.08709200891697e-04
4.57785714285714e+00 2.96030892989877e-02 2.08515291282705e-04
4.61928571428571e+00 2.94414508948487e-02 2.08313030271561e-04
4.66071428571429e+00 2.92806950666769e-02 2.08102594727123e-04
4.70214285714286e+00 2.91208169954405e-02 2.07884157839131e-04
4.74357142857143e+00 2.89618118884210e-02 2.07657889217626e-04
4.78500000000000e+00 2.88036749790693e-02 2.07423955095373e-04
4.82642857142857e+00 2.86464015265374e-02 2.07182518099886e-04
4.86785714285714e+00 2.84899868165184e-02 2.06933737557369e-04
4.90928571428571e+00 2.83344261601164e-02 2.06677769794578e-04
4.95071428571429e+00 2.81797148940375e-02 2.06414767896529e-04
4.99214285714286e+00 2.80258483804500e-02 2.06144881895536e-04
5.03357142857143e+00 2.78728220068460e-02 2.05868258848713e-04
5.07500000000000e+00 2.77206311859029e-02 2.05585043012563e-04
5.11642857142857e+00 2.75692713550509e-02 2.05295375615932e-04
5.15785714285714e+00 2.74187379772270e-02 2.04999395130669e-04
5.19928571428571e+00 2.72690265398420e-02 2.04697237541079e-04
5.24071428571429e+00 2.71201325549461e-02 2.04389036105355e-04
5.28214285714286e+00 2.69720515590944e-02 2.04074921520752e-04
5.32357142857143e+00 2.68247791132136e-02 2.03755021984940e-04
5.36500000000000e+00 2.66783108024685e-02 2.03429463348729e-04
5.40642857142857e+00 2.65326422358615e-02 2.03098368893394e-04
5.44785714285714e+00 2.63877690469113e-02 2.02761859574256e-04
5.48928571428571e+00 2.62436868927064e-02 2.02420054263631e-04
5.53071428571429e+00 2.61003914540480e-02 2.02073069518610e-04
5.57214285714286e+00 2.59578784353207e-02 2.01721019727111e-04
5.61357142857143e+00 2.58161435643645e-02 2.01364017157248e-04
5.65500000000000e+00 2.56751825923461e-02 2.01002172092530e-04
5.69642857142857e+00 2.55349912933864e-02 2.00635592615560e-04
5.73785714285714e+00 2.53955654651744e-02 2.00264384829152e-04
5.77928571428571e+00 2.52569009280958e-02 1.99888653077100e-04
5.82071428571429e+00 2.51189935253577e-02 1.99508499719911e-04
5.86214285714286e+00 2.49818391228639e-02 1.99124025265302e-04
5.90357142857143e+00 2.48454336090913e-02 1.98735328408313e-04
5.94500000000000e+00 2.47097728949667e-02 1.98342506152331e-04
5.98642857142857e+00 2.45748529135193e-02 1.97945653600348e-04
6.02785714285714e+00 2.44406696204371e-02 1.97544864157012e-04
6.06928571428571e+00 2.43072189932631e-02 1.97140229730629e-04
6.11071428571428e+00 2.41744970315035e-02 1.96731840517584e-04
6.15214285714286e+00 2.40424997565078e-02 1.96319785119987e-04
6.19357142857143e+00 2.39112232113500e-02 1.95904150578689e-04
6.23500000000000e+00 2.37806634607098e-02 1.95485022482461e-04
6.27642857142857e+00 2.36508165905480e-02 1.95062484767464e-04
6.31785714285714e+00 2.35216787086123e-02 1.94636619902951e-04
6.35928571428571e+00 2.33932459436936e-02 1.94207509077040e-04
6.40071428571428e+00 2.32655144457203e-02 1.93775231990269e-04
6.44214285714286e+00 2.31384803856430e-02 1.93339866962434e-04
6.48357142857143e+00 2.30121399553195e-02 1.92901490959990e-04
6.52500000000000e+00 2.28864893674010e-02 1.92460179695259e-04
6.56642857142857e+00 2.27615248550287e-02 1.92016007434430e-04
6.60785714285714e+00 2.26372426722934e-02 1.91569047168934e-04
6.64928571428571e+00 2.25136390935468e-02 1.91119370787169e-04
6.69071428571428e+00 2.23907104134838e-02 1.90667048877234e-04
6.73214285714286e+00 2.22684529470304e-02 1.90212150824484e-04
6.77357142857143e+00 2.21468630292342e-02 1.89754744834548e-04
6.81500000000000e+00 2.20259370151541e-02 1.89294898024023e-04
6.85642857142857e+00 2.19056712795763e-02 1.88832676236984e-04
6.89785714285714e+00 2.17860622174331e-02 1.88368144203815e-04
6.93928571428571e+00 2.16671062431642e-02 1.87901365700456e-04
6.98071428571428e+00 2.15487997907871e-02 1.87432403360286e-04
7.02214285714286e+00 2.14311393137899e-02 1.86961318763693e-04
7.06357142857143e+00 2.13141212850259e-02 1.86488172457513e-04
7.10500000000000e+00 2.11977421966068e-02 1.86013024038345e-04
7.14642857142857e+00 2.10819985596372e-02 1.85535931977504e-04
7.18785714285714e+00 2.09668869045961e-02 1.85056953768710e-04
7.22928571428571e+00 2.08524037807434e-02 1.84576146076245e-04
7.27071428571429e+00 2.07385457561807e-02 1.84093564555734e-04
7.31214285714286e+00 2.06253094177484e-02 1.83609263936736e-04
7.35357142857143e+00 2.05126913709235e-02 1.83123298039311e-04
7.39500000000000e+00 2.04006882397176e-02 1.82635719850848e-04
7.43642857142857e+00 2.02892966664268e-02 1.82146581359305e-04
7.47785714285714e+00 2.01785133119810e-02 1.81655933690899e-04
7.51928571428571e+00 2.00683348553912e-02 1.81163827248271e-04
7.56071428571429e+00 1.99587579938014e-02 1.80670311539902e-04
7.60214285714286e+00 1.98497794423899e-02 1.80175435256591e-04
7.64357142857143e+00 1.97413959342706e-02 1.79679246285620e-04
7.68500000000000e+00 1.96336042203955e-02 1.79181791781921e-04
7.72642857142857e+00 1.95264010693188e-02 1.78683118009281e-04
7.76785714285714e+00 1.94197832675169e-02 1.78183270468964e-04
7.80928571428571e+00 1.93137476188728e-02 1.77682294028931e-04
7.85071428571429e+00 1.92082909447210e-02 1.77180232761601e-04
7.89214285714286e+00 1.91034100837520e-02 1.76677130014805e-04
7.93357142857143e+00 1.89991018919177e-02 1.76173028423994e-04
7.97500000000000e+00 1.88953632423370e-02 1.75667969978352e-04
8.01642857142857e+00 1.87921910250743e-02 1.75161995869692e-04
8.05785714285714e+00 1.86895821474324e-02 1.74655146612889e-04
8.09928571428571e+00 1.85875335334712e-02 1.74147462166913e-04
8.14071428571429e+00 1.84860421240459e-02 1.73638981780541e-04
8.18214285714286e+00 1.83851048767150e-02 1.73129744058425e-04
8.22357142857143e+00 1.82847187656494e-02 1.72619786971721e-04
8.26500000000000e+00 1.81848807815417e-02 1.72109147919606e-04
8.30642857142857e+00 1.80855879313969e-02 1.71597863585519e-04
8.34785714285714e+00 1.79868372388015e-02 1.71085970050175e-04
8.38928571428571e+00 1.78886257434735e-02 1.70573502905089e-04
8.43071428571428e+00 1.77909505012948e-02 1.70060497105924e-04
8.47214285714286e+00 1.76938085842224e-02 1.69546987034158e-04
8.51357142857143e+00 1.75971970802010e-02 1.69033006506303e-04
8.55500000000000e+00 1.75011130930760e-02 1.68518588831364e-04
8.59642857142857e+00 1.74055537423953e-02 1.68003766674096e-04
8.63785714285714e+00 1.73105161636576e-02 1.67488572161148e-04
8.67928571428571e+00 1.72159975078901e-02 1.66973036987814e-04
8.72071428571429e+00 1.71219949416759e-02 1.66457192278570e-04
8.76214285714286e+00 1.70285056470693e-02 1.65941068644746e-04
8.80357142857143e+00 1.69355268215108e-02 1.65424696192607e-04
8.84500000000000e+00 1.68430556777438e-02 1.64908104577110e-04
8.88642857142857e+00 1.67510894436274e-02 1.64391322871833e-04
8.92785714285714e+00 1.66596253623643e-02 1.63874379668815e-04
8.96928571428571e+00 1.65686606921057e-02 1.63357303179034e-04
9.01071428571428e+00 1.64781927059739e-02 1.62840121099865e-04
9.05214285714286e+00 1.63882186919802e-02 1.62322860669077e-04
9.09357142857143e+00 1.62987359529441e-02 1.61805548671916e-04
9.13500000000000e+00 1.62097418064122e-02 1.61288211491481e-04
9.17642857142857e+00 1.61212335844818e-02 1.60770874985060e-04
9.21785714285714e+00 1.60332086340104e-02 1.60253564578198e-04
9.25928571428571e+00 1.59456643162451e-02 1.59736305359290e-04
9.30071428571429e+00 1.58585980068414e-02 1.59219121953584e-04
9.34214285714286e+00 1.57720070957837e-02 1.58702038573860e-04
9.38357142857143e+00 1.56858889873079e-02 1.58185079026714e-04
9.42500000000000e+00 1.56002410998233e-02 1.57668266759823e-04
9.46642857142857e+00 1.55150608657454e-02 1.57151624744307e-04
9.50785714285714e+00 1.54303457316895e-02 1.56635175563445e-04
9.54928571428571e+00 1.53460931581223e-02 1.56118941501883e-04
9.59071428571428e+00 1.52623006193766e-02 1.55602944425853e-04
9.63214285714286e+00 1.51789656035761e-02 1.55087205830819e-04
9.67357142857143e+00 1.50960856125596e-02 1.54571746847011e-04
9.71500000000000e+00 1.50136581618065e-02 1.54056588283827e-04
9.75642857142857e+00 1.49316807802784e-02 1.53541750517997e-04
9.79785714285714e+00 1.48501510105975e-02 1.53027253577273e-04
9.83928571428571e+00 1.47690664087191e-02 1.52513117224681e-04
9.88071428571429e+00 1.46884245439436e-02 1.51999360844610e-04
9.92214285714286e+00 1.46082229988433e-02 1.51486003487619e-04
9.96357142857143e+00 1.45284593691901e-02 1.50973063875381e-04
1.00050000000000e+01 1.44491312638837e-02 1.50460560479487e-04
1.00464285714286e+01 1.43702363047228e-02 1.49948511413734e-04
1.00878571428571e+01 1.42917721265733e-02 1.49436934001207e-04
1.01292857142857e+01 1.42137363780628e-02 1.48925846025991e-04
1.01707142857143e+01 1.41361267191152e-02 1.48415265005350e-04
1.02121428571429e+01 1.40589408232048e-02 1.47905207059530e-04
1.02535714285714e+01 1.39821763772559e-02 1.47395689098659e-04
1.02950000000000e+01 1.39058310793255e-02 1.46886727741553e-04
1.03364285714286e+01 1.38299026407902e-02 1.46378338596239e-04
1.03778571428571e+01 1.37543887855232e-02 1.45870537004576e-04
1.04192857142857e+01 1.36792872505448e-02 1.45363338723258e-04
1.04607142857143e+01 1.36045957837888e-02 1.44856759234208e-04
1.05021428571429e+01 1.35303121462086e-02 1.44350812707722e-04
1.05435714285714e+01 1.34564341116826e-02 1.43845514077414e-04
1.05850000000000e+01 1.33829594648423e-02 1.43340878013927e-04
1.06264285714286e+01 1.33098860031189e-02 1.42836918241935e-04
1.06678571428571e+01 1.32372115359695e-02 1.42333648246490e-04
1.07092857142857e+01 1.31649338854857e-02 1.41831081919318e-04
1.07507142857143e+01 1.30930508842999e-02 1.41329232903986e-04
1.07921428571429e+01 1.30215603775554e-02 1.40828113611436e-04
1.08335714285714e+01 1.29504602228166e-02 1.40327737189558e-04
1.08750000000000e+01 1.28797482880331e-02 1.39828116548627e-04
1.09164285714286e+01 1.28094224534542e-02 1.39329263712698e-04
1.09578571428571e+01 1.27394806109036e-02 1.38831190490015e-04
1.09992857142857e+01 1.26699206643468e-02 1.38333909086506e-04
1.10407142857143e+01 1.26007405279282e-02 1.37837431483761e-04
1.10821428571429e+01 1.25319381278157e-02 1.37341768504067e-04
1.11235714285714e+01 1.24635114021145e-02 1.36846931680586e-04
1.11650000000000e+01 1.23954582989579e-02 1.36352932331631e-04
1.12064285714286e+01 1.23277767782995e-02 1.35859780944514e-04
1.12478571428571e+01 1.22604648112320e-02 1.35367487812031e-04
1.12892857142857e+01 1.21935203805181e-02 1.34876063615115e-04
1.13307142857143e+01 1.21269414787480e-02 1.34385518831811e-04
1.13721428571429e+01 1.20607261100673e-02 1.33895862848917e-04
1.14135714285714e+01 1.19948722900952e-02 1.33407105738487e-04
1.14550000000000e+01 1.19293780441320e-02 1.32919257378200e-04
1.14964285714286e+01 1.18642414088389e-02 1.32432326865850e-04
1.15378571428571e+01 1.17994604315973e-02 1.31946323123867e-04
1.15792857142857e+01 1.17350331710051e-02 1.31461255452817e-04
1.16207142857143e+01 1.16709576951474e-02 1.30977132969674e-04
1.16621428571429e+01 1.16072320832158e-02 1.30493963763548e-04
1.17035714285714e+01 1.15438544254299e-02 1.30011756583680e-04
1.17450000000000e+01 1.14808228213544e-02 1.29530520003396e-04
1.17864285714286e+01 1.14181353814736e-02 1.29050261863541e-04
1.18278571428571e+01 1.13557902265891e-02 1.28570989846799e-04
1.18692857142857e+01 1.12937854882841e-02 1.28092712003748e-04
1.19107142857143e+01 1.12321193072984e-02 1.27615436218776e-04
1.19521428571429e+01 1.11707898350476e-02 1.27139169407409e-04
1.19935714285714e+01 1.11097952335483e-02 1.26663919120833e-04
1.20350000000000e+01 1.10491336738357e-02 1.26189692750987e-04
1.20764285714286e+01 1.09888033374417e-02 1.25716497001315e-04
1.21178571428571e+01 1.09288024158271e-02 1.25244338432633e-04
1.21592857142857e+01 1.08691291108172e-02 1.24773223963232e-04
1.22007142857143e+01 1.08097816330738e-02 1.24303160360911e-04
1.22421428571429e+01 1.07507582035209e-02 1.23834153479711e-04
1.22835714285714e+01 1.06920570532730e-02 1.23366209785482e-04
1.23250000000000e+01 1.06336764221479e-02 1.22899335599860e-04
1.23664285714286e+01 1.05756145600532e-02 1.22433536596933e-04
1.24078571428571e+01 1.05178697264525e-02 1.21968818322184e-04
1.24492857142857e+01 1.04604401907729e-02 1.21505186668056e-04
1.24907142857143e+01 1.04033242309680e-02 1.21042647390735e-04
1.25321428571429e+01 1.03465201348565e-02 1.20581205384089e-04
1.25735714285714e+01 1.02900262000540e-02 1.20120866130618e-04
1.26150000000000e+01 1.02338407325732e-02 1.19661634982259e-04
1.26564285714286e+01 1.01779620481269e-02 1.19203516681514e-04
1.26978571428571e+01 1.01223884716241e-02 1.18746515854959e-04
1.27392857142857e+01 1.00671183375529e-02 1.18290637465593e-04
1.27807142857143e+01 1.00121499886276e-02 1.17835886353067e-04
1.28221428571429e+01 9.95748177704629e-03 1.17382266542829e-04
1.28635714285714e+01 9.90311206442598e-03 1.16929782626477e-04
1.29050000000000e+01 9.84903922048462e-03 1.16478439077430e-04
1.29464285714286e+01 9.79526162426550e-03 1.16028239795202e-04
1.29878571428571e+01 9.74177766366259e-03 1.15579188574844e-04
1.30292857142857e+01 9.68858573577936e-03 1.15131289537378e-04
1.30707142857143e+01 9.63568424565474e-03 1.14684546692165e-04
