Energy (eV)          EEDF (eV^-(3/2))     First Anisotropy
9.30208333333333e-05 2.70480529438838e+02 0.00000000000000e+00
2.79062500000000e-04 2.68541017952602e+02 0.00000000000000e+00
4.65104166666667e-04 2.66615413954351e+02 0.00000000000000e+00
6.51145833333333e-04 2.64703617719114e+02 0.00000000000000e+00
8.37187500000000e-04 2.62805530236800e+02 0.00000000000000e+00
1.02322916666667e-03 2.60921053207252e+02 0.00000000000000e+00
1.20927083333333e-03 2.59050089035172e+02 0.00000000000000e+00
1.39531250000000e-03 2.57192540825079e+02 0.00000000000000e+00
1.58135416666667e-03 2.55348312376288e+02 0.00000000000000e+00
1.76739583333333e-03 2.53517308177935e+02 0.00000000000000e+00
1.95343750000000e-03 2.51699433404023e+02 0.00000000000000e+00
2.13947916666667e-03 2.49894593908519e+02 0.00000000000000e+00
2.32552083333333e-03 2.48102696220471e+02 0.00000000000000e+00
2.51156250000000e-03 2.46323647539174e+02 0.00000000000000e+00
2.69760416666667e-03 2.44557355729359e+02 0.00000000000000e+00
2.88364583333333e-03 2.42803729316425e+02 0.00000000000000e+00
3.06968750000000e-03 2.41062677481699e+02 0.00000000000000e+00
3.25572916666667e-03 2.39334110057734e+02 0.00000000000000e+00
3.44177083333333e-03 2.37617937523639e+02 0.00000000000000e+00
3.62781250000000e-03 2.35914071000441e+02 0.00000000000000e+00
3.81385416666667e-03 2.34222422246488e+02 0.00000000000000e+00
3.99989583333333e-03 2.32542903652869e+02 0.00000000000000e+00
4.18593750000000e-03 2.30875428238889e+02 0.00000000000000e+00
4.37197916666667e-03 2.29219909647552e+02 0.00000000000000e+00
4.55802083333333e-03 2.27576262141100e+02 0.00000000000000e+00
4.74406250000000e-03 2.25944400596562e+02 0.00000000000000e+00
4.93010416666667e-03 2.24324240501357e+02 0.00000000000000e+00
5.11614583333333e-03 2.22715697948906e+02 0.00000000000000e+00
5.30218750000000e-03 2.21118689634293e+02 0.00000000000000e+00
5.48822916666667e-03 2.19533132849953e+02 0.00000000000000e+00
5.67427083333333e-03 2.17958945481379e+02 0.00000000000000e+00
5.86031250000000e-03 2.16396046002879e+02 0.00000000000000e+00
6.04635416666667e-03 2.14844353473352e+02 0.00000000000000e+00
6.23239583333333e-03 2.13303787532089e+02 0.00000000000000e+00
6.41843750000000e-03 2.11774268394622e+02 0.00000000000000e+00
6.60447916666667e-03 2.10255716848584e+02 0.00000000000000e+00
6.79052083333333e-03 2.08748054249609e+02 0.00000000000000e+00
6.97656250000000e-03 2.07251202517261e+02 0.00000000000000e+00
7.16260416666667e-03 2.05765084130987e+02 0.00000000000000e+00
7.34864583333333e-03 2.04289622126106e+02 0.00000000000000e+00
7.53468750000000e-03 2.02824740089818e+02 0.00000000000000e+00
7.72072916666667e-03 2.01370362157253e+02 0.00000000000000e+00
7.90677083333333e-03 1.99926413007536e+02 0.00000000000000e+00
8.09281250000000e-03 1.98492817859891e+02 0.00000000000000e+00
8.27885416666667e-03 1.97069502469765e+02 0.00000000000000e+00
8.46489583333333e-03 1.95656393124984e+02 0.00000000000000e+00
8.65093750000000e-03 1.94253416641936e+02 0.00000000000000e+00
8.83697916666667e-03 1.92860500361781e+02 0.00000000000000e+00
9.02302083333333e-03 1.91477572146685e+02 0.00000000000000e+00
9.20906250000000e-03 1.90104560376089e+02 0.00000000000000e+00
9.39510416666667e-03 1.88741393942996e+02 0.00000000000000e+00
9.58114583333333e-03 1.87388002250292e+02 0.00000000000000e+00
9.76718750000000e-03 1.86044315207086e+02 0.00000000000000e+00
9.95322916666667e-03 1.84710263225081e+02 0.00000000000000e+00
1.01392708333333e-02 1.83385777214972e+02 0.00000000000000e+00
1.03253125000000e-02 1.82070788582866e+02 0.00000000000000e+00
1.05113541666667e-02 1.80765229226731e+02 0.00000000000000e+00
1.06973958333333e-02 1.79469031532869e+02 0.00000000000000e+00
1.08834375000000e-02 1.78182128372413e+02 0.00000000000000e+00
1.10694791666667e-02 1.76904453097849e+02 0.00000000000000e+00
1.12555208333333e-02 1.75635939539571e+02 0.00000000000000e+00
1.14415625000000e-02 1.74376522002446e+02 0.00000000000000e+00
1.16276041666667e-02 1.73126135262418e+02 0.00000000000000e+00
1.18136458333333e-02 1.71884714563126e+02 0.00000000000000e+00
1.19996875000000e-02 1.70652195612551e+02 0.00000000000000e+00
1.21857291666667e-02 1.69428514579690e+02 0.00000000000000e+00
1.23717708333333e-02 1.68213608091246e+02 0.00000000000000e+00
1.25578125000000e-02 1.67007413228347e+02 0.00000000000000e+00
1.27438541666667e-02 1.65809867523288e+02 0.00000000000000e+00
1.29298958333333e-02 1.64620908956296e+02 0.00000000000000e+00
1.31159375000000e-02 1.63440475952320e+02 0.00000000000000e+00
1.33019791666667e-02 1.62268507377836e+02 0.00000000000000e+00
1.34880208333333e-02 1.61104942537687e+02 0.00000000000000e+00
1.36740625000000e-02 1.59949721171939e+02 0.00000000000000e+00
1.38601041666667e-02 1.58802783452755e+02 0.00000000000000e+00
1.40461458333333e-02 1.57664069981304e+02 0.00000000000000e+00
1.42321875000000e-02 1.56533521784680e+02 0.00000000000000e+00
1.44182291666667e-02 1.55411080312847e+02 0.00000000000000e+00
1.46042708333333e-02 1.54296687435611e+02 0.00000000000000e+00
1.47903125000000e-02 1.53190285439607e+02 0.00000000000000e+00
1.49763541666667e-02 1.52091817025309e+02 0.00000000000000e+00
1.51623958333333e-02 1.51001225304065e+02 0.00000000000000e+00
1.53484375000000e-02 1.49918453795148e+02 0.00000000000000e+00
1.55344791666667e-02 1.48843446422834e+02 0.00000000000000e+00
1.57205208333333e-02 1.47776147513497e+02 0.00000000000000e+00
1.59065625000000e-02 1.46716501792723e+02 0.00000000000000e+00
1.60926041666667e-02 1.45664454382451e+02 0.00000000000000e+00
1.62786458333333e-02 1.44619950798128e+02 0.00000000000000e+00
1.64646875000000e-02 1.43582936945890e+02 0.00000000000000e+00
1.66507291666667e-02 1.42553359119760e+02 0.00000000000000e+00
1.68367708333333e-02 1.41531163998863e+02 0.00000000000000e+00
1.70228125000000e-02 1.40516298644670e+02 0.00000000000000e+00
1.72088541666667e-02 1.39508710498252e+02 0.00000000000000e+00
1.73948958333333e-02 1.38508347377562e+02 0.00000000000000e+00
1.75809375000000e-02 1.37515157474728e+02 0.00000000000000e+00
1.77669791666667e-02 1.36529089353373e+02 0.00000000000000e+00
1.79530208333333e-02 1.35550091945951e+02 0.00000000000000e+00
1.81390625000000e-02 1.34578114551102e+02 0.00000000000000e+00
1.83251041666667e-02 1.33613106831024e+02 0.00000000000000e+00
1.85111458333333e-02 1.32655018808869e+02 0.00000000000000e+00
1.86971875000000e-02 1.31703800866155e+02 0.00000000000000e+00
1.88832291666667e-02 1.30759403740193e+02 0.00000000000000e+00
1.90692708333333e-02 1.29821778521538e+02 0.00000000000000e+00
1.92553125000000e-02 1.28890876651457e+02 0.00000000000000e+00
1.94413541666667e-02 1.27966649919413e+02 0.00000000000000e+00
1.96273958333333e-02 1.27049050460565e+02 0.00000000000000e+00
1.98134375000000e-02 1.26138030753297e+02 0.00000000000000e+00
1.99994791666667e-02 1.25233543616749e+02 0.00000000000000e+00
2.01855208333333e-02 1.24335542208377e+02 0.00000000000000e+00
2.03715625000000e-02 1.23443980021529e+02 0.00000000000000e+00
2.05576041666667e-02 1.22558810883030e+02 0.00000000000000e+00
2.07436458333333e-02 1.21679988950800e+02 0.00000000000000e+00
2.09296875000000e-02 1.20807468711471e+02 0.00000000000000e+00
2.11157291666667e-02 1.19941204978036e+02 0.00000000000000e+00
2.13017708333333e-02 1.19081152887506e+02 0.00000000000000e+00
2.14878125000000e-02 1.18227267898587e+02 0.00000000000000e+00
2.16738541666667e-02 1.17379505789373e+02 0.00000000000000e+00
2.18598958333333e-02 1.16537822655057e+02 0.00000000000000e+00
2.20459375000000e-02 1.15702174905656e+02 0.00000000000000e+00
2.22319791666667e-02 1.14872519263755e+02 0.00000000000000e+00
2.24180208333333e-02 1.14048812762263e+02 0.00000000000000e+00
2.26040625000000e-02 1.13231012742189e+02 0.00000000000000e+00
2.27901041666667e-02 1.12419076850436e+02 0.00000000000000e+00
2.29761458333333e-02 1.11612963037603e+02 0.00000000000000e+00
2.31621875000000e-02 1.10812629555808e+02 0.00000000000000e+00
2.33482291666667e-02 1.10018034956529e+02 0.00000000000000e+00
2.35342708333333e-02 1.09229138088453e+02 0.00000000000000e+00
2.37203125000000e-02 1.08445898095350e+02 0.00000000000000e+00
2.39063541666667e-02 1.07668274413952e+02 0.00000000000000e+00
2.40923958333333e-02 1.06896226771856e+02 0.00000000000000e+00
2.42784375000000e-02 1.06129715185435e+02 0.00000000000000e+00
2.44644791666667e-02 1.05368699957771e+02 0.00000000000000e+00
2.46505208333333e-02 1.04613141676598e+02 0.00000000000000e+00
2.48365625000000e-02 1.03863001212256e+02 0.00000000000000e+00
2.50226041666667e-02 1.03118239715674e+02 0.00000000000000e+00
2.52086458333333e-02 1.02378818616348e+02 0.00000000000000e+00
2.53946875000000e-02 1.01644699620353e+02 0.00000000000000e+00
2.55807291666667e-02 1.00915844708350e+02 0.00000000000000e+00
2.57667708333333e-02 1.00192216133625e+02 0.00000000000000e+00
2.59528125000000e-02 9.94737764201305e+01 0.00000000000000e+00
2.61388541666667e-02 9.87604883605456e+01 0.00000000000000e+00
2.63248958333333e-02 9.80523150143480e+01 0.00000000000000e+00
2.65109375000000e-02 9.73492197059020e+01 0.00000000000000e+00
2.66969791666667e-02 9.66511660225588e+01 0.00000000000000e+00
2.68830208333333e-02 9.59581178127704e+01 0.00000000000000e+00
2.70690625000000e-02 9.52700391842179e+01 0.00000000000000e+00
2.72551041666667e-02 9.45868945019521e+01 0.00000000000000e+00
2.74411458333333e-02 9.39086483865486e+01 0.00000000000000e+00
2.76271875000000e-02 9.32352657122749e+01 0.00000000000000e+00
2.78132291666667e-02 9.25667116052716e+01 0.00000000000000e+00
2.79992708333333e-02 9.19029514417464e+01 0.00000000000000e+00
2.81853125000000e-02 9.12439508461809e+01 0.00000000000000e+00
2.83713541666667e-02 9.05896756895500e+01 0.00000000000000e+00
2.85573958333333e-02 8.99400920875549e+01 0.00000000000000e+00
2.87434375000000e-02 8.92951663988681e+01 0.00000000000000e+00
2.89294791666667e-02 8.86548652233908e+01 0.00000000000000e+00
2.91155208333333e-02 8.80191554005237e+01 0.00000000000000e+00
2.93015625000000e-02 8.73880040074491e+01 0.00000000000000e+00
2.94876041666667e-02 8.67613783574263e+01 0.00000000000000e+00
2.96736458333333e-02 8.61392459980986e+01 0.00000000000000e+00
2.98596875000000e-02 8.55215747098125e+01 0.00000000000000e+00
3.00457291666667e-02 8.49083325039493e+01 0.00000000000000e+00
3.02317708333333e-02 8.42994876212683e+01 0.00000000000000e+00
3.04178125000000e-02 8.36950085302621e+01 0.00000000000000e+00
3.06038541666667e-02 8.30948639255236e+01 0.00000000000000e+00
3.07898958333333e-02 8.24990227261245e+01 0.00000000000000e+00
3.09759375000000e-02 8.19074540740061e+01 0.00000000000000e+00
3.11619791666667e-02 8.13201273323808e+01 0.00000000000000e+00
3.13480208333333e-02 8.07370120841455e+01 0.00000000000000e+00
3.15340625000000e-02 8.01580781303066e+01 0.00000000000000e+00
3.17201041666667e-02 7.95832954884157e+01 0.00000000000000e+00
3.19061458333333e-02 7.90126343910169e+01 0.00000000000000e+00
3.20921875000000e-02 7.84460652841054e+01 0.00000000000000e+00
3.22782291666667e-02 7.78835588255966e+01 0.00000000000000e+00
3.24642708333333e-02 7.73250858838069e+01 0.00000000000000e+00
3.26503125000000e-02 7.67706175359444e+01 0.00000000000000e+00
3.28363541666667e-02 7.62201250666118e+01 0.00000000000000e+00
3.30223958333333e-02 7.56735799663185e+01 0.00000000000000e+00
3.32084375000000e-02 7.51309539300046e+01 0.00000000000000e+00
3.33944791666667e-02 7.45922188555749e+01 0.00000000000000e+00
3.35805208333333e-02 7.40573468424433e+01 0.00000000000000e+00
3.37665625000000e-02 7.35263101900883e+01 0.00000000000000e+00
3.39526041666667e-02 7.29990813966178e+01 0.00000000000000e+00
3.41386458333333e-02 7.24756331573455e+01 0.00000000000000e+00
3.43246875000000e-02 7.19559383633763e+01 0.00000000000000e+00
3.45107291666667e-02 7.14399701002025e+01 0.00000000000000e+00
3.46967708333333e-02 7.09277016463100e+01 0.00000000000000e+00
3.48828125000000e-02 7.04191064717944e+01 0.00000000000000e+00
3.50688541666667e-02 6.99141582369870e+01 0.00000000000000e+00
3.52548958333333e-02 6.94128307910905e+01 0.00000000000000e+00
3.54409375000000e-02 6.89150981708251e+01 0.00000000000000e+00
3.56269791666667e-02 6.84209345990837e+01 0.00000000000000e+00
3.58130208333333e-02 6.79303144835966e+01 0.00000000000000e+00
3.59990625000000e-02 6.74432124156067e+01 0.00000000000000e+00
3.61851041666667e-02 6.69596031685532e+01 0.00000000000000e+00
3.63711458333333e-02 6.64794616967651e+01 0.00000000000000e+00
3.65571875000000e-02 6.60027631341643e+01 0.00000000000000e+00
3.67432291666667e-02 6.55294827929778e+01 0.00000000000000e+00
3.69292708333333e-02 6.50595961624592e+01 0.00000000000000e+00
3.71153125000000e-02 6.45930789076189e+01 0.00000000000000e+00
3.73013541666667e-02 6.41299068679644e+01 0.00000000000000e+00
3.74873958333333e-02 6.36700560562487e+01 0.00000000000000e+00
3.76734375000000e-02 6.32135026572279e+01 0.00000000000000e+00
3.78594791666667e-02 6.27602230264284e+01 0.00000000000000e+00
3.80455208333333e-02 6.23101936889215e+01 0.00000000000000e+00
3.82315625000000e-02 6.18633913381087e+01 0.00000000000000e+00
3.84176041666667e-02 6.14197928345137e+01 0.00000000000000e+00
3.86036458333333e-02 6.09793752045846e+01 0.00000000000000e+00
3.87896875000000e-02 6.05421156395039e+01 0.00000000000000e+00
3.89757291666667e-02 6.01079914940076e+01 0.00000000000000e+00
3.91617708333333e-02 5.96769802852118e+01 0.00000000000000e+00
3.93478125000000e-02 5.92490596914489e+01 0.00000000000000e+00
3.95338541666667e-02 5.88242075511113e+01 0.00000000000000e+00
3.97198958333333e-02 5.84024018615037e+01 0.00000000000000e+00
3.99059375000000e-02 5.79836207777037e+01 0.00000000000000e+00
4.00919791666667e-02 5.75678426114303e+01 0.00000000000000e+00
4.02780208333333e-02 5.71550458299209e+01 0.00000000000000e+00
4.04640625000000e-02 5.67452090548161e+01 0.00000000000000e+00
4.06501041666667e-02 5.63383110610523e+01 0.00000000000000e+00
4.08361458333333e-02 5.59343307757626e+01 0.00000000000000e+00
4.10221875000000e-02 5.55332472771858e+01 0.00000000000000e+00
4.12082291666667e-02 5.51350397935822e+01 0.00000000000000e+00
4.13942708333333e-02 5.47396877021585e+01 0.00000000000000e+00
4.15803125000000e-02 5.43471705279993e+01 0.00000000000000e+00
4.17663541666667e-02 5.39574679430071e+01 0.00000000000000e+00
4.19523958333333e-02 5.35705597648492e+01 0.00000000000000e+00
4.21384375000000e-02 5.31864259559127e+01 0.00000000000000e+00
4.23244791666667e-02 5.28050466222666e+01 0.00000000000000e+00
4.25105208333333e-02 5.24264020126318e+01 0.00000000000000e+00
4.26965625000000e-02 5.20504725173577e+01 0.00000000000000e+00
4.28826041666667e-02 5.16772386674072e+01 0.00000000000000e+00
4.30686458333333e-02 5.13066811333480e+01 0.00000000000000e+00
4.32546875000000e-02 5.09387807243518e+01 0.00000000000000e+00
4.34407291666667e-02 5.05735183872002e+01 0.00000000000000e+00
4.36267708333333e-02 5.02108752052982e+01 0.00000000000000e+00
4.38128125000000e-02 4.98508323976943e+01 0.00000000000000e+00
4.39988541666667e-02 4.94933713181081e+01 0.00000000000000e+00
4.41848958333333e-02 4.91384734539642e+01 0.00000000000000e+00
4.43709375000000e-02 4.87861204254341e+01 0.00000000000000e+00
4.45569791666667e-02 4.84362939844837e+01 0.00000000000000e+00
4.47430208333333e-02 4.80889760139286e+01 0.00000000000000e+00
4.49290625000000e-02 4.77441485264956e+01 0.00000000000000e+00
4.51151041666667e-02 4.74017936638916e+01 0.00000000000000e+00
4.53011458333333e-02 4.70618936958782e+01 0.00000000000000e+00
4.54871875000000e-02 4.67244310193537e+01 0.00000000000000e+00
4.56732291666667e-02 4.63893881574414e+01 0.00000000000000e+00
4.58592708333333e-02 4.60567477585848e+01 0.00000000000000e+00
4.60453125000000e-02 4.57264925956484e+01 0.00000000000000e+00
4.62313541666667e-02 4.53986055650261e+01 0.00000000000000e+00
4.64173958333333e-02 4.50730696857549e+01 0.00000000000000e+00
4.66034375000000e-02 4.47498680986360e+01 0.00000000000000e+00
4.67894791666667e-02 4.44289840653611e+01 0.00000000000000e+00
4.69755208333333e-02 4.41104009676462e+01 0.00000000000000e+00
4.71615625000000e-02 4.37941023063704e+01 0.00000000000000e+00
4.73476041666667e-02 4.34800717007216e+01 0.00000000000000e+00
4.75336458333333e-02 4.31682928873482e+01 0.00000000000000e+00
4.77196875000000e-02 4.28587497195169e+01 0.00000000000000e+00
4.79057291666667e-02 4.25514261662764e+01 0.00000000000000e+00
4.80917708333333e-02 4.22463063116271e+01 0.00000000000000e+00
4.82778125000000e-02 4.19433743536969e+01 0.00000000000000e+00
4.84638541666667e-02 4.16426146039228e+01 0.00000000000000e+00
4.86498958333333e-02 4.13440114862384e+01 0.00000000000000e+00
4.88359375000000e-02 4.10475495362674e+01 0.00000000000000e+00
4.90219791666667e-02 4.07532134005225e+01 0.00000000000000e+00
4.92080208333333e-02 4.04609878356103e+01 0.00000000000000e+00
4.93940625000000e-02 4.01708577074419e+01 0.00000000000000e+00
4.95801041666667e-02 3.98828079904492e+01 0.00000000000000e+00
4.97661458333333e-02 3.95968237668064e+01 0.00000000000000e+00
4.99521875000000e-02 3.93128902256581e+01 0.00000000000000e+00
5.01382291666667e-02 3.90309926623513e+01 0.00000000000000e+00
5.03242708333333e-02 3.87511164776749e+01 0.00000000000000e+00
5.05103125000000e-02 3.84732471771028e+01 0.00000000000000e+00
5.06963541666667e-02 3.81973703700437e+01 0.00000000000000e+00
5.08823958333333e-02 3.79234717690954e+01 0.00000000000000e+00
5.10684375000000e-02 3.76515371893056e+01 0.00000000000000e+00
5.12544791666667e-02 3.73815525474364e+01 0.00000000000000e+00
5.14405208333333e-02 3.71135038612356e+01 0.00000000000000e+00
5.16265625000000e-02 3.68473772487122e+01 0.00000000000000e+00
5.18126041666667e-02 3.65831589274178e+01 0.00000000000000e+00
5.19986458333333e-02 3.63208352137324e+01 0.00000000000000e+00
5.21846875000000e-02 3.60603925221561e+01 0.00000000000000e+00
5.23707291666667e-02 3.58018173646052e+01 0.00000000000000e+00
5.25567708333333e-02 3.55450963497141e+01 0.00000000000000e+00
5.27428125000000e-02 3.52902161821412e+01 0.00000000000000e+00
5.29288541666667e-02 3.50371636618811e+01 0.00000000000000e+00
5.31148958333333e-02 3.47859256835801e+01 0.00000000000000e+00
5.33009375000000e-02 3.45364892358581e+01 0.00000000000000e+00
5.34869791666667e-02 3.42888414006348e+01 0.00000000000000e+00
5.36730208333333e-02 3.40429693524601e+01 0.00000000000000e+00
5.38590625000000e-02 3.37988603578504e+01 0.00000000000000e+00
5.40451041666667e-02 3.35565017746292e+01 0.00000000000000e+00
5.42311458333333e-02 3.33158810512718e+01 0.00000000000000e+00
5.44171875000000e-02 3.30769857262560e+01 0.00000000000000e+00
5.46032291666667e-02 3.28398034274160e+01 0.00000000000000e+00
5.47892708333333e-02 3.26043218713025e+01 0.00000000000000e+00
5.49753125000000e-02 3.23705288625455e+01 0.00000000000000e+00
5.51613541666667e-02 3.21384122932238e+01 0.00000000000000e+00
5.53473958333333e-02 3.19079601422371e+01 0.00000000000000e+00
5.55334375000000e-02 3.16791604746839e+01 0.00000000000000e+00
5.57194791666667e-02 3.14520014412434e+01 0.00000000000000e+00
5.59055208333333e-02 3.12264712775614e+01 0.00000000000000e+00
5.60915625000000e-02 3.10025583036415e+01 0.00000000000000e+00
5.62776041666667e-02 3.07802509232402e+01 0.00000000000000e+00
5.64636458333333e-02 3.05595376232660e+01 0.00000000000000e+00
5.66496875000000e-02 3.03404069731833e+01 0.00000000000000e+00
5.68357291666667e-02 3.01228476244206e+01 0.00000000000000e+00
5.70217708333333e-02 2.99068483097826e+01 0.00000000000000e+00
5.72078125000000e-02 2.96923978428666e+01 0.00000000000000e+00
5.73938541666667e-02 2.94794851174833e+01 0.00000000000000e+00
5.75798958333333e-02 2.92680991070818e+01 0.00000000000000e+00
5.77659375000000e-02 2.90582288641782e+01 0.00000000000000e+00
5.79519791666667e-02 2.88498635197886e+01 0.00000000000000e+00
5.81380208333333e-02 2.86429922828666e+01 0.00000000000000e+00
5.83240625000000e-02 2.84376044397443e+01 0.00000000000000e+00
5.85101041666667e-02 2.82336893535772e+01 0.00000000000000e+00
5.86961458333333e-02 2.80312364637936e+01 0.00000000000000e+00
