Energy (eV)          EEDF (eV^-(3/2))     First Anisotropy
1.57812500000000e-02 2.25410925272574e-01 1.48958585278908e-04
4.73437500000000e-02 2.22983939736517e-01 2.45474010483225e-04
7.89062500000000e-02 2.20583085404005e-01 3.22734386897877e-04
1.10468750000000e-01 2.18208080922058e-01 3.80633077608701e-04
1.42031250000000e-01 2.15858647966943e-01 4.28266545906877e-04
1.73593750000000e-01 2.13534511211611e-01 4.69094165721464e-04
2.05156250000000e-01 2.11235398293442e-01 5.04916111752866e-04
2.36718750000000e-01 2.08961039782324e-01 5.36825337433162e-04
2.68281250000000e-01 2.06711169149083e-01 5.65550566865379e-04
2.99843750000000e-01 2.04485522734249e-01 5.91609554209947e-04
3.31406250000000e-01 2.02283839717155e-01 6.15387558080323e-04
3.62968750000000e-01 2.00105862085375e-01 6.37181527573975e-04
3.94531250000000e-01 1.97951334604488e-01 6.57226798248220e-04
4.26093750000000e-01 1.95820004788164e-01 6.75714125766849e-04
4.57656250000000e-01 1.93711622868579e-01 6.92801039122037e-04
4.89218750000000e-01 1.91625941767144e-01 7.08619683206743e-04
5.20781250000000e-01 1.89562717065549e-01 7.23282400603777e-04
5.52343750000000e-01 1.87521706977122e-01 7.36885806376931e-04
5.83906250000000e-01 1.85502672318492e-01 7.49513828371435e-04
6.15468750000000e-01 1.83505376481561e-01 7.61240019150119e-04
6.47031250000000e-01 1.81529585405777e-01 7.72129343639468e-04
6.78593750000000e-01 1.79575067550701e-01 7.82239581965965e-04
7.10156250000000e-01 1.77641593868878e-01 7.91622444935384e-04
7.41718750000000e-01 1.75728937778992e-01 8.00324471589449e-04
7.73281250000000e-01 1.73836875139314e-01 8.08387759186035e-04
8.04843750000000e-01 1.71965184221434e-01 8.15850562688595e-04
8.36406250000000e-01 1.70113645684281e-01 8.22747791476491e-04
8.67968750000000e-01 1.68282042548413e-01 8.29111424254372e-04
8.99531250000000e-01 1.66470160170593e-01 8.34970858231028e-04
9.31093750000000e-01 1.64677786218636e-01 8.40353205014362e-04
9.62656250000000e-01 1.62904710646523e-01 8.45283542959431e-04
9.94218750000000e-01 1.61150725669788e-01 8.49785133658170e-04
1.02578125000000e+00 1.59415625741167e-01 8.53879608694501e-04
1.05734375000000e+00 1.57699207526512e-01 8.57587131581377e-04
1.08890625000000e+00 1.56001269880960e-01 8.60926538856813e-04
1.12046875000000e+00 1.54321613825362e-01 8.63915463578359e-04
1.15203125000000e+00 1.52660042522967e-01 8.66570443872480e-04
1.18359375000000e+00 1.51016361256351e-01 8.68907018730009e-04
1.21515625000000e+00 1.49390377404603e-01 8.70939812865915e-04
1.24671875000000e+00 1.47781900420748e-01 8.72682612160562e-04
1.27828125000000e+00 1.46190741809418e-01 8.74148430954544e-04
1.30984375000000e+00 1.44616715104764e-01 8.75349572269083e-04
1.34140625000000e+00 1.43059635848603e-01 8.76297681859782e-04
1.37296875000000e+00 1.41519321568802e-01 8.77003796875337e-04
1.40453125000000e+00 1.39995591757894e-01 8.77478389779937e-04
1.43609375000000e+00 1.38488267851924e-01 8.77731408104544e-04
1.46765625000000e+00 1.36997173209526e-01 8.77772310512912e-04
1.49921875000000e+00 1.35522133091220e-01 8.77610099601986e-04
1.53078125000000e+00 1.34062974638933e-01 8.77253351800458e-04
1.56234375000000e+00 1.32619526855748e-01 8.76710244681497e-04
1.59390625000000e+00 1.31191620585858e-01 8.75988581965530e-04
1.62546875000000e+00 1.29779088494748e-01 8.75095816454065e-04
1.65703125000000e+00 1.28381765049583e-01 8.74039071106211e-04
1.68859375000000e+00 1.26999486499809e-01 8.72825158444002e-04
1.72015625000000e+00 1.25632090857966e-01 8.71460598450510e-04
1.75171875000000e+00 1.24279417880701e-01 8.69951635105981e-04
1.78328125000000e+00 1.22941309049992e-01 8.68304251690442e-04
1.81484375000000e+00 1.21617607554571e-01 8.66524184967361e-04
1.84640625000000e+00 1.20308158271548e-01 8.64616938349837e-04
1.87796875000000e+00 1.19012807748229e-01 8.62587794140317e-04
1.90953125000000e+00 1.17731404184139e-01 8.60441824924961e-04
1.94109375000000e+00 1.16463797413227e-01 8.58183904195413e-04
1.97265625000000e+00 1.15209838886272e-01 8.55818716263458e-04
2.00421875000000e+00 1.13969381653472e-01 8.53350765527241e-04
2.03578125000000e+00 1.12742280347226e-01 8.50784385142070e-04
2.06734375000000e+00 1.11528391165095e-01 8.48123745143702e-04
2.09890625000000e+00 1.10327571852954e-01 8.45372860067335e-04
2.13046875000000e+00 1.09139681688319e-01 8.42535596101475e-04
2.16203125000000e+00 1.07964581463855e-01 8.39615677812293e-04
2.19359375000000e+00 1.06802133471064e-01 8.36616694470725e-04
2.22515625000000e+00 1.05652201484149e-01 8.33542106011927e-04
2.25671875000000e+00 1.04514650744046e-01 8.30395248653709e-04
2.28828125000000e+00 1.03389347942633e-01 8.27179340198538e-04
2.31984375000000e+00 1.02276161207111e-01 8.23897485041415e-04
2.35140625000000e+00 1.01174960084543e-01 8.20552678904224e-04
2.38296875000000e+00 1.00085615526575e-01 8.17147813315265e-04
2.41453125000000e+00 9.90079998743067e-02 8.13685679851245e-04
2.44609375000000e+00 9.79419868433330e-02 8.10168974157506e-04
2.47765625000000e+00 9.68874515089459e-02 8.06600299761117e-04
2.50921875000000e+00 9.58442702914939e-02 8.02982171690253e-04
2.54078125000000e+00 9.48123209418999e-02 7.99317019912201e-04
2.57234375000000e+00 9.37914825273350e-02 7.95607192601469e-04
2.60390625000000e+00 9.27816354170469e-02 7.91854959248482e-04
2.63546875000000e+00 9.17826612683399e-02 7.88062513618812e-04
2.66703125000000e+00 9.07944430127069e-02 7.84231976571752e-04
2.69859375000000e+00 8.98168648421104e-02 7.80365398746770e-04
2.73015625000000e+00 8.88498121954108e-02 7.76464763125712e-04
2.76171875000000e+00 8.78931717449410e-02 7.72531987477724e-04
2.79328125000000e+00 8.69468313832262e-02 7.68568926693813e-04
2.82484375000000e+00 8.60106802098457e-02 7.64577375017456e-04
2.85640625000000e+00 8.50846085184369e-02 7.60559068176688e-04
2.88796875000000e+00 8.41685077838387e-02 7.56515685423366e-04
2.91953125000000e+00 8.32622706493739e-02 7.52448851484715e-04
2.95109375000000e+00 8.23657909142679e-02 7.48360138431822e-04
2.98265625000000e+00 8.14789635212033e-02 7.44251067469385e-04
3.01421875000000e+00 8.06016845440085e-02 7.40123110651054e-04
3.04578125000000e+00 7.97338511754784e-02 7.35977692524253e-04
3.07734375000000e+00 7.88753617153267e-02 7.31816191707839e-04
3.10890625000000e+00 7.80261155582682e-02 7.27639942406396e-04
3.14046875000000e+00 7.71860131822281e-02 7.23450235864016e-04
3.17203125000000e+00 7.63549561366799e-02 7.19248321760770e-04
3.20359375000000e+00 7.55328470311080e-02 7.15035409554682e-04
3.23515625000000e+00 7.47195895235941e-02 7.10812669771706e-04
3.26671875000000e+00 7.39150883095277e-02 7.06581235246411e-04
3.29828125000000e+00 7.31192491104370e-02 7.02342202315580e-04
3.32984375000000e+00 7.23319786629408e-02 6.98096631966937e-04
3.36140625000000e+00 7.15531847078189e-02 6.93845550945232e-04
3.39296875000000e+00 7.07827759792005e-02 6.89589952817518e-04
3.42453125000000e+00 7.00206621938688e-02 6.85330798999425e-04
3.45609375000000e+00 6.92667540406807e-02 6.81069019744363e-04
3.48765625000000e+00 6.85209631701009e-02 6.76805515097284e-04
3.51921875000000e+00 6.77832021838478e-02 6.72541155814405e-04
3.55078125000000e+00 6.70533846246521e-02 6.68276784250526e-04
3.58234375000000e+00 6.63314249661241e-02 6.64013215215340e-04
3.61390625000000e+00 6.56172386027320e-02 6.59751236800081e-04
3.64546875000000e+00 6.49107418398861e-02 6.55491611175688e-04
3.67703125000000e+00 6.42118518841315e-02 6.51235075363641e-04
3.70859375000000e+00 6.35204868334451e-02 6.46982341980834e-04
3.74015625000000e+00 6.28365656676380e-02 6.42734099959386e-04
3.77171875000000e+00 6.21600082388605e-02 6.38491015242414e-04
3.80328125000000e+00 6.14907352622101e-02 6.34253731456835e-04
3.83484375000000e+00 6.08286683064397e-02 6.30022870564017e-04
3.86640625000000e+00 6.01737297847669e-02 6.25799033489240e-04
3.89796875000000e+00 5.95258429457812e-02 6.21582800730766e-04
3.92953125000000e+00 5.88849318644496e-02 6.17374732949284e-04
3.96109375000000e+00 5.82509214332198e-02 6.13175371538614e-04
3.99265625000000e+00 5.76237373532173e-02 6.08985239178257e-04
4.02421875000000e+00 5.70033061255393e-02 6.04804840368543e-04
4.05578125000000e+00 5.63895550426413e-02 6.00634661949048e-04
4.08734375000000e+00 5.57824121798161e-02 5.96475173600862e-04
4.11890625000000e+00 5.51818063867657e-02 5.92326828333334e-04
4.15046875000000e+00 5.45876672792627e-02 5.88190062955880e-04
4.18203125000000e+00 5.39999252309026e-02 5.84065298535433e-04
4.21359375000000e+00 5.34185113649439e-02 5.79952940839873e-04
4.24515625000000e+00 5.28433575462368e-02 5.75853380768202e-04
4.27671875000000e+00 5.22743963732385e-02 5.71766994767805e-04
4.30828125000000e+00 5.17115611701143e-02 5.67694145239209e-04
4.33984375000000e+00 5.11547859789244e-02 5.63635180928913e-04
4.37140625000000e+00 5.06040055518937e-02 5.59590437310545e-04
4.40296875000000e+00 5.00591553437663e-02 5.55560236954875e-04
4.43453125000000e+00 4.95201715042407e-02 5.51544889889065e-04
4.46609375000000e+00 4.89869908704879e-02 5.47544693945419e-04
4.49765625000000e+00 4.84595509597490e-02 5.43559935100056e-04
4.52921875000000e+00 4.79377899620133e-02 5.39590887801943e-04
4.56078125000000e+00 4.74216467327745e-02 5.35637815292361e-04
4.59234375000000e+00 4.69110607858656e-02 5.31700969915397e-04
4.62390625000000e+00 4.64059722863703e-02 5.27780593419647e-04
4.65546875000000e+00 4.59063220436112e-02 5.23876917251262e-04
4.68703125000000e+00 4.54120515042134e-02 5.19990162838875e-04
4.71859375000000e+00 4.49231027452423e-02 5.16120541870557e-04
4.75015625000000e+00 4.44394184674162e-02 5.12268256563047e-04
4.78171875000000e+00 4.39609419883912e-02 5.08433499923480e-04
4.81328125000000e+00 4.34876172361185e-02 5.04616456003897e-04
4.84484375000000e+00 4.30193887422740e-02 5.00817300148790e-04
4.87640625000000e+00 4.25562016357571e-02 4.97036199235836e-04
4.90796875000000e+00 4.20980016362615e-02 4.93273311910041e-04
4.93953125000000e+00 4.16447350479132e-02 4.89528788811588e-04
4.97109375000000e+00 4.11963487529785e-02 4.85802772797432e-04
5.00265625000000e+00 4.07527902056391e-02 4.82095399156891e-04
5.03421875000000e+00 4.03140074258344e-02 4.78406795821553e-04
5.06578125000000e+00 3.98799489931696e-02 4.74737083569464e-04
5.09734375000000e+00 3.94505640408903e-02 4.71086376223847e-04
5.12890625000000e+00 3.90258022499214e-02 4.67454780846596e-04
5.16046875000000e+00 3.86056138429700e-02 4.63842397926600e-04
5.19203125000000e+00 3.81899495786923e-02 4.60249321563010e-04
5.22359375000000e+00 3.77787607459232e-02 4.56675639643785e-04
5.25515625000000e+00 3.73719991579674e-02 4.53121434019485e-04
5.28671875000000e+00 3.69696171469529e-02 4.49586780672470e-04
5.31828125000000e+00 3.65715675582449e-02 4.46071749881731e-04
5.34984375000000e+00 3.61778037449195e-02 4.42576406383371e-04
5.38140625000000e+00 3.57882795622973e-02 4.39100809526922e-04
5.41296875000000e+00 3.54029493625358e-02 4.35645013427605e-04
5.44453125000000e+00 3.50217679892803e-02 4.32209067114642e-04
5.47609375000000e+00 3.46446907723714e-02 4.28793014675734e-04
5.50765625000000e+00 3.42716735226109e-02 4.25396895397840e-04
5.53921875000000e+00 3.39026725265826e-02 4.22020743904269e-04
5.57078125000000e+00 3.35376445415303e-02 4.18664590288296e-04
5.60234375000000e+00 3.31765467902897e-02 4.15328460243378e-04
5.63390625000000e+00 3.28193369562757e-02 4.12012375189962e-04
5.66546875000000e+00 3.24659731785231e-02 4.08716352399123e-04
5.69703125000000e+00 3.21164140467813e-02 4.05440405113066e-04
5.72859375000000e+00 3.17706185966612e-02 4.02184542662464e-04
5.76015625000000e+00 3.14285463048349e-02 3.98948770580920e-04
5.79171875000000e+00 3.10901570842866e-02 3.95733090716504e-04
5.82328125000000e+00 3.07554112796147e-02 3.92537501340402e-04
5.85484375000000e+00 3.04242696623853e-02 3.89361997252910e-04
5.88640625000000e+00 3.00966934265342e-02 3.86206569886689e-04
5.91796875000000e+00 2.97726441838201e-02 3.83071207407433e-04
5.94953125000000e+00 2.94520839593252e-02 3.79955894812032e-04
5.98109375000000e+00 2.91349751870054e-02 3.76860614024229e-04
6.01265625000000e+00 2.88212807052880e-02 3.73785343987899e-04
6.04421875000000e+00 2.85109637527165e-02 3.70730060757959e-04
6.07578125000000e+00 2.82039879636428e-02 3.67694737589018e-04
6.10734375000000e+00 2.79003173639655e-02 3.64679345021842e-04
6.13890625000000e+00 2.75999163669142e-02 3.61683850967584e-04
6.17046875000000e+00 2.73027497688790e-02 3.58708220789986e-04
6.20203125000000e+00 2.70087827452850e-02 3.55752417385448e-04
6.23359375000000e+00 2.67179808465114e-02 3.52816401261134e-04
6.26515625000000e+00 2.64303099938546e-02 3.49900130611174e-04
6.29671875000000e+00 2.61457364755338e-02 3.47003561390885e-04
6.32828125000000e+00 2.58642269427414e-02 3.44126647389206e-04
6.35984375000000e+00 2.55857484057339e-02 3.41269340299288e-04
6.39140625000000e+00 2.53102682299667e-02 3.38431589787337e-04
6.42296875000000e+00 2.50377541322691e-02 3.35613343559758e-04
6.45453125000000e+00 2.47681741770614e-02 3.32814547428606e-04
6.48609375000000e+00 2.45014967726123e-02 3.30035145375418e-04
6.51765625000000e+00 2.42376906673366e-02 3.27275079613462e-04
6.54921875000000e+00 2.39767249461333e-02 3.24534290648414e-04
6.58078125000000e+00 2.37185690267621e-02 3.21812717337549e-04
6.61234375000000e+00 2.34631926562600e-02 3.19110296947431e-04
6.64390625000000e+00 2.32105659073954e-02 3.16426965210179e-04
6.67546875000000e+00 2.29606591751620e-02 3.13762656378353e-04
6.70703125000000e+00 2.27134431733081e-02 3.11117303278433e-04
6.73859375000000e+00 2.24688889309058e-02 3.08490837362993e-04
6.77015625000000e+00 2.22269677889551e-02 3.05883188761559e-04
6.80171875000000e+00 2.19876513970257e-02 3.03294286330174e-04
6.83328125000000e+00 2.17509117099348e-02 3.00724057699796e-04
6.86484375000000e+00 2.15167209844602e-02 2.98172429323395e-04
6.89640625000000e+00 2.12850517760894e-02 2.95639326521931e-04
6.92796875000000e+00 2.10558769358031e-02 2.93124673529182e-04
6.95953125000000e+00 2.08291696068939e-02 2.90628393535393e-04
6.99109375000000e+00 2.06049032218189e-02 2.88150408729876e-04
7.02265625000000e+00 2.03830514990864e-02 2.85690640342559e-04
7.05421875000000e+00 2.01635884401759e-02 2.83249008684437e-04
7.08578125000000e+00 1.99464883264910e-02 2.80825433187007e-04
7.11734375000000e+00 1.97317257163464e-02 2.78419832440734e-04
7.14890625000000e+00 1.95192754419855e-02 2.76032124232580e-04
7.18046875000000e+00 1.93091126066314e-02 2.73662225582504e-04
7.21203125000000e+00 1.91012125815694e-02 2.71310052779045e-04
7.24359375000000e+00 1.88955510032606e-02 2.68975521414060e-04
7.27515625000000e+00 1.86921037704867e-02 2.66658546416581e-04
7.30671875000000e+00 1.84908470415260e-02 2.64359042085736e-04
7.33828125000000e+00 1.82917572313588e-02 2.62076922122855e-04
7.36984375000000e+00 1.80948110089042e-02 2.59812099662798e-04
7.40140625000000e+00 1.78999852942853e-02 2.57564487304442e-04
7.43296875000000e+00 1.77072572561251e-02 2.55333997140397e-04
7.46453125000000e+00 1.75166043088704e-02 2.53120540785944e-04
7.49609375000000e+00 1.73280041101453e-02 2.50924029407231e-04
7.52765625000000e+00 1.71414345581331e-02 2.48744373748751e-04
7.55921875000000e+00 1.69568737889857e-02 2.46581484160101e-04
7.59078125000000e+00 1.67743001742618e-02 2.44435270622018e-04
7.62234375000000e+00 1.65936923183923e-02 2.42305642771800e-04
7.65390625000000e+00 1.64150290561728e-02 2.40192509927993e-04
7.68546875000000e+00 1.62382894502834e-02 2.38095781114442e-04
7.71703125000000e+00 1.60634527888349e-02 2.36015365083776e-04
7.74859375000000e+00 1.58904985829417e-02 2.33951170340176e-04
7.78015625000000e+00 1.57194065643212e-02 2.31903105161591e-04
7.81171875000000e+00 1.55501566829175e-02 2.29871077621391e-04
7.84328125000000e+00 1.53827291045530e-02 2.27854995609382e-04
7.87484375000000e+00 1.52171042086032e-02 2.25854766852284e-04
7.90640625000000e+00 1.50532625856975e-02 2.23870298933665e-04
7.93796875000000e+00 1.48911850354451e-02 2.21901499313343e-04
7.96953125000000e+00 1.47308525641844e-02 2.19948275346240e-04
8.00109375000000e+00 1.45722463827576e-02 2.18010534300726e-04
8.03265625000000e+00 1.44153479043084e-02 2.16088183376490e-04
8.06421875000000e+00 1.42601387421041e-02 2.14181129721901e-04
8.09578125000000e+00 1.41066007073809e-02 2.12289280450894e-04
8.12734375000000e+00 1.39547158072123e-02 2.10412542659364e-04
8.15890625000000e+00 1.38044662424003e-02 2.08550823441142e-04
8.19046875000000e+00 1.36558344053900e-02 2.06704029903520e-04
8.22203125000000e+00 1.35088028782059e-02 2.04872069182306e-04
8.25359375000000e+00 1.33633544304107e-02 2.03054848456479e-04
8.28515625000000e+00 1.32194720170864e-02 2.01252274962455e-04
8.31671875000000e+00 1.30771387768361e-02 1.99464256007887e-04
8.34828125000000e+00 1.29363380298091e-02 1.97690698985109e-04
8.37984375000000e+00 1.27970532757451e-02 1.95931511384182e-04
8.41140625000000e+00 1.26592681920415e-02 1.94186600805555e-04
8.44296875000000e+00 1.25229666318400e-02 1.92455874972381e-04
8.47453125000000e+00 1.23881326221343e-02 1.90739241742431e-04
8.50609375000000e+00 1.22547503618989e-02 1.89036609119687e-04
8.53765625000000e+00 1.21228042202367e-02 1.87347885265575e-04
8.56921875000000e+00 1.19922787345475e-02 1.85672978509869e-04
8.60078125000000e+00 1.18631586087160e-02 1.84011797361254e-04
8.63234375000000e+00 1.17354287113193e-02 1.82364250517589e-04
8.66390625000000e+00 1.16090740738535e-02 1.80730246875838e-04
8.69546875000000e+00 1.14840798889798e-02 1.79109695541680e-04
8.72703125000000e+00 1.13604315087890e-02 1.77502505838863e-04
8.75859375000000e+00 1.12381144430849e-02 1.75908587318231e-04
8.79015625000000e+00 1.11171143576867e-02 1.74327849766466e-04
8.82171875000000e+00 1.09974170727485e-02 1.72760203214564e-04
8.85328125000000e+00 1.08790085610981e-02 1.71205557946027e-04
8.88484375000000e+00 1.07618749465929e-02 1.69663824504793e-04
8.91640625000000e+00 1.06460025024941e-02 1.68134913702918e-04
8.94796875000000e+00 1.05313776498575e-02 1.66618736627975e-04
8.97953125000000e+00 1.04179869559428e-02 1.65115204650231e-04
9.01109375000000e+00 1.03058171326391e-02 1.63624229429574e-04
9.04265625000000e+00 1.01948550349079e-02 1.62145722922187e-04
9.07421875000000e+00 1.00850876592424e-02 1.60679597387010e-04
9.10578125000000e+00 9.97650214214365e-03 1.59225765391982e-04
9.13734375000000e+00 9.86908575861341e-03 1.57784139820037e-04
9.16890625000000e+00 9.76282592066261e-03 1.56354633874891e-04
9.20046875000000e+00 9.65771017583628e-03 1.54937161086635e-04
9.23203125000000e+00 9.55372620575428e-03 1.53531635317110e-04
9.26359375000000e+00 9.45086182466773e-03 1.52137970765090e-04
9.29515625000000e+00 9.34910497803092e-03 1.50756081971254e-04
9.32671875000000e+00 9.24844374108871e-03 1.49385883822982e-04
9.35828125000000e+00 9.14886631747907e-03 1.48027291558960e-04
9.38984375000000e+00 9.05036103785066e-03 1.46680220773588e-04
9.42140625000000e+00 8.95291635849533e-03 1.45344587421233e-04
9.45296875000000e+00 8.85652085999531e-03 1.44020307820289e-04
9.48453125000000e+00 8.76116324588502e-03 1.42707298657085e-04
9.51609375000000e+00 8.66683234132722e-03 1.41405476989616e-04
9.54765625000000e+00 8.57351709180346e-03 1.40114760251115e-04
9.57921875000000e+00 8.48120656181860e-03 1.38835066253465e-04
9.61078125000000e+00 8.38988993361930e-03 1.37566313190464e-04
9.64234375000000e+00 8.29955650592630e-03 1.36308419640926e-04
9.67390625000000e+00 8.21019569268038e-03 1.35061304571651e-04
9.70546875000000e+00 8.12179702180173e-03 1.33824887340248e-04
9.73703125000000e+00 8.03435013396281e-03 1.32599087697812e-04
9.76859375000000e+00 7.94784478137429e-03 1.31383825791466e-04
9.80015625000000e+00 7.86227082658420e-03 1.30179022166780e-04
9.83171875000000e+00 7.77761824128984e-03 1.28984597770051e-04
9.86328125000000e+00 7.69387710516266e-03 1.27800473950454e-04
9.89484375000000e+00 7.61103760468567e-03 1.26626572462088e-04
9.92640625000000e+00 7.52909003200339e-03 1.25462815465869e-04
9.95796875000000e+00 7.44802478378427e-03 1.24309125531342e-04
