Energy (eV)          EEDF (eV^-(3/2))     First Anisotropy
9.73214285714286e-03 2.01950097472974e-01 1.01218316817123e-04
2.91964285714286e-02 2.00702989999851e-01 1.67186185025607e-04
4.86607142857143e-02 1.99463583820678e-01 2.20826537965304e-04
6.81250000000000e-02 1.98231831377437e-01 2.61651784921686e-04
8.75892857142857e-02 1.97007685404230e-01 2.95762071117303e-04
1.07053571428571e-01 1.95791098930587e-01 3.25461417718003e-04
1.26517857142857e-01 1.94582025276755e-01 3.51940998778149e-04
1.45982142857143e-01 1.93380418043009e-01 3.75919445940916e-04
1.65446428571429e-01 1.92186231121988e-01 3.97872919419354e-04
1.84910714285714e-01 1.90999418698290e-01 4.18137646041890e-04
2.04375000000000e-01 1.89819935225095e-01 4.36962286538747e-04
2.23839285714286e-01 1.88647735443983e-01 4.54537347925853e-04
2.43303571428571e-01 1.87482774375990e-01 4.71012912023820e-04
2.62767857142857e-01 1.86325007324612e-01 4.86509919719912e-04
2.82232142857143e-01 1.85174389859760e-01 5.01127672261340e-04
3.01696428571429e-01 1.84030877830471e-01 5.14948999574478e-04
3.21160714285714e-01 1.82894427362179e-01 5.28043933405255e-04
3.40625000000000e-01 1.81764994843792e-01 5.40472378891941e-04
3.60089285714286e-01 1.80642536937271e-01 5.52286103042871e-04
3.79553571428571e-01 1.79527010572197e-01 5.63530244597082e-04
3.99017857142857e-01 1.78418372947013e-01 5.74244478526724e-04
4.18482142857143e-01 1.77316581518631e-01 5.84463926279989e-04
4.37946428571429e-01 1.76221594009589e-01 5.94219877192475e-04
4.57410714285714e-01 1.75133368405966e-01 6.03540370424150e-04
4.76875000000000e-01 1.74051862948375e-01 6.12450664274506e-04
4.96339285714286e-01 1.72977036137771e-01 6.20973620732029e-04
5.15803571428571e-01 1.71908846731378e-01 6.29130024501196e-04
5.35267857142857e-01 1.70847253743144e-01 6.36938848742890e-04
5.54732142857143e-01 1.69792216436012e-01 6.44417477030144e-04
5.74196428571429e-01 1.68743694326538e-01 6.51581890519750e-04
5.93660714285714e-01 1.67701647183074e-01 6.58446829626467e-04
6.13125000000000e-01 1.66666035018824e-01 6.65025929989640e-04
6.32589285714286e-01 1.65636818095725e-01 6.71331839591097e-04
6.52053571428571e-01 1.64613956921110e-01 6.77376321088184e-04
6.71517857142857e-01 1.63597412247732e-01 6.83170340689667e-04
6.90982142857143e-01 1.62587145067605e-01 6.88724144784021e-04
7.10446428571429e-01 1.61583116615179e-01 6.94047326775451e-04
7.29910714285714e-01 1.60585288365685e-01 6.99148888045422e-04
7.49375000000000e-01 1.59593622029478e-01 7.04037289745205e-04
7.68839285714286e-01 1.58608079554756e-01 7.08720498857541e-04
7.88303571428571e-01 1.57628623124703e-01 7.13206030091321e-04
8.07767857142857e-01 1.56655215157253e-01 7.17500983229747e-04
8.27232142857143e-01 1.55687818299963e-01 7.21612075727442e-04
8.46696428571429e-01 1.54726395432284e-01 7.25545671694285e-04
8.66160714285714e-01 1.53770909664013e-01 7.29307809870380e-04
8.85625000000000e-01 1.52821324330524e-01 7.32904227049511e-04
9.05089285714286e-01 1.51877602994726e-01 7.36340379413760e-04
9.24553571428571e-01 1.50939709444541e-01 7.39621462698927e-04
9.44017857142857e-01 1.50007607692506e-01 7.42752430491391e-04
9.63482142857143e-01 1.49081261971391e-01 7.45738010155306e-04
9.82946428571429e-01 1.48160636735841e-01 7.48582717134735e-04
1.00241071428571e+00 1.47245696660924e-01 7.51290870267138e-04
1.02187500000000e+00 1.46336406635313e-01 7.53866600947350e-04
1.04133928571429e+00 1.45432731776089e-01 7.56313869239407e-04
1.06080357142857e+00 1.44534637399099e-01 7.58636470761508e-04
1.08026785714286e+00 1.43642089051423e-01 7.60838047508710e-04
1.09973214285714e+00 1.42755052476335e-01 7.62922098631997e-04
1.11919642857143e+00 1.41873493636920e-01 7.64891981635168e-04
1.13866071428571e+00 1.40997378714287e-01 7.66750930323829e-04
1.15812500000000e+00 1.40126674082736e-01 7.68502055160956e-04
1.17758928571429e+00 1.39261346339448e-01 7.70148351258898e-04
1.19705357142857e+00 1.38401362273053e-01 7.71692704796608e-04
1.21651785714286e+00 1.37546688891713e-01 7.73137898375013e-04
1.23598214285714e+00 1.36697293393255e-01 7.74486618116177e-04
1.25544642857143e+00 1.35853143185099e-01 7.75741452232236e-04
1.27491071428571e+00 1.35014205882608e-01 7.76904904938157e-04
1.29437500000000e+00 1.34180449287785e-01 7.77979394680016e-04
1.31383928571429e+00 1.33351841414486e-01 7.78967259464809e-04
1.33330357142857e+00 1.32528350461390e-01 7.79870760906220e-04
1.35276785714286e+00 1.31709944835958e-01 7.80692087488877e-04
1.37223214285714e+00 1.30896593128642e-01 7.81433359526035e-04
1.39169642857143e+00 1.30088264129905e-01 7.82096626511332e-04
1.41116071428571e+00 1.29284926828701e-01 7.82683878512870e-04
1.43062500000000e+00 1.28486550393964e-01 7.83197043414119e-04
1.45008928571429e+00 1.27693104196280e-01 7.83637990713700e-04
1.46955357142857e+00 1.26904557784380e-01 7.84008534221188e-04
1.48901785714286e+00 1.26120880905797e-01 7.84310434138620e-04
1.50848214285714e+00 1.25342043484366e-01 7.84545400737090e-04
1.52794642857143e+00 1.24568015634907e-01 7.84715091167765e-04
1.54741071428571e+00 1.23798767661812e-01 7.84821119145473e-04
1.56687500000000e+00 1.23034270042812e-01 7.84865051759001e-04
1.58633928571429e+00 1.22274493447774e-01 7.84848412330615e-04
1.60580357142857e+00 1.21519408718071e-01 7.84772682295680e-04
1.62526785714286e+00 1.20768986884556e-01 7.84639302578061e-04
1.64473214285714e+00 1.20023199147755e-01 7.84449676450133e-04
1.66419642857143e+00 1.19282016890651e-01 7.84205166144571e-04
1.68366071428571e+00 1.18545411677356e-01 7.83907101295074e-04
1.70312500000000e+00 1.17813355238758e-01 7.83556775601113e-04
1.72258928571429e+00 1.17085819488965e-01 7.83155449075026e-04
1.74205357142857e+00 1.16362776507050e-01 7.82704349403856e-04
1.76151785714286e+00 1.15644198552812e-01 7.82204672884147e-04
1.78098214285714e+00 1.14930058049213e-01 7.81657586732085e-04
1.80044642857143e+00 1.14220327593584e-01 7.81064225674095e-04
1.81991071428571e+00 1.13514979956378e-01 7.80425699435282e-04
1.83937500000000e+00 1.12813988068392e-01 7.79743089408755e-04
1.85883928571429e+00 1.12117325035242e-01 7.79017450483659e-04
1.87830357142857e+00 1.11424964121112e-01 7.78249812064278e-04
1.89776785714286e+00 1.10736878762663e-01 7.77441178719721e-04
1.91723214285714e+00 1.10053042553357e-01 7.76592532106082e-04
1.93669642857143e+00 1.09373429253345e-01 7.75704827630023e-04
1.95616071428571e+00 1.08698012788286e-01 7.74779001176647e-04
1.97562500000000e+00 1.08026767237912e-01 7.73815965862371e-04
1.99508928571429e+00 1.07359666848840e-01 7.72816613564224e-04
2.01455357142857e+00 1.06696686020026e-01 7.71781815703899e-04
2.03401785714286e+00 1.06037799315100e-01 7.70712423706892e-04
2.05348214285714e+00 1.05382981448306e-01 7.69609270639544e-04
2.07294642857143e+00 1.04732207293272e-01 7.68473167994359e-04
2.09241071428571e+00 1.04085451881889e-01 7.67304911791079e-04
2.11187500000000e+00 1.03442690394023e-01 7.66105279454457e-04
2.13133928571429e+00 1.02803898168919e-01 7.64875031121566e-04
2.15080357142857e+00 1.02169050692109e-01 7.63614910259704e-04
2.17026785714286e+00 1.01538123606406e-01 7.62325643995105e-04
2.18973214285714e+00 1.00911092699243e-01 7.61007944533012e-04
2.20919642857143e+00 1.00287933910471e-01 7.59662506088824e-04
2.22866071428571e+00 9.96686233313092e-02 7.58290010458913e-04
2.24812500000000e+00 9.90531371950399e-02 7.56891124043363e-04
2.26758928571429e+00 9.84414518872008e-02 7.55466498983216e-04
2.28705357142857e+00 9.78335439337594e-02 7.54016773657423e-04
2.30651785714286e+00 9.72293900109517e-02 7.52542572920539e-04
2.32598214285714e+00 9.66289669338242e-02 7.51044509352429e-04
2.34544642857143e+00 9.60322516632105e-02 7.49523180344720e-04
2.36491071428571e+00 9.54392213047330e-02 7.47979173215260e-04
2.38437500000000e+00 9.48498531003600e-02 7.46413062383148e-04
2.40383928571429e+00 9.42641244375512e-02 7.44825410371901e-04
2.42330357142857e+00 9.36820128385329e-02 7.43216768216534e-04
2.44276785714286e+00 9.31034959691347e-02 7.41587675635994e-04
2.46223214285714e+00 9.25285516283872e-02 7.39938662145861e-04
2.48169642857143e+00 9.19571577547816e-02 7.38270244302073e-04
2.50116071428571e+00 9.13892924253201e-02 7.36582930415993e-04
2.52062500000000e+00 9.08249338478320e-02 7.34877217882511e-04
2.54008928571429e+00 9.02640603692044e-02 7.33153594074928e-04
2.55955357142857e+00 8.97066504656250e-02 7.31412536683456e-04
2.57901785714286e+00 8.91526827505444e-02 7.29654513840502e-04
2.59848214285714e+00 8.86021359652028e-02 7.27879985120598e-04
2.61794642857143e+00 8.80549889842621e-02 7.26089398938437e-04
2.63741071428571e+00 8.75112208149036e-02 7.24283196910671e-04
2.65687500000000e+00 8.69708105898130e-02 7.22461811333541e-04
2.67633928571429e+00 8.64337375746094e-02 7.20625665988425e-04
2.69580357142857e+00 8.58999811589436e-02 7.18775176427176e-04
2.71526785714286e+00 8.53695208636924e-02 7.16910750062901e-04
2.73473214285714e+00 8.48423363323063e-02 7.15032787075252e-04
2.75419642857143e+00 8.43184073358921e-02 7.13141677957070e-04
2.77366071428571e+00 8.37977137723547e-02 7.11237807560932e-04
2.79312500000000e+00 8.32802356599742e-02 7.09321552720716e-04
2.81258928571429e+00 8.27659531441310e-02 7.07393282982119e-04
2.83205357142857e+00 8.22548464891618e-02 7.05453360845941e-04
2.85151785714286e+00 8.17468960848772e-02 7.03502141833172e-04
2.87098214285714e+00 8.12420824386394e-02 7.01539975309716e-04
2.89044642857143e+00 8.07403861799599e-02 6.99567202174888e-04
2.90991071428571e+00 8.02417880596828e-02 6.97584158624317e-04
2.92937500000000e+00 7.97462689440899e-02 6.95591173908798e-04
2.94883928571429e+00 7.92538098210030e-02 6.93588571000444e-04
2.96830357142857e+00 7.87643917923155e-02 6.91576666802456e-04
2.98776785714286e+00 7.82779960799106e-02 6.89555772195068e-04
3.00723214285714e+00 7.77946040183911e-02 6.87526192790604e-04
3.02669642857143e+00 7.73141970592473e-02 6.85488226756459e-04
3.04616071428571e+00 7.68367567700791e-02 6.83442168320972e-04
3.06562500000000e+00 7.63622648291748e-02 6.81388305662446e-04
3.08508928571429e+00 7.58907030310592e-02 6.79326921519782e-04
3.10455357142857e+00 7.54220532796307e-02 6.77258293375028e-04
3.12401785714286e+00 7.49562975935464e-02 6.75182693484554e-04
3.14348214285714e+00 7.44934180995361e-02 6.73100389573291e-04
3.16294642857143e+00 7.40333970361887e-02 6.71011642784940e-04
3.18241071428571e+00 7.35762167532109e-02 6.68916710953853e-04
3.20187500000000e+00 7.31218597064304e-02 6.66815846616646e-04
3.22133928571429e+00 7.26703084628524e-02 6.64709297574414e-04
3.24080357142857e+00 7.22215456943384e-02 6.62597307052718e-04
3.26026785714286e+00 7.17755541825173e-02 6.60480113721791e-04
3.27973214285714e+00 7.13323168126238e-02 6.58357952337056e-04
3.29919642857143e+00 7.08918165769453e-02 6.56231051808749e-04
3.31866071428571e+00 7.04540365741149e-02 6.54099638260214e-04
3.33812500000000e+00 7.00189600044975e-02 6.51963933154951e-04
3.35758928571429e+00 6.95865701748059e-02 6.49824153815816e-04
3.37705357142857e+00 6.91568504922695e-02 6.47680513566333e-04
3.39651785714286e+00 6.87297844691193e-02 6.45533221742576e-04
3.41598214285714e+00 6.83053557169013e-02 6.43382484285879e-04
3.43544642857143e+00 6.78835479496185e-02 6.41228501924644e-04
3.45491071428571e+00 6.74643449830564e-02 6.39071473036517e-04
3.47437500000000e+00 6.70477307305168e-02 6.36911591884126e-04
3.49383928571429e+00 6.66336892070371e-02 6.34749049096040e-04
3.51330357142857e+00 6.62222045240030e-02 6.32584031792190e-04
3.53276785714286e+00 6.58132608932513e-02 6.30416723589333e-04
3.55223214285714e+00 6.54068426218122e-02 6.28247305151014e-04
3.57169642857143e+00 6.50029341147787e-02 6.26075952474786e-04
3.59116071428571e+00 6.46015198746627e-02 6.23902839573840e-04
3.61062500000000e+00 6.42025844974434e-02 6.21728136814567e-04
3.63008928571429e+00 6.38061126764312e-02 6.19552011363344e-04
3.64955357142857e+00 6.34120891972821e-02 6.17374627298581e-04
3.66901785714286e+00 6.30204989417562e-02 6.15196145611192e-04
3.68848214285714e+00 6.26313268828503e-02 6.13016724715858e-04
3.70794642857143e+00 6.22445580874211e-02 6.10836518837250e-04
3.72741071428571e+00 6.18601777155711e-02 6.08655680525195e-04
3.74687500000000e+00 6.14781710169828e-02 6.06474359087595e-04
3.76633928571429e+00 6.10985233344622e-02 6.04292701006323e-04
3.78580357142857e+00 6.07212200993182e-02 6.02110850037913e-04
3.80526785714286e+00 6.03462468348112e-02 5.99928947210192e-04
3.82473214285714e+00 5.99735891516396e-02 5.97747131298599e-04
3.84419642857143e+00 5.96032327503425e-02 5.95565537304976e-04
3.86366071428571e+00 5.92351634207126e-02 5.93384298818832e-04
3.88312500000000e+00 5.88693670383917e-02 5.91203546539908e-04
3.90258928571429e+00 5.85058295681245e-02 5.89023408665927e-04
3.92205357142857e+00 5.81445370594707e-02 5.86844010983335e-04
3.94151785714286e+00 5.77854756499730e-02 5.84665476861188e-04
3.96098214285714e+00 5.74286315609672e-02 5.82487927695649e-04
3.98044642857143e+00 5.70739910997844e-02 5.80311481475549e-04
3.99991071428571e+00 5.67215406591908e-02 5.78136255000990e-04
4.01937500000000e+00 5.63712667142215e-02 5.75962362489980e-04
4.03883928571429e+00 5.60231558251716e-02 5.73789915940518e-04
4.05830357142857e+00 5.56771946336127e-02 5.71619025212724e-04
4.07776785714286e+00 5.53333698653066e-02 5.69449798020663e-04
4.09723214285714e+00 5.49916683263107e-02 5.67282340347737e-04
4.11669642857143e+00 5.46520769049993e-02 5.65116755093672e-04
4.13616071428571e+00 5.43145825715283e-02 5.62953144160546e-04
4.15562500000000e+00 5.39791723748879e-02 5.60791607138316e-04
4.17508928571429e+00 5.36458334456548e-02 5.58632241643576e-04
4.19455357142857e+00 5.33145529922877e-02 5.56475143394099e-04
4.21401785714286e+00 5.29853183038096e-02 5.54320406198989e-04
4.23348214285714e+00 5.26581167461840e-02 5.52168122347444e-04
4.25294642857143e+00 5.23329357641721e-02 5.50018381332112e-04
4.27241071428571e+00 5.20097628808214e-02 5.47871271811960e-04
4.29187500000000e+00 5.16885856947181e-02 5.45726880371746e-04
4.31133928571429e+00 5.13693918825242e-02 5.43585291839204e-04
4.33080357142857e+00 5.10521691955268e-02 5.41446589353028e-04
4.35026785714286e+00 5.07369054621109e-02 5.39310854351821e-04
4.36973214285714e+00 5.04235885843843e-02 5.37178166938325e-04
4.38919642857143e+00 5.01122065398848e-02 5.35048604674473e-04
4.40866071428571e+00 4.98027473810922e-02 5.32922244429479e-04
4.42812500000000e+00 4.94951992328649e-02 5.30799161208727e-04
4.44758928571429e+00 4.91895502947790e-02 5.28679428451136e-04
4.46705357142857e+00 4.88857888379131e-02 5.26563118091280e-04
4.48651785714286e+00 4.85839032071293e-02 5.24450300547551e-04
4.50598214285714e+00 4.82838818179258e-02 5.22341045063775e-04
4.52544642857143e+00 4.79857131580092e-02 5.20235418571455e-04
4.54491071428571e+00 4.76893857868274e-02 5.18133487430837e-04
4.56437500000000e+00 4.73948883331764e-02 5.16035316324970e-04
4.58383928571429e+00 4.71022094973593e-02 5.13940968538853e-04
4.60330357142857e+00 4.68113380481869e-02 5.11850506016334e-04
4.62276785714286e+00 4.65222628250835e-02 5.09763989347667e-04
4.64223214285714e+00 4.62349727351505e-02 5.07681478090211e-04
4.66169642857143e+00 4.59494567546143e-02 5.05603029693836e-04
4.68116071428571e+00 4.56657039283802e-02 5.03528701142112e-04
4.70062500000000e+00 4.53837033677950e-02 5.01458547907519e-04
4.72008928571429e+00 4.51034442526429e-02 4.99392624213595e-04
4.73955357142857e+00 4.48249158283436e-02 4.97330983087364e-04
4.75901785714286e+00 4.45481074078992e-02 4.95273676346507e-04
4.77848214285714e+00 4.42730083691512e-02 4.93220754900521e-04
4.79794642857143e+00 4.39996081561158e-02 4.91172267735563e-04
4.81741071428571e+00 4.37278962785571e-02 4.89128263462214e-04
4.83687500000000e+00 4.34578623098945e-02 4.87088789328237e-04
4.85633928571429e+00 4.31894958890479e-02 4.85053891465082e-04
4.87580357142857e+00 4.29227867178197e-02 4.83023614935963e-04
4.89526785714286e+00 4.26577245626954e-02 4.80998003722932e-04
4.91473214285714e+00 4.23942992522793e-02 4.78977101010164e-04
4.93419642857143e+00 4.21325006785268e-02 4.76960948224401e-04
4.95366071428571e+00 4.18723187963363e-02 4.74949586495373e-04
4.97312500000000e+00 4.16137436215904e-02 4.72943055722657e-04
4.99258928571429e+00 4.13567652328631e-02 4.70941394807483e-04
5.01205357142857e+00 4.11013737689714e-02 4.68944641697169e-04
5.03151785714286e+00 4.08475594306422e-02 4.66952833372163e-04
5.05098214285714e+00 4.05953124781134e-02 4.64966006112507e-04
5.07044642857143e+00 4.03446232322713e-02 4.62984194590778e-04
5.08991071428571e+00 4.00954820742610e-02 4.61007433250589e-04
5.10937500000000e+00 3.98478794436510e-02 4.59035755424231e-04
5.12883928571429e+00 3.96018058400142e-02 4.57069193551143e-04
5.14830357142857e+00 3.93572518206364e-02 4.55107779218799e-04
5.16776785714286e+00 3.91142080020604e-02 4.53151543149741e-04
5.18723214285714e+00 3.88726650578400e-02 4.51200515452615e-04
5.20669642857143e+00 3.86326137195909e-02 4.49254724764282e-04
5.22616071428571e+00 3.83940447766188e-02 4.47314199551664e-04
5.24562500000000e+00 3.81569490741977e-02 4.45378967277311e-04
5.26508928571429e+00 3.79213175150357e-02 4.43449054605032e-04
5.28455357142857e+00 3.76871410571287e-02 4.41524487437839e-04
5.30401785714286e+00 3.74544107151914e-02 4.39605290905111e-04
5.32348214285714e+00 3.72231175585535e-02 4.37691489599034e-04
5.34294642857143e+00 3.69932527121312e-02 4.35783106763145e-04
5.36241071428571e+00 3.67648073560714e-02 4.33880165522251e-04
5.38187500000000e+00 3.65377727241367e-02 4.31982688092975e-04
5.40133928571429e+00 3.63121401050646e-02 4.30090695977543e-04
5.42080357142857e+00 3.60879008405560e-02 4.28204209999008e-04
5.44026785714286e+00 3.58650463266023e-02 4.26323250288609e-04
5.45973214285714e+00 3.56435680115135e-02 4.24447836508575e-04
5.47919642857143e+00 3.54234573968167e-02 4.22577987084490e-04
5.49866071428571e+00 3.52047060369158e-02 4.20713720367506e-04
5.51812500000000e+00 3.49873055375755e-02 4.18855053887274e-04
5.53758928571429e+00 3.47712475571830e-02 4.17002004534877e-04
5.55705357142857e+00 3.45565238048605e-02 4.15154588595305e-04
5.57651785714286e+00 3.43431260416980e-02 4.13312821735157e-04
5.59598214285714e+00 3.41310460789026e-02 4.11476719212800e-04
5.61544642857143e+00 3.39202757786313e-02 4.09646295151863e-04
5.63491071428571e+00 3.37108070536643e-02 4.07821563639910e-04
5.65437500000000e+00 3.35026318659819e-02 4.06002538021323e-04
5.67383928571429e+00 3.32957422279355e-02 4.04189231069935e-04
5.69330357142857e+00 3.30901302004768e-02 4.02381655019219e-04
5.71276785714286e+00 3.28857878943020e-02 4.00579821550255e-04
5.73223214285714e+00 3.26827074681157e-02 3.98783741990023e-04
5.75169642857143e+00 3.24808811294008e-02 3.96993426623582e-04
5.77116071428571e+00 3.22803011341076e-02 3.95208885733185e-04
5.79062500000000e+00 3.20809597853152e-02 3.93430128928796e-04
5.81008928571429e+00 3.18828494343197e-02 3.91657165310972e-04
5.82955357142857e+00 3.16859624789716e-02 3.89890003499049e-04
5.84901785714286e+00 3.14902913647389e-02 3.88128651619287e-04
5.86848214285714e+00 3.12958285830766e-02 3.86373117492073e-04
5.88794642857143e+00 3.11025666721403e-02 3.84623407980784e-04
5.90741071428571e+00 3.09104982164883e-02 3.82879529974624e-04
5.92687500000000e+00 3.07196158458236e-02 3.81141489754625e-04
5.94633928571429e+00 3.05299122360046e-02 3.79409293147589e-04
5.96580357142857e+00 3.03413801074839e-02 3.77682945552200e-04
5.98526785714286e+00 3.01540122262960e-02 3.75962451927605e-04
6.00473214285714e+00 2.99678014025254e-02 3.74247816970190e-04
6.02419642857143e+00 2.97827404909684e-02 3.72539044496741e-04
6.04366071428571e+00 2.95988223908477e-02 3.70836138374632e-04
6.06312500000000e+00 2.94160400446294e-02 3.69139101921262e-04
6.08258928571429e+00 2.92343864389622e-02 3.67447938049452e-04
6.10205357142857e+00 2.90538546032105e-02 3.65762649291821e-04
6.12151785714286e+00 2.88744376103728e-02 3.64083237789644e-04
6.14098214285714e+00 2.86961285756417e-02 3.62409705459908e-04
