Energy (eV)          EEDF (eV^-(3/2))     First Anisotropy
9.67500000000000e-02 8.71939006886700e-01 2.11485338951794e-03
2.90250000000000e-01 7.33298522510941e-01 3.22543113645687e-03
4.83750000000000e-01 6.16702222139031e-01 3.60515198239099e-03
6.77250000000000e-01 5.18645025342382e-01 3.61477228446539e-03
8.70750000000000e-01 4.36179168253033e-01 3.45767881223142e-03
1.06425000000000e+00 3.66825588835665e-01 3.21978305238313e-03
1.25775000000000e+00 3.08499402123147e-01 2.94633339576305e-03
1.45125000000000e+00 2.59447225076153e-01 2.66312619018654e-03
1.64475000000000e+00 2.18194466946961e-01 2.38520802881906e-03
1.83825000000000e+00 1.83501000607326e-01 2.12122179238714e-03
2.03175000000000e+00 1.54323882246176e-01 1.87583957159683e-03
2.22525000000000e+00 1.29785998728667e-01 1.65122493869498e-03
2.41875000000000e+00 1.09149700103627e-01 1.44795280467341e-03
2.61225000000000e+00 9.17946246083036e-02 1.26560511586139e-03
2.80575000000000e+00 7.71990495528568e-02 1.10316337489525e-03
2.99925000000000e+00 6.49242074608945e-02 9.59269412190875e-04
3.19275000000000e+00 5.46010959829141e-02 8.32398642667213e-04
3.38625000000000e+00 4.59193850665192e-02 7.20974223093014e-04
3.57975000000000e+00 3.86180879143359e-02 6.23440880907439e-04
3.77325000000000e+00 3.24777152829678e-02 5.38311080237748e-04
3.96675000000000e+00 2.73136772680544e-02 4.64192207693967e-04
4.16025000000000e+00 2.29707342220181e-02 3.99800798106165e-04
4.35375000000000e+00 1.93183299897788e-02 3.43968006061478e-04
4.54725000000000e+00 1.62466671716687e-02 2.95639273763502e-04
4.74075000000000e+00 1.36634064293670e-02 2.53870266870805e-04
4.93425000000000e+00 1.14908906104520e-02 2.17820529233339e-04
5.12775000000000e+00 9.66381024409677e-03 1.86745866311884e-04
5.32125000000000e+00 8.12724022879164e-03 1.59990152396651e-04
5.51475000000000e+00 6.83498869163307e-03 1.36977031968115e-04
5.70825000000000e+00 5.74820838311774e-03 1.17201825141661e-04
5.90175000000000e+00 4.83422886363993e-03 1.00223833079285e-04
6.09525000000000e+00 4.06557437525847e-03 8.56591586763198e-05
6.28875000000000e+00 3.41913787431091e-03 7.31741014913630e-05
6.48225000000000e+00 2.87548639490924e-03 6.24791470909168e-05
6.67575000000000e+00 2.41827686137826e-03 5.33235448593594e-05
6.86925000000000e+00 2.03376478797844e-03 4.54904513277427e-05
7.06275000000000e+00 1.71039109660241e-03 3.87926056036593e-05
7.25625000000000e+00 1.43843463149181e-03 3.30684976375849e-05
7.44975000000000e+00 1.20971992498389e-03 2.81789874478708e-05
7.64325000000000e+00 1.01737142923576e-03 2.40043330317018e-05
7.83675000000000e+00 8.55606825719589e-04 2.04415857746961e-05
8.03025000000000e+00 7.19563199025425e-04 1.74023142037328e-05
8.22375000000000e+00 6.05150849464349e-04 1.48106195234853e-05
8.41725000000000e+00 5.08930349833640e-04 1.26014092658666e-05
8.61075000000000e+00 4.28009150463979e-04 1.07188983740790e-05
8.80425000000000e+00 3.59954624322914e-04 9.11531001029626e-06
8.99775000000000e+00 3.02720938164509e-04 7.74975123321072e-06
9.19125000000000e+00 2.54587551349224e-04 6.58724138556331e-06
9.38475000000000e+00 2.14107493505359e-04 5.59787353198061e-06
9.57825000000000e+00 1.80063866171778e-04 4.75609157972521e-06
9.77175000000000e+00 1.51433260788307e-04 4.04006779630122e-06
9.96525000000000e+00 1.27354993317220e-04 3.43116731278656e-06
1.01587500000000e+01 1.07105230636898e-04 2.91348787975590e-06
1.03522500000000e+01 9.00752309036632e-05 2.47346463618107e-06
1.05457500000000e+01 7.57530437505366e-05 2.09953097484085e-06
1.07392500000000e+01 6.37081202001930e-05 1.78182775528520e-06
1.09327500000000e+01 5.35783696402759e-05 1.51195414200743e-06
1.11262500000000e+01 4.50592747720304e-05 1.28275424544368e-06
1.13197500000000e+01 3.78947373093468e-05 1.08813453025073e-06
1.15132500000000e+01 3.18693792345671e-05 9.22907641597388e-07
1.17067500000000e+01 2.68020681738872e-05 7.82658897519289e-07
1.19002500000000e+01 2.25404722542740e-05 6.63632214276113e-07
1.20937500000000e+01 1.89564807517616e-05 5.62632681636262e-07
1.22872500000000e+01 1.59423528681291e-05 4.76943394639395e-07
1.24807500000000e+01 1.34074788617252e-05 4.04254485271089e-07
1.26742500000000e+01 1.12756561665984e-05 3.42602588389088e-07
1.28677500000000e+01 9.48279861550262e-06 2.90319227144933e-07
1.30612500000000e+01 7.97500990217817e-06 2.45986819312809e-07
1.32547500000000e+01 6.70696336795177e-06 2.08401191991521e-07
1.34482500000000e+01 5.64053940632235e-06 1.76539652131915e-07
1.36417500000000e+01 4.74367952362791e-06 1.49533797794793e-07
1.38352500000000e+01 3.98942260693440e-06 1.26646373042819e-07
1.40287500000000e+01 3.35509442774231e-06 1.07251570592025e-07
1.42222500000000e+01 2.82162601663238e-06 9.08182731190936e-08
1.44157500000000e+01 2.37298041804867e-06 7.68957984545455e-08
1.46092500000000e+01 1.99567059250577e-06 6.51017775328449e-08
1.48027500000000e+01 1.67835397355169e-06 5.51118484254315e-08
1.49962500000000e+01 1.41149149118837e-06 4.66508963524706e-08
1.51897500000000e+01 1.18706081142173e-06 3.94856093753285e-08
1.53832500000000e+01 9.98315171440999e-07 3.34181534804248e-08
1.55767500000000e+01 8.39580560608020e-07 2.82807998074328e-08
1.57702500000000e+01 7.06085150176982e-07 2.39313615654094e-08
1.59637500000000e+01 5.93815844115543e-07 2.02493193331831e-08
1.61572500000000e+01 4.99397638704439e-07 1.71325314820988e-08
1.63507500000000e+01 4.19992164262701e-07 1.44944418419185e-08
1.65442500000000e+01 3.53212358992477e-07 1.22617098416453e-08
1.67377500000000e+01 2.97050709896090e-07 1.03721995280654e-08
1.69312500000000e+01 2.49818903566877e-07 8.77327337991958e-09
1.71247500000000e+01 2.10097072655332e-07 7.42034493784271e-09
1.73182500000000e+01 1.76691112274149e-07 6.27565116735320e-09
1.75117500000000e+01 1.48596783201699e-07 5.30721134186071e-09
1.77052500000000e+01 1.24969522765992e-07 4.48794422663006e-09
1.78987500000000e+01 1.05099055873648e-07 3.79491959247033e-09
1.80922500000000e+01 8.83880429488056e-08 3.20872370021722e-09
1.82857500000000e+01 7.43341229031796e-08 2.71292146821303e-09
1.84792500000000e+01 6.25148113188276e-08 2.29360064545398e-09
1.86727500000000e+01 5.25747998576499e-08 1.93898553149335e-09
1.88662500000000e+01 4.42152750965671e-08 1.63910966905218e-09
1.90597500000000e+01 3.71849356946366e-08 1.38553853643221e-09
1.92532500000000e+01 3.12724378530807e-08 1.17113462669511e-09
1.94467500000000e+01 2.63000419660764e-08 9.89858455313999e-10
1.96402500000000e+01 2.21182694699716e-08 8.36600018384892e-10
1.98337500000000e+01 1.86014092668485e-08 7.07036055692756e-10
2.00272500000000e+01 1.56437386379867e-08 5.97509179237810e-10
2.02207500000000e+01 1.31563450415443e-08 5.04925527192104e-10
2.04142500000000e+01 1.10644532523617e-08 4.26668111789639e-10
2.06077500000000e+01 9.30517749322621e-09 3.60523461055919e-10
2.08012500000000e+01 7.82563098289219e-09 3.04619520200694e-10
2.09947500000000e+01 6.58133607069642e-09 2.57373088827757e-10
2.11882500000000e+01 5.53488716374942e-09 2.17445333266972e-10
2.13817500000000e+01 4.65482625204952e-09 1.83704136449328e-10
2.15752500000000e+01 3.91469722791811e-09 1.55192236892932e-10
2.17687500000000e+01 3.29225057101158e-09 1.31100268698161e-10
2.19622500000000e+01 2.76877449040685e-09 1.10743950337790e-10
2.21557500000000e+01 2.32853241676930e-09 9.35447851857573e-11
2.23492500000000e+01 1.95828993467387e-09 7.90137343077400e-11
2.25427500000000e+01 1.64691693387102e-09 6.67374047119729e-11
2.27362500000000e+01 1.38505301949725e-09 5.63663662989329e-11
2.29297500000000e+01 1.16482612289947e-09 4.76052700783437e-11
2.31232500000000e+01 9.79615854042544e-10 4.02044904742698e-11
2.33167500000000e+01 8.23854481476397e-10 3.39530570985300e-11
2.35102500000000e+01 6.92859556986372e-10 2.86726774135043e-11
2.37037500000000e+01 5.82693153343130e-10 2.42126822232314e-11
2.38972500000000e+01 4.90043483602607e-10 2.04457517705253e-11
2.40907500000000e+01 4.12125343233552e-10 1.72643020931425e-11
2.42842500000000e+01 3.46596382195969e-10 1.45774298102009e-11
2.44777500000000e+01 2.91486689968632e-10 1.23083291849804e-11
2.46712500000000e+01 2.45139576733462e-10 1.03921085773975e-11
2.48647500000000e+01 2.06161770499806e-10 8.77394462778748e-12
2.50582500000000e+01 1.73381533010589e-10 7.40752201573195e-12
2.52517500000000e+01 1.45813435324228e-10 6.25371467831450e-12
2.54452500000000e+01 1.22628734167176e-10 5.27947117565055e-12
2.56387500000000e+01 1.03130458520548e-10 4.45687264776115e-12
2.58322500000000e+01 8.67324575018354e-11 3.76233667670275e-12
2.60257500000000e+01 7.29417796858614e-11 3.17594448753089e-12
2.62192500000000e+01 6.13438541578065e-11 2.68087240649226e-12
2.64127500000000e+01 5.15900278158917e-11 2.26291144244500e-12
2.66062500000000e+01 4.33870842741266e-11 1.91006135055520e-12
2.67997500000000e+01 3.64884292857524e-11 1.61218764577444e-12
2.69932500000000e+01 3.06866777064188e-11 1.36073181668810e-12
2.71867500000000e+01 2.58074191487687e-11 1.14846649815683e-12
2.73802500000000e+01 2.17039749135476e-11 9.69288636168747e-13
2.75737500000000e+01 1.82529885817885e-11 8.18044756370523e-13
2.77672500000000e+01 1.53507177138753e-11 6.90383359220468e-13
2.79607500000000e+01 1.29099151777366e-11 5.82630235302717e-13
2.81542500000000e+01 1.08572063536617e-11 4.91683145797246e-13
2.83477500000000e+01 9.13088337011516e-12 4.14922863806719e-13
2.85412500000000e+01 7.67905006157749e-12 3.50138037754922e-13
2.87347500000000e+01 6.45806188273211e-12 2.95461731551708e-13
2.89282500000000e+01 5.43121388020092e-12 2.49317828795801e-13
2.91217500000000e+01 4.56763728005776e-12 2.10375769372430e-13
2.93152500000000e+01 3.84137152068878e-12 1.77512324358302e-13
2.95087500000000e+01 3.23058383475061e-12 1.49779315903439e-13
2.97022500000000e+01 2.71691291955030e-12 1.26376358410539e-13
2.98957500000000e+01 2.28491696547760e-12 1.06627840690694e-13
3.00892500000000e+01 1.92160944929789e-12 8.99634899091610e-14
3.02827500000000e+01 1.61606873747340e-12 7.59019604869921e-14
3.04762500000000e+01 1.35910976353343e-12 6.40369776023013e-14
3.06697500000000e+01 1.14300790956443e-12 5.40256379977200e-14
3.08632500000000e+01 9.61266791234195e-13 4.55785325266741e-14
3.10567500000000e+01 8.08422965578437e-13 3.84514070174049e-14
3.12502500000000e+01 6.79881690738040e-13 3.24381220851863e-14
3.14437500000000e+01 5.71778800309165e-13 2.73647097350424e-14
3.16372500000000e+01 4.80864540017383e-13 2.30843560302011e-14
3.18307500000000e+01 4.04405874651353e-13 1.94731656519786e-14
3.20242500000000e+01 3.40104328438553e-13 1.64265866023231e-14
3.22177500000000e+01 2.86026889006896e-13 1.38563922410280e-14
3.24112500000000e+01 2.40547897789381e-13 1.16881338465672e-14
3.26047500000000e+01 2.02300179999844e-13 9.85899039967862e-15
3.27982500000000e+01 1.70133945064874e-13 8.31595369840104e-15
3.29917500000000e+01 1.43082221989915e-13 7.01429654852763e-15
3.31852500000000e+01 1.20331790588673e-13 5.91627991002902e-15
3.33787500000000e+01 1.01198734719796e-13 4.99006175079726e-15
3.35722500000000e+01 8.51078826201033e-14 4.20877616079202e-15
3.37657500000000e+01 7.15755162762955e-14 3.54975617852000e-15
3.39592500000000e+01 6.01948300498329e-14 2.99387791812317e-15
3.41527500000000e+01 5.06237014168527e-14 2.52500707776769e-15
3.43462500000000e+01 4.25744061910474e-14 2.12953185866531e-15
3.45397500000000e+01 3.58049690518459e-14 1.79596881351486e-15
3.47332500000000e+01 3.01118893602613e-14 1.51463024486879e-15
3.49267500000000e+01 2.53240235882251e-14 1.27734354824665e-15
3.51202500000000e+01 2.12974404569683e-14 1.07721439269283e-15
3.53137500000000e+01 1.79110941212759e-14 9.08426895944165e-16
3.55072500000000e+01 1.50631853282745e-14 7.66075018774316e-16
3.57007500000000e+01 1.26681011610797e-14 6.46020304104388e-16
3.58942500000000e+01 1.06538413708631e-14 5.44771847026709e-16
3.60877500000000e+01 8.95985392856149e-15 4.59385023860760e-16
3.62812500000000e+01 7.53521472928173e-15 3.87376050223119e-16
3.64747500000000e+01 6.33709672826110e-15 3.26649895445657e-16
3.66682500000000e+01 5.32948248804126e-15 2.75439466688824e-16
3.68617500000000e+01 4.48208143386385e-15 2.32254301889220e-16
3.70552500000000e+01 3.76941926816807e-15 1.95837285640755e-16
3.72487500000000e+01 3.17007217046212e-15 1.65128134161859e-16
3.74422500000000e+01 2.66602276133171e-15 1.39232591338307e-16
3.76357500000000e+01 2.24211846978317e-15 1.17396443100426e-16
3.78292500000000e+01 1.88561602153454e-15 9.89835968627680e-17
3.80227500000000e+01 1.58579835480844e-15 8.34575904485565e-17
3.82162500000000e+01 1.33365244747263e-15 7.03659942378693e-17
3.84097500000000e+01 1.12159837047163e-15 5.93272540851376e-17
3.86032500000000e+01 9.43261422440745e-16 5.43396646054015e-17
