Energy (eV)          EEDF (eV^-(3/2))     First Anisotropy
2.61290322580645e-02 1.10782921009673e-01 7.44566591231386e-05
7.83870967741936e-02 1.09553061325208e-01 1.22679068562529e-04
1.30645161290323e-01 1.08336854962445e-01 1.61236468309670e-04
1.82903225806452e-01 1.07134150343640e-01 1.90098042629604e-04
2.35161290322581e-01 1.05944797588609e-01 2.13815090066403e-04
2.87419354838710e-01 1.04768648463826e-01 2.34119353595349e-04
3.39677419354839e-01 1.03605556393846e-01 2.51912429939102e-04
3.91935483870968e-01 1.02455376421227e-01 2.67741971468039e-04
4.44193548387097e-01 1.01317965205293e-01 2.81973293077037e-04
4.96451612903226e-01 1.00193180990433e-01 2.94866066617880e-04
5.48709677419355e-01 9.90808836001096e-02 3.06613598451221e-04
6.00967741935484e-01 9.79809344092881e-02 3.17364949510687e-04
6.53225806451613e-01 9.68931963360269e-02 3.27238301943070e-04
7.05483870967742e-01 9.58175338165009e-02 3.36329489558790e-04
7.57741935483871e-01 9.47538127951998e-02 3.44717684451716e-04
8.10000000000000e-01 9.37019007017886e-02 3.52469326049052e-04
8.62258064516129e-01 9.26616664404579e-02 3.59640917953352e-04
9.14516129032258e-01 9.16329803681916e-02 3.66281070163820e-04
9.66774193548387e-01 9.06157142835897e-02 3.72432023032678e-04
1.01903225806452e+00 8.96097414062721e-02 3.78130806434251e-04
1.07129032258065e+00 8.86149363653781e-02 3.83410135751097e-04
1.12354838709677e+00 8.76311751842154e-02 3.88299117269194e-04
1.17580645161290e+00 8.66583352505165e-02 3.92823805020988e-04
1.22806451612903e+00 8.56962953299765e-02 3.97007652979162e-04
1.28032258064516e+00 8.47449355182046e-02 4.00871881117225e-04
1.33258064516129e+00 8.38041372571495e-02 4.04435776103826e-04
1.38483870967742e+00 8.28737832903976e-02 4.07716940923398e-04
1.43709677419355e+00 8.19537576771460e-02 4.10731503022045e-04
1.48935483870968e+00 8.10439457504196e-02 4.13494289916613e-04
1.54161290322581e+00 8.01442341289457e-02 4.16018977651792e-04
1.59387096774194e+00 7.92545106779542e-02 4.18318217813795e-04
1.64612903225806e+00 7.83746645192458e-02 4.20403745540563e-04
1.69838709677419e+00 7.75045859994558e-02 4.22286476071125e-04
1.75064516129032e+00 7.66441666778386e-02 4.23976582323585e-04
1.80290322580645e+00 7.57932993274287e-02 4.25483568367642e-04
1.85516129032258e+00 7.49518779020746e-02 4.26816331045668e-04
1.90741935483871e+00 7.41197975421258e-02 4.27983214447289e-04
1.95967741935484e+00 7.32969545431258e-02 4.28992058277857e-04
2.01193548387097e+00 7.24832463604959e-02 4.29850240439861e-04
2.06419354838710e+00 7.16785715797472e-02 4.30564715167103e-04
2.11645161290323e+00 7.08828299202788e-02 4.31142046786196e-04
2.16870967741936e+00 7.00959222069874e-02 4.31588440194084e-04
2.22096774193548e+00 6.93177503732774e-02 4.31909767498645e-04
2.27322580645161e+00 6.85482174373741e-02 4.32111594561694e-04
2.32548387096774e+00 6.77872274909761e-02 4.32199200214433e-04
2.37774193548387e+00 6.70346856971068e-02 4.32177598210603e-04
2.43000000000000e+00 6.62904982652247e-02 4.32051555026979e-04
2.48225806451613e+00 6.55545724522157e-02 4.31825606306312e-04
2.53451612903226e+00 6.48268165385274e-02 4.31504072055368e-04
2.58677419354839e+00 6.41071398286873e-02 4.31091070330268e-04
2.63903225806452e+00 6.33954526283950e-02 4.30590529965216e-04
2.69129032258065e+00 6.26916662446178e-02 4.30006201672521e-04
2.74354838709677e+00 6.19956929661161e-02 4.29341670333483e-04
2.79580645161290e+00 6.13074460529900e-02 4.28600362408968e-04
2.84806451612903e+00 6.06268397332193e-02 4.27785556544568e-04
2.90032258064516e+00 5.99537891821832e-02 4.26900391607135e-04
2.95258064516129e+00 5.92882105216169e-02 4.25947874338174e-04
3.00483870967742e+00 5.86300207998814e-02 4.24930886613165e-04
3.05709677419355e+00 5.79791379906593e-02 4.23852192021268e-04
3.10935483870968e+00 5.73354809739328e-02 4.22714442140983e-04
3.16161290322581e+00 5.66989695344468e-02 4.21520182229156e-04
3.21387096774194e+00 5.60695243433578e-02 4.20271856677269e-04
3.26612903225806e+00 5.54470669564900e-02 4.18971813647344e-04
3.31838709677419e+00 5.48315197984724e-02 4.17622311082354e-04
3.37064516129032e+00 5.42228061533803e-02 4.16225519175190e-04
3.42290322580645e+00 5.36208501605719e-02 4.14783525738387e-04
3.47516129032258e+00 5.30255767980421e-02 4.13298339802746e-04
3.52741935483871e+00 5.24369118800922e-02 4.11771895177751e-04
3.57967741935484e+00 5.18547820412320e-02 4.10206053927378e-04
3.63193548387097e+00 5.12791147337264e-02 4.08602609514969e-04
3.68419354838710e+00 5.07098382120218e-02 4.06963289890000e-04
3.73645161290323e+00 5.01468815301838e-02 4.05289760276844e-04
3.78870967741936e+00 4.95901745268246e-02 4.03583625926997e-04
3.84096774193548e+00 4.90396478224448e-02 4.01846434347992e-04
3.89322580645161e+00 4.84952328062385e-02 4.00079678780427e-04
3.94548387096774e+00 4.79568616277496e-02 3.98284798902694e-04
3.99774193548387e+00 4.74244671925009e-02 3.96463184007688e-04
4.05000000000000e+00 4.68979831481917e-02 3.94616174829011e-04
4.10225806451613e+00 4.63773438817484e-02 3.92745065424864e-04
4.15451612903226e+00 4.58624845059449e-02 3.90851105069567e-04
4.20677419354839e+00 4.53533408564040e-02 3.88935499949214e-04
4.25903225806452e+00 4.48498494786237e-02 3.86999414873455e-04
4.31129032258065e+00 4.43519476249383e-02 3.85043974590580e-04
4.36354838709677e+00 4.38595732430572e-02 3.83070266204989e-04
4.41580645161290e+00 4.33726649684866e-02 3.81079339273653e-04
4.46806451612903e+00 4.28911621201766e-02 3.79072208042832e-04
4.52032258064516e+00 4.24150046885724e-02 3.77049852566902e-04
4.57258064516129e+00 4.19441333324284e-02 3.75013219907143e-04
4.62483870967742e+00 4.14784893672100e-02 3.72963225363219e-04
4.67709677419355e+00 4.10180147618952e-02 3.70900753564664e-04
4.72935483870968e+00 4.05626521277118e-02 3.68826659598165e-04
4.78161290322581e+00 4.01123447149329e-02 3.66741770003315e-04
4.83387096774194e+00 3.96670364019377e-02 3.64646883806797e-04
4.88612903225807e+00 3.92266716920048e-02 3.62542773253582e-04
4.93838709677419e+00 3.87911957035628e-02 3.60430185476132e-04
4.99064516129032e+00 3.83605541634644e-02 3.58309842256305e-04
5.04290322580645e+00 3.79346934028025e-02 3.56182441586668e-04
5.09516129032258e+00 3.75135603467858e-02 3.54048658319544e-04
5.14741935483871e+00 3.70971025114914e-02 3.51909144901125e-04
5.19967741935484e+00 3.66852679940239e-02 3.49764532147482e-04
5.25193548387097e+00 3.62780054692815e-02 3.47615429919871e-04
5.30419354838710e+00 3.58752641803881e-02 3.45462427842679e-04
5.35645161290323e+00 3.54769939354773e-02 3.43306095925665e-04
5.40870967741936e+00 3.50831450983882e-02 3.41146985229352e-04
5.46096774193548e+00 3.46936685854682e-02 3.38985628289043e-04
5.51322580645161e+00 3.43085158572212e-02 3.36822540334163e-04
5.56548387096774e+00 3.39276389123416e-02 3.34658218921307e-04
5.61774193548387e+00 3.35509902837805e-02 3.32493145082595e-04
5.67000000000000e+00 3.31785230301027e-02 3.30327783718867e-04
5.72225806451613e+00 3.28101907323123e-02 3.28162584072789e-04
5.77451612903226e+00 3.24459474854424e-02 3.25997980243994e-04
5.82677419354839e+00 3.20857478954094e-02 3.23834391627662e-04
5.87903225806452e+00 3.17295470708293e-02 3.21672223394958e-04
5.93129032258065e+00 3.13773006199017e-02 3.19511866770186e-04
5.98354838709677e+00 3.10289646430235e-02 3.17353700000782e-04
6.03580645161290e+00 3.06844957273842e-02 3.15198087957796e-04
6.08806451612903e+00 3.03438509432610e-02 3.13045383053134e-04
6.14032258064516e+00 3.00069878363985e-02 3.10895925506439e-04
6.19258064516129e+00 2.96738644249461e-02 3.08750043685055e-04
6.24483870967742e+00 2.93444391920382e-02 3.06608054483378e-04
6.29709677419355e+00 2.90186710827677e-02 3.04470263639647e-04
6.34935483870968e+00 2.86965194969610e-02 3.02336966091538e-04
6.40161290322581e+00 2.83779442861884e-02 3.00208446271549e-04
6.45387096774194e+00 2.80629057467274e-02 2.98084978440629e-04
6.50612903225807e+00 2.77513646166110e-02 2.95966826854074e-04
6.55838709677419e+00 2.74432820692410e-02 2.93854246515470e-04
6.61064516129032e+00 2.71386197086014e-02 2.91747482776763e-04
6.66290322580645e+00 2.68373395658507e-02 2.89646772053981e-04
6.71516129032258e+00 2.65394040927558e-02 2.87552341995520e-04
6.76741935483871e+00 2.62447761588140e-02 2.85464411715346e-04
6.81967741935484e+00 2.59534190448558e-02 2.83383192061491e-04
6.87193548387097e+00 2.56652964402076e-02 2.81308885834286e-04
6.92419354838710e+00 2.53803724364575e-02 2.79241688039246e-04
6.97645161290323e+00 2.50986115246592e-02 2.77181786091423e-04
7.02870967741936e+00 2.48199785892572e-02 2.75129360053840e-04
7.08096774193548e+00 2.45444389053306e-02 2.73084582735764e-04
7.13322580645161e+00 2.42719581330537e-02 2.71047620291444e-04
7.18548387096774e+00 2.40025023134565e-02 2.69018631841934e-04
7.23774193548387e+00 2.37360378653143e-02 2.66997770044719e-04
7.29000000000000e+00 2.34725315794696e-02 2.64985181200561e-04
7.34225806451613e+00 2.32119506161602e-02 2.62981005417022e-04
7.39451612903226e+00 2.29542624994849e-02 2.60985376803057e-04
7.44677419354839e+00 2.26994351147729e-02 2.58998423622585e-04
7.49903225806452e+00 2.24474367031890e-02 2.57020268478477e-04
7.55129032258065e+00 2.21982358591442e-02 2.55051028375296e-04
7.60354838709678e+00 2.19518015253579e-02 2.53090815220383e-04
7.65580645161290e+00 2.17081029890196e-02 2.51139735471492e-04
7.70806451612903e+00 2.14671098789131e-02 2.49197890614189e-04
7.76032258064516e+00 2.12287921603648e-02 2.47265377235312e-04
7.81258064516129e+00 2.09931201327455e-02 2.45342287146810e-04
7.86483870967742e+00 2.07600644245451e-02 2.43428707537331e-04
7.91709677419355e+00 2.05295959909152e-02 2.41524721088811e-04
7.96935483870968e+00 2.03016861088664e-02 2.39630406120111e-04
8.02161290322581e+00 2.00763063748519e-02 2.37745836696754e-04
8.07387096774194e+00 1.98534287000836e-02 2.35871082767121e-04
8.12612903225807e+00 1.96330253081565e-02 2.34006210196208e-04
8.17838709677419e+00 1.94150687307452e-02 2.32151281173822e-04
8.23064516129032e+00 1.91995318042073e-02 2.30306353895538e-04
8.28290322580645e+00 1.89863876669806e-02 2.28471482952231e-04
8.33516129032258e+00 1.87756097551937e-02 2.26646719375369e-04
8.38741935483871e+00 1.85671718003799e-02 2.24832110726185e-04
8.43967741935484e+00 1.83610478251955e-02 2.23027701208913e-04
8.49193548387097e+00 1.81572121411742e-02 2.21233531754783e-04
8.54419354838710e+00 1.79556393445496e-02 2.19449640129581e-04
8.59645161290323e+00 1.77563043140494e-02 2.17676061012887e-04
8.64870967741935e+00 1.75591822068200e-02 2.15912826100258e-04
8.70096774193548e+00 1.73642484562595e-02 2.14159964118370e-04
8.75322580645161e+00 1.71714787682611e-02 2.12417501160815e-04
8.80548387096774e+00 1.69808491182065e-02 2.10685460402504e-04
8.85774193548387e+00 1.67923357486194e-02 2.08963862420266e-04
8.91000000000000e+00 1.66059151653429e-02 2.07252725219579e-04
8.96225806451613e+00 1.64215641354591e-02 2.05552064299224e-04
9.01451612903226e+00 1.62392596835596e-02 2.03861892736798e-04
9.06677419354839e+00 1.60589790897031e-02 2.02182221249711e-04
9.11903225806452e+00 1.58806998857758e-02 2.00513058276556e-04
9.17129032258065e+00 1.57043998534864e-02 1.98854409982320e-04
9.22354838709678e+00 1.55300570210023e-02 1.97206280545802e-04
9.27580645161290e+00 1.53576496602287e-02 1.95568671900578e-04
9.32806451612903e+00 1.51871562846567e-02 1.93941584009650e-04
9.38032258064516e+00 1.50185556459457e-02 1.92325014881655e-04
9.43258064516129e+00 1.48518267320028e-02 1.90718960620756e-04
9.48483870967742e+00 1.46869487636487e-02 1.89123415495015e-04
9.53709677419355e+00 1.45239011927319e-02 1.87538371983473e-04
9.58935483870968e+00 1.43626636988748e-02 1.85963820841262e-04
9.64161290322581e+00 1.42032161876238e-02 1.84399751144025e-04
9.69387096774194e+00 1.40455387872731e-02 1.82846150349960e-04
9.74612903225806e+00 1.38896118470491e-02 1.81303004296817e-04
9.79838709677419e+00 1.37354159341671e-02 1.79770297441235e-04
9.85064516129032e+00 1.35829318314235e-02 1.78248012629312e-04
9.90290322580645e+00 1.34321405352638e-02 1.76736131325481e-04
9.95516129032258e+00 1.32830232527979e-02 1.75234633619680e-04
1.00074193548387e+01 1.31355614000648e-02 1.73743498305761e-04
1.00596774193548e+01 1.29897365989752e-02 1.72262702972479e-04
1.01119354838710e+01 1.28455306754775e-02 1.70792223335127e-04
1.01641935483871e+01 1.27029256589682e-02 1.69332034734898e-04
1.02164516129032e+01 1.25619037755340e-02 1.67882111039151e-04
1.02687096774194e+01 1.24224474513399e-02 1.66442424945261e-04
1.03209677419355e+01 1.22845393049367e-02 1.65012948491809e-04
1.03732258064516e+01 1.21481621491983e-02 1.63593651465619e-04
1.04254838709677e+01 1.20132989890866e-02 1.62184503824677e-04
1.04777419354839e+01 1.18799330156509e-02 1.60785474550719e-04
1.05300000000000e+01 1.17480476078428e-02 1.59396530527692e-04
1.05822580645161e+01 1.16176263303593e-02 1.58017638867770e-04
1.06345161290323e+01 1.14886529278902e-02 1.56648765808409e-04
1.06867741935484e+01 1.13611113268218e-02 1.55289875633467e-04
1.07390322580645e+01 1.12349856331506e-02 1.53940932906482e-04
1.07912903225806e+01 1.11102601269715e-02 1.52601901409672e-04
1.08435483870968e+01 1.09869192640749e-02 1.51272743106801e-04
1.08958064516129e+01 1.08649476739298e-02 1.49953420287571e-04
1.09480645161290e+01 1.07443301544006e-02 1.48643894218622e-04
1.10003225806452e+01 1.06250516743204e-02 1.47344125461890e-04
1.10525806451613e+01 1.05070973672283e-02 1.46054074290964e-04
1.11048387096774e+01 1.03904525327912e-02 1.44773699370757e-04
1.11570967741935e+01 1.02751026348982e-02 1.43502959754526e-04
1.12093548387097e+01 1.01610332967473e-02 1.42241813930647e-04
1.12616129032258e+01 1.00482303021784e-02 1.40990218891499e-04
1.13138709677419e+01 9.93667959383174e-03 1.39748132051540e-04
1.13661290322581e+01 9.82636726843657e-03 1.38515510331013e-04
1.14183870967742e+01 9.71727957805842e-03 1.37292309259669e-04
1.14706451612903e+01 9.60940292832162e-03 1.36078484819316e-04
1.15229032258065e+01 9.50272387388872e-03 1.34873992562445e-04
1.15751612903226e+01 9.39722911963049e-03 1.33678786750093e-04
1.16274193548387e+01 9.29290551890651e-03 1.32492822122001e-04
1.16796774193548e+01 9.18974006922944e-03 1.31316053048156e-04
1.17319354838710e+01 9.08771991336154e-03 1.30148432699960e-04
1.17841935483871e+01 8.98683233765166e-03 1.28989914750862e-04
1.18364516129032e+01 8.88706476787608e-03 1.27840452298669e-04
1.18887096774194e+01 8.78840477108885e-03 1.26699998115125e-04
1.19409677419355e+01 8.69084005071298e-03 1.25568504972660e-04
1.19932258064516e+01 8.59435844751444e-03 1.24445924589325e-04
1.20454838709677e+01 8.49894793803159e-03 1.23332209214470e-04
1.20977419354839e+01 8.40459663070032e-03 1.22227310866098e-04
1.21500000000000e+01 8.31129276676531e-03 1.21131180585357e-04
1.22022580645161e+01 8.21902471876295e-03 1.20043769960381e-04
1.22545161290323e+01 8.12778098680168e-03 1.18965030392729e-04
1.23067741935484e+01 8.03755019941497e-03 1.17894912379804e-04
1.23590322580645e+01 7.94832111209494e-03 1.16833366979447e-04
1.24112903225806e+01 7.86008260372169e-03 1.15780345103870e-04
1.24635483870968e+01 7.77282367736196e-03 1.14735796829368e-04
1.25158064516129e+01 7.68653345885084e-03 1.13699672804030e-04
1.25680645161290e+01 7.60120119336428e-03 1.12671923351342e-04
1.26203225806452e+01 7.51681624682930e-03 1.11652498674780e-04
1.26725806451613e+01 7.43336810189396e-03 1.10641349126006e-04
1.27248387096774e+01 7.35084635863538e-03 1.09638424327090e-04
1.27770967741935e+01 7.26924073321922e-03 1.08643674484164e-04
1.28293548387097e+01 7.18854105470304e-03 1.07657049751774e-04
1.28816129032258e+01 7.10873726569771e-03 1.06678499611847e-04
1.29338709677419e+01 7.02981942107244e-03 1.05707974136581e-04
1.29861290322581e+01 6.95177768488440e-03 1.04745423376996e-04
1.30383870967742e+01 6.87460233099652e-03 1.03790796764866e-04
1.30906451612903e+01 6.79828374182628e-03 1.02844044326927e-04
1.31429032258065e+01 6.72281240539629e-03 1.01905116096413e-04
1.31951612903226e+01 6.64817891591175e-03 1.00973961537423e-04
1.32474193548387e+01 6.57437397255041e-03 1.00050530712420e-04
1.32996774193548e+01 6.50138837662970e-03 9.91347737154780e-05
1.33519354838710e+01 6.42921303214626e-03 9.82266401185156e-05
1.34041935483871e+01 6.35783894460555e-03 9.73260800938968e-05
1.34564516129032e+01 6.28725721830077e-03 9.64330436954436e-05
1.35087096774194e+01 6.21745905732874e-03 9.55474810200705e-05
1.35609677419355e+01 6.14843576240379e-03 9.46693424198391e-05
1.36132258064516e+01 6.08017873133352e-03 9.37985777977445e-05
1.36654838709677e+01 6.01267945791314e-03 9.29351376562753e-05
1.37177419354839e+01 5.94592952938409e-03 9.20789725869770e-05
1.37700000000000e+01 5.87992062687742e-03 9.12300327714444e-05
1.38222580645161e+01 5.81464452434543e-03 9.03882689897705e-05
1.38745161290323e+01 5.75009308611918e-03 8.95536321292872e-05
1.39267741935484e+01 5.68625826732173e-03 8.87260727040182e-05
1.39790322580645e+01 5.62313211283535e-03 8.79055418246505e-05
1.40312903225806e+01 5.56070675495409e-03 8.70919907254464e-05
1.40835483870968e+01 5.49897441376891e-03 8.62853703017119e-05
1.41358064516129e+01 5.43792739616883e-03 8.54856320427819e-05
1.41880645161290e+01 5.37755809358494e-03 8.46927274321030e-05
1.42403225806452e+01 5.31785898276448e-03 8.39066080804540e-05
1.42925806451613e+01 5.25882262313853e-03 8.31272259009322e-05
1.43448387096774e+01 5.20044165716005e-03 8.23545325212608e-05
1.43970967741935e+01 5.14270880935961e-03 8.15884801557823e-05
1.44493548387097e+01 5.08561688423678e-03 8.08290211788457e-05
1.45016129032258e+01 5.02915876657408e-03 8.00761077079357e-05
1.45538709677419e+01 4.97332742052460e-03 7.93296924425321e-05
1.46061290322581e+01 4.91811588758452e-03 7.85897282535251e-05
1.46583870967742e+01 4.86351728688455e-03 7.78561677815714e-05
1.47106451612903e+01 4.80952481430821e-03 7.71289642441664e-05
1.47629032258065e+01 4.75613174054220e-03 7.64080710402855e-05
1.48151612903226e+01 4.70333141134712e-03 7.56934413636216e-05
1.48674193548387e+01 4.65111724670468e-03 7.49850289791178e-05
1.49196774193548e+01 4.59948273894325e-03 7.42827878420329e-05
1.49719354838710e+01 4.54842145298897e-03 7.35866717256759e-05
1.50241935483871e+01 4.49792702554100e-03 7.28966349685403e-05
1.50764516129032e+01 4.44799316326913e-03 7.22126319915497e-05
1.51287096774194e+01 4.39861364337000e-03 7.15346174038609e-05
1.51809677419355e+01 4.34978231147209e-03 7.08625461419559e-05
1.52332258064516e+01 4.30149308185391e-03 7.01963729966291e-05
1.52854838709677e+01 4.25373993666466e-03 6.95360533117827e-05
1.53377419354839e+01 4.20651692423768e-03 6.88815426408078e-05
1.53900000000000e+01 4.15981815929200e-03 6.82327964106113e-05
1.54422580645161e+01 4.11363782217915e-03 6.75897705940786e-05
1.54945161290323e+01 4.06797015726080e-03 6.69524213792004e-05
1.55467741935484e+01 4.02280947309484e-03 6.63207048453974e-05
1.55990322580645e+01 3.97815014170722e-03 6.56945776107025e-05
1.56512903225806e+01 3.93398659703131e-03 6.50739965129859e-05
1.57035483870968e+01 3.89031333507961e-03 6.44589182982744e-05
1.57558064516129e+01 3.84712491323958e-03 6.38493002436029e-05
1.58080645161290e+01 3.80441594877235e-03 6.32450997531754e-05
1.58603225806452e+01 3.76218111923482e-03 6.26462744459189e-05
1.59125806451613e+01 3.72041516074042e-03 6.20527822706969e-05
1.59648387096774e+01 3.67911286810657e-03 6.14645811105651e-05
1.60170967741936e+01 3.63826909418896e-03 6.08816293656268e-05
1.60693548387097e+01 3.59787874847595e-03 6.03038856651692e-05
1.61216129032258e+01 3.55793679722390e-03 5.97313085863212e-05
1.61738709677419e+01 3.51843826281371e-03 5.91638572150628e-05
1.62261290322581e+01 3.47937822239826e-03 5.86014908690436e-05
1.62783870967742e+01 3.44075180802628e-03 5.80441688264207e-05
1.63306451612903e+01 3.40255420602048e-03 5.74918508658960e-05
1.63829032258065e+01 3.36478065567585e-03 5.69444969996975e-05
1.64351612903226e+01 3.32742644937305e-03 5.64020672123594e-05
1.64874193548387e+01 3.29048693197703e-03 5.58645219805846e-05
