Energy (eV)          EEDF (eV^-(3/2))     First Anisotropy
3.52307692307692e-04 2.32740815645654e+01 9.73490162332427e-03
1.05692307692308e-03 2.31508485924497e+01 1.60866119007997e-02
1.76153846153846e-03 2.30282681215166e+01 2.12666971929733e-02
2.46615384615385e-03 2.29063366970858e+01 2.52206962994341e-02
3.17076923076923e-03 2.27850508821043e+01 2.85338541364222e-02
3.87538461538462e-03 2.26644072585092e+01 3.14269371917089e-02
4.58000000000000e-03 2.25444024257142e+01 3.40139442238239e-02
5.28461538461538e-03 2.24250330016467e+01 3.63635698527677e-02
5.98923076923077e-03 2.23062956217086e+01 3.85212780922210e-02
6.69384615384615e-03 2.21881869394921e+01 4.05191349616996e-02
7.39846153846154e-03 2.20707036259760e+01 4.23808280145249e-02
8.10307692307692e-03 2.19538423700628e+01 4.41244843141614e-02
8.80769230769231e-03 2.18375998779179e+01 4.57643680229558e-02
9.51230769230769e-03 2.17219728733920e+01 4.73119604226379e-02
1.02169230769231e-02 2.16069580975518e+01 4.87766777505604e-02
1.09215384615385e-02 2.14925523083692e+01 5.01663654949833e-02
1.16261538461538e-02 2.13787522815577e+01 5.14876492300630e-02
1.23307692307692e-02 2.12655548104744e+01 5.27461902648323e-02
1.30353846153846e-02 2.11529567038780e+01 5.39468754324289e-02
1.37400000000000e-02 2.10409547882317e+01 5.50939610255336e-02
1.44446153846154e-02 2.09295459067963e+01 5.61911840507403e-02
1.51492307692308e-02 2.08187269195468e+01 5.72418490438793e-02
1.58538461538462e-02 2.07084947030867e+01 5.82488968934600e-02
1.65584615384615e-02 2.05988461511014e+01 5.92149602609422e-02
1.72630769230769e-02 2.04897781726112e+01 6.01424082624343e-02
1.79676923076923e-02 2.03812876935693e+01 6.10333830343735e-02
1.86723076923077e-02 2.02733716562045e+01 6.18898301928143e-02
1.93769230769231e-02 2.01660270189316e+01 6.27135239972529e-02
2.00815384615385e-02 2.00592507562737e+01 6.35060885079763e-02
2.07861538461538e-02 1.99530398587730e+01 6.42690154104630e-02
2.14907692307692e-02 1.98473913333096e+01 6.50036793463465e-02
2.21953846153846e-02 1.97423022017912e+01 6.57113508049151e-02
2.29000000000000e-02 1.96377695023104e+01 6.63932071967989e-02
2.36046153846154e-02 1.95337902886410e+01 6.70503426455898e-02
2.43092307692308e-02 1.94303616301566e+01 6.76837763182409e-02
2.50138461538462e-02 1.93274806117489e+01 6.82944596922288e-02
2.57184615384615e-02 1.92251443340693e+01 6.88832830809733e-02
2.64230769230769e-02 1.91233499124625e+01 6.94510811781116e-02
2.71276923076923e-02 1.90220944778802e+01 6.99986379438889e-02
2.78323076923077e-02 1.89213751764654e+01 7.05266911318325e-02
2.85369230769231e-02 1.88211891694698e+01 7.10359361576372e-02
2.92415384615385e-02 1.87215336331775e+01 7.15270295866730e-02
2.99461538461538e-02 1.86224057588236e+01 7.20005922169367e-02
3.06507692307692e-02 1.85238027527775e+01 7.24572119855247e-02
3.13553846153846e-02 1.84257218356694e+01 7.28974464096912e-02
3.20600000000000e-02 1.83281602431143e+01 7.33218247819520e-02
3.27646153846154e-02 1.82311152253635e+01 7.37308503305873e-02
3.34692307692308e-02 1.81345840472280e+01 7.41250020392388e-02
3.41738461538462e-02 1.80385639880014e+01 7.45047363004968e-02
3.48784615384615e-02 1.79430523416058e+01 7.48704885495389e-02
3.55830769230769e-02 1.78480464158415e+01 7.52226745962560e-02
3.62876923076923e-02 1.77535435329911e+01 7.55616918376084e-02
3.69923076923077e-02 1.76595410295150e+01 7.58879205283481e-02
3.76969230769231e-02 1.75660362559758e+01 7.62017248202651e-02
3.84015384615385e-02 1.74730265769654e+01 7.65034537481352e-02
3.91061538461538e-02 1.73805093710296e+01 7.67934421077259e-02
3.98107692307692e-02 1.72884820307824e+01 7.70720113813928e-02
4.05153846153846e-02 1.71969419622640e+01 7.73394704498687e-02
4.12200000000000e-02 1.71058865854407e+01 7.75961162464344e-02
4.19246153846154e-02 1.70153133339395e+01 7.78422345084111e-02
4.26292307692308e-02 1.69252196549757e+01 7.80781003595121e-02
4.33338461538462e-02 1.68356030092818e+01 7.83039788518151e-02
4.40384615384615e-02 1.67464608711991e+01 7.85201255769568e-02
4.47430769230769e-02 1.66577907281110e+01 7.87267871032517e-02
4.54476923076923e-02 1.65695900808718e+01 7.89242013797557e-02
4.61523076923077e-02 1.64818564435683e+01 7.91125982479069e-02
4.68569230769231e-02 1.63945873434495e+01 7.92921998135164e-02
4.75615384615385e-02 1.63077803208574e+01 7.94632208210065e-02
4.82661538461538e-02 1.62214329291579e+01 7.96258689791105e-02
4.89707692307692e-02 1.61355427348134e+01 7.97803453642076e-02
4.96753846153846e-02 1.60501073168849e+01 7.99268446779327e-02
5.03800000000000e-02 1.59651242673962e+01 8.00655554862380e-02
5.10846153846154e-02 1.58805911911212e+01 8.01966605674759e-02
5.17892307692308e-02 1.57965057055158e+01 8.03203371426954e-02
5.24938461538462e-02 1.57128654406514e+01 8.04367570936754e-02
5.31984615384615e-02 1.56296680392744e+01 8.05460872597198e-02
5.39030769230769e-02 1.55469111563575e+01 8.06484896051722e-02
5.46076923076923e-02 1.54645924594183e+01 8.07441213750485e-02
5.53123076923077e-02 1.53827096283249e+01 8.08331353569681e-02
5.60169230769231e-02 1.53012603552293e+01 8.09156800381510e-02
5.67215384615385e-02 1.52202423445041e+01 8.09918997765755e-02
5.74261538461538e-02 1.51396533126764e+01 8.10619349419492e-02
5.81307692307692e-02 1.50594909884760e+01 8.11259221334628e-02
5.88353846153846e-02 1.49797531124336e+01 8.11839942824497e-02
5.95400000000000e-02 1.49004374371568e+01 8.12362807475930e-02
6.02446153846154e-02 1.48215417271525e+01 8.12829075114679e-02
6.09492307692308e-02 1.47430637587645e+01 8.13239972835245e-02
6.16538461538461e-02 1.46650013201105e+01 8.13596695990594e-02
6.23584615384615e-02 1.45873522111204e+01 8.13900409921833e-02
6.30630769230769e-02 1.45101142431706e+01 8.14152250632457e-02
6.37676923076923e-02 1.44332852393279e+01 8.14353325410861e-02
6.44723076923077e-02 1.43568630341856e+01 8.14504714417193e-02
6.51769230769231e-02 1.42808454738024e+01 8.14607471411281e-02
6.58815384615385e-02 1.42052304156418e+01 8.14662624643093e-02
6.65861538461538e-02 1.41300157285121e+01 8.14671177519702e-02
6.72907692307692e-02 1.40551992925955e+01 8.14634109973402e-02
6.79953846153846e-02 1.39807789991175e+01 8.14552378865671e-02
6.87000000000000e-02 1.39067527505603e+01 8.14426918355987e-02
6.94046153846154e-02 1.38331184605120e+01 8.14258641177780e-02
7.01092307692308e-02 1.37598740536081e+01 8.14048439129739e-02
7.08138461538462e-02 1.36870174654727e+01 8.13797183555628e-02
7.15184615384615e-02 1.36145466427427e+01 8.13505726491082e-02
7.22230769230769e-02 1.35424595427621e+01 8.13174900913420e-02
7.29276923076923e-02 1.34707541337736e+01 8.12805520965232e-02
7.36323076923077e-02 1.33994283947778e+01 8.12398383036883e-02
7.43369230769231e-02 1.33284803154758e+01 8.11954266118072e-02
7.50415384615385e-02 1.32579078962134e+01 8.11473932306951e-02
7.57461538461538e-02 1.31877091479241e+01 8.10958127138768e-02
7.64507692307692e-02 1.31178820921470e+01 8.10407580542237e-02
7.71553846153846e-02 1.30484247607484e+01 8.09823006966053e-02
7.78600000000000e-02 1.29793351960903e+01 8.09205105486205e-02
7.85646153846154e-02 1.29106114509001e+01 8.08554560719405e-02
7.92692307692308e-02 1.28422515882156e+01 8.07872043060266e-02
7.99738461538461e-02 1.27742536813307e+01 8.07158208918529e-02
8.06784615384615e-02 1.27066158138086e+01 8.06413701551622e-02
8.13830769230769e-02 1.26393360792235e+01 8.05639151118525e-02
8.20876923076923e-02 1.25724125813124e+01 8.04835174719075e-02
8.27923076923077e-02 1.25058434338529e+01 8.04002377195652e-02
8.34969230769231e-02 1.24396267606094e+01 8.03141351300530e-02
8.42015384615385e-02 1.23737606952812e+01 8.02252678008791e-02
8.49061538461538e-02 1.23082433814490e+01 8.01336926678748e-02
8.56107692307692e-02 1.22430729725849e+01 8.00394655772115e-02
8.63153846153846e-02 1.21782476318140e+01 7.99426412848817e-02
8.70200000000000e-02 1.21137655320499e+01 7.98432734550236e-02
8.77246153846154e-02 1.20496248558801e+01 7.97414147298615e-02
8.84292307692308e-02 1.19858237955152e+01 7.96371167405545e-02
8.91338461538461e-02 1.19223605527377e+01 7.95304301184427e-02
8.98384615384615e-02 1.18592333389081e+01 7.94214045594027e-02
9.05430769230769e-02 1.17964403747436e+01 7.93100888198339e-02
9.12476923076923e-02 1.17339798904396e+01 7.91965307116608e-02
9.19523076923077e-02 1.16718501255625e+01 7.90807771652285e-02
9.26569230769231e-02 1.16100493289999e+01 7.89628742364219e-02
9.33615384615385e-02 1.15485757589112e+01 7.88428671270004e-02
9.40661538461538e-02 1.14874276826787e+01 7.87208001917667e-02
9.47707692307692e-02 1.14266033769105e+01 7.85967169956423e-02
9.54753846153846e-02 1.13661011272354e+01 7.84706603067896e-02
9.61800000000000e-02 1.13059192284123e+01 7.83426720889202e-02
9.68846153846154e-02 1.12460559842289e+01 7.82127935574016e-02
9.75892307692308e-02 1.11865097074539e+01 7.80810651832159e-02
9.82938461538461e-02 1.11272787197900e+01 7.79475266974927e-02
9.89984615384615e-02 1.10683613518741e+01 7.78122171434645e-02
9.97030769230769e-02 1.10097559430855e+01 7.76751749149945e-02
1.00407692307692e-01 1.09514608414570e+01 7.75364375585801e-02
1.01112307692308e-01 1.08934744043323e+01 7.73960420147271e-02
1.01816923076923e-01 1.08357949973702e+01 7.72540248282056e-02
1.02521538461538e-01 1.07784209944355e+01 7.71104215779593e-02
1.03226153846154e-01 1.07213507789091e+01 7.69652673312138e-02
1.03930769230769e-01 1.06645827418344e+01 7.68185965490626e-02
1.04635384615385e-01 1.06081152836623e+01 7.66704429766204e-02
1.05340000000000e-01 1.05519468128644e+01 7.65208401104169e-02
1.06044615384615e-01 1.04960757459170e+01 7.63698205355441e-02
1.06749230769231e-01 1.04405005085348e+01 7.62174162751271e-02
1.07453846153846e-01 1.03852195343371e+01 7.60636591293864e-02
1.08158461538462e-01 1.03302312648299e+01 7.59085800308362e-02
1.08863076923077e-01 1.02755341505932e+01 7.57522094876174e-02
1.09567692307692e-01 1.02211266495972e+01 7.55945774941674e-02
1.10272307692308e-01 1.01670072287828e+01 7.54357134273867e-02
1.10976923076923e-01 1.01131743628013e+01 7.52756464806114e-02
1.11681538461538e-01 1.00596265339965e+01 7.51144050441671e-02
1.12386153846154e-01 1.00063622335241e+01 7.49520171300205e-02
1.13090769230769e-01 9.95337995976007e+00 7.47885102850718e-02
1.13795384615385e-01 9.90067821979257e+00 7.46239114904980e-02
1.14500000000000e-01 9.84825552823041e+00 7.44582475777497e-02
1.15204615384615e-01 9.79611040718425e+00 7.42915446332803e-02
1.15909230769231e-01 9.74424138732342e+00 7.41238283089761e-02
1.16613846153846e-01 9.69264700672702e+00 7.39551241239910e-02
1.17318461538462e-01 9.64132581086462e+00 7.37854568852680e-02
1.18023076923077e-01 9.59027635361436e+00 7.36148510826714e-02
1.18727692307692e-01 9.53949719581107e+00 7.34433308072105e-02
1.19432307692308e-01 9.48898690660361e+00 7.32709196560944e-02
1.20136923076923e-01 9.43874406236668e+00 7.30976411202479e-02
1.20841538461538e-01 9.38876724668176e+00 7.29235180271993e-02
1.21546153846154e-01 9.33905505129915e+00 7.27485729201873e-02
1.22250769230769e-01 9.28960607476261e+00 7.25728279789563e-02
1.22955384615385e-01 9.24041892369315e+00 7.23963049278635e-02
1.23660000000000e-01 9.19149221175834e+00 7.22190254078889e-02
1.24364615384615e-01 9.14282455965222e+00 7.20410104408693e-02
1.25069230769231e-01 9.09441459600592e+00 7.18622807067031e-02
1.25773846153846e-01 9.04626095639201e+00 7.16828568133315e-02
1.26478461538462e-01 8.99836228330433e+00 7.15027587748385e-02
1.27183076923077e-01 8.95071722703644e+00 7.13220063651880e-02
1.27887692307692e-01 8.90332444442208e+00 7.11406190436072e-02
1.28592307692308e-01 8.85618260000778e+00 7.09586158679981e-02
1.29296923076923e-01 8.80929036510784e+00 7.07760158423687e-02
1.30001538461538e-01 8.76264641778447e+00 7.05928374146945e-02
1.30706153846154e-01 8.71624944367964e+00 7.04090988167888e-02
1.31410769230769e-01 8.67009813481945e+00 7.02248179921055e-02
1.32115384615385e-01 8.62419119072545e+00 7.00400125119541e-02
1.32820000000000e-01 8.57852731751777e+00 6.98546999094808e-02
1.33524615384615e-01 8.53310522789449e+00 6.96688971964411e-02
1.34229230769231e-01 8.48792364192058e+00 6.94826211117214e-02
1.34933846153846e-01 8.44298128616033e+00 6.92958883637785e-02
1.35638461538462e-01 8.39827689365677e+00 6.91087151596248e-02
1.36343076923077e-01 8.35380920469374e+00 6.89211175226405e-02
1.37047692307692e-01 8.30957696569739e+00 6.87331112245908e-02
1.37752307692308e-01 8.26557893025447e+00 6.85447117067235e-02
1.38456923076923e-01 8.22181385828743e+00 6.83559343923050e-02
1.39161538461538e-01 8.17828051603424e+00 6.81667942331420e-02
1.39866153846154e-01 8.13497767677123e+00 6.79773060152630e-02
1.40570769230769e-01 8.09190411976859e+00 6.77874842931641e-02
1.41275384615385e-01 8.04905863125712e+00 6.75973433135014e-02
1.41980000000000e-01 8.00644000364387e+00 6.74068973158382e-02
1.42684615384615e-01 7.96404703549158e+00 6.72161600959405e-02
1.43389230769231e-01 7.92187853220526e+00 6.70251452293385e-02
1.44093846153846e-01 7.87993330527278e+00 6.68338662897173e-02
1.44798461538462e-01 7.83821017224420e+00 6.66423364230105e-02
1.45503076923077e-01 7.79670795739591e+00 6.64505686337873e-02
1.46207692307692e-01 7.75542549076819e+00 6.62585757233205e-02
1.46912307692308e-01 7.71436160905357e+00 6.60663702177274e-02
1.47616923076923e-01 7.67351515487347e+00 6.58739646498989e-02
1.48321538461538e-01 7.63288497675801e+00 6.56813711491739e-02
1.49026153846154e-01 7.59246992977697e+00 6.54886017170559e-02
1.49730769230769e-01 7.55226887462331e+00 6.52956681673372e-02
1.50435384615385e-01 7.51228067845770e+00 6.51025820565895e-02
1.51140000000000e-01 7.47250421421977e+00 6.49093549556883e-02
1.51844615384615e-01 7.43293836060771e+00 6.47159980544482e-02
1.52549230769231e-01 7.39358200267842e+00 6.45225223632940e-02
1.53253846153846e-01 7.35443403117986e+00 6.43289389105052e-02
1.53958461538462e-01 7.31549334253066e+00 6.41352583564113e-02
1.54663076923077e-01 7.27675883940123e+00 6.39414912520961e-02
1.55367692307692e-01 7.23822942986721e+00 6.37476479830019e-02
1.56072307692308e-01 7.19990402818742e+00 6.35537387034470e-02
1.56776923076923e-01 7.16178155416712e+00 6.33597735915322e-02
1.57481538461538e-01 7.12386093313809e+00 6.31657624772661e-02
1.58186153846154e-01 7.08614109651149e+00 6.29717150918136e-02
1.58890769230769e-01 7.04862098097054e+00 6.27776410129532e-02
1.59595384615385e-01 7.01129952921126e+00 6.25835496017621e-02
1.60300000000000e-01 6.97417568933520e+00 6.23894502482864e-02
1.61004615384615e-01 6.93724841482954e+00 6.21953520130199e-02
1.61709230769231e-01 6.90051666509358e+00 6.20012638092452e-02
1.62413846153846e-01 6.86397940484958e+00 6.18071945815696e-02
1.63118461538462e-01 6.82763560412292e+00 6.16131529559130e-02
1.63823076923077e-01 6.79148423875229e+00 6.14191474736917e-02
1.64527692307692e-01 6.75552428964245e+00 6.12251865404385e-02
1.65232307692308e-01 6.71975474344794e+00 6.10312783661024e-02
1.65936923076923e-01 6.68417459201053e+00 6.08374311960068e-02
1.66641538461538e-01 6.64878283233986e+00 6.06436529732746e-02
1.67346153846154e-01 6.61357846709942e+00 6.04499515646141e-02
1.68050769230769e-01 6.57856050389305e+00 6.02563347106252e-02
1.68755384615385e-01 6.54372795591676e+00 6.00628099680670e-02
1.69460000000000e-01 6.50907984142158e+00 5.98693849325925e-02
1.70164615384615e-01 6.47461518369423e+00 5.96760669131122e-02
1.70869230769231e-01 6.44033301152052e+00 5.94828630970274e-02
1.71573846153846e-01 6.40623235866377e+00 5.92897807121407e-02
1.72278461538462e-01 6.37231226384560e+00 5.90968267086197e-02
1.72983076923077e-01 6.33857177119530e+00 5.89040079714086e-02
1.73687692307692e-01 6.30500992958815e+00 5.87113312733897e-02
1.74392307692308e-01 6.27162579324820e+00 5.85188032209123e-02
1.75096923076923e-01 6.23841842124972e+00 5.83264304633976e-02
1.75801538461538e-01 6.20538687749847e+00 5.81342193865092e-02
1.76506153846154e-01 6.17253023116022e+00 5.79421763170342e-02
1.77210769230769e-01 6.13984755602823e+00 5.77503074775628e-02
1.77915384615385e-01 6.10733793109861e+00 5.75586189338336e-02
1.78620000000000e-01 6.07500044009367e+00 5.73671167969834e-02
1.79324615384615e-01 6.04283417144334e+00 5.71758069274199e-02
1.80029230769231e-01 6.01083821869420e+00 5.69846950847726e-02
1.80733846153846e-01 5.97901168004636e+00 5.67937870749734e-02
1.81438461538462e-01 5.94735365833498e+00 5.66030884609411e-02
1.82143076923077e-01 5.91586326142725e+00 5.64126047555208e-02
1.82847692307692e-01 5.88453960163468e+00 5.62223413787397e-02
1.83552307692308e-01 5.85338179624616e+00 5.60323036081017e-02
1.84256923076923e-01 5.82238896708480e+00 5.58424967691152e-02
1.84961538461538e-01 5.79156024048996e+00 5.56529259560168e-02
1.85666153846154e-01 5.76089474769610e+00 5.54635962180025e-02
1.86370769230769e-01 5.73039162427055e+00 5.52745125178679e-02
1.87075384615385e-01 5.70005001062270e+00 5.50856796839200e-02
1.87780000000000e-01 5.66986905157996e+00 5.48971025939187e-02
1.88484615384615e-01 5.63984789636993e+00 5.47087859054482e-02
1.89189230769231e-01 5.60998569898242e+00 5.45207341922272e-02
1.89893846153846e-01 5.58028161775712e+00 5.43329520778965e-02
1.90598461538462e-01 5.55073481536597e+00 5.41454439724949e-02
1.91303076923077e-01 5.52134445916460e+00 5.39582142479915e-02
1.92007692307692e-01 5.49210972066919e+00 5.37712671992451e-02
1.92712307692308e-01 5.46302977602892e+00 5.35846069986117e-02
1.93416923076923e-01 5.43410380563112e+00 5.33982378693731e-02
1.94121538461538e-01 5.40533099408402e+00 5.32121638312382e-02
1.94826153846154e-01 5.37671053055265e+00 5.30263888698478e-02
1.95530769230769e-01 5.34824160825772e+00 5.28409168990101e-02
1.96235384615385e-01 5.31992342492741e+00 5.26557517167607e-02
1.96940000000000e-01 5.29175518241922e+00 5.24708971728720e-02
1.97644615384615e-01 5.26373608670292e+00 5.22863569230591e-02
1.98349230769231e-01 5.23586534818169e+00 5.21021345530568e-02
1.99053846153846e-01 5.20814218132420e+00 5.19182337004962e-02
1.99758461538462e-01 5.18056580464774e+00 5.17346578146056e-02
2.00463076923077e-01 5.15313544103023e+00 5.15514103161028e-02
2.01167692307692e-01 5.12585031724326e+00 5.13684945615118e-02
2.01872307692308e-01 5.09870966437197e+00 5.11859138016663e-02
2.02576923076923e-01 5.07171271746232e+00 5.10036713397883e-02
2.03281538461538e-01 5.04485871550473e+00 5.08217702993279e-02
2.03986153846154e-01 5.01814690173234e+00 5.06402137784168e-02
2.04690769230769e-01 4.99157652317357e+00 5.04590048153649e-02
2.05395384615385e-01 4.96514683105378e+00 5.02781463484811e-02
2.06100000000000e-01 4.93885708045730e+00 5.00976413687928e-02
2.06804615384615e-01 4.91270653031120e+00 4.99174926957685e-02
2.07509230769231e-01 4.88669444367077e+00 4.97377030903922e-02
2.08213846153846e-01 4.86082008739046e+00 4.95582753663031e-02
2.08918461538462e-01 4.83508273210792e+00 4.93792121704600e-02
2.09623076923077e-01 4.80948165252143e+00 4.92005161289494e-02
2.10327692307692e-01 4.78401612697237e+00 4.90221898143717e-02
2.11032307692308e-01 4.75868543781899e+00 4.88442357078811e-02
2.11736923076923e-01 4.73348887112082e+00 4.86666563433929e-02
2.12441538461538e-01 4.70842571662301e+00 4.84894540956130e-02
2.13146153846154e-01 4.68349526802188e+00 4.83126313209483e-02
2.13850769230769e-01 4.65869682256448e+00 4.81361903259391e-02
2.14555384615385e-01 4.63402968140645e+00 4.79601333305140e-02
2.15260000000000e-01 4.60949314930934e+00 4.77844626073714e-02
2.15964615384615e-01 4.58508653462515e+00 4.76091802771127e-02
2.16669230769231e-01 4.56080914955071e+00 4.74342884114254e-02
2.17373846153846e-01 4.53666030983277e+00 4.72597891345475e-02
2.18078461538462e-01 4.51263933475279e+00 4.70856844228721e-02
2.18783076923077e-01 4.48874554737430e+00 4.69119762380523e-02
2.19487692307692e-01 4.46497827416869e+00 4.67386664971546e-02
2.20192307692308e-01 4.44133684534869e+00 4.65657570379167e-02
2.20896923076923e-01 4.41782059458534e+00 4.63932497504635e-02
2.21601538461538e-01 4.39442885899318e+00 4.62211463835679e-02
2.22306153846154e-01 4.37116097936703e+00 4.60494486733348e-02
