Energy (eV)          EEDF (eV^-(3/2))     First Anisotropy
2.25833333333333e-02 5.65770903996160e-01 6.01956757943375e-04
6.77500000000000e-02 5.49715914963717e-01 9.83203550434000e-04
1.12916666666667e-01 5.34116521444898e-01 1.26964480501316e-03
1.58083333333333e-01 5.18959794891577e-01 1.47076268942511e-03
2.03250000000000e-01 5.04233173630217e-01 1.62535902427797e-03
2.48416666666667e-01 4.89924452563840e-01 1.74861526794357e-03
2.93583333333333e-01 4.76021772790502e-01 1.84864083768121e-03
3.38750000000000e-01 4.62513612001224e-01 1.93048040540086e-03
3.83916666666667e-01 4.49388774897155e-01 1.99757416544201e-03
4.29083333333333e-01 4.36636383791888e-01 2.05241759210311e-03
4.74250000000000e-01 4.24245869715321e-01 2.09690299267475e-03
5.19416666666667e-01 4.12206963640405e-01 2.13251396284156e-03
5.64583333333333e-01 4.00509687895455e-01 2.16044417527176e-03
6.09750000000000e-01 3.89144347972033e-01 2.18167403041163e-03
6.54916666666667e-01 3.78101524482569e-01 2.19702234070582e-03
7.00083333333333e-01 3.67372065299252e-01 2.20718244346413e-03
7.45250000000000e-01 3.56947078023775e-01 2.21274820853007e-03
7.90416666666667e-01 3.46817922612521e-01 2.21423326060908e-03
8.35583333333333e-01 3.36976204175109e-01 2.21208549189272e-03
8.80750000000000e-01 3.27413766057961e-01 2.20669823510262e-03
9.25916666666667e-01 3.18122683080787e-01 2.19841901750892e-03
9.71083333333333e-01 3.09095254936789e-01 2.18755651314511e-03
1.01625000000000e+00 3.00323999842653e-01 2.17438614041144e-03
1.06141666666667e+00 2.91801648358399e-01 2.15915463607038e-03
1.10658333333333e+00 2.83521137244431e-01 2.14208380883028e-03
1.15175000000000e+00 2.75475603752304e-01 2.12337365968474e-03
1.19691666666667e+00 2.67658379945555e-01 2.10320503014362e-03
1.24208333333333e+00 2.60062986971066e-01 2.08174181198898e-03
1.28725000000000e+00 2.52683129894468e-01 2.05913282810607e-03
1.33241666666667e+00 2.45512692468424e-01 2.03551348289484e-03
1.37758333333333e+00 2.38545731897632e-01 2.01100715376160e-03
1.42275000000000e+00 2.31776474081739e-01 1.98572639873637e-03
1.46791666666667e+00 2.25199308818302e-01 1.95977404259848e-03
1.51308333333333e+00 2.18808785015511e-01 1.93324410022517e-03
1.55825000000000e+00 2.12599606313996e-01 1.90622258978133e-03
1.60341666666667e+00 2.06566626687978e-01 1.87878828032591e-03
1.64858333333333e+00 2.00704846065122e-01 1.85101333000135e-03
1.69375000000000e+00 1.95009406299447e-01 1.82296385471499e-03
1.73891666666667e+00 1.89475587137378e-01 1.79470046153032e-03
1.78408333333333e+00 1.84098802208495e-01 1.76627870438474e-03
1.82925000000000e+00 1.78874595323061e-01 1.73774949403678e-03
1.87441666666667e+00 1.73798636772542e-01 1.70915948980566e-03
1.91958333333333e+00 1.68866719658695e-01 1.68055143367683e-03
1.96475000000000e+00 1.64074756490742e-01 1.65196445317708e-03
2.00991666666667e+00 1.59418775792504e-01 1.62343435594426e-03
2.05508333333333e+00 1.54894918740457e-01 1.59499387997937e-03
2.10025000000000e+00 1.50499436037150e-01 1.56667292194316e-03
2.14541666666667e+00 1.46228684799469e-01 1.53849876297804e-03
2.19058333333333e+00 1.42079125479037e-01 1.51049625946284e-03
2.23575000000000e+00 1.38047318990091e-01 1.48268801793734e-03
2.28091666666667e+00 1.34129923855519e-01 1.45509457099484e-03
2.32608333333333e+00 1.30323693385439e-01 1.42773452478431e-03
2.37125000000000e+00 1.26625473039292e-01 1.40062469485087e-03
2.41641666666667e+00 1.23032197808270e-01 1.37378024494880e-03
2.46158333333333e+00 1.19540889630066e-01 1.34721480244410e-03
2.50675000000000e+00 1.16148654966452e-01 1.32094056496727e-03
2.55191666666667e+00 1.12852682402485e-01 1.29496841115975e-03
2.59708333333333e+00 1.09650240277391e-01 1.26930799182976e-03
2.64225000000000e+00 1.06538674460306e-01 1.24396781443977e-03
2.68741666666667e+00 1.03515406148278e-01 1.21895533225848e-03
2.73258333333333e+00 1.00577929695009e-01 1.19427701692316e-03
2.77775000000000e+00 9.77238105687675e-02 1.16993842585086e-03
2.82291666666667e+00 9.49506833327028e-02 1.14594427454116e-03
2.86808333333333e+00 9.22562496547626e-02 1.12229849469396e-03
2.91325000000000e+00 8.96382764330169e-02 1.09900428830273e-03
2.95841666666667e+00 8.70945939431870e-02 1.07606418665032e-03
3.00358333333333e+00 8.46230940144843e-02 1.05348009708046e-03
3.04875000000000e+00 8.22217283087583e-02 1.03125334659386e-03
3.09391666666667e+00 7.98885066213828e-02 1.00938473022494e-03
3.13908333333333e+00 7.76214952090819e-02 9.87874548815666e-04
3.18425000000000e+00 7.54188152103851e-02 9.66722644262682e-04
3.22941666666667e+00 7.32786410871668e-02 9.45928439343998e-04
3.27458333333333e+00 7.11991990917141e-02 9.25490968299167e-04
3.31975000000000e+00 6.91787658169700e-02 9.05408905384873e-04
3.36491666666667e+00 6.72156667670767e-02 8.85680597763972e-04
3.41008333333333e+00 6.53082749520244e-02 8.66304090294682e-04
3.45525000000000e+00 6.34550095570861e-02 8.47277148687716e-04
3.50041666666667e+00 6.16543346316810e-02 8.28597286728651e-04
3.54558333333333e+00 5.99047578009329e-02 8.10261786377968e-04
3.59075000000000e+00 5.82048290445520e-02 7.92267716548873e-04
3.63591666666667e+00 5.65531394942210e-02 7.74611955674723e-04
3.68108333333333e+00 5.49483202522936e-02 7.57291207993461e-04
3.72625000000000e+00 5.33890412711658e-02 7.40302018756557e-04
3.77141666666667e+00 5.18740102501988e-02 7.23640792954044e-04
3.81658333333333e+00 5.04019715526131e-02 7.07303808481639e-04
3.86175000000000e+00 4.89717051771155e-02 6.91287228430256e-04
3.90691666666667e+00 4.75820257461188e-02 6.75587116626213e-04
3.95208333333333e+00 4.62317815126388e-02 6.60199448243325e-04
3.99725000000000e+00 4.49198534166134e-02 6.45120119697062e-04
4.04241666666667e+00 4.36451541568591e-02 6.30344961535854e-04
4.08758333333333e+00 4.24066272804692e-02 6.15869746953710e-04
4.13275000000000e+00 4.12032463168738e-02 6.01690199714440e-04
4.17791666666667e+00 4.00340139266024e-02 5.87802004833561e-04
4.22308333333333e+00 3.88979610663086e-02 5.74200815362575e-04
4.26825000000000e+00 3.77941461941876e-02 5.60882258690544e-04
4.31341666666667e+00 3.67216544891864e-02 5.47841945378823e-04
4.35858333333333e+00 3.56795970853586e-02 5.35075474520840e-04
4.40375000000000e+00 3.46671103427752e-02 5.22578438705828e-04
4.44891666666667e+00 3.36833551313517e-02 5.10346431306400e-04
4.49408333333333e+00 3.27275161287621e-02 4.98375050663645e-04
4.53925000000000e+00 3.17988011514589e-02 4.86659903947458e-04
4.58441666666667e+00 3.08964404977694e-02 4.75196613146483e-04
4.62958333333333e+00 3.00196863040795e-02 4.63980818284704e-04
4.67475000000000e+00 2.91678119310210e-02 4.53008180371992e-04
4.71991666666667e+00 2.83401113609292e-02 4.42274386304716e-04
4.76508333333333e+00 2.75358986074527e-02 4.31775151284438e-04
4.81025000000000e+00 2.67545071523671e-02 4.21506221019125e-04
4.85541666666667e+00 2.59952893928954e-02 4.11463375708859e-04
4.90058333333333e+00 2.52576161003021e-02 4.01642431808210e-04
4.94575000000000e+00 2.45408759031656e-02 3.92039243611329e-04
4.99091666666667e+00 2.38444747804351e-02 3.82649706469227e-04
5.03608333333333e+00 2.31678355649375e-02 3.73469758013517e-04
5.08125000000000e+00 2.25103974692834e-02 3.64495379236277e-04
5.12641666666667e+00 2.18716156208750e-02 3.55722597062146e-04
5.17158333333333e+00 2.12509606065940e-02 3.47147485131469e-04
5.21675000000000e+00 2.06479180378300e-02 3.38766164467298e-04
5.26191666666667e+00 2.00619881239668e-02 3.30574805506243e-04
5.30708333333333e+00 1.94926852548316e-02 3.22569628522776e-04
5.35225000000000e+00 1.89395376016217e-02 3.14746903960401e-04
5.39741666666667e+00 1.84020867256851e-02 3.07102954009078e-04
5.44258333333333e+00 1.78798871955951e-02 2.99634152738864e-04
5.48775000000000e+00 1.73725062210165e-02 2.92336926159584e-04
5.53291666666667e+00 1.68795232938602e-02 2.85207753419048e-04
5.57808333333333e+00 1.64005298371076e-02 2.78243166702961e-04
5.62325000000000e+00 1.59351288689020e-02 2.71439751076788e-04
5.66841666666667e+00 1.54829346733973e-02 2.64794145367607e-04
5.71358333333333e+00 1.50435724786970e-02 2.58303041877787e-04
5.75875000000000e+00 1.46166781486785e-02 2.51963186053864e-04
5.80391666666667e+00 1.42018978810787e-02 2.45771377105245e-04
5.84908333333333e+00 1.37988879121313e-02 2.39724467571302e-04
5.89425000000000e+00 1.34073142338368e-02 2.33819362854585e-04
5.93941666666667e+00 1.30268523170313e-02 2.28053021621504e-04
5.98458333333333e+00 1.26571868405062e-02 2.22422455255839e-04
6.02975000000000e+00 1.22980114316258e-02 2.16924727287420e-04
6.07491666666667e+00 1.19490284123108e-02 2.11556953613001e-04
6.12008333333333e+00 1.16099485506106e-02 2.06316301863639e-04
6.16525000000000e+00 1.12804908227408e-02 2.01199990754714e-04
6.21041666666667e+00 1.09603821800868e-02 1.96205290159378e-04
6.25558333333333e+00 1.06493573213647e-02 1.91329520412585e-04
6.30075000000000e+00 1.03471584743126e-02 1.86570051603912e-04
6.34591666666667e+00 1.00535351819734e-02 1.81924303530994e-04
6.39108333333333e+00 9.76824409373817e-03 1.77389744959061e-04
6.43625000000000e+00 9.49104876506824e-03 1.72963892874298e-04
6.48141666666667e+00 9.22171946146294e-03 1.68644312340467e-04
6.52658333333333e+00 8.96003296681793e-03 1.64428615729500e-04
6.57175000000000e+00 8.70577239969140e-03 1.60314461950000e-04
6.61691666666667e+00 8.45872703349239e-03 1.56299556226635e-04
6.66208333333333e+00 8.21869212071893e-03 1.52381649314556e-04
6.70725000000000e+00 7.98546872440219e-03 1.48558536715010e-04
6.75241666666667e+00 7.75886355317352e-03 1.44828058394053e-04
6.79758333333333e+00 7.53868880006552e-03 1.41188097991186e-04
6.84275000000000e+00 7.32476198788127e-03 1.37636582031831e-04
6.88791666666667e+00 7.11690581790887e-03 1.34171479599274e-04
6.93308333333333e+00 6.91494802207805e-03 1.30790801545961e-04
6.97825000000000e+00 6.71872122110488e-03 1.27492599710726e-04
7.02341666666667e+00 6.52806278572441e-03 1.24274966555635e-04
7.06858333333333e+00 6.34281470109577e-03 1.21136034386720e-04
7.11375000000000e+00 6.16282343666737e-03 1.18073974582258e-04
7.15891666666667e+00 5.98793981889195e-03 1.15086997204311e-04
7.20408333333333e+00 5.81801890686471e-03 1.12173350234263e-04
7.24925000000000e+00 5.65291987294134e-03 1.09331318817146e-04
7.29441666666667e+00 5.49250588598516e-03 1.06559224856018e-04
7.33958333333333e+00 5.33664399730735e-03 1.03855426266515e-04
7.38475000000000e+00 5.18520503114973e-03 1.01218316241096e-04
7.42991666666667e+00 5.03806347759258e-03 9.86463228330417e-05
7.47508333333333e+00 4.89509738794306e-03 9.61379082332322e-05
7.52025000000000e+00 4.75618827426806e-03 9.36915680572683e-05
7.56541666666667e+00 4.62122101116325e-03 9.13058309246803e-05
7.61058333333333e+00 4.49008373980678e-03 8.89792577603235e-05
7.65575000000000e+00 4.36266777579460e-03 8.67104411065613e-05
7.70091666666667e+00 4.23886751903761e-03 8.44980047022664e-05
7.74608333333333e+00 4.11858036576246e-03 8.23406028105594e-05
7.79125000000000e+00 4.00170662396361e-03 8.02369195575776e-05
7.83641666666667e+00 3.88814943075604e-03 7.81856685150015e-05
7.88158333333333e+00 3.77781467166448e-03 7.61855920552844e-05
7.92675000000000e+00 3.67061090306323e-03 7.42354607180042e-05
7.97191666666667e+00 3.56644927636731e-03 7.23340727989312e-05
8.01708333333333e+00 3.46524346400640e-03 7.04802537334193e-05
8.06225000000000e+00 3.36690958827500e-03 6.86728554909041e-05
8.10741666666667e+00 3.27136615179620e-03 6.69107561728974e-05
8.15258333333333e+00 3.17853396962656e-03 6.51928594248400e-05
8.19775000000000e+00 3.08833610398689e-03 6.35180938589452e-05
8.24291666666667e+00 3.00069780047974e-03 6.18854126629824e-05
8.28808333333333e+00 2.91554642581714e-03 6.02937930405780e-05
8.33325000000000e+00 2.83281140794622e-03 5.87422356623062e-05
8.37841666666667e+00 2.75242417754433e-03 5.72297642866936e-05
8.42358333333333e+00 2.67431811090376e-03 5.57554252286945e-05
8.46875000000000e+00 2.59842847500652e-03 5.43182868386954e-05
8.51391666666667e+00 2.52469237386031e-03 5.29174391367995e-05
8.55908333333333e+00 2.45304869611308e-03 5.15519933090008e-05
8.60425000000000e+00 2.38343806466797e-03 5.02210812135813e-05
8.64941666666667e+00 2.31580278745963e-03 4.89238550294247e-05
8.69458333333333e+00 2.25008680940674e-03 4.76594867792535e-05
8.73975000000000e+00 2.18623566619203e-03 4.64271678627461e-05
8.78491666666667e+00 2.12419643911141e-03 4.52261087193698e-05
8.83008333333333e+00 2.06391771100529e-03 4.40555383779199e-05
8.87525000000000e+00 2.00534952385931e-03 4.29147040155768e-05
8.92041666666667e+00 1.94844333738944e-03 4.18028706355272e-05
8.96558333333333e+00 1.89315198862237e-03 4.07193206419546e-05
9.01075000000000e+00 1.83942965300135e-03 3.96633534241637e-05
9.05591666666667e+00 1.78723180639802e-03 3.86342850490834e-05
9.10108333333333e+00 1.73651518803972e-03 3.76314478607878e-05
9.14625000000000e+00 1.68723776483069e-03 3.66541900887576e-05
9.19141666666667e+00 1.63935869650712e-03 3.57018755552132e-05
9.23658333333333e+00 1.59283830163418e-03 3.47738832981963e-05
9.28175000000000e+00 1.54763802487681e-03 3.38696072029928e-05
9.32691666666667e+00 1.50372040503795e-03 3.29884557241273e-05
9.37208333333333e+00 1.46104904387098e-03 3.21298515310060e-05
9.41725000000000e+00 1.41958857605641e-03 3.12932311615014e-05
9.46241666666667e+00 1.37930463988464e-03 3.04780447583437e-05
9.50758333333333e+00 1.34016384865071e-03 2.96837557363091e-05
9.55275000000000e+00 1.30213376311316e-03 2.89098404569549e-05
9.59791666666667e+00 1.26518286460260e-03 2.81557879790658e-05
9.64308333333333e+00 1.22928052878482e-03 2.74210997463718e-05
9.68825000000000e+00 1.19439700039673e-03 2.67052892824203e-05
9.73341666666667e+00 1.16050336857993e-03 2.60078819546790e-05
9.77858333333333e+00 1.12757154281614e-03 2.53284146817701e-05
9.82375000000000e+00 1.09557422975194e-03 2.46664356474772e-05
9.86891666666667e+00 1.06448491057329e-03 2.40215040780584e-05
9.91408333333333e+00 1.03427781893333e-03 2.33931899680000e-05
9.95925000000000e+00 1.00492791969327e-03 2.27810738121702e-05
1.00044166666667e+01 9.76410888168996e-04 2.21847463958660e-05
1.00495833333333e+01 9.48703089886265e-04 2.16038085528340e-05
1.00947500000000e+01 9.21781561001333e-04 2.10378708410989e-05
1.01399166666667e+01 8.95623989653941e-04 2.04865534763764e-05
1.01850833333333e+01 8.70208696621884e-04 1.99494860368811e-05
1.02302500000000e+01 8.45514618136456e-04 1.94263070792996e-05
1.02754166666667e+01 8.21521288386976e-04 1.89166642131477e-05
1.03205833333333e+01 7.98208821863502e-04 1.84202137485383e-05
1.03657500000000e+01 7.75557897584587e-04 1.79366203562672e-05
1.04109166666667e+01 7.53549743049858e-04 1.74655571302483e-05
1.04560833333333e+01 7.32166118052002e-04 1.70067052613975e-05
1.05012500000000e+01 7.11389300201015e-04 1.65597537228958e-05
1.05464166666667e+01 6.91202070204956e-04 1.61243993222522e-05
1.05915833333333e+01 6.71587697028763e-04 1.57003463994285e-05
1.06367500000000e+01 6.52529924608617e-04 1.52873065354773e-05
1.06819166666667e+01 6.34012958350938e-04 1.48849985955951e-05
1.07270833333333e+01 6.16021451525807e-04 1.44931484497417e-05
1.07722500000000e+01 5.98540493073778e-04 1.41114887029697e-05
1.08174166666667e+01 5.81555595222284e-04 1.37397587306707e-05
1.08625833333333e+01 5.65052681010800e-04 1.33777044200617e-05
1.09077500000000e+01 5.49018073100443e-04 1.30250779206376e-05
1.09529166666667e+01 5.33438482415290e-04 1.26816376726673e-05
1.09980833333333e+01 5.18300996705021e-04 1.23471481680304e-05
1.10432500000000e+01 5.03593070274975e-04 1.20213797193346e-05
1.10884166666667e+01 4.89302513567545e-04 1.17041084825887e-05
1.11335833333333e+01 4.75417482675902e-04 1.13951162359811e-05
1.11787500000000e+01 4.61926469918920e-04 1.10941901663005e-05
1.12239166666667e+01 4.48818294284837e-04 1.08011228866032e-05
1.12690833333333e+01 4.36082091816875e-04 1.05157122316194e-05
1.13142500000000e+01 4.23707306963626e-04 1.02377610602149e-05
1.13594166666667e+01 4.11683683813628e-04 9.96707726876562e-06
1.14045833333333e+01 4.00001257280276e-04 9.70347360197258e-06
1.14497500000000e+01 3.88650345163981e-04 9.44676747018966e-06
1.14949166666667e+01 3.77621540112182e-04 9.19678095913040e-06
1.15400833333333e+01 3.66905701537027e-04 8.95334065495855e-06
1.15852500000000e+01 3.56493948330819e-04 8.71627747538794e-06
1.16304166666667e+01 3.46377651491415e-04 8.48542667627029e-06
1.16755833333333e+01 3.36548426711705e-04 8.26062768990755e-06
1.17207500000000e+01 3.26998127694636e-04 8.04172396890879e-06
1.17659166666667e+01 3.17718839388951e-04 7.82856299013752e-06
1.18110833333333e+01 3.08702871194535e-04 7.62099610526715e-06
1.18562500000000e+01 2.99942750827765e-04 7.41887839645174e-06
1.19014166666667e+01 2.91431218117042e-04 7.22206867805070e-06
1.19465833333333e+01 2.83161218772790e-04 7.03042935851901e-06
1.19917500000000e+01 2.75125898757866e-04 6.84382630701593e-06
1.20369166666667e+01 2.67318598596574e-04 6.66212885327111e-06
1.20820833333333e+01 2.59732847662327e-04 6.48520965996571e-06
1.21272500000000e+01 2.52362359011600e-04 6.31294459946707e-06
1.21724166666667e+01 2.45201024163919e-04 6.14521275215195e-06
1.22175833333333e+01 2.38242907864138e-04 5.98189628849689e-06
1.22627500000000e+01 2.31482243341799e-04 5.82288035518438e-06
1.23079166666667e+01 2.24913427523133e-04 5.66805307215737e-06
1.23530833333333e+01 2.18531016228463e-04 5.51730542369353e-06
1.23982500000000e+01 2.12329719821999e-04 5.37053115318300e-06
1.24434166666667e+01 2.06304398820076e-04 5.22762675915215e-06
1.24885833333333e+01 2.00450059487516e-04 5.08849139464896e-06
1.25337500000000e+01 1.94761849845730e-04 4.95302677004355e-06
1.25789166666667e+01 1.89235055644403e-04 4.82113714822616e-06
1.26240833333333e+01 1.83865096323641e-04 4.69272925167991e-06
1.26692500000000e+01 1.78647521350898e-04 4.56771217270256e-06
1.27144166666667e+01 1.73578006526035e-04 4.44599736795574e-06
1.27595833333333e+01 1.68652350278837e-04 4.32749857264698e-06
1.28047500000000e+01 1.63866470307706e-04 4.21213171761530e-06
1.28499166666667e+01 1.59216400190510e-04 4.09981492338317e-06
1.28950833333333e+01 1.54698285989577e-04 3.99046842091220e-06
1.29402500000000e+01 1.50308383167340e-04 3.88401447503610e-06
1.29854166666667e+01 1.46043053477646e-04 3.78037737814505e-06
1.30305833333333e+01 1.41898761852692e-04 3.67948337701927e-06
1.30757500000000e+01 1.37872073572805e-04 3.58126060213032e-06
1.31209166666667e+01 1.33959651415019e-04 3.48563906106895e-06
1.31660833333333e+01 1.30158252798507e-04 3.39255057099663e-06
1.32112500000000e+01 1.26464727187586e-04 3.30192869337210e-06
1.32564166666667e+01 1.22876013476262e-04 3.21370872721652e-06
1.33015833333333e+01 1.19389137370680e-04 3.12782764675759e-06
1.33467500000000e+01 1.16001209006153e-04 3.04422404117098e-06
1.33919166666667e+01 1.12709420548148e-04 2.96283810776162e-06
1.34370833333333e+01 1.09511043792059e-04 2.88361159440675e-06
1.34822500000000e+01 1.06403427976635e-04 2.80648774393207e-06
1.35274166666667e+01 1.03383997583495e-04 2.73141128727580e-06
1.35725833333333e+01 1.00450250136170e-04 2.65832839036611e-06
1.36177500000000e+01 9.75997541937550e-05 2.58718660277997e-06
1.36629166666667e+01 9.48301473325242e-05 2.51793485094545e-06
1.37080833333333e+01 9.21391341276852e-05 2.45052338911599e-06
1.37532500000000e+01 8.95244843124143e-05 2.38490375198658e-06
1.37984166666667e+01 8.69840309265038e-05 2.32102874797981e-06
1.38435833333333e+01 8.45156684656446e-05 2.25885241400508e-06
1.38887500000000e+01 8.21173511922280e-05 2.19832997173051e-06
1.39339166666667e+01 7.97870914371979e-05 2.13941782099035e-06
1.39790833333333e+01 7.75229579029505e-05 2.08207349804004e-06
1.40242500000000e+01 7.53230741133977e-05 2.02625563520535e-06
1.40694166666667e+01 7.31856168563482e-05 1.97192395444104e-06
1.41145833333333e+01 7.11088146272624e-05 1.91903922881493e-06
1.41597500000000e+01 6.90909462071076e-05 1.86756324527620e-06
1.42049166666667e+01 6.71303392336362e-05 1.81745879838939e-06
1.42500833333333e+01 6.52253687742991e-05 1.76868965480013e-06
