Energy (eV)          EEDF (eV^-(3/2))     First Anisotropy
3.65853658536585e-02 4.39182878773224e-02 2.57140713406784e-05
1.09756097560976e-01 4.35497209779741e-02 4.24256977535255e-05
1.82926829268293e-01 4.31842471316369e-02 5.59126491861144e-05
2.56097560975610e-01 4.28218403797385e-02 6.61017121158652e-05
3.29268292682927e-01 4.24624749830715e-02 7.45524097905897e-05
4.02439024390244e-01 4.21061254184079e-02 8.18556986353703e-05
4.75609756097561e-01 4.17527663775411e-02 8.83180496901277e-05
5.48780487804878e-01 4.14023727627669e-02 9.41249156037686e-05
6.21951219512195e-01 4.10549196879425e-02 9.93995433045175e-05
6.95121951219512e-01 4.07103824763296e-02 1.04229217895036e-04
7.68292682926829e-01 4.03687366571551e-02 1.08678682397965e-04
8.41463414634146e-01 4.00299579655629e-02 1.12797684026948e-04
9.14634146341463e-01 3.96940223407191e-02 1.16625527839347e-04
9.87804878048780e-01 3.93609059229247e-02 1.20193978151622e-04
1.06097560975610e+00 3.90305850543295e-02 1.23529190535836e-04
1.13414634146341e+00 3.87030362707121e-02 1.26653043463364e-04
1.20731707317073e+00 3.83782363115934e-02 1.29584085792899e-04
1.28048780487805e+00 3.80561621084674e-02 1.32338228116897e-04
1.35365853658537e+00 3.77367907864211e-02 1.34929256359105e-04
1.42682926829268e+00 3.74200996625218e-02 1.37369222830477e-04
1.50000000000000e+00 3.71060662442233e-02 1.39668748191243e-04
1.57317073170732e+00 3.67946682257426e-02 1.41837257230294e-04
1.64634146341463e+00 3.64858834926279e-02 1.43883167094592e-04
1.71951219512195e+00 3.61796901138731e-02 1.45814038619447e-04
1.79268292682927e+00 3.58760663425140e-02 1.47636698148965e-04
1.86585365853659e+00 3.55749906140989e-02 1.49357338256240e-04
1.93902439024390e+00 3.52764415451589e-02 1.50981601067476e-04
2.01219512195122e+00 3.49803979301999e-02 1.52514647032229e-04
2.08536585365854e+00 3.46868387447269e-02 1.53961213579980e-04
2.15853658536585e+00 3.43957431391219e-02 1.55325664807999e-04
2.23170731707317e+00 3.41070904387342e-02 1.56612032872718e-04
2.30487804878049e+00 3.38208601424248e-02 1.57824054149823e-04
2.37804878048780e+00 3.35370319211077e-02 1.58965200371362e-04
2.45121951219512e+00 3.32555856151514e-02 1.60038704950391e-04
2.52439024390244e+00 3.29765012364603e-02 1.61047586639665e-04
2.59756097560976e+00 3.26997589634765e-02 1.61994670246689e-04
2.67073170731707e+00 3.24253391409817e-02 1.62882604014611e-04
2.74390243902439e+00 3.21532222787135e-02 1.63713875552579e-04
2.81707317073171e+00 3.18833890499759e-02 1.64490825916384e-04
2.89024390243902e+00 3.16158202893399e-02 1.65215661549735e-04
2.96341463414634e+00 3.13504969941031e-02 1.65890465589434e-04
3.03658536585366e+00 3.10874003200725e-02 1.66517207995913e-04
3.10975609756098e+00 3.08265115811931e-02 1.67097753928917e-04
3.18292682926829e+00 3.05678122482315e-02 1.67633871948281e-04
3.25609756097561e+00 3.03112839466635e-02 1.68127240767868e-04
3.32926829268293e+00 3.00569084577767e-02 1.68579455968162e-04
3.40243902439024e+00 2.98046677149317e-02 1.68992036101343e-04
3.47560975609756e+00 2.95545438031061e-02 1.69366427596631e-04
3.54878048780488e+00 2.93065189576203e-02 1.69704009720301e-04
3.62195121951219e+00 2.90605755628817e-02 1.70006099091177e-04
3.69512195121951e+00 2.88166961504689e-02 1.70273953357829e-04
3.76829268292683e+00 2.85748633999018e-02 1.70508775113906e-04
3.84146341463415e+00 2.83350601353719e-02 1.70711715510305e-04
3.91463414634146e+00 2.80972693252116e-02 1.70883877004674e-04
3.98780487804878e+00 2.78614740806841e-02 1.71026316339013e-04
4.06097560975610e+00 2.76276576547871e-02 1.71140047278704e-04
4.13414634146341e+00 2.73958034405003e-02 1.71226042738267e-04
4.20731707317073e+00 2.71658949713104e-02 1.71285237243473e-04
4.28048780487805e+00 2.69379159183144e-02 1.71318529229386e-04
4.35365853658537e+00 2.67118500896426e-02 1.71326782659118e-04
4.42682926829268e+00 2.64876814293090e-02 1.71310828931253e-04
4.50000000000000e+00 2.62653940160729e-02 1.71271468648321e-04
4.57317073170732e+00 2.60449720618251e-02 1.71209472898402e-04
4.64634146341463e+00 2.58263999119285e-02 1.71125584900255e-04
4.71951219512195e+00 2.56096620426259e-02 1.71020521553886e-04
4.79268292682927e+00 2.53947430604364e-02 1.70894974425384e-04
4.86585365853658e+00 2.51816277010634e-02 1.70749611035081e-04
4.93902439024390e+00 2.49703008283109e-02 1.70585076058908e-04
5.01219512195122e+00 2.47607474325902e-02 1.70401992122683e-04
5.08536585365854e+00 2.45529526311204e-02 1.70200960957765e-04
5.15853658536585e+00 2.43469016655898e-02 1.69982564499257e-04
5.23170731707317e+00 2.41425799015395e-02 1.69747365496492e-04
5.30487804878049e+00 2.39399728273250e-02 1.69495908421843e-04
5.37804878048780e+00 2.37390660530857e-02 1.69228720322053e-04
5.45121951219512e+00 2.35398453093582e-02 1.68946311317872e-04
5.52439024390244e+00 2.33422964471675e-02 1.68649175450301e-04
5.59756097560976e+00 2.31464054359050e-02 1.68337791490598e-04
5.67073170731707e+00 2.29521583627074e-02 1.68012623320499e-04
5.74390243902439e+00 2.27595414314705e-02 1.67674120597331e-04
5.81707317073171e+00 2.25685409618691e-02 1.67322719379119e-04
5.89024390243902e+00 2.23791433880641e-02 1.66958842439325e-04
5.96341463414634e+00 2.21913352587110e-02 1.66582899908633e-04
6.03658536585366e+00 2.20051032350221e-02 1.66195289893045e-04
6.10975609756098e+00 2.18204340901495e-02 1.65796398707752e-04
6.18292682926829e+00 2.16373147082474e-02 1.65386601444485e-04
6.25609756097561e+00 2.14557320832499e-02 1.64966262183405e-04
6.32926829268293e+00 2.12756733188256e-02 1.64535734514699e-04
6.40243902439024e+00 2.10971256265742e-02 1.64095362043251e-04
6.47560975609756e+00 2.09200763254165e-02 1.63645478540361e-04
6.54878048780488e+00 2.07445128406943e-02 1.63186408349159e-04
6.62195121951219e+00 2.05704227032775e-02 1.62718466766984e-04
6.69512195121951e+00 2.03977935484216e-02 1.62241960172761e-04
6.76829268292683e+00 2.02266131156681e-02 1.61757186443125e-04
6.84146341463415e+00 2.00568692471868e-02 1.61264435356990e-04
6.91463414634146e+00 1.98885498871771e-02 1.60763988679534e-04
6.98780487804878e+00 1.97216430810118e-02 1.60256120482629e-04
7.06097560975610e+00 1.95561369743887e-02 1.59741097447436e-04
7.13414634146341e+00 1.93920198122588e-02 1.59219178935081e-04
7.20731707317073e+00 1.92292799386865e-02 1.58690617325929e-04
7.28048780487805e+00 1.90679057953195e-02 1.58155658350795e-04
7.35365853658537e+00 1.89078859208044e-02 1.57614541129485e-04
7.42682926829268e+00 1.87492089499726e-02 1.57067498429212e-04
7.50000000000000e+00 1.85918636130336e-02 1.56514756908754e-04
7.57317073170732e+00 1.84358387345690e-02 1.55956537150660e-04
7.64634146341463e+00 1.82811232333603e-02 1.55393053942970e-04
7.71951219512195e+00 1.81277061209745e-02 1.54824516555312e-04
7.79268292682927e+00 1.79755765011940e-02 1.54251128746645e-04
7.86585365853658e+00 1.78247235692441e-02 1.53673088977296e-04
7.93902439024390e+00 1.76751366110247e-02 1.53090590609377e-04
8.01219512195122e+00 1.75268050021655e-02 1.52503821912603e-04
8.08536585365854e+00 1.73797182078293e-02 1.51912966301973e-04
8.15853658536585e+00 1.72338657814003e-02 1.51318202571440e-04
8.23170731707317e+00 1.70892373639318e-02 1.50719704880725e-04
8.30487804878049e+00 1.69458226834103e-02 1.50117642931919e-04
8.37804878048780e+00 1.68036115540265e-02 1.49512182136437e-04
8.45121951219512e+00 1.66625938752854e-02 1.48903483602801e-04
8.52439024390244e+00 1.65227596317919e-02 1.48291704339793e-04
8.59756097560976e+00 1.63840988920316e-02 1.47676997456787e-04
8.67073170731707e+00 1.62466018078364e-02 1.47059512136434e-04
8.74390243902439e+00 1.61102586136851e-02 1.46439393783704e-04
8.81707317073171e+00 1.59750596260101e-02 1.45816784166722e-04
8.89024390243902e+00 1.58409952423593e-02 1.45191821392226e-04
8.96341463414634e+00 1.57080559411680e-02 1.44564640081251e-04
9.03658536585366e+00 1.55762322806249e-02 1.43935371542759e-04
9.10975609756098e+00 1.54455148981550e-02 1.43304143736869e-04
9.18292682926829e+00 1.53158945097554e-02 1.42671081439975e-04
9.25609756097561e+00 1.51873619091970e-02 1.42036306213066e-04
9.32926829268293e+00 1.50599079677899e-02 1.41399936558575e-04
9.40243902439024e+00 1.49335236333120e-02 1.40762088075751e-04
9.47560975609756e+00 1.48081999295085e-02 1.40122873418576e-04
9.54878048780488e+00 1.46839279554541e-02 1.39482402408044e-04
9.62195121951219e+00 1.45606988849212e-02 1.38840782138158e-04
9.69512195121951e+00 1.44385039656272e-02 1.38198116938379e-04
9.76829268292683e+00 1.43173345189933e-02 1.37554508511559e-04
9.84146341463414e+00 1.41971819391440e-02 1.36910056070788e-04
9.91463414634146e+00 1.40780376924255e-02 1.36264856293241e-04
9.98780487804878e+00 1.39598933167990e-02 1.35619003285904e-04
1.00609756097561e+01 1.38427404217021e-02 1.34972589271437e-04
1.01341463414634e+01 1.37265706852578e-02 1.34325703591121e-04
1.02073170731707e+01 1.36113758578441e-02 1.33678433151925e-04
1.02804878048780e+01 1.34971477579074e-02 1.33030863669040e-04
1.03536585365854e+01 1.33838782714706e-02 1.32383077721351e-04
1.04268292682927e+01 1.32715593548455e-02 1.31735155784446e-04
1.05000000000000e+01 1.31601830307361e-02 1.31087177227713e-04
1.05731707317073e+01 1.30497413877576e-02 1.30439218467676e-04
1.06463414634146e+01 1.29402265830159e-02 1.29791353963305e-04
1.07195121951220e+01 1.28316308383736e-02 1.29143657176357e-04
1.07926829268293e+01 1.27239464399788e-02 1.28496198786157e-04
1.08658536585366e+01 1.26171657407194e-02 1.27849047648233e-04
1.09390243902439e+01 1.25112811566452e-02 1.27202271720263e-04
1.10121951219512e+01 1.24062851665041e-02 1.26555936336042e-04
1.10853658536585e+01 1.23021703140795e-02 1.25910105128739e-04
1.11585365853659e+01 1.21989292047602e-02 1.25264840924234e-04
1.12317073170732e+01 1.20965545050844e-02 1.24620204072078e-04
1.13048780487805e+01 1.19950389449665e-02 1.23976253335003e-04
1.13780487804878e+01 1.18943753144072e-02 1.23333046486511e-04
1.14512195121951e+01 1.17945564639141e-02 1.22690639757108e-04
1.15243902439024e+01 1.16955753031427e-02 1.22049087366733e-04
1.15975609756098e+01 1.15974248029722e-02 1.21408442087788e-04
1.16707317073171e+01 1.15000979924016e-02 1.20768756062836e-04
1.17439024390244e+01 1.14035879581169e-02 1.20130079267955e-04
1.18170731707317e+01 1.13078878464685e-02 1.19492460327446e-04
1.18902439024390e+01 1.12129908604909e-02 1.18855947302466e-04
1.19634146341463e+01 1.11188902594794e-02 1.18220586204500e-04
1.20365853658537e+01 1.10255793608761e-02 1.17586421782106e-04
1.21097560975610e+01 1.09330515374057e-02 1.16953498281700e-04
1.21829268292683e+01 1.08413002166634e-02 1.16321858009469e-04
1.22560975609756e+01 1.07503188829115e-02 1.15691542090886e-04
1.23292682926829e+01 1.06601010743296e-02 1.15062591205335e-04
1.24024390243902e+01 1.05706403826094e-02 1.14435044194757e-04
1.24756097560976e+01 1.04819304546699e-02 1.13808938796497e-04
1.25487804878049e+01 1.03939649900146e-02 1.13184312353252e-04
1.26219512195122e+01 1.03067377403344e-02 1.12561200466699e-04
1.26951219512195e+01 1.02202425111447e-02 1.11939637704795e-04
1.27682926829268e+01 1.01344731592455e-02 1.11319658075233e-04
1.28414634146341e+01 1.00494235929911e-02 1.10701294575275e-04
1.29146341463415e+01 9.96508777121024e-03 1.10084578809036e-04
1.29878048780488e+01 9.88145970473713e-03 1.09469541434159e-04
1.30609756097561e+01 9.79853345400787e-03 1.08856212814750e-04
1.31341463414634e+01 9.71630312868325e-03 1.08244621779112e-04
1.32073170731707e+01 9.63476288911045e-03 1.07634796269777e-04
1.32804878048780e+01 9.55390694401043e-03 1.07026763974144e-04
1.33536585365854e+01 9.47372955010987e-03 1.06420551121920e-04
1.34268292682927e+01 9.39422501353683e-03 1.05816183113702e-04
1.35000000000000e+01 9.31538768759513e-03 1.05213685130194e-04
1.35731707317073e+01 9.23721197240516e-03 1.04613080968043e-04
1.36463414634146e+01 9.15969231623682e-03 1.04014393647603e-04
1.37195121951220e+01 9.08282321336737e-03 1.03417646001758e-04
1.37926829268293e+01 9.00659920373039e-03 1.02822859548863e-04
1.38658536585366e+01 8.93101487418934e-03 1.02230055080137e-04
1.39390243902439e+01 8.85606485647568e-03 1.01639253229214e-04
1.40121951219512e+01 8.78174382684505e-03 1.01050473380875e-04
1.40853658536585e+01 8.70804650729490e-03 1.00463734238655e-04
1.41585365853659e+01 8.63496766357919e-03 9.98790543759869e-05
1.42317073170732e+01 8.56250210487185e-03 9.92964511794212e-05
1.43048780487805e+01 8.49064468493104e-03 9.87159413972471e-05
1.43780487804878e+01 8.41939030018727e-03 9.81375415062747e-05
1.44512195121951e+01 8.34873388990076e-03 9.75612673562289e-05
1.45243902439024e+01 8.27867043532365e-03 9.69871338656671e-05
1.45975609756098e+01 8.20919496079145e-03 9.64151553683709e-05
1.46707317073171e+01 8.14030253190887e-03 9.58453461216020e-05
1.47439024390244e+01 8.07198825523108e-03 9.52777193289909e-05
1.48170731707317e+01 8.00424727930744e-03 9.47122876466986e-05
1.48902439024390e+01 7.93707479293284e-03 9.41490636749405e-05
1.49634146341463e+01 7.87046602483690e-03 9.35880590114721e-05
1.50365853658537e+01 7.80441624468207e-03 9.30292847415764e-05
1.51097560975610e+01 7.73892076137795e-03 9.24727519134726e-05
1.51829268292683e+01 7.67397492277806e-03 9.19184706214193e-05
1.52560975609756e+01 7.60957411663449e-03 9.13664504798943e-05
1.53292682926829e+01 7.54571376897310e-03 9.08167010837382e-05
1.54024390243902e+01 7.48238934379686e-03 9.02692311198770e-05
1.54756097560976e+01 7.41959634399962e-03 8.97240488260007e-05
1.55487804878049e+01 7.35733030979960e-03 8.91811624361835e-05
1.56219512195122e+01 7.29558681844918e-03 8.86405793202318e-05
1.56951219512195e+01 7.23436148510970e-03 8.81023064274106e-05
1.57682926829268e+01 7.17364996134084e-03 8.75663505825107e-05
1.58414634146341e+01 7.11344793519499e-03 8.70327181952113e-05
1.59146341463415e+01 7.05375113053883e-03 8.65014150105586e-05
1.59878048780488e+01 6.99455530787518e-03 8.59724463887756e-05
1.60609756097561e+01 6.93585626290686e-03 8.54458177173505e-05
1.61341463414634e+01 6.87764982626178e-03 8.49215336139820e-05
1.62073170731707e+01 6.81993186427967e-03 8.43995983366646e-05
1.62804878048780e+01 6.76269827762620e-03 8.38800161825266e-05
1.63536585365854e+01 6.70594500102489e-03 8.33627907153382e-05
1.64268292682927e+01 6.64966800401035e-03 8.28479251627943e-05
1.65000000000000e+01 6.59386328959065e-03 8.23354228025682e-05
1.65731707317073e+01 6.53852689398588e-03 8.18252862135974e-05
1.66463414634146e+01 6.48365488734937e-03 8.13175176609052e-05
1.67195121951220e+01 6.42924337247664e-03 8.08121194694353e-05
1.67926829268293e+01 6.37528848455018e-03 8.03090932983545e-05
1.68658536585366e+01 6.32178639183018e-03 7.98084405136642e-05
1.69390243902439e+01 6.26873329440847e-03 7.93101625503945e-05
1.70121951219512e+01 6.21612542395901e-03 7.88142602091528e-05
1.70853658536585e+01 6.16395904439976e-03 7.83207340168650e-05
1.71585365853659e+01 6.11223045068980e-03 7.78295845778011e-05
1.72317073170732e+01 6.06093596858539e-03 7.73408118916219e-05
1.73048780487805e+01 6.01007195527431e-03 7.68544157026485e-05
1.73780487804878e+01 5.95963479821445e-03 7.63703957328098e-05
1.74512195121951e+01 5.90962091518056e-03 7.58887514505466e-05
1.75243902439024e+01 5.86002675372910e-03 7.54094818716867e-05
1.75975609756098e+01 5.81084879179509e-03 7.49325857797278e-05
1.76707317073171e+01 5.76208353658573e-03 7.44580620509293e-05
1.77439024390244e+01 5.71372752434980e-03 7.39859090217857e-05
1.78170731707317e+01 5.66577732094960e-03 7.35161248126089e-05
1.78902439024390e+01 5.61822952079203e-03 7.30487076424100e-05
1.79634146341463e+01 5.57108074660380e-03 7.25836552155574e-05
1.80365853658537e+01 5.52432764997944e-03 7.21209650354566e-05
1.81097560975610e+01 5.47796691034862e-03 7.16606347095592e-05
1.81829268292683e+01 5.43199523475680e-03 7.12026613546219e-05
1.82560975609756e+01 5.38640935839051e-03 7.07470419007027e-05
1.83292682926829e+01 5.34120604357963e-03 7.02937733867661e-05
1.84024390243902e+01 5.29638207958312e-03 6.98428523839410e-05
1.84756097560976e+01 5.25193428309270e-03 6.93942752900052e-05
1.85487804878049e+01 5.20785949726885e-03 6.89480386160351e-05
1.86219512195122e+01 5.16415459153133e-03 6.85041384270500e-05
1.86951219512195e+01 5.12081646204241e-03 6.80625706273084e-05
1.87682926829268e+01 5.07784203077513e-03 6.76233311503195e-05
1.88414634146341e+01 5.03522824553370e-03 6.71864157688917e-05
1.89146341463415e+01 4.99297207951512e-03 6.67518199310405e-05
1.89878048780488e+01 4.95107053176429e-03 6.63195389397468e-05
1.90609756097561e+01 4.90952062628538e-03 6.58895682189355e-05
1.91341463414634e+01 4.86831941184385e-03 6.54619027940371e-05
1.92073170731707e+01 4.82746396240293e-03 6.50365375565699e-05
1.92804878048780e+01 4.78695137626436e-03 6.46134675218939e-05
1.93536585365854e+01 4.74677877587536e-03 6.41926873253269e-05
1.94268292682927e+01 4.70694330824718e-03 6.37741914787480e-05
1.95000000000000e+01 4.66744214412426e-03 6.33579746204047e-05
1.95731707317073e+01 4.62827247779594e-03 6.29440310261214e-05
1.96463414634146e+01 4.58943152749792e-03 6.25323548581275e-05
1.97195121951220e+01 4.55091653460881e-03 6.21229404072273e-05
1.97926829268293e+01 4.51272476346636e-03 6.17157816186346e-05
1.98658536585366e+01 4.47485350175262e-03 6.13108723331849e-05
1.99390243902439e+01 4.43730005971697e-03 6.09082065222186e-05
2.00121951219512e+01 4.40006176999668e-03 6.05077778275550e-05
2.00853658536585e+01 4.36313598798646e-03 6.01095797952924e-05
2.01585365853659e+01 4.32652009108709e-03 5.97136061036779e-05
2.02317073170732e+01 4.29021147853008e-03 5.93198501167707e-05
2.03048780487805e+01 4.25420757173243e-03 5.89283051110796e-05
2.03780487804878e+01 4.21850581356982e-03 5.85389644264811e-05
2.04512195121951e+01 4.18310366837758e-03 5.81518213143110e-05
2.05243902439024e+01 4.14799862160094e-03 5.77668688057813e-05
2.05975609756098e+01 4.11318818012949e-03 5.73840998548015e-05
2.06707317073171e+01 4.07866987160302e-03 5.70035075496098e-05
2.07439024390244e+01 4.04444124424591e-03 5.66250846978268e-05
2.08170731707317e+01 4.01049986718812e-03 5.62488240369964e-05
2.08902439024390e+01 3.97684332979343e-03 5.58747184397591e-05
2.09634146341463e+01 3.94346924149798e-03 5.55027605111881e-05
2.10365853658537e+01 3.91037523211831e-03 5.51329427930714e-05
2.11097560975610e+01 3.87755895120122e-03 5.47652579628640e-05
2.11829268292683e+01 3.84501806786634e-03 5.43996984429370e-05
2.12560975609756e+01 3.81275027110175e-03 5.40362565987283e-05
2.13292682926829e+01 3.78075326913483e-03 5.36749249317430e-05
2.14024390243902e+01 3.74902478927857e-03 5.33156957003447e-05
2.14756097560976e+01 3.71756257821539e-03 5.29585611119052e-05
2.15487804878049e+01 3.68636440138826e-03 5.26035135101001e-05
2.16219512195122e+01 3.65542804285062e-03 5.22505450068698e-05
2.16951219512195e+01 3.62475130553894e-03 5.18996476687538e-05
2.17682926829268e+01 3.59433201068334e-03 5.15508136408475e-05
2.18414634146341e+01 3.56416799779846e-03 5.12040350213436e-05
2.19146341463415e+01 3.53425712439458e-03 5.08593037526675e-05
2.19878048780488e+01 3.50459726623474e-03 5.05166117388273e-05
2.20609756097561e+01 3.47518631677144e-03 5.01759510195912e-05
2.21341463414634e+01 3.44602218700484e-03 4.98373134280323e-05
2.22073170731707e+01 3.41710280572961e-03 4.95006907637412e-05
2.22804878048780e+01 3.38842611898952e-03 4.91660749617665e-05
2.23536585365854e+01 3.35999008993914e-03 4.88334577601981e-05
2.24268292682927e+01 3.33179269908088e-03 4.85028308682815e-05
2.25000000000000e+01 3.30383194373678e-03 4.81741861302941e-05
2.25731707317073e+01 3.27610583791372e-03 4.78475152028584e-05
2.26463414634146e+01 3.24861241253095e-03 4.75228097180953e-05
2.27195121951220e+01 3.22134971490865e-03 4.72000614426261e-05
2.27926829268293e+01 3.19431580863635e-03 4.68792619643270e-05
2.28658536585366e+01 3.16750877379152e-03 4.65604028506207e-05
2.29390243902439e+01 3.14092670644422e-03 4.62434758028045e-05
2.30121951219512e+01 3.11456771852877e-03 4.59284723519521e-05
2.30853658536585e+01 3.08842993805359e-03 4.56153840124711e-05
