Energy (eV)          EEDF (eV^-(3/2))     First Anisotropy
2.86111111111111e-03 6.81989522235333e+00 5.72556238905901e-03
8.58333333333333e-03 6.69080307545334e+00 9.39663927266319e-03
1.43055555555556e-02 6.56415448287381e+00 1.22522034982113e-02
2.00277777777778e-02 6.43990319024548e+00 1.43310301452863e-02
2.57500000000000e-02 6.31800382050692e+00 1.59914172950481e-02
3.14722222222222e-02 6.19841185455348e+00 1.73713975626913e-02
3.71944444444444e-02 6.08108361604934e+00 1.85436781192644e-02
4.29166666666667e-02 5.96597625516863e+00 1.95529180324771e-02
4.86388888888889e-02 5.85304773375234e+00 2.04292272087626e-02
5.43611111111111e-02 5.74225680905527e+00 2.11942278155913e-02
6.00833333333333e-02 5.63356301900697e+00 2.18641729126188e-02
6.58055555555556e-02 5.52692666744567e+00 2.24517109042169e-02
7.15277777777778e-02 5.42230880947481e+00 2.29669566615019e-02
7.72500000000000e-02 5.31967123766469e+00 2.34181782915567e-02
8.29722222222222e-02 5.21897646765001e+00 2.38122571184305e-02
8.86944444444445e-02 5.12018772459990e+00 2.41550069726286e-02
9.44166666666667e-02 5.02326892969218e+00 2.44514025812471e-02
1.00138888888889e-01 4.92818468723267e+00 2.47057471632760e-02
1.05861111111111e-01 4.83490027141833e+00 2.49217981174292e-02
1.11583333333333e-01 4.74338161390828e+00 2.51028631013333e-02
1.17305555555556e-01 4.65359529106914e+00 2.52518747662951e-02
1.23027777777778e-01 4.56550851128210e+00 2.53714495382271e-02
1.28750000000000e-01 4.47908910499930e+00 2.54639348342194e-02
1.34472222222222e-01 4.39430551088735e+00 2.55314472749626e-02
1.40194444444444e-01 4.31112676503361e+00 2.55759037656120e-02
1.45916666666667e-01 4.22952248912539e+00 2.55990471898398e-02
1.51638888888889e-01 4.14946288094083e+00 2.56024679507161e-02
1.57361111111111e-01 4.07091870182460e+00 2.55876220820231e-02
1.63083333333333e-01 3.99386126656919e+00 2.55558463988618e-02
1.68805555555556e-01 3.91826243294993e+00 2.55083715836815e-02
1.74527777777778e-01 3.84409459105252e+00 2.54463332642124e-02
1.80250000000000e-01 3.77133065438457e+00 2.53707817141186e-02
1.85972222222222e-01 3.69994404875275e+00 2.52826902810897e-02
1.91694444444444e-01 3.62990870298158e+00 2.51829626142294e-02
1.97416666666667e-01 3.56119903907426e+00 2.50724390159884e-02
2.03138888888889e-01 3.49378996385023e+00 2.49519021303205e-02
2.08861111111111e-01 3.42765685877401e+00 2.48220819798706e-02
2.14583333333333e-01 3.36277557130654e+00 2.46836603048631e-02
2.20305555555556e-01 3.29912240608980e+00 2.45372745560070e-02
2.26027777777778e-01 3.23667411603817e+00 2.43835213538757e-02
2.31750000000000e-01 3.17540789462130e+00 2.42229596979884e-02
2.37472222222222e-01 3.11530136674203e+00 2.40561138609125e-02
2.43194444444444e-01 3.05633258083661e+00 2.38834759073996e-02
2.48916666666667e-01 2.99848000064604e+00 2.37055079873071e-02
2.54638888888889e-01 2.94172249800146e+00 2.35226444889161e-02
2.60361111111111e-01 2.88603934444090e+00 2.33352940030594e-02
2.66083333333333e-01 2.83141020386537e+00 2.31438410140914e-02
2.71805555555556e-01 2.77781512511481e+00 2.29486475417648e-02
2.77527777777778e-01 2.72523453450767e+00 2.27500545603905e-02
2.83250000000000e-01 2.67364922922075e+00 2.25483833824525e-02
2.88972222222222e-01 2.62304036973541e+00 2.23439369351469e-02
2.94694444444444e-01 2.57338947314201e+00 2.21370008652545e-02
3.00416666666667e-01 2.52467840624226e+00 2.19278445686217e-02
3.06138888888889e-01 2.47688937937929e+00 2.17167221978071e-02
3.11861111111111e-01 2.43000493947777e+00 2.15038735986018e-02
3.17583333333333e-01 2.38400796382677e+00 2.12895251013198e-02
3.23305555555556e-01 2.33888165382808e+00 2.10738903300387e-02
3.29027777777778e-01 2.29460952873788e+00 2.08571708893932e-02
3.34750000000000e-01 2.25117542002223e+00 2.06395570671850e-02
3.40472222222222e-01 2.20856346506959e+00 2.04212284924121e-02
3.46194444444444e-01 2.16675810152815e+00 2.02023546942067e-02
3.51916666666667e-01 2.12574406151631e+00 1.99830956317277e-02
3.57638888888889e-01 2.08550636637130e+00 1.97636022336100e-02
3.63361111111111e-01 2.04603032084726e+00 1.95440169057285e-02
3.69083333333333e-01 2.00730150786069e+00 1.93244739469853e-02
3.74805555555556e-01 1.96930578322623e+00 1.91050999976248e-02
3.80527777777778e-01 1.93202927040145e+00 1.88860144087068e-02
3.86250000000000e-01 1.89545835569113e+00 1.86673296390118e-02
3.91972222222222e-01 1.85957968299772e+00 1.84491516306428e-02
3.97694444444444e-01 1.82438014903809e+00 1.82315801192529e-02
4.03416666666667e-01 1.78984689848034e+00 1.80147089322546e-02
4.09138888888889e-01 1.75596731948689e+00 1.77986263044950e-02
4.14861111111111e-01 1.72272903886567e+00 1.75834151780504e-02
4.20583333333333e-01 1.69011991763351e+00 1.73691534378609e-02
4.26305555555556e-01 1.65812804658354e+00 1.71559141802552e-02
4.32027777777778e-01 1.62674174186946e+00 1.69437659260036e-02
4.37750000000000e-01 1.59594954094004e+00 1.67327728611524e-02
4.43472222222222e-01 1.56574019814738e+00 1.65229950666380e-02
4.49194444444444e-01 1.53610268070980e+00 1.63144887013607e-02
4.54916666666667e-01 1.50702616462451e+00 1.61073061802675e-02
4.60638888888889e-01 1.47850003089204e+00 1.59014963705526e-02
4.66361111111111e-01 1.45051386145716e+00 1.56971047792081e-02
4.72083333333333e-01 1.42305743546531e+00 1.54941736933042e-02
4.77805555555556e-01 1.39612072553028e+00 1.52927423496060e-02
4.83527777777778e-01 1.36969389402226e+00 1.50928470631300e-02
4.89250000000000e-01 1.34376728962652e+00 1.48945213805890e-02
4.94972222222222e-01 1.31833144366429e+00 1.46977962275050e-02
5.00694444444444e-01 1.29337706668718e+00 1.45027000206703e-02
5.06416666666667e-01 1.26889504504068e+00 1.43092587787451e-02
5.12138888888889e-01 1.24487643766986e+00 1.41174962493438e-02
5.17861111111111e-01 1.22131247271742e+00 1.39274340311188e-02
5.23583333333333e-01 1.19819454436629e+00 1.37390916598769e-02
5.29305555555556e-01 1.17551420969701e+00 1.35524867197006e-02
5.35027777777778e-01 1.15326318556640e+00 1.33676349227401e-02
5.40750000000000e-01 1.13143334569762e+00 1.31845502103097e-02
5.46472222222222e-01 1.11001671759512e+00 1.30032448502280e-02
5.52194444444444e-01 1.08900547967279e+00 1.28237295076425e-02
5.57916666666667e-01 1.06839195836397e+00 1.26460133154318e-02
5.63638888888889e-01 1.04816862542132e+00 1.24701039588848e-02
5.69361111111111e-01 1.02832809506322e+00 1.22960077573595e-02
5.75083333333333e-01 1.00886312131162e+00 1.21237297180161e-02
5.80805555555556e-01 9.89766595345986e-01 1.19532736104497e-02
5.86527777777778e-01 9.71031542877946e-01 1.17846420169539e-02
5.92250000000000e-01 9.52651121692652e-01 1.16178364006582e-02
5.97972222222222e-01 9.34618619059925e-01 1.14528571713576e-02
6.03694444444444e-01 9.16927449313257e-01 1.12897037306869e-02
6.09416666666667e-01 8.99571151418810e-01 1.11283745175376e-02
6.15138888888889e-01 8.82543386694668e-01 1.09688670655567e-02
6.20861111111111e-01 8.65837936415598e-01 1.08111780587680e-02
6.26583333333333e-01 8.49448699569053e-01 1.06553033652156e-02
6.32305555555556e-01 8.33369690627168e-01 1.05012380879204e-02
6.38027777777778e-01 8.17595037338275e-01 1.03489765966325e-02
6.43750000000000e-01 8.02118978650690e-01 1.01985125744358e-02
6.49472222222222e-01 7.86935862539127e-01 1.00498390629022e-02
6.55194444444444e-01 7.72040143964134e-01 9.90294849095709e-03
6.60916666666667e-01 7.57426382826932e-01 9.75783270427744e-03
6.66638888888889e-01 7.43089242043838e-01 9.61448300479760e-03
6.72361111111111e-01 7.29023485534838e-01 9.47289018902489e-03
6.78083333333333e-01 7.15223976332368e-01 9.33304456889494e-03
6.83805555555556e-01 7.01685674705347e-01 9.19493600690721e-03
6.89527777777778e-01 6.88403636301083e-01 9.05855393598870e-03
6.95250000000000e-01 6.75373010392809e-01 8.92388739164111e-03
7.00972222222222e-01 6.62589038053972e-01 8.79092504316364e-03
7.06694444444444e-01 6.50047050438601e-01 8.65965521191786e-03
7.12416666666667e-01 6.37742467060528e-01 8.53006589022825e-03
7.18138888888889e-01 6.25670794168337e-01 8.40214476868919e-03
7.23861111111111e-01 6.13827623055593e-01 8.27587926270858e-03
7.29583333333333e-01 6.02208628467170e-01 8.15125652508381e-03
7.35305555555556e-01 5.90809567019698e-01 8.02826347033483e-03
7.41027777777778e-01 5.79626275638107e-01 7.90688678681121e-03
7.46750000000000e-01 5.68654670076939e-01 7.78711295893513e-03
7.52472222222222e-01 5.57890743386329e-01 7.66892828885029e-03
7.58194444444445e-01 5.47330564463005e-01 7.55231890769871e-03
7.63916666666667e-01 5.36970276602308e-01 7.43727078754204e-03
7.69638888888889e-01 5.26806096127193e-01 7.32376976025105e-03
7.75361111111111e-01 5.16834310968251e-01 7.21180153590561e-03
7.81083333333333e-01 5.07051279320919e-01 7.10135170996210e-03
7.86805555555556e-01 4.97453428315501e-01 6.99240578009407e-03
7.92527777777778e-01 4.88037252701526e-01 6.88494915319438e-03
7.98250000000000e-01 4.78799313600413e-01 6.77896716073427e-03
8.03972222222222e-01 4.69736237216189e-01 6.67444507374258e-03
8.09694444444444e-01 4.60844713614654e-01 6.57136810943926e-03
8.15416666666667e-01 4.52121495504861e-01 6.46972143847835e-03
8.21138888888889e-01 4.43563397082744e-01 6.36949019795806e-03
8.26861111111111e-01 4.35167292837566e-01 6.27065950411964e-03
8.32583333333333e-01 4.26930116420609e-01 6.17321445597481e-03
8.38305555555556e-01 4.18848859525357e-01 6.07714014689270e-03
8.44027777777778e-01 4.10920570780286e-01 5.98242166823836e-03
8.49750000000000e-01 4.03142354696943e-01 5.88904411989948e-03
8.55472222222222e-01 3.95511370586112e-01 5.79699262057342e-03
8.61194444444444e-01 3.88024831529298e-01 5.70625231131225e-03
8.66916666666667e-01 3.80680003353239e-01 5.61680835962308e-03
8.72638888888889e-01 3.73474203654769e-01 5.52864596833838e-03
8.78361111111111e-01 3.66404800797379e-01 5.44175038429144e-03
8.84083333333333e-01 3.59469212958160e-01 5.35610689964186e-03
8.89805555555556e-01 3.52664907184923e-01 5.27170085975355e-03
8.95527777777778e-01 3.45989398464366e-01 5.18851766462907e-03
9.01250000000000e-01 3.39440248835101e-01 5.10654277602365e-03
9.06972222222222e-01 3.33015066476374e-01 5.02576172441228e-03
9.12694444444444e-01 3.26711504841630e-01 4.94616011049283e-03
9.18416666666667e-01 3.20527261795425e-01 4.86772360718339e-03
9.24138888888889e-01 3.14460078791269e-01 4.79043796556393e-03
9.29861111111111e-01 3.08507740027875e-01 4.71428902070099e-03
9.35583333333333e-01 3.02668071646314e-01 4.63926269150001e-03
9.41305555555556e-01 2.96938940936119e-01 4.56534498595528e-03
9.47027777777778e-01 2.91318255551009e-01 4.49252200116250e-03
9.52750000000000e-01 2.85803962761126e-01 4.42077992801652e-03
9.58472222222222e-01 2.80394048686705e-01 4.35010505582281e-03
9.64194444444444e-01 2.75086537568229e-01 4.28048377247019e-03
9.69916666666667e-01 2.69879491039992e-01 4.21190256503642e-03
9.75638888888889e-01 2.64771007437015e-01 4.14434802365573e-03
9.81361111111111e-01 2.59759221085476e-01 4.07780684532113e-03
9.87083333333333e-01 2.54842301626431e-01 4.01226583282251e-03
9.92805555555556e-01 2.50018453347372e-01 3.94771189813454e-03
9.98527777777778e-01 2.45285914522105e-01 3.88413206231097e-03
1.00425000000000e+00 2.40642956776216e-01 3.82151345461282e-03
1.00997222222222e+00 2.36087884463576e-01 3.75984332014261e-03
1.01569444444444e+00 2.31619034021593e-01 3.69910902726954e-03
1.02141666666667e+00 2.27234773337969e-01 3.63929804184751e-03
1.02713888888889e+00 2.22933501273175e-01 3.58039794539609e-03
1.03286111111111e+00 2.18713646955298e-01 3.52239645134904e-03
1.03858333333333e+00 2.14573669247024e-01 3.46528138248272e-03
1.04430555555556e+00 2.10512056182944e-01 3.40904068588428e-03
1.05002777777778e+00 2.06527324382900e-01 3.35366241388898e-03
1.05575000000000e+00 2.02618018614967e-01 3.29913473771190e-03
1.06147222222222e+00 1.98782711157630e-01 3.24544596163249e-03
1.06719444444444e+00 1.95020001314384e-01 3.19258450836697e-03
1.07291666666667e+00 1.91328514871005e-01 3.14053890835055e-03
1.07863888888889e+00 1.87706903688675e-01 3.08929781199000e-03
1.08436111111111e+00 1.84153845115143e-01 3.03885000242805e-03
1.09008333333333e+00 1.80668041534286e-01 2.98918437643608e-03
1.09580555555556e+00 1.77248219892307e-01 2.94028995615949e-03
1.10152777777778e+00 1.73893131205147e-01 2.89215587290805e-03
1.10725000000000e+00 1.70601550186389e-01 2.84477137783497e-03
1.11297222222222e+00 1.67372274714423e-01 2.79812585308769e-03
1.11869444444444e+00 1.64204125422321e-01 2.75220879929011e-03
1.12441666666667e+00 1.61095945242069e-01 2.70700982624039e-03
1.13013888888889e+00 1.58046599058309e-01 2.66251866251310e-03
1.13586111111111e+00 1.55054973216283e-01 2.61872516549827e-03
1.14158333333333e+00 1.52119975141310e-01 2.57561930524153e-03
1.14730555555556e+00 1.49240532939838e-01 2.53319117366911e-03
1.15302777777778e+00 1.46415594985740e-01 2.49143097082337e-03
1.15875000000000e+00 1.43644129603838e-01 2.45032901323501e-03
1.16447222222222e+00 1.40925124624497e-01 2.40987574269681e-03
1.17019444444444e+00 1.38257587037205e-01 2.37006171557208e-03
1.17591666666667e+00 1.35640542607748e-01 2.33087759475047e-03
1.18163888888889e+00 1.33073035583843e-01 2.29231415717757e-03
1.18736111111111e+00 1.30554128283708e-01 2.25436230175605e-03
1.19308333333333e+00 1.28082900774693e-01 2.21701303568793e-03
1.19880555555556e+00 1.25658450537370e-01 2.18025748172447e-03
1.20452777777778e+00 1.23279892117996e-01 2.14408686648976e-03
1.21025000000000e+00 1.20946356859609e-01 2.10849252704686e-03
1.21597222222222e+00 1.18656992529487e-01 2.07346591780505e-03
1.22169444444444e+00 1.16410963026620e-01 2.03899860140169e-03
1.22741666666667e+00 1.14207448060094e-01 2.00508224176587e-03
1.23313888888889e+00 1.12045642899055e-01 1.97170861002408e-03
1.23886111111111e+00 1.09924758028514e-01 1.93886959072135e-03
1.24458333333333e+00 1.07844018878003e-01 1.90655717028365e-03
1.25030555555556e+00 1.05802665538741e-01 1.87476344271689e-03
1.25602777777778e+00 1.03799952471637e-01 1.84348059970967e-03
1.26175000000000e+00 1.01835148278985e-01 1.81270093578310e-03
1.26747222222222e+00 9.99075353927115e-02 1.78241685372956e-03
1.27319444444444e+00 9.80164098274199e-02 1.75262085684562e-03
1.27891666666667e+00 9.61610809101456e-02 1.72330554296508e-03
1.28463888888889e+00 9.43408710681439e-02 1.69446360909015e-03
1.29036111111111e+00 9.25551155407973e-02 1.66608785629008e-03
1.29608333333333e+00 9.08031621505683e-02 1.63817117995822e-03
1.30180555555556e+00 8.90843710648539e-02 1.61070657429131e-03
1.30752777777778e+00 8.73981145506077e-02 1.58368712390555e-03
1.31325000000000e+00 8.57437767806517e-02 1.55710600787403e-03
1.31897222222222e+00 8.41207535726679e-02 1.53095650400890e-03
1.32469444444444e+00 8.25284521807640e-02 1.50523198225148e-03
1.33041666666667e+00 8.09662910683583e-02 1.47992589954892e-03
1.33613888888889e+00 7.94336997281910e-02 1.45503180348415e-03
1.34186111111111e+00 7.79301184410865e-02 1.43054333613218e-03
1.34758333333333e+00 7.64549980826476e-02 1.40645422583481e-03
1.35330555555556e+00 7.50077999227389e-02 1.38275829071979e-03
1.35902777777778e+00 7.35879954192561e-02 1.35944943160231e-03
1.36475000000000e+00 7.21950660539049e-02 1.33652163514803e-03
1.37047222222222e+00 7.08285031135936e-02 1.31396897724319e-03
1.37619444444444e+00 6.94878075145414e-02 1.29178561737415e-03
1.38191666666667e+00 6.81724896113844e-02 1.26996579423504e-03
1.38763888888889e+00 6.68820690446088e-02 1.24850382857064e-03
1.39336111111111e+00 6.56160745384682e-02 1.22739412621064e-03
1.39908333333333e+00 6.43740437378732e-02 1.20663117112680e-03
1.40480555555556e+00 6.31555230395567e-02 1.18620952819579e-03
1.41052777777778e+00 6.19600674187227e-02 1.16612383719112e-03
1.41625000000000e+00 6.07872402898869e-02 1.14636881525875e-03
1.42197222222222e+00 5.96366133237154e-02 1.12693925956769e-03
1.42769444444444e+00 5.85077662986192e-02 1.10783004253354e-03
1.43341666666667e+00 5.74002869402863e-02 1.08903610805810e-03
1.43913888888889e+00 5.63137707924248e-02 1.07055247375317e-03
1.44486111111111e+00 5.52478210474233e-02 1.05237423332589e-03
1.45058333333333e+00 5.42020484087397e-02 1.03449655071937e-03
1.45630555555556e+00 5.31760709487432e-02 1.01691466227925e-03
1.46202777777778e+00 5.21695139629846e-02 9.99623871670413e-04
1.46775000000000e+00 5.11820098523300e-02 9.82619551811701e-04
1.47347222222222e+00 5.02131979694486e-02 9.65897146958391e-04
1.47919444444444e+00 4.92627244936183e-02 9.49452168645479e-04
1.48491666666667e+00 4.83302422958173e-02 9.33280192471838e-04
1.49063888888889e+00 4.74154108292684e-02 9.17376859836924e-04
1.49636111111111e+00 4.65178959874919e-02 9.01737879814015e-04
1.50208333333333e+00 4.56373699882240e-02 8.86359024205546e-04
1.50780555555556e+00 4.47735112537210e-02 8.71236129239875e-04
1.51352777777778e+00 4.39260042882360e-02 8.56365091271304e-04
1.51925000000000e+00 4.30945395782326e-02 8.41741868289438e-04
1.52497222222222e+00 4.22788134636835e-02 8.27362481553277e-04
1.53069444444444e+00 4.14785280324706e-02 8.13223012147291e-04
1.53641666666667e+00 4.06933910069548e-02 7.99319598233788e-04
1.54213888888889e+00 3.99231156513258e-02 7.85648436406672e-04
1.54786111111111e+00 3.91674206525827e-02 7.72205783160399e-04
1.55358333333333e+00 3.84260300226268e-02 7.58987950717508e-04
1.55930555555556e+00 3.76986729974782e-02 7.45991308355133e-04
1.56502777777778e+00 3.69850839342542e-02 7.33212278768287e-04
1.57075000000000e+00 3.62850022267221e-02 7.20647339244911e-04
1.57647222222222e+00 3.55981721973696e-02 7.08293022945992e-04
1.58219444444444e+00 3.49243430083442e-02 6.96145915982891e-04
1.58791666666667e+00 3.42632685660725e-02 6.84202655071855e-04
1.59363888888889e+00 3.36147074428643e-02 6.72459928586686e-04
1.59936111111111e+00 3.29784227770922e-02 6.60914477708627e-04
1.60508333333333e+00 3.23541821906224e-02 6.49563092905621e-04
1.61080555555556e+00 3.17417577039563e-02 6.38402614967180e-04
1.61652777777778e+00 3.11409256495983e-02 6.27429931929183e-04
1.62225000000000e+00 3.05514666006149e-02 6.16641979986105e-04
1.62797222222222e+00 2.99731652801032e-02 6.06035744491928e-04
1.63369444444444e+00 2.94058104860860e-02 5.95608257480712e-04
1.63941666666667e+00 2.88491950113029e-02 5.85356595665712e-04
1.64513888888889e+00 2.83031155768975e-02 5.75277881255632e-04
1.65086111111111e+00 2.77673727486797e-02 5.65369282852835e-04
1.65658333333333e+00 2.72417708674983e-02 5.55628012482600e-04
1.66230555555556e+00 2.67261179777915e-02 5.46051326398363e-04
1.66802777777778e+00 2.62202257547318e-02 5.36636522481643e-04
1.67375000000000e+00 2.57239094438062e-02 5.27380940948093e-04
1.67947222222222e+00 2.52369877848618e-02 5.18281965128191e-04
1.68519444444444e+00 2.47592829487760e-02 5.09337019364400e-04
1.69091666666667e+00 2.42906204700015e-02 5.00543567305394e-04
1.69663888888889e+00 2.38308291904903e-02 4.91899112536793e-04
1.70236111111111e+00 2.33797411894325e-02 4.83401199281004e-04
1.70808333333333e+00 2.29371917245490e-02 4.75047409890539e-04
1.71380555555556e+00 2.25030191719309e-02 4.66835365472750e-04
1.71952777777778e+00 2.20770649647662e-02 4.58762723691720e-04
1.72525000000000e+00 2.16591735422561e-02 4.50827179312549e-04
1.73097222222222e+00 2.12491922858772e-02 4.43026464808652e-04
1.73669444444444e+00 2.08469714659858e-02 4.35358348578742e-04
1.74241666666667e+00 2.04523641850839e-02 4.27820633493443e-04
1.74813888888889e+00 2.00652263304139e-02 4.20411157380699e-04
1.75386111111111e+00 1.96854165149935e-02 4.13127793569391e-04
1.75958333333333e+00 1.93127960281184e-02 4.05968448774237e-04
1.76530555555556e+00 1.89472287847091e-02 3.98931063578712e-04
1.77102777777778e+00 1.85885812737737e-02 3.92013610576934e-04
1.77675000000000e+00 1.82367225152293e-02 3.85214094791369e-04
1.78247222222222e+00 1.78915240064050e-02 3.78530554143686e-04
1.78819444444444e+00 1.75528596770269e-02 3.71961057943227e-04
1.79391666666667e+00 1.72206058414978e-02 3.65503705649277e-04
1.79963888888889e+00 1.68946411588312e-02 3.59156627242810e-04
1.80536111111111e+00 1.65748465831575e-02 3.52917983647265e-04
