Energy (eV)          EEDF (eV^-(3/2))     First Anisotropy
7.70833333333333e-02 3.19466811580427e-02 2.43768989345465e-05
2.31250000000000e-01 3.14902313873419e-02 4.01004324894621e-05
3.85416666666667e-01 3.10403033098924e-02 5.25339747928641e-05
5.39583333333333e-01 3.05968037423281e-02 6.17380671002425e-05
6.93750000000000e-01 3.01596408350541e-02 6.92168983621113e-05
8.47916666666667e-01 2.97287240514841e-02 7.55456560396910e-05
1.00208333333333e+00 2.93039641472544e-02 8.10252121483201e-05
1.15625000000000e+00 2.88852731524471e-02 8.58391552258306e-05
1.31041666666667e+00 2.84725643592073e-02 9.01104902799491e-05
1.46458333333333e+00 2.80657522912063e-02 9.39270260898575e-05
1.61875000000000e+00 2.76647526969300e-02 9.73544003131400e-05
1.77291666666667e+00 2.72694825311355e-02 1.00443429534025e-04
1.92708333333333e+00 2.68798599301690e-02 1.03234557747160e-04
2.08125000000000e+00 2.64958042024534e-02 1.05760700288540e-04
2.23541666666667e+00 2.61172358111654e-02 1.08049144319523e-04
2.38958333333333e+00 2.57440763522287e-02 1.10122863338184e-04
2.54375000000000e+00 2.53762485435977e-02 1.12001454577261e-04
2.69791666666667e+00 2.50136762088600e-02 1.13701825732320e-04
2.85208333333333e+00 2.46562842571387e-02 1.15238707556704e-04
3.00625000000000e+00 2.43039986718604e-02 1.16625044418392e-04
3.16041666666667e+00 2.39567464951520e-02 1.17872297819143e-04
3.31458333333333e+00 2.36144558092365e-02 1.18990684318516e-04
3.46875000000000e+00 2.32770557250370e-02 1.19989365094043e-04
3.62291666666667e+00 2.29444763672914e-02 1.20876599597301e-04
3.77708333333333e+00 2.26166488571859e-02 1.21659870098553e-04
3.93125000000000e+00 2.22935053009922e-02 1.22345984168643e-04
4.08541666666667e+00 2.19749787758493e-02 1.22941160497442e-04
4.23958333333333e+00 2.16610033134597e-02 1.23451100102913e-04
4.39375000000000e+00 2.13515138888790e-02 1.23881046375210e-04
4.54791666666667e+00 2.10464464069245e-02 1.24235836723233e-04
4.70208333333333e+00 2.07457376868080e-02 1.24519946136326e-04
4.85625000000000e+00 2.04493254511520e-02 1.24737524626431e-04
5.01041666666667e+00 2.01571483129907e-02 1.24892430193170e-04
5.16458333333333e+00 1.98691457612439e-02 1.24988256935937e-04
5.31875000000000e+00 1.95852581500054e-02 1.25028359592397e-04
5.47291666666667e+00 1.93054266861069e-02 1.25015875606239e-04
5.62708333333333e+00 1.90295934153571e-02 1.24953744072313e-04
5.78125000000000e+00 1.87577012121314e-02 1.24844722484457e-04
5.93541666666667e+00 1.84896937674706e-02 1.24691402102078e-04
6.08958333333333e+00 1.82255155760238e-02 1.24496221182792e-04
6.24375000000000e+00 1.79651119259559e-02 1.24261476804880e-04
6.39791666666667e+00 1.77084288875569e-02 1.23989335928260e-04
6.55208333333333e+00 1.74554133008353e-02 1.23681844918816e-04
6.70625000000000e+00 1.72060127657534e-02 1.23340938134452e-04
6.86041666666667e+00 1.69601756313229e-02 1.22968446115066e-04
7.01458333333333e+00 1.67178509838058e-02 1.22566102614865e-04
7.16875000000000e+00 1.64789886372785e-02 1.22135550990836e-04
7.32291666666667e+00 1.62435391231944e-02 1.21678350416405e-04
7.47708333333333e+00 1.60114536791504e-02 1.21195981188676e-04
7.63125000000000e+00 1.57826842397825e-02 1.20689849581913e-04
7.78541666666667e+00 1.55571834267719e-02 1.20161292662638e-04
7.93958333333333e+00 1.53349045381447e-02 1.19611582371561e-04
8.09375000000000e+00 1.51158015394939e-02 1.19041929278228e-04
8.24791666666667e+00 1.48998290544111e-02 1.18453486382091e-04
8.40208333333333e+00 1.46869423542871e-02 1.17847352304318e-04
8.55625000000000e+00 1.44770973498557e-02 1.17224574238643e-04
8.71041666666667e+00 1.42702505820326e-02 1.16586151001300e-04
8.86458333333333e+00 1.40663592121881e-02 1.15933035563224e-04
9.01875000000000e+00 1.38653810140070e-02 1.15266137401603e-04
9.17291666666667e+00 1.36672743647161e-02 1.14586324982665e-04
9.32708333333333e+00 1.34719982358043e-02 1.13894427796395e-04
9.48125000000000e+00 1.32795121851897e-02 1.13191238253617e-04
9.63541666666667e+00 1.30897763488205e-02 1.12477513733132e-04
9.78958333333333e+00 1.29027514318174e-02 1.11753978235269e-04
9.94375000000000e+00 1.27183987009411e-02 1.11021323849311e-04
1.00979166666667e+01 1.25366799770820e-02 1.10280212780882e-04
1.02520833333333e+01 1.23575576246654e-02 1.09531278387548e-04
1.04062500000000e+01 1.21809945471157e-02 1.08775126057755e-04
1.05604166666667e+01 1.20069541795506e-02 1.08012335755605e-04
1.07145833333333e+01 1.18354004761833e-02 1.07243462518689e-04
1.08687500000000e+01 1.16662979079181e-02 1.06469036823090e-04
1.10229166666667e+01 1.14996114548187e-02 1.05689567167886e-04
1.11770833333333e+01 1.13353065942472e-02 1.04905540345112e-04
1.13312500000000e+01 1.11733492983558e-02 1.04117421675890e-04
1.14854166666667e+01 1.10137060268821e-02 1.03325657335292e-04
1.16395833333333e+01 1.08563437159699e-02 1.02530674514435e-04
1.17937500000000e+01 1.07012297755855e-02 1.01732881557672e-04
1.19479166666667e+01 1.05483320826255e-02 1.00932670065731e-04
1.21020833333333e+01 1.03976189703688e-02 1.00130414974909e-04
1.22562500000000e+01 1.02490592258427e-02 9.93264746181372e-05
1.24104166666667e+01 1.01026220832277e-02 9.85211926368774e-05
1.25645833333333e+01 9.95827721389771e-03 9.77148979965215e-05
1.27187500000000e+01 9.81599472375416e-03 9.69079049888617e-05
1.28729166666667e+01 9.67574514691670e-03 9.61005149775298e-05
1.30270833333333e+01 9.53749943630846e-03 9.52930163643848e-05
1.31812500000000e+01 9.40122896097769e-03 9.44856845469575e-05
1.33354166666667e+01 9.26690550005986e-03 9.36787835178462e-05
1.34895833333333e+01 9.13450123387230e-03 9.28725657935653e-05
1.36437500000000e+01 9.00398874123698e-03 9.20672723375352e-05
1.37979166666667e+01 8.87534099370226e-03 9.12631340304355e-05
1.39520833333333e+01 8.74853134711334e-03 9.04603715705020e-05
1.41062500000000e+01 8.62353353894809e-03 8.96591953703394e-05
1.42604166666667e+01 8.50032168278699e-03 8.88598069125057e-05
1.44145833333333e+01 8.37887026032883e-03 8.80623986283313e-05
1.45687500000000e+01 8.25915411874950e-03 8.72671537750838e-05
1.47229166666667e+01 8.14114846540923e-03 8.64742476888951e-05
1.48770833333333e+01 8.02482886028543e-03 8.56838476476726e-05
1.50312500000000e+01 7.91017121336283e-03 8.48961127337749e-05
1.51854166666667e+01 7.79715177956746e-03 8.41111949946562e-05
1.53395833333333e+01 7.68574715159105e-03 8.33292392942841e-05
1.54937500000000e+01 7.57593425731919e-03 8.25503831654115e-05
1.56479166666667e+01 7.46769035498223e-03 8.17747578868811e-05
1.58020833333333e+01 7.36099302634744e-03 8.10024883270500e-05
1.59562500000000e+01 7.25582017419088e-03 8.02336927889148e-05
1.61104166666667e+01 7.15215001765563e-03 7.94684840118353e-05
1.62645833333333e+01 7.04996108578997e-03 7.87069690097530e-05
1.64187500000000e+01 6.94923221506735e-03 7.79492489117532e-05
1.65729166666667e+01 6.84994254494302e-03 7.71954198949973e-05
1.67270833333333e+01 6.75207151171792e-03 7.64455730199567e-05
1.68812500000000e+01 6.65559884611041e-03 7.56997940684547e-05
1.70354166666667e+01 6.56050456900266e-03 7.49581644137917e-05
1.71895833333333e+01 6.46676898561148e-03 7.42207608547444e-05
1.73437500000000e+01 6.37437268311470e-03 7.34876554527275e-05
1.74979166666667e+01 6.28329652657901e-03 7.27589163443871e-05
1.76520833333333e+01 6.19352165342041e-03 7.20346075757612e-05
1.78062500000000e+01 6.10502947108729e-03 7.13147889398608e-05
1.79604166666667e+01 6.01780165316201e-03 7.05995167364246e-05
1.81145833333333e+01 5.93182013409461e-03 6.98888436073419e-05
1.82687500000000e+01 5.84706710694430e-03 6.91828183756719e-05
1.84229166666667e+01 5.76352501964720e-03 6.84814867567544e-05
1.85770833333333e+01 5.68117657000831e-03 6.77848911957595e-05
1.87312500000000e+01 5.60000470350242e-03 6.70930707089516e-05
1.88854166666667e+01 5.51999260970090e-03 6.64060615499139e-05
1.90395833333333e+01 5.44112371750776e-03 6.57238970498992e-05
1.91937500000000e+01 5.36338169302079e-03 6.50466074619573e-05
1.93479166666667e+01 5.28675043611045e-03 6.43742205856621e-05
1.95020833333333e+01 5.21121407588692e-03 6.37067616107869e-05
1.96562500000000e+01 5.13675696862171e-03 6.30442529647662e-05
1.98104166666667e+01 5.06336369447227e-03 6.23867148989954e-05
1.99645833333333e+01 4.99101905316747e-03 6.17341653362147e-05
2.01187500000000e+01 4.91970806198995e-03 6.10866197216686e-05
2.02729166666667e+01 4.84941595263998e-03 6.04440915737530e-05
2.04270833333333e+01 4.78012816712805e-03 5.98065923353987e-05
2.05812500000000e+01 4.71183035581749e-03 5.91741312291959e-05
2.07354166666667e+01 4.64450837442179e-03 5.85467157749120e-05
2.08895833333333e+01 4.57814828009329e-03 5.79243516450786e-05
2.10437500000000e+01 4.51273632952582e-03 5.73070425242663e-05
2.11979166666667e+01 4.44825897607962e-03 5.66947905957780e-05
2.13520833333333e+01 4.38470286605602e-03 5.60875964015835e-05
2.15062500000000e+01 4.32205483685942e-03 5.54854587058653e-05
2.16604166666667e+01 4.26030191424438e-03 5.48883749529961e-05
2.18145833333333e+01 4.19943130876672e-03 5.42963411318938e-05
2.19687500000000e+01 4.13943041400398e-03 5.37093516439156e-05
2.21229166666667e+01 4.08028680391962e-03 5.31273997340524e-05
2.22770833333333e+01 4.02198822948134e-03 5.25504773597460e-05
2.24312500000000e+01 3.96452261693931e-03 5.19785750631581e-05
2.25854166666667e+01 3.90787806530227e-03 5.14116823773546e-05
2.27395833333333e+01 3.85204284311473e-03 5.08497876995901e-05
2.28937500000000e+01 3.79700538679189e-03 5.02928781679452e-05
2.30479166666667e+01 3.74275429820292e-03 4.97409400441357e-05
2.32020833333333e+01 3.68927834159900e-03 4.91939585912379e-05
2.33562500000000e+01 3.63656644200381e-03 4.86519179546658e-05
2.35104166666667e+01 3.58460768289943e-03 4.81148015231094e-05
2.36645833333333e+01 3.53339130329768e-03 4.75825918106472e-05
2.38187500000000e+01 3.48290669618506e-03 4.70552703420127e-05
2.39729166666667e+01 3.43314340630679e-03 4.65328179930557e-05
2.41270833333333e+01 3.38409112737444e-03 4.60152148771786e-05
2.42812500000000e+01 3.33573970056395e-03 4.55024402348183e-05
2.44354166666667e+01 3.28807911239380e-03 4.49944727547118e-05
2.45895833333333e+01 3.24109949206205e-03 4.44912904645784e-05
2.47437500000000e+01 3.19479110999626e-03 4.39928706247356e-05
2.48979166666667e+01 3.14914437582175e-03 4.34991900313667e-05
2.50520833333333e+01 3.10414983582168e-03 4.30102249113436e-05
2.52062500000000e+01 3.05979817153764e-03 4.25259508198888e-05
2.53604166666667e+01 3.01608019782407e-03 4.20463429269537e-05
2.55145833333333e+01 2.97298686042540e-03 4.15713759160827e-05
2.56687500000000e+01 2.93050923462600e-03 4.11010238860135e-05
2.58229166666667e+01 2.88863852338711e-03 4.06352606211967e-05
2.59770833333333e+01 2.84736605503533e-03 4.01740594945937e-05
2.61312500000000e+01 2.80668328196058e-03 3.97173933731071e-05
2.62854166666667e+01 2.76658177883202e-03 3.92652348732007e-05
2.64395833333333e+01 2.72705324039255e-03 3.88175562675164e-05
2.65937500000000e+01 2.68808948020338e-03 3.83743293940260e-05
2.67479166666667e+01 2.64968242893564e-03 3.79355258976384e-05
2.69020833333333e+01 2.61182413226574e-03 3.75011171405234e-05
2.70562500000000e+01 2.57450674966522e-03 3.70710741148689e-05
2.72104166666667e+01 2.53772255276486e-03 3.66453676713081e-05
2.73645833333333e+01 2.50146392334599e-03 3.62239684328334e-05
2.75187500000000e+01 2.46572335217439e-03 3.58068467110403e-05
2.76729166666667e+01 2.43049343743369e-03 3.53939727221524e-05
2.78270833333333e+01 2.39576688280821e-03 3.49853165044052e-05
2.79812500000000e+01 2.36153649635942e-03 3.45808478376641e-05
2.81354166666667e+01 2.32779518902579e-03 3.41805364477709e-05
2.82895833333333e+01 2.29453597279273e-03 3.37843519272764e-05
2.84437500000000e+01 2.26175195961038e-03 3.33922636583205e-05
2.85979166666667e+01 2.22943635995704e-03 3.30042410059753e-05
2.87520833333333e+01 2.19758248109209e-03 3.26202532422105e-05
2.89062500000000e+01 2.16618372601378e-03 3.22402694719197e-05
2.90604166666667e+01 2.13523359208364e-03 3.18642588158938e-05
2.92145833333333e+01 2.10472566935830e-03 3.14921903379044e-05
2.93687500000000e+01 2.07465363958623e-03 3.11240329737627e-05
2.95229166666667e+01 2.04501127489025e-03 3.07597557045183e-05
2.96770833333333e+01 2.01579243617485e-03 3.03993274865443e-05
2.98312500000000e+01 1.98699107216033e-03 3.00427171835179e-05
2.99854166666667e+01 1.95860121812118e-03 2.96898937304003e-05
3.01395833333333e+01 1.93061699436518e-03 2.93408260664119e-05
3.02937500000000e+01 1.90303260530382e-03 2.89954830698253e-05
3.04479166666667e+01 1.87584233824415e-03 2.86538337132486e-05
3.06020833333333e+01 1.84904056193629e-03 2.83158469993835e-05
3.07562500000000e+01 1.82262172567892e-03 2.79814918985212e-05
3.09104166666667e+01 1.79658035816233e-03 2.76507374956158e-05
3.10645833333333e+01 1.77091106608118e-03 2.73235529287198e-05
3.12187500000000e+01 1.74560853327389e-03 2.69999073290812e-05
3.13729166666667e+01 1.72066751961464e-03 2.66797699604676e-05
3.15270833333333e+01 1.69608285968843e-03 2.63631101601722e-05
3.16812500000000e+01 1.67184946196312e-03 2.60498972816120e-05
3.18354166666667e+01 1.64796230772846e-03 2.57401008263333e-05
3.19895833333333e+01 1.62441644983036e-03 2.54336903874871e-05
3.21437500000000e+01 1.60120701187466e-03 2.51306355948317e-05
3.22979166666667e+01 1.57832918721099e-03 2.48309062398215e-05
3.24520833333333e+01 1.55577823772373e-03 2.45344722214575e-05
3.26062500000000e+01 1.53354949306621e-03 2.42413034935972e-05
3.27604166666667e+01 1.51163834968766e-03 2.39513701835091e-05
3.29145833333333e+01 1.49004026967810e-03 2.36646425400032e-05
3.30687500000000e+01 1.46875078003201e-03 2.33810908829545e-05
3.32229166666667e+01 1.44776547171650e-03 2.31006857156834e-05
3.33770833333333e+01 1.42707999856766e-03 2.28233976752729e-05
3.35312500000000e+01 1.40669007658268e-03 2.25491974842181e-05
3.36854166666667e+01 1.38659148302740e-03 2.22780560569696e-05
3.38395833333333e+01 1.36678005538190e-03 2.20099444523467e-05
3.39937500000000e+01 1.34725169065991e-03 2.17448338272282e-05
3.41479166666667e+01 1.32800234455421e-03 2.14826955375769e-05
3.43020833333333e+01 1.30902803042908e-03 2.12235010928637e-05
3.44562500000000e+01 1.29032481866613e-03 2.09672221117151e-05
3.46104166666667e+01 1.27188883584585e-03 2.07138304177175e-05
3.47645833333333e+01 1.25371626378485e-03 2.04632979957728e-05
3.49187500000000e+01 1.23580333890712e-03 2.02155969496198e-05
3.50729166666667e+01 1.21814635146021e-03 1.99706995926994e-05
3.52270833333333e+01 1.20074164459522e-03 1.97285784063620e-05
3.53812500000000e+01 1.18358561376253e-03 1.94892059991890e-05
3.55354166666667e+01 1.16667470596123e-03 1.92525551931843e-05
3.56895833333333e+01 1.15000541885980e-03 1.90185989837535e-05
3.58437500000000e+01 1.13357430021551e-03 1.87873105007520e-05
3.59979166666667e+01 1.11737794715563e-03 1.85586630902528e-05
3.61520833333333e+01 1.10141300533699e-03 1.83326302762262e-05
3.63062500000000e+01 1.08567616838819e-03 1.81091857232431e-05
3.64604166666667e+01 1.07016417722115e-03 1.78883033140535e-05
3.66145833333333e+01 1.05487381922794e-03 1.76699571128958e-05
3.67687500000000e+01 1.03980192774480e-03 1.74541213297859e-05
3.69229166666667e+01 1.02494538139288e-03 1.72407703941310e-05
3.70770833333333e+01 1.01030110331054e-03 1.70298789196005e-05
3.72312500000000e+01 9.95866060638460e-04 1.68214216699326e-05
3.73854166666667e+01 9.81637263888268e-04 1.66153736287953e-05
3.75395833333333e+01 9.67611766208743e-04 1.64117099661533e-05
3.76937500000000e+01 9.53786662891215e-04 1.62104060055289e-05
3.78479166666667e+01 9.40159090764931e-04 1.60114372903070e-05
3.80020833333333e+01 9.26726227495583e-04 1.58147795515365e-05
3.81562500000000e+01 9.13485291110269e-04 1.56204086765855e-05
3.83104166666667e+01 9.00433539418438e-04 1.54283007720758e-05
3.84645833333333e+01 8.87568269341326e-04 1.52384321330588e-05
3.86187500000000e+01 8.74886816455712e-04 1.50507792130060e-05
3.87729166666667e+01 8.62386554439370e-04 1.48653186835526e-05
3.89270833333333e+01 8.50064894430016e-04 1.46820274049868e-05
3.90812500000000e+01 8.37919284587160e-04 1.45008823975204e-05
3.92354166666667e+01 8.25947209561018e-04 1.43218608980091e-05
3.93895833333333e+01 8.14146189879651e-04 1.41449403317007e-05
3.95437500000000e+01 8.02513781528218e-04 1.39700982847312e-05
3.96979166666667e+01 7.91047575440365e-04 1.37973125579770e-05
3.98520833333333e+01 7.79745196912286e-04 1.36265611400119e-05
4.00062500000000e+01 7.68604305198716e-04 1.34578221807747e-05
4.01604166666667e+01 7.57622593025846e-04 1.32910740427066e-05
4.03145833333333e+01 7.46797786031101e-04 1.31262952748620e-05
4.04687500000000e+01 7.36127642375233e-04 1.29634645876999e-05
4.06229166666667e+01 7.25609952275846e-04 1.28025609016455e-05
4.07770833333333e+01 7.15242537471751e-04 1.26435633223071e-05
4.09312500000000e+01 7.05023250850537e-04 1.24864511163456e-05
4.10854166666667e+01 6.94949976001831e-04 1.23312037575920e-05
4.12395833333333e+01 6.85020626705134e-04 1.21778009033236e-05
4.13937500000000e+01 6.75233146572276e-04 1.20262223711637e-05
4.15479166666667e+01 6.65585508619578e-04 1.18764481828844e-05
4.17020833333333e+01 6.56075714778120e-04 1.17284585416963e-05
4.18562500000000e+01 6.46701795550505e-04 1.15822338101359e-05
4.20104166666667e+01 6.37461809601123e-04 1.14377545516705e-05
4.21645833333333e+01 6.28353843287850e-04 1.12950015089605e-05
4.23187500000000e+01 6.19376010332575e-04 1.11539555826895e-05
4.24729166666667e+01 6.10526451428792e-04 1.10145978710876e-05
4.26270833333333e+01 6.01803333793785e-04 1.08769096491237e-05
4.27812500000000e+01 5.93204850852371e-04 1.07408723482384e-05
4.29354166666667e+01 5.84729221861102e-04 1.06064675938935e-05
4.30895833333333e+01 5.76374691480012e-04 1.04736771856515e-05
4.32437500000000e+01 5.68139529469078e-04 1.03424830777766e-05
4.33979166666667e+01 5.60022030328310e-04 1.02128674149084e-05
4.35520833333333e+01 5.52020512888211e-04 1.00848125129942e-05
4.37062500000000e+01 5.44133320018443e-04 9.95830084071840e-06
4.38604166666667e+01 5.36358818283146e-04 9.83331505339739e-06
4.40145833333333e+01 5.28695397549273e-04 9.70983797472748e-06
4.41687500000000e+01 5.21141470706991e-04 9.58785257900814e-06
4.43229166666667e+01 5.13695473339579e-04 9.46734202334928e-06
4.44770833333333e+01 5.06355863348849e-04 9.34828963019944e-06
4.46312500000000e+01 4.99121120686820e-04 9.23067887032886e-06
4.47854166666667e+01 4.91989747039583e-04 9.11449339343482e-06
4.49395833333333e+01 4.84960265469047e-04 8.99971701141779e-06
4.50937500000000e+01 4.78031220155448e-04 8.88633368209073e-06
4.52479166666667e+01 4.71201176094584e-04 8.77432753826517e-06
4.54020833333333e+01 4.64468718755172e-04 8.66368287174234e-06
4.55562500000000e+01 4.57832453831762e-04 8.55438411771851e-06
4.57104166666667e+01 4.51291006954776e-04 8.44641588242854e-06
4.58645833333333e+01 4.44843023362789e-04 8.33976292782096e-06
4.60187500000000e+01 4.38487167665431e-04 8.23441015663037e-06
4.61729166666667e+01 4.32222123565700e-04 8.13034263865105e-06
4.63270833333333e+01 4.26046593546497e-04 8.02754559606723e-06
4.64812500000000e+01 4.19959298643134e-04 7.92600438916392e-06
4.66354166666667e+01 4.13958978177388e-04 7.82570454129975e-06
4.67895833333333e+01 4.08044389457673e-04 7.72663172486443e-06
4.69437500000000e+01 4.02214307560767e-04 7.62877174759993e-06
4.70979166666667e+01 3.96467525077114e-04 7.53211057633936e-06
4.72520833333333e+01 3.90802851824032e-04 7.43663432356495e-06
4.74062500000000e+01 3.85219114636293e-04 7.34232923431285e-06
4.75604166666667e+01 3.79715157122199e-04 7.24918170874045e-06
4.77145833333333e+01 3.74289839389249e-04 7.15717828925880e-06
4.78687500000000e+01 3.68942037843222e-04 7.06630564799690e-06
4.80229166666667e+01 3.63670644954571e-04 6.97655060825545e-06
4.81770833333333e+01 3.58474568996006e-04 6.88790013218962e-06
4.83312500000000e+01 3.53352733849736e-04 6.80034130880924e-06
4.84854166666667e+01 3.48304078783749e-04 6.71386137437473e-06
4.86395833333333e+01 3.43327558200778e-04 6.62844770060657e-06
