Energy (eV)          EEDF (eV^-(3/2))     First Anisotropy
6.58333333333333e-02 3.16779391076232e-01 4.71191146579737e-04
1.97500000000000e-01 2.99053972246357e-01 7.58853121130239e-04
3.29166666666667e-01 2.82320380876364e-01 9.52119545737962e-04
4.60833333333333e-01 2.66523119071953e-01 1.07163477737432e-03
5.92500000000000e-01 2.51609794433441e-01 1.15066381637998e-03
7.24166666666667e-01 2.37530946207195e-01 1.20278601642906e-03
8.55833333333333e-01 2.24239881168826e-01 1.23549673263983e-03
9.87500000000000e-01 2.11692518841673e-01 1.25357236826564e-03
1.11916666666667e+00 1.99847245317706e-01 1.26032305269363e-03
1.25083333333333e+00 1.88664775085219e-01 1.25817094213375e-03
1.38250000000000e+00 1.78108020932773e-01 1.24895622259727e-03
1.51416666666667e+00 1.68141970938159e-01 1.23411523670358e-03
1.64583333333333e+00 1.58733572129065e-01 1.21479175174195e-03
1.77750000000000e+00 1.49851621087234e-01 1.19191038012109e-03
1.90916666666667e+00 1.41466660430563e-01 1.16622720289177e-03
2.04083333333333e+00 1.33550880972911e-01 1.13836591064052e-03
2.17250000000000e+00 1.26078029640829e-01 1.10884438373768e-03
2.30416666666667e+00 1.19023322385519e-01 1.07809474161140e-03
2.43583333333333e+00 1.12363361887030e-01 1.04647876406784e-03
2.56750000000000e+00 1.06076060057065e-01 1.01429997402281e-03
2.69916666666667e+00 1.00140564770698e-01 9.81813260223407e-04
2.83083333333333e+00 9.45371906394575e-02 9.49232626327538e-04
2.96250000000000e+00 8.92473537957286e-02 9.16737509748392e-04
3.09416666666667e+00 8.42535102501745e-02 8.84477993531682e-04
3.22583333333333e+00 7.95390976554079e-02 8.52579129647778e-04
3.35750000000000e+00 7.50884804285902e-02 8.21144558094368e-04
3.48916666666667e+00 7.08868978894021e-02 7.90259562779502e-04
3.62083333333333e+00 6.69204152678303e-02 7.59993656450259e-04
3.75250000000000e+00 6.31758775277339e-02 7.30402782968288e-04
3.88416666666667e+00 5.96408657332790e-02 7.01531206768883e-04
4.01583333333333e+00 5.63036558325772e-02 6.73413131875720e-04
4.14750000000000e+00 5.31531798035803e-02 6.46074097585622e-04
4.27916666666667e+00 5.01789889433104e-02 6.19532188994685e-04
4.41083333333333e+00 4.73712191926547e-02 5.93799082835892e-04
4.54250000000000e+00 4.47205584440212e-02 5.68880955971270e-04
4.67416666666667e+00 4.22182156549316e-02 5.44779279064283e-04
4.80583333333333e+00 3.98558916755366e-02 5.21491505530861e-04
4.93750000000000e+00 3.76257517412003e-02 4.99011672713410e-04
5.06916666666667e+00 3.55203994863423e-02 4.77330929392108e-04
5.20083333333333e+00 3.35328524012140e-02 4.56437994548149e-04
5.33250000000000e+00 3.16565186873150e-02 4.36319558430418e-04
5.46416666666667e+00 2.98851753940109e-02 4.16960635194448e-04
5.59583333333333e+00 2.82129477698325e-02 3.98344869344012e-04
5.72750000000000e+00 2.66342897888979e-02 3.80454803476756e-04
5.85916666666667e+00 2.51439657561978e-02 3.63272113648483e-04
5.99083333333333e+00 2.37370329353405e-02 3.46777813171664e-04
6.12250000000000e+00 2.24088251638109e-02 3.30952430100802e-04
6.25416666666667e+00 2.11549373765996e-02 3.15776162832333e-04
6.38583333333333e+00 1.99712109904395e-02 3.01229013890644e-04
6.51750000000000e+00 1.88537201180238e-02 2.87290905668821e-04
6.64916666666667e+00 1.77987585469737e-02 2.73941781299752e-04
6.78083333333333e+00 1.68028274431430e-02 2.61161690349708e-04
6.91250000000000e+00 1.58626237515931e-02 2.48930862090424e-04
7.04416666666667e+00 1.49750292413507e-02 2.37229768668286e-04
7.17583333333333e+00 1.41371001597873e-02 2.26039177684660e-04
7.30750000000000e+00 1.33460574735090e-02 2.15340196233482e-04
7.43916666666667e+00 1.25992776511634e-02 2.05114308113020e-04
7.57083333333333e+00 1.18942839593013e-02 1.95343403659506e-04
7.70250000000000e+00 1.12287382513446e-02 1.86009803739926e-04
7.83416666666667e+00 1.06004332126971e-02 1.77096279189691e-04
7.96583333333333e+00 1.00072850376296e-02 1.68586065137752e-04
8.09750000000000e+00 9.44732652077032e-03 1.60462871385232e-04
8.22916666666667e+00 8.91870053252513e-03 1.52710889808987e-04
8.36083333333333e+00 8.41965385785673e-03 1.45314798259943e-04
8.49250000000000e+00 7.94853138368963e-03 1.38259761847477e-04
8.62416666666667e+00 7.50377060944970e-03 1.31531432348995e-04
8.75583333333333e+00 7.08389646338280e-03 1.25115945257615e-04
8.88750000000000e+00 6.68751641203424e-03 1.18999915153330e-04
9.01916666666667e+00 6.31331584168611e-03 1.13170429963291e-04
9.15083333333333e+00 5.96005369711305e-03 1.07615043673364e-04
9.28250000000000e+00 5.62655836686988e-03 1.02321768020605e-04
9.41416666666667e+00 5.31172379745902e-03 9.72790636014255e-05
9.54583333333333e+00 5.01450582403208e-03 9.24758300076731e-05
9.67750000000000e+00 4.73391870841976e-03 8.79013954015235e-05
9.80916666666667e+00 4.46903186978190e-03 8.35455058645304e-05
9.94083333333333e+00 4.21896679746914e-03 7.93983142332482e-05
1.00725000000000e+01 3.98289413756285e-03 7.54503683763678e-05
1.02041666666667e+01 3.76003094561707e-03 7.16926002045791e-05
1.03358333333333e+01 3.54963808252930e-03 6.81163137597743e-05
1.04675000000000e+01 3.35101777002858e-03 6.47131729095999e-05
1.05991666666667e+01 3.16351127580893e-03 6.14751906589309e-05
1.07308333333333e+01 2.98649672344102e-03 5.83947170298765e-05
1.08625000000000e+01 2.81938703545800e-03 5.54644270962783e-05
1.09941666666667e+01 2.66162798575902e-03 5.26773104200787e-05
1.11258333333333e+01 2.51269635713741e-03 5.00266594212321e-05
1.12575000000000e+01 2.37209821052076e-03 4.75060579822013e-05
1.13891666666667e+01 2.23936724637301e-03 4.51093713096974e-05
1.15208333333333e+01 2.11406325465491e-03 4.28307350074695e-05
1.16525000000000e+01 1.99577065851171e-03 4.06645444285236e-05
1.17841666666667e+01 1.88409713564828e-03 3.86054451460476e-05
1.19158333333333e+01 1.77867231430031e-03 3.66483228460160e-05
1.20475000000000e+01 1.67914654785798e-03 3.47882935195963e-05
1.21791666666667e+01 1.58518975496698e-03 3.30206946447616e-05
1.23108333333333e+01 1.49649032246001e-03 3.13410759490498e-05
1.24425000000000e+01 1.41275407430120e-03 2.97451904758100e-05
1.25741666666667e+01 1.33370329571057e-03 2.82289865206940e-05
1.27058333333333e+01 1.25907581020511e-03 2.67885992696022e-05
1.28375000000000e+01 1.18862411205299e-03 2.54203427327224e-05
1.29691666666667e+01 1.12211454522473e-03 2.41207024409425e-05
1.31008333333333e+01 1.05932652690869e-03 2.28863279340584e-05
1.32325000000000e+01 1.00005181754831e-03 2.17140255306284e-05
1.33641666666667e+01 9.44093830055609e-04 2.06007517633494e-05
1.34958333333333e+01 8.91266976553130e-04 1.95436066736599e-05
1.36275000000000e+01 8.41396054177513e-04 1.85398273693542e-05
1.37591666666667e+01 7.94315663888614e-04 1.75867821614381e-05
1.38908333333333e+01 7.49869660880103e-04 1.66819646101559e-05
1.40225000000000e+01 7.07910637791788e-04 1.58229878132223e-05
1.41541666666667e+01 6.68299435726387e-04 1.50075791969129e-05
1.42858333333333e+01 6.30904681875673e-04 1.42335752529545e-05
1.44175000000000e+01 5.95602354694465e-04 1.34989164960411e-05
1.45491666666667e+01 5.62275372495882e-04 1.28016428569345e-05
1.46808333333333e+01 5.30813204451481e-04 1.21398890478845e-05
1.48125000000000e+01 5.01111504729099e-04 1.15118801272712e-05
1.49441666666667e+01 4.73071766358443e-04 1.09159274408328e-05
1.50758333333333e+01 4.46600993960635e-04 1.03504245540881e-05
1.52075000000000e+01 4.21611395913085e-04 9.81384336337715e-06
1.53391666666667e+01 3.98020093130023e-04 9.30473053193003e-06
1.54708333333333e+01 3.75748843725094e-04 8.82170393025575e-06
1.56025000000000e+01 3.54723784000669e-04 8.36344923573116e-06
1.57341666666667e+01 3.34875183430880e-04 7.92871681230110e-06
1.58658333333333e+01 3.16137213015718e-04 7.51631860332648e-06
1.59975000000000e+01 2.98447727351491e-04 7.12512516562163e-06
1.61291666666667e+01 2.81748058486198e-04 6.75406294457152e-06
1.62608333333333e+01 2.65982821031588e-04 6.40211156804132e-06
1.63925000000000e+01 2.51099728799409e-04 6.06830126497103e-06
1.65241666666667e+01 2.37049421361903e-04 5.75171049121132e-06
1.66558333333333e+01 2.23785300088708e-04 5.45146357746085e-06
1.67875000000000e+01 2.11263373866734e-04 5.16672848691176e-06
1.69191666666667e+01 1.99442113177052e-04 4.89671475085694e-06
1.70508333333333e+01 1.88282312149215e-04 4.64067142801853e-06
1.71825000000000e+01 1.77746958752030e-04 4.39788516010044e-06
1.73141666666667e+01 1.67801112021296e-04 4.16767838001250e-06
1.74458333333333e+01 1.58411786002949e-04 3.94940754423490e-06
1.75775000000000e+01 1.49547840533518e-04 3.74246144934539e-06
1.77091666666667e+01 1.41179877945788e-04 3.54625967940676e-06
1.78408333333333e+01 1.33280145427357e-04 3.36025107708202e-06
1.79725000000000e+01 1.25822443125107e-04 3.18391228818188e-06
1.81041666666667e+01 1.18782037238584e-04 3.01674641828771e-06
1.82358333333333e+01 1.12135577871765e-04 2.85828171213250e-06
1.83675000000000e+01 1.05861021713800e-04 2.70807029691232e-06
1.84991666666667e+01 9.99375589201687e-05 2.56568702151461e-06
1.86308333333333e+01 9.43455439991939e-05 2.43072831718233e-06
1.87625000000000e+01 8.90664307570827e-05 2.30281111372723e-06
1.88941666666667e+01 8.40827107794269e-05 2.18157183777644e-06
1.90258333333333e+01 7.93778552841054e-05 2.06666543092914e-06
1.91575000000000e+01 7.49362603853651e-05 1.95776441609568e-06
1.92891666666667e+01 7.07431953352470e-05 1.85455803395248e-06
1.94208333333333e+01 6.67847536027633e-05 1.75675139768632e-06
1.95525000000000e+01 6.30478068202660e-05 1.66406468946539e-06
1.96841666666667e+01 5.95199612363801e-05 1.57623241680544e-06
1.98158333333333e+01 5.61895165574626e-05 1.49300268558672e-06
1.99475000000000e+01 5.30454271991113e-05 1.41413650915496e-06
2.00791666666667e+01 5.00772656478431e-05 1.33940716855964e-06
2.02108333333333e+01 4.72751878331543e-05 1.26859958783913e-06
2.03425000000000e+01 4.46299005254487e-05 1.20150974046948e-06
2.04741666666667e+01 4.21326305103843e-05 1.13794409945177e-06
2.06058333333333e+01 3.97750954552985e-05 1.07771910091252e-06
2.07375000000000e+01 3.75494764786208e-05 1.02066063458613e-06
2.08691666666667e+01 3.54483922147039e-05 9.66603571519771e-07
2.10008333333333e+01 3.34648743028091e-05 9.15391303849622e-07
2.11325000000000e+01 3.15923443077024e-05 8.66875307740485e-07
2.12641666666667e+01 2.98245918990945e-05 8.20914738061501e-07
2.13958333333333e+01 2.81557542297159e-05 7.77376033796200e-07
2.15275000000000e+01 2.65802965169080e-05 7.36132543391731e-07
2.16591666666667e+01 2.50929936838889e-05 6.97064177155493e-07
2.17908333333333e+01 2.36889130098319e-05 6.60057069159584e-07
2.19225000000000e+01 2.23633977917395e-05 6.25003256292976e-07
2.20541666666667e+01 2.11120518983139e-05 5.91800380356505e-07
2.21858333333333e+01 1.99307251728726e-05 5.60351398550102e-07
2.23175000000000e+01 1.88154996868993e-05 5.30564308694411e-07
2.24491666666667e+01 1.77626767444372e-05 5.02351894076633e-07
2.25808333333333e+01 1.67687646010488e-05 4.75631475681241e-07
2.27125000000000e+01 1.58304668979449e-05 4.50324677071322e-07
2.28441666666667e+01 1.49446717281223e-05 4.26357205977133e-07
2.29758333333333e+01 1.41084413038882e-05 4.03658642365451e-07
2.31075000000000e+01 1.33190022256712e-05 3.82162237362394e-07
2.32391666666667e+01 1.25737362828095e-05 3.61804726395584e-07
2.33708333333333e+01 1.18701717604657e-05 3.42526148009865e-07
2.35025000000000e+01 1.12059752520920e-05 3.24269671988208e-07
2.36341666666667e+01 1.05789439196676e-05 3.06981439570977e-07
2.37658333333333e+01 9.98699817988628e-06 2.90610408631174e-07
2.38975000000000e+01 9.42817481541260e-06 2.75108206822327e-07
2.40291666666667e+01 8.90062046302672e-06 2.60428995017201e-07
2.41608333333333e+01 8.40258546024125e-06 2.46529335067160e-07
2.42925000000000e+01 7.93241804932466e-06 2.33368064388291e-07
2.44241666666667e+01 7.48855889854667e-06 2.20906179298561e-07
2.45558333333333e+01 7.06953592510459e-06 2.09106722114961e-07
2.46875000000000e+01 6.67395941857041e-06 1.97934674092922e-07
2.48191666666667e+01 6.30051743133584e-06 1.87356855805493e-07
2.49508333333333e+01 5.94797142294238e-06 1.77341830789237e-07
2.50825000000000e+01 5.61515215710505e-06 1.67859814187239e-07
2.52141666666667e+01 5.30095582345919e-06 1.58882587715534e-07
2.53458333333333e+01 5.00434037296684e-06 1.50383417463498e-07
2.54775000000000e+01 4.72432206580530e-06 1.42336975966269e-07
2.56091666666667e+01 4.45997220839511e-06 1.34719269650559e-07
2.57408333333333e+01 4.21041407023405e-06 1.27507568735600e-07
2.58725000000000e+01 3.97481997940402e-06 1.20680340784546e-07
2.60041666666667e+01 3.75240857726616e-06 1.14217188820954e-07
2.61358333333333e+01 3.54244222447153e-06 1.08098791569534e-07
2.62675000000000e+01 3.34422455721721e-06 1.02306846814821e-07
2.63991666666667e+01 3.15709817748121e-06 9.68240186374110e-08
2.65308333333333e+01 2.98044247059568e-06 9.16338864860322e-08
2.66625000000000e+01 2.81367154916322e-06 8.67208969115782e-08
2.67941666666667e+01 2.65623230973349e-06 8.20703185940609e-08
2.69258333333333e+01 2.50760259663964e-06 7.76681989544386e-08
2.70575000000000e+01 2.36728947207964e-06 7.35013230381963e-08
2.71891666666667e+01 2.23482758109897e-06 6.95571751948329e-08
2.73208333333333e+01 2.10977760675154e-06 6.58239021241878e-08
2.74525000000000e+01 1.99172481460593e-06 6.22902778607808e-08
2.75841666666667e+01 1.88027767712151e-06 5.89456711316309e-08
2.77158333333333e+01 1.77506657391217e-06 5.57800138917702e-08
2.78475000000000e+01 1.67574256714454e-06 5.27837715124703e-08
2.79791666666667e+01 1.58197624415527e-06 4.99479149839860e-08
2.81108333333333e+01 1.49345662392909e-06 4.72638941321483e-08
2.82425000000000e+01 1.40989012676220e-06 4.47236122438825e-08
2.83741666666667e+01 1.33099960049673e-06 4.23194024022845e-08
2.85058333333333e+01 1.25652340049534e-06 4.00440046937849e-08
2.86375000000000e+01 1.18621452275257e-06 3.78905446160222e-08
2.87691666666667e+01 1.11983978461603e-06 3.58525129362471e-08
2.89008333333333e+01 1.05717905073042e-06 3.39237462993031e-08
2.90325000000000e+01 9.98024503668598e-07 3.20984088585517e-08
2.91641666666667e+01 9.42179954630253e-07 3.03709751373587e-08
2.92958333333333e+01 8.89460192195948e-07 2.87362135343980e-08
2.94275000000000e+01 8.39690368662526e-07 2.71891707001937e-08
2.95591666666667e+01 7.92705420098519e-07 2.57251569574561e-08
2.96908333333333e+01 7.48349518423259e-07 2.43397322740264e-08
2.98225000000000e+01 7.06475555091915e-07 2.30286929776440e-08
2.99541666666667e+01 6.66944653158305e-07 2.17880593559586e-08
3.00858333333333e+01 6.29625706285641e-07 2.06140637305636e-08
3.02175000000000e+01 5.94394944338132e-07 1.95031391624894e-08
3.03491666666667e+01 5.61135522854350e-07 1.84519089083737e-08
3.04808333333333e+01 5.29737135197143e-07 1.74571762829989e-08
3.06125000000000e+01 5.00095647058536e-07 1.65159150592047e-08
3.07441666666667e+01 4.72112751062557e-07 1.56252605042828e-08
3.08758333333333e+01 4.45695640450188e-07 1.47825007645443e-08
3.10075000000000e+01 4.20756701565455e-07 1.39850687070826e-08
3.11391666666667e+01 3.97213223255007e-07 1.32305343011253e-08
3.12708333333333e+01 3.74987122325077e-07 1.25165972975395e-08
3.14025000000000e+01 3.54004684810862e-07 1.18410802972246e-08
3.15341666666667e+01 3.34196321479417e-07 1.12019222768946e-08
3.16658333333333e+01 3.15496336844605e-07 1.05971723700507e-08
3.17975000000000e+01 2.97842711480953e-07 1.00249839786651e-08
3.19291666666667e+01 2.81176896315643e-07 9.48360927252839e-09
3.20608333333333e+01 2.65443618290647e-07 8.97139390691373e-09
3.21925000000000e+01 2.50590697209903e-07 8.48677202141450e-09
3.23241666666667e+01 2.36568872666567e-07 8.02826156731349e-09
3.24558333333333e+01 2.23331640537989e-07 7.59445982163587e-09
3.25875000000000e+01 2.10835098887960e-07 7.18403914021014e-09
3.27191666666667e+01 1.99037802351677e-07 6.79574298911606e-09
3.28508333333333e+01 1.87900624571722e-07 6.42838213569877e-09
3.29825000000000e+01 1.77386628546158e-07 6.08083104270703e-09
3.31141666666667e+01 1.67460944115090e-07 5.75202449830219e-09
3.32458333333333e+01 1.58090652221928e-07 5.44095438239884e-09
3.33775000000000e+01 1.49244675829303e-07 5.14666660559976e-09
3.35091666666667e+01 1.40893676842194e-07 4.86825824795760e-09
3.36408333333333e+01 1.33009958731750e-07 4.60487481417140e-09
3.37725000000000e+01 1.25567374756197e-07 4.35570763540891e-09
3.39041666666667e+01 1.18541241236942e-07 4.11999144040229e-09
3.40358333333333e+01 1.11908255631627e-07 3.89700202594862e-09
3.41675000000000e+01 1.05646419314794e-07 3.68605405195248e-09
3.42991666666667e+01 9.97349646125980e-08 3.48649897984604e-09
3.44308333333333e+01 9.41542858739662e-08 3.29772309584468e-09
3.45625000000000e+01 8.88858745013023e-08 3.11914563996844e-09
3.46941666666667e+01 8.39122575610115e-08 2.95021705649533e-09
3.48258333333333e+01 7.92169397905555e-08 2.79041731679149e-09
3.49575000000000e+01 7.47843489358551e-08 2.63925433194680e-09
3.50891666666667e+01 7.05997841011534e-08 2.49626246824605e-09
3.52208333333333e+01 6.66493669569182e-08 2.36100112436795e-09
3.53525000000000e+01 6.29199957489057e-08 2.23305338482529e-09
3.54841666666667e+01 5.93993018422308e-08 2.11202476048440e-09
3.56158333333333e+01 5.60756086703515e-08 1.99754198171393e-09
3.57475000000000e+01 5.29378930401334e-08 1.88925185624905e-09
3.58791666666667e+01 4.99757485701268e-08 1.78682020078648e-09
3.60108333333333e+01 4.71793511524725e-08 1.68993081743800e-09
3.61425000000000e+01 4.45394263965337e-08 1.59828452510768e-09
3.62741666666667e+01 4.20472188676278e-08 1.51159825329250e-09
3.64058333333333e+01 3.96944630285434e-08 1.42960417410692e-09
3.65375000000000e+01 3.74733558479236e-08 1.35204888091443e-09
3.66691666666667e+01 3.53765309192191e-08 1.27869261980452e-09
3.68008333333333e+01 3.33970340124492e-08 1.20930855363151e-09
3.69325000000000e+01 3.15283000280038e-08 1.14368206559741e-09
3.70641666666667e+01 2.97641312215778e-08 1.08161010756817e-09
3.71958333333333e+01 2.80986766347405e-08 1.02290057612128e-09
3.73275000000000e+01 2.65264127047992e-08 9.67371722139920e-10
3.74591666666667e+01 2.50421249443095e-08 9.14851598271024e-10
3.75908333333333e+01 2.36408906350609e-08 8.65177529994574e-10
3.77225000000000e+01 2.23180625140062e-08 8.18195615148005e-10
3.78541666666667e+01 2.10692533592845e-08 7.73760255497431e-10
3.79858333333333e+01 1.98903214298681e-08 7.31733708407246e-10
3.81175000000000e+01 1.87773567395704e-08 6.91985662642995e-10
3.82491666666667e+01 1.77266680884682e-08 6.54392841295677e-10
3.83808333333333e+01 1.67347708125995e-08 6.18838621810237e-10
3.85125000000000e+01 1.57983752354764e-08 5.85212676479330e-10
3.86441666666667e+01 1.49143757569486e-08 5.53410635888466e-10
3.87758333333333e+01 1.40798405464528e-08 5.23333766913935e-10
3.89075000000000e+01 1.32920018265906e-08 4.94888668073442e-10
3.90391666666667e+01 1.25482466930241e-08 4.67986984297829e-10
3.91708333333333e+01 1.18461084429242e-08 4.42545134082094e-10
3.93025000000000e+01 1.11832583999743e-08 4.18484051348223e-10
3.94341666666667e+01 1.05574981906723e-08 3.95728943740703e-10
3.95658333333333e+01 9.96675244854785e-09 3.74209061450255e-10
3.96975000000000e+01 9.40906193605868e-09 3.53857478508972e-10
3.98291666666667e+01 8.88257704624300e-09 3.34610887988672e-10
3.99608333333333e+01 8.38555166443456e-09 3.16409406151351e-10
4.00925000000000e+01 7.91633738131199e-09 2.99196387170656e-10
4.02241666666667e+01 7.47337802550160e-09 2.82918249615691e-10
4.03558333333333e+01 7.05520449914927e-09 2.67524310545287e-10
4.04875000000000e+01 6.66042990902114e-09 2.52966628561520e-10
4.06191666666667e+01 6.28774496649862e-09 2.39199856813702e-10
4.07508333333333e+01 5.93591364250128e-09 2.26181102471056e-10
4.08825000000000e+01 5.60376907099823e-09 2.13869793787827e-10
4.10141666666667e+01 5.29020967878519e-09 2.02227555585580e-10
4.11458333333333e+01 4.99419552976556e-09 1.91218090232691e-10
4.12775000000000e+01 4.71474487833646e-09 1.80807065057341e-10
4.14091666666667e+01 4.45093091316919e-09 1.70962006880235e-10
4.15408333333333e+01 4.20187868147967e-09 1.61652201218121e-10
