Energy (eV)          EEDF (eV^-(3/2))     First Anisotropy
1.12777777777778e-01 7.76466582978047e-02 9.55147751048283e-05
3.38333333333333e-01 7.47232808168417e-02 1.55274947583750e-04
5.63888888888889e-01 7.19099677844818e-02 1.98598358238227e-04
7.89444444444445e-01 6.92025752893965e-02 2.27861776343204e-04
1.01500000000000e+00 6.65971154541069e-02 2.49409873891405e-04
1.24055555555556e+00 6.40897505306819e-02 2.65762721784931e-04
1.46611111111111e+00 6.16767872870538e-02 2.78283719862820e-04
1.69166666666667e+00 5.93546715055141e-02 2.87830038804675e-04
1.91722222222222e+00 5.71199828152643e-02 2.94991221387150e-04
2.14277777777778e+00 5.49694295963199e-02 3.00197705953900e-04
2.36833333333333e+00 5.28998441696156e-02 3.03777386281288e-04
2.59388888888889e+00 5.09081781272441e-02 3.05988035886484e-04
2.81944444444444e+00 4.89914978152634e-02 3.07037253184027e-04
3.04500000000000e+00 4.71469800465081e-02 3.07095424787444e-04
3.27055555555556e+00 4.53719079127487e-02 3.06304528996917e-04
3.49611111111111e+00 4.36636668084486e-02 3.04784332996054e-04
3.72166666666667e+00 4.20197405569448e-02 3.02636889584117e-04
3.94722222222222e+00 4.04377077242637e-02 2.99949883806203e-04
4.17277777777778e+00 3.89152380345510e-02 2.96799179774265e-04
4.39833333333333e+00 3.74500889503831e-02 2.93250794626315e-04
4.62388888888889e+00 3.60401023685629e-02 2.89362456833235e-04
4.84944444444444e+00 3.46832014313598e-02 2.85184851646708e-04
5.07500000000000e+00 3.33773874802040e-02 2.80762631409980e-04
5.30055555555556e+00 3.21207371000961e-02 2.76135244290761e-04
5.52611111111111e+00 3.09113992970966e-02 2.71337620865882e-04
5.75166666666667e+00 2.97475927621991e-02 2.66400748685418e-04
5.97722222222222e+00 2.86276032563994e-02 2.61352156770276e-04
6.20277777777778e+00 2.75497810775513e-02 2.56216327726341e-04
6.42833333333333e+00 2.65125386363026e-02 2.51015049840194e-04
6.65388888888889e+00 2.55143481172006e-02 2.45767721361982e-04
6.87944444444445e+00 2.45537392235100e-02 2.40491613124370e-04
7.10500000000000e+00 2.36292970177235e-02 2.35202097570699e-04
7.33055555555556e+00 2.27396598316821e-02 2.29912849137056e-04
7.55611111111111e+00 2.18835172661991e-02 2.24636020166418e-04
7.78166666666667e+00 2.10596082559729e-02 2.19382396188481e-04
8.00722222222222e+00 2.02667192166559e-02 2.14161533258255e-04
8.23277777777778e+00 1.95036822530458e-02 2.08981880093541e-04
8.45833333333333e+00 1.87693734419160e-02 2.03850886491210e-04
8.68388888888889e+00 1.80627111763020e-02 1.98775100816299e-04
8.90944444444444e+00 1.73826545697840e-02 1.93760256720049e-04
9.13500000000000e+00 1.67282019266360e-02 1.88811351222341e-04
9.36055555555556e+00 1.60983892632564e-02 1.83932714967690e-04
9.58611111111111e+00 1.54922888911644e-02 1.79128075469232e-04
9.81166666666667e+00 1.49090080478340e-02 1.74400614285312e-04
1.00372222222222e+01 1.43476875842331e-02 1.69753018659869e-04
1.02627777777778e+01 1.38075006969493e-02 1.65187528545173e-04
1.04883333333333e+01 1.32876517100939e-02 1.60705978234459e-04
1.07138888888889e+01 1.27873749116751e-02 1.56309836146003e-04
1.09394444444444e+01 1.23059334089507e-02 1.52000239104105e-04
1.11650000000000e+01 1.18426180620410e-02 1.47778024228233e-04
1.13905555555556e+01 1.13967464215297e-02 1.43643758233908e-04
1.16161111111111e+01 1.09676617400233e-02 1.39597763659710e-04
1.18416666666667e+01 1.05547319890160e-02 1.35640143245378e-04
1.20672222222222e+01 1.01573489427676e-02 1.31770801750997e-04
1.22927777777778e+01 9.77492726845698e-03 1.27989466526901e-04
1.25183333333333e+01 9.40690367425001e-03 1.24295704745487e-04
1.27438888888889e+01 9.05273607890550e-03 1.20688941797147e-04
1.29694444444444e+01 8.71190280471366e-03 1.17168475667686e-04
1.31950000000000e+01 8.38390182036976e-03 1.13733491103151e-04
1.34205555555556e+01 8.06824999086536e-03 1.10383072615866e-04
1.36461111111111e+01 7.76448237587877e-03 1.07116216072221e-04
1.38716666666667e+01 7.47215153547530e-03 1.03931839578436e-04
1.40972222222222e+01 7.19082687997369e-03 1.00828793158158e-04
1.43227777777778e+01 6.92009402727639e-03 9.78058680154430e-05
1.45483333333333e+01 6.65955419869877e-03 9.48618039809162e-05
1.47738888888889e+01 6.40882363117424e-03 9.19952980469708e-05
1.49994444444444e+01 6.16753300675764e-03 8.92050105623527e-05
1.52250000000000e+01 5.93532691550789e-03 8.64895715542150e-05
1.54505555555556e+01 5.71186332548581e-03 8.38475865251352e-05
1.56761111111111e+01 5.49681308509804e-03 8.12776415380440e-05
1.59016666666667e+01 5.28985943245885e-03 7.87783080324917e-05
1.61272222222222e+01 5.09069753431001e-03 7.63481470264487e-05
1.63527777777778e+01 4.89903403181056e-03 7.39857132053234e-05
1.65783333333333e+01 4.71458661226266e-03 7.16895579599939e-05
1.68038888888889e+01 4.53708359302583e-03 6.94582332816405e-05
1.70294444444444e+01 4.36626351809464e-03 6.72902942306930e-05
1.72550000000000e+01 4.20187477725431e-03 6.51843016052890e-05
1.74805555555556e+01 4.04367523142364e-03 6.31388243644458e-05
1.77061111111111e+01 3.89143185982660e-03 6.11524416765432e-05
1.79316666666667e+01 3.74492041312913e-03 5.92237448761757e-05
1.81572222222222e+01 3.60392508657251e-03 5.73513390954868e-05
1.83827777777778e+01 3.46823819883606e-03 5.55338448946752e-05
1.86083333333333e+01 3.33765988853851e-03 5.37698992622390e-05
1.88338888888889e+01 3.21199781969427e-03 5.20581572513047e-05
1.90594444444444e+01 3.09106689636566e-03 5.03972927237815e-05
1.92850000000000e+01 2.97468899271696e-03 4.87859992836475e-05
1.95105555555556e+01 2.86269268808645e-03 4.72229910968269e-05
1.97361111111111e+01 2.75491301691611e-03 4.57070035092270e-05
1.99616666666667e+01 2.65119122346128e-03 4.42367936470080e-05
2.01872222222222e+01 2.55137453013588e-03 4.28111408410379e-05
2.04127777777778e+01 2.45531591040097e-03 4.14288470887755e-05
2.06383333333333e+01 2.36287387373269e-03 4.00887371296303e-05
2.08638888888889e+01 2.27391225711398e-03 3.87896589809793e-05
2.10894444444444e+01 2.18830002316773e-03 3.75304839063102e-05
2.13150000000000e+01 2.10591106886291e-03 3.63101065401176e-05
2.15405555555556e+01 2.02662403813629e-03 3.51274449635875e-05
2.17661111111111e+01 1.95032214469216e-03 3.39814406708104e-05
2.19916666666667e+01 1.87689299850512e-03 3.28710585467229e-05
2.22172222222222e+01 1.80622844167681e-03 3.17952867497579e-05
2.24427777777778e+01 1.73822438778976e-03 3.07531366406783e-05
2.26683333333333e+01 1.67278066957737e-03 2.97436424709101e-05
2.28938888888889e+01 1.60980089131867e-03 2.87658614005174e-05
2.31194444444444e+01 1.54919228601118e-03 2.78188731505029e-05
2.33450000000000e+01 1.49086557983675e-03 2.69017797777678e-05
2.35705555555556e+01 1.43473485961072e-03 2.60137054322463e-05
2.37961111111111e+01 1.38071744723799e-03 2.51537960551273e-05
2.40216666666667e+01 1.32873377697725e-03 2.43212190986808e-05
2.42472222222222e+01 1.27870727915187e-03 2.35151631950132e-05
2.44727777777778e+01 1.23056426650144e-03 2.27348378683122e-05
2.46983333333333e+01 1.18423382628217e-03 2.19794730960132e-05
2.49238888888889e+01 1.13964771577469e-03 2.12483191044104e-05
2.51494444444444e+01 1.09674026121964e-03 2.05406459268481e-05
2.53750000000000e+01 1.05544826180279e-03 1.98557430550696e-05
2.56005555555556e+01 1.01571089587717e-03 1.91929190876948e-05
2.58261111111111e+01 9.77469632028018e-04 1.85515013477562e-05
2.60516666666667e+01 9.40668142236572e-04 1.79308355231453e-05
2.62772222222222e+01 9.05252219503322e-04 1.73302852804719e-05
2.65027777777778e+01 8.71169697439098e-04 1.67492319158999e-05
2.67283333333333e+01 8.38370373843199e-04 1.61870739104838e-05
2.69538888888889e+01 8.06805936731189e-04 1.56432266516996e-05
2.71794444444444e+01 7.76429892816529e-04 1.51171219999006e-05
2.74050000000000e+01 7.47197499498738e-04 1.46082079243018e-05
2.76305555555556e+01 7.19065698510517e-04 1.41159481427127e-05
2.78561111111111e+01 6.91993052922343e-04 1.36398217458015e-05
2.80816666666667e+01 6.65939685699821e-04 1.31793228420934e-05
2.83072222222222e+01 6.40867221355003e-04 1.27339601899001e-05
2.85327777777778e+01 6.16738729050334e-04 1.23032568591020e-05
2.87583333333333e+01 5.93518668475061e-04 1.18867498323259e-05
2.89838888888889e+01 5.71172837478515e-04 1.14839897237362e-05
2.92094444444444e+01 5.49668321457068e-04 1.10945403960759e-05
2.94350000000000e+01 5.28973445182085e-04 1.07179786290370e-05
2.96605555555556e+01 5.09057725848063e-04 1.03538937938081e-05
2.98861111111111e+01 4.89891828454482e-04 1.00018875206106e-05
3.01116666666667e+01 4.71447522327711e-04 9.66157338366819e-06
3.03372222222222e+01 4.53697639794729e-04 9.33257658046368e-06
3.05627777777778e+01 4.36616035921640e-04 9.01453363437411e-06
3.07883333333333e+01 4.20177550184222e-04 8.70709205876398e-06
3.10138888888889e+01 4.04357969396119e-04 8.40991010424027e-06
3.12394444444444e+01 3.89133991888673e-04 8.12265643891762e-06
3.14650000000000e+01 3.74483193393389e-04 7.84500986630114e-06
3.16905555555556e+01 3.60383993816353e-04 7.57665904973553e-06
3.19161111111111e+01 3.46815625638180e-04 7.31730223435028e-06
3.21416666666667e+01 3.33758103146224e-04 7.06664698306353e-06
3.23672222222222e+01 3.21192193166347e-04 6.82440991075911e-06
3.25927777777778e+01 3.09099386571016e-04 6.59031643641607e-06
3.28183333333333e+01 2.97461871136166e-04 6.36410051071059e-06
3.30438888888889e+01 2.86262505296995e-04 6.14550440239809e-06
3.32694444444444e+01 2.75484792796131e-04 5.93427844047560e-06
3.34950000000000e+01 2.65112858521384e-04 5.73018078377252e-06
3.37205555555556e+01 2.55131424992408e-04 5.53297719657917e-06
3.39461111111111e+01 2.45525789981622e-04 5.34244082406146e-06
3.41716666666667e+01 2.36281804739966e-04 5.15835197871809e-06
3.43972222222222e+01 2.27385853269452e-04 4.98049792695430e-06
3.46227777777778e+01 2.18824832159335e-04 4.80867268925629e-06
3.48483333333333e+01 2.10586131365284e-04 4.64267682476582e-06
3.50738888888889e+01 2.02657615630302e-04 4.48231725739818e-06
3.52994444444444e+01 1.95027606541326e-04 4.32740707271404e-06
3.55250000000000e+01 1.87684865418118e-04 4.17776533471542e-06
3.57505555555556e+01 1.80618576672470e-04 4.03321690780830e-06
3.59761111111111e+01 1.73818331960049e-04 3.89359227961443e-06
3.62016666666667e+01 1.67274114770241e-04 3.75872739230215e-06
3.64272222222222e+01 1.60976285747768e-04 3.62846347490709e-06
3.66527777777778e+01 1.54915568422131e-04 3.50264688585613e-06
3.68783333333333e+01 1.49083035597191e-04 3.38112894558741e-06
3.71038888888889e+01 1.43470096198438e-04 3.26376579853424e-06
3.73294444444444e+01 1.38068482572768e-04 3.15041825573782e-06
3.75550000000000e+01 1.32870238371250e-04 3.04095165189297e-06
3.77805555555556e+01 1.27867706771744e-04 2.93523570663044e-06
3.80061111111111e+01 1.23053519256123e-04 2.83314438704991e-06
3.82316666666667e+01 1.18420584703775e-04 2.73455577674048e-06
3.84572222222222e+01 1.13962078997278e-04 2.63935194609159e-06
3.86827777777778e+01 1.09671434922369e-04 2.54741883020272e-06
3.89083333333333e+01 1.05542332530542e-04 2.45864610052418e-06
3.91338888888889e+01 1.01568689827783e-04 2.37292705725653e-06
3.93594444444444e+01 9.77446537852386e-05 2.29015850890663e-06
3.95850000000000e+01 9.40645917586591e-05 2.21024066227594e-06
3.98105555555556e+01 9.05230831528074e-05 2.13307701582804e-06
4.00361111111111e+01 8.71149114743507e-05 2.05857425436617e-06
4.02616666666667e+01 8.38350566125946e-05 1.98664214860368e-06
4.04872222222222e+01 8.06786874790706e-05 1.91719345603471e-06
4.07127777777778e+01 7.76411548590163e-05 1.85014382743158e-06
4.09383333333333e+01 7.47179845873633e-05 1.78541170939124e-06
4.11638888888889e+01 7.19048709569766e-05 1.72291826156064e-06
4.13894444444444e+01 6.91976703557981e-05 1.66258726534079e-06
4.16150000000000e+01 6.65923951908726e-05 1.60434504011874e-06
4.18405555555556e+01 6.40852079885775e-05 1.54812036214257e-06
4.20661111111111e+01 6.16724157672329e-05 1.49384438460379e-06
4.22916666666667e+01 5.93504645735235e-05 1.44145056138247e-06
4.25172222222222e+01 5.71159342705810e-05 1.39087457196819e-06
4.27427777777778e+01 5.49655334783423e-05 1.34205425052848e-06
4.29683333333333e+01 5.28960947417207e-05 1.29492951250177e-06
4.31938888888889e+01 5.09045698640655e-05 1.24944229157282e-06
4.34194444444444e+01 4.89880254033147e-05 1.20553647099232e-06
4.36450000000000e+01 4.71436383696348e-05 1.16315782032140e-06
4.38705555555556e+01 4.53686920495886e-05 1.12225393421378e-06
4.40961111111111e+01 4.36605720214344e-05 1.08277417223843e-06
4.43216666666667e+01 4.20167622880096e-05 1.04466960142791e-06
4.45472222222222e+01 4.04348415862409e-05 1.00789293982851e-06
4.47727777777778e+01 3.89124798059156e-05 9.72398503096498e-07
4.49983333333333e+01 3.74474345684965e-05 9.38142149555081e-07
4.52238888888889e+01 3.60375479235085e-05 9.05081232596909e-07
4.54494444444444e+01 3.46807431605190e-05 8.73174549332538e-07
4.56750000000000e+01 3.33750217627195e-05 8.42382293143670e-07
4.59005555555556e+01 3.21184604512352e-05 8.12666007790422e-07
4.61261111111111e+01 3.09092083636492e-05 7.83988542378957e-07
4.63516666666667e+01 2.97454843168106e-05 7.56314008347731e-07
4.65772222222222e+01 2.86255741936948e-05 7.29607737276130e-07
4.68027777777778e+01 2.75478284085555e-05 7.03836240923365e-07
4.70283333333333e+01 2.65106594845807e-05 6.78967170319825e-07
4.72538888888889e+01 2.55125397151437e-05 6.54969280056684e-07
4.74794444444444e+01 2.45519989071545e-05 6.31812390084347e-07
4.77050000000000e+01 2.36276222239881e-05 6.09467350318824e-07
4.79305555555556e+01 2.27380480933851e-05 5.87906006423122e-07
4.81561111111111e+01 2.18819662096621e-05 5.67101166280677e-07
4.83816666666667e+01 2.10581155962642e-05 5.47026567957799e-07
4.86072222222222e+01 2.02652827554962e-05 5.27656848324161e-07
4.88327777777778e+01 1.95022998742933e-05 5.08967513302116e-07
4.90583333333333e+01 1.87680431091179e-05 4.90934907540299e-07
4.92838888888889e+01 1.80614309302723e-05 4.73536187766863e-07
4.95094444444444e+01 1.73814225245073e-05 4.56749294490366e-07
4.97350000000000e+01 1.67270162676899e-05 4.40552925718230e-07
4.99605555555556e+01 1.60972482439516e-05 4.24926511557541e-07
5.01861111111111e+01 1.54911908311421e-05 4.09850189361540e-07
5.04116666666667e+01 1.49079513294401e-05 3.95304779970838e-07
5.06372222222222e+01 1.43466706512644e-05 3.81271764471535e-07
5.08627777777778e+01 1.38065220512553e-05 3.67733262140324e-07
5.10883333333333e+01 1.32867099119353e-05 3.54672008045869e-07
5.13138888888889e+01 1.27864685715857e-05 3.42071333255507e-07
5.15394444444444e+01 1.23050611935065e-05 3.29915143946764e-07
5.17650000000000e+01 1.18417786845901e-05 3.18187901967545e-07
5.19905555555556e+01 1.13959386471163e-05 3.06874606055150e-07
5.22161111111111e+01 1.09668843771870e-05 2.95960773479256e-07
5.24416666666667e+01 1.05539838939999e-05 2.85432422487440e-07
5.26672222222222e+01 1.01566290122479e-05 2.75276055151163e-07
5.28927777777778e+01 9.77423444314317e-06 2.65478641075094e-07
5.31183333333333e+01 9.40623693464124e-06 2.56027600906092e-07
5.33438888888889e+01 9.05209444164967e-06 2.46910791687336e-07
5.35694444444444e+01 8.71128532560823e-06 2.38116491487247e-07
5.37950000000000e+01 8.38330758879471e-06 2.29633385067966e-07
5.40205555555556e+01 8.06767813235609e-06 2.21450550043472e-07
5.42461111111111e+01 7.76393204716112e-06 2.13557443363319e-07
5.44716666666667e+01 7.47162192667261e-06 2.05943888383293e-07
5.46972222222222e+01 7.19031721017145e-06 1.98600062242946e-07
5.49227777777778e+01 6.91960354641607e-06 1.91516483870067e-07
5.51483333333333e+01 6.65908218490820e-06 1.84684001872382e-07
5.53738888888889e+01 6.40836938845165e-06 1.78093783736247e-07
5.55994444444444e+01 6.16709586655297e-06 1.71737304545797e-07
5.58250000000000e+01 5.93490623328408e-06 1.65606336447658e-07
5.60505555555556e+01 5.71145848207644e-06 1.59692938478085e-07
5.62761111111111e+01 5.49642348362203e-06 1.53989446637936e-07
5.65016666666667e+01 5.28948449948586e-06 1.48488464395979e-07
5.67272222222222e+01 5.09033671708863e-06 1.43182853425321e-07
5.69527777777778e+01 4.89868679926829e-06 1.38065724794438e-07
5.71783333333333e+01 4.71425245329034e-06 1.33130430098056e-07
5.74038888888889e+01 4.53676201497537e-06 1.28370553514043e-07
5.76294444444444e+01 4.36595404761335e-06 1.23779903543661e-07
5.78550000000000e+01 4.20157695811553e-06 1.19352505286291e-07
5.80805555555556e+01 4.04338862524201e-06 1.15082592981529e-07
5.83061111111111e+01 3.89115604410261e-06 1.10964602738502e-07
5.85316666666667e+01 3.74465498186170e-06 1.06993165577205e-07
5.87572222222222e+01 3.60366964849459e-06 1.03163100645682e-07
5.89827777777778e+01 3.46799237793857e-06 9.94694087664428e-08
5.92083333333333e+01 3.33742332295013e-06 9.59072659536383e-08
5.94338888888889e+01 3.21177016069248e-06 9.24720175864523e-08
5.96594444444444e+01 3.09084780881235e-06 8.91591723738131e-08
5.98850000000000e+01 2.97447815366734e-06 8.59643967020866e-08
6.01105555555556e+01 2.86248978716068e-06 8.28835091794314e-08
6.03361111111111e+01 2.75471775504079e-06 7.99124753207320e-08
6.05616666666667e+01 2.65100331318579e-06 7.70474024594407e-08
6.07872222222222e+01 2.55119369449290e-06 7.42845347912960e-08
6.10127777777778e+01 2.45514188317520e-06 7.16202486561984e-08
6.12383333333333e+01 2.36270639872024e-06 6.90510478084711e-08
6.14638888888889e+01 2.27375108746385e-06 6.65735591522229e-08
6.16894444444444e+01 2.18814492160363e-06 6.41845283394886e-08
6.19150000000000e+01 2.10576180677949e-06 6.18808156426938e-08
6.21405555555556e+01 2.02648039578651e-06 5.96593919713958e-08
6.23661111111111e+01 1.95018391036726e-06 5.75173349940463e-08
6.25916666666667e+01 1.87675996869227e-06 5.54518254245283e-08
6.28172222222222e+01 1.80610042031455e-06 5.34601434070991e-08
6.30427777777778e+01 1.73810118640010e-06 5.15396650734427e-08
6.32683333333333e+01 1.67266210677137e-06 4.96878590976833e-08
6.34938888888889e+01 1.60968679235394e-06 4.79022835811025e-08
6.37194444444444e+01 1.54908248289955e-06 4.61805828468627e-08
6.39450000000000e+01 1.49075991075078e-06 4.45204844311498e-08
6.41705555555556e+01 1.43463316897293e-06 4.29197961799294e-08
6.43961111111111e+01 1.38061958518110e-06 4.13764034238122e-08
6.46216666666667e+01 1.32863959941758e-06 3.98882662724218e-08
6.48472222222222e+01 1.27861664729811e-06 3.84534169818867e-08
6.50727777777778e+01 1.23047704691455e-06 3.70699574465887e-08
6.52983333333333e+01 1.18414989054259e-06 3.57360566936986e-08
6.55238888888889e+01 1.13956694018293e-06 3.44499486114639e-08
6.57494444444444e+01 1.09666252684377e-06 3.32099296186555e-08
6.59750000000000e+01 1.05537345408527e-06 3.20143564746129e-08
6.62005555555556e+01 1.01563890467269e-06 3.08616441664446e-08
6.64261111111111e+01 9.77400351245189e-07 2.97502638541041e-08
6.66516666666667e+01 9.40601469867555e-07 2.86787409020337e-08
6.68772222222222e+01 9.05188057297081e-07 2.76456529649468e-08
6.71027777777778e+01 8.71107950924045e-07 2.66496281632482e-08
6.73283333333333e+01 8.38310952101766e-07 2.56893432633163e-08
6.75538888888889e+01 8.06748752196000e-07 2.47635220235350e-08
6.77794444444445e+01 7.76374861287059e-07 2.38709335019932e-08
6.80050000000000e+01 7.47144539878951e-07 2.30103904647940e-08
6.82305555555556e+01 7.19014732820653e-07 2.21807478506270e-08
6.84561111111111e+01 6.91944006059374e-07 2.13809012780894e-08
6.86816666666667e+01 6.65892485445144e-07 2.06097856156465e-08
6.89072222222222e+01 6.40821798155639e-07 1.98663735915512e-08
6.91327777777778e+01 6.16695016023187e-07 1.91496744683775e-08
6.93583333333333e+01 5.93476601253378e-07 1.84587327229724e-08
6.95838888888889e+01 5.71132354072450e-07 1.77926268439552e-08
6.98094444444445e+01 5.49629362255359e-07 1.71504681043512e-08
7.00350000000000e+01 5.28935952775856e-07 1.65313994061971e-08
7.02605555555556e+01 5.09021645030189e-07 1.59345941661133e-08
7.04861111111111e+01 4.89857106058476e-07 1.53592552323586e-08
7.07116666666667e+01 4.71414107225192e-07 1.48046138471681e-08
7.09372222222222e+01 4.53665482748050e-07 1.42699286385021e-08
7.11627777777778e+01 4.36585089579811e-07 1.37544846583378e-08
