Energy (eV)          EEDF (eV^-(3/2))     First Anisotropy
1.39622641509434e-04 1.26346873644620e+02 4.10971460025395e-02
4.18867924528302e-04 1.25528099933842e+02 6.78713505910318e-02
6.98113207547170e-04 1.24714632174626e+02 8.96198158174655e-02
9.77358490566038e-04 1.23906435982463e+02 1.06155662371445e-01
1.25660377358491e-03 1.23103477196161e+02 1.19957835571929e-01
1.53584905660377e-03 1.22305721873127e+02 1.31963046786185e-01
1.81509433962264e-03 1.21513136295746e+02 1.42655777181450e-01
2.09433962264151e-03 1.20725686961848e+02 1.52328432511403e-01
2.37358490566038e-03 1.19943340586500e+02 1.61174837755156e-01
2.65283018867925e-03 1.19166064099403e+02 1.69331911523372e-01
2.93207547169811e-03 1.18393824647143e+02 1.76900954311039e-01
3.21132075471698e-03 1.17626589587780e+02 1.83959607125271e-01
3.49056603773585e-03 1.16864326490089e+02 1.90569060232757e-01
3.76981132075472e-03 1.16107003134906e+02 1.96778642056016e-01
4.04905660377358e-03 1.15354587510838e+02 2.02628870708715e-01
4.32830188679245e-03 1.14607047813253e+02 2.08153557362182e-01
4.60754716981132e-03 1.13864352445125e+02 2.13381299646690e-01
4.88679245283019e-03 1.13126470013397e+02 2.18336569315665e-01
5.16603773584906e-03 1.12393369328459e+02 2.23040522014193e-01
5.44528301886792e-03 1.11665019402296e+02 2.27511611582068e-01
5.72452830188679e-03 1.10941389448823e+02 2.31766063869555e-01
6.00377358490566e-03 1.10222448880873e+02 2.35818247619483e-01
6.28301886792453e-03 1.09508167309048e+02 2.39680968851498e-01
6.56226415094340e-03 1.08798514541836e+02 2.43365706998319e-01
6.84150943396226e-03 1.08093460582878e+02 2.46882806457620e-01
7.12075471698113e-03 1.07392975629813e+02 2.50241633680589e-01
7.40000000000000e-03 1.06697030074232e+02 2.53450706850964e-01
7.67924528301887e-03 1.06005594499173e+02 2.56517803928771e-01
7.95849056603774e-03 1.05318639678311e+02 2.59450053423898e-01
8.23773584905660e-03 1.04636136574389e+02 2.62254011105408e-01
8.51698113207547e-03 1.03958056339002e+02 2.64935725197842e-01
8.79622641509434e-03 1.03284370310340e+02 2.67500792133824e-01
9.07547169811321e-03 1.02615050012044e+02 2.69954404661017e-01
9.35471698113207e-03 1.01950067152896e+02 2.72301393314116e-01
9.63396226415094e-03 1.01289393624703e+02 2.74546262438574e-01
9.91320754716981e-03 1.00633001501160e+02 2.76693221751674e-01
1.01924528301887e-02 9.99808630372165e+01 2.78746213910727e-01
1.04716981132075e-02 9.93329506673699e+01 2.80708938793809e-01
1.07509433962264e-02 9.86892370050206e+01 2.82584875098591e-01
1.10301886792453e-02 9.80496948433846e+01 2.84377298937890e-01
1.13094339622642e-02 9.74142971472415e+01 2.86089301002017e-01
1.15886792452830e-02 9.67830170589712e+01 2.87723801946689e-01
1.18679245283019e-02 9.61558278949889e+01 2.89283565480369e-01
1.21471698113208e-02 9.55327031446360e+01 2.90771210619691e-01
1.24264150943396e-02 9.49136164690539e+01 2.92189222713124e-01
1.27056603773585e-02 9.42985417020200e+01 2.93539962930990e-01
1.29849056603774e-02 9.36874528429286e+01 2.94825677384234e-01
1.32641509433962e-02 9.30803240616637e+01 2.96048505456187e-01
1.35433962264151e-02 9.24771296954890e+01 2.97210486767083e-01
1.38226415094340e-02 9.18778442479786e+01 2.98313567973760e-01
1.41018867924528e-02 9.12824423879331e+01 2.99359608970478e-01
1.43811320754717e-02 9.06908989499638e+01 3.00350388143049e-01
1.46603773584906e-02 9.01031889284147e+01 3.01287607674960e-01
1.49396226415094e-02 8.95192874813664e+01 3.02172898465108e-01
1.52188679245283e-02 8.89391699278766e+01 3.03007824105001e-01
1.54981132075472e-02 8.83628117469512e+01 3.03793885054737e-01
1.57773584905660e-02 8.77901885779542e+01 3.04532522007505e-01
1.60566037735849e-02 8.72212762151789e+01 3.05225119458962e-01
1.63358490566038e-02 8.66560506112626e+01 3.05873009047631e-01
1.66150943396226e-02 8.60944878746770e+01 3.06477472150697e-01
1.68943396226415e-02 8.55365642687146e+01 3.07039742675582e-01
1.71735849056604e-02 8.49822562104953e+01 3.07561009651339e-01
1.74528301886792e-02 8.44315402712276e+01 3.08042419284302e-01
1.77320754716981e-02 8.38843931713965e+01 3.08485077299603e-01
1.80113207547170e-02 8.33407917836336e+01 3.08890051154041e-01
1.82905660377358e-02 8.28007131304425e+01 3.09258371648067e-01
1.85698113207547e-02 8.22641343832268e+01 3.09591034783117e-01
1.88490566037736e-02 8.17310328613308e+01 3.09889003498017e-01
1.91283018867925e-02 8.12013860321855e+01 3.10153208967967e-01
1.94075471698113e-02 8.06751715070053e+01 3.10384552218823e-01
1.96867924528302e-02 8.01523670432196e+01 3.10583905664804e-01
1.99660377358491e-02 7.96329505423960e+01 3.10752114137787e-01
2.02452830188679e-02 7.91169000493067e+01 3.10889996177670e-01
2.05245283018868e-02 7.86041937510038e+01 3.10998345245701e-01
2.08037735849057e-02 7.80948099768749e+01 3.11077930564543e-01
2.10830188679245e-02 7.75887271947650e+01 3.11129498278710e-01
2.13622641509434e-02 7.70859240130515e+01 3.11153772567139e-01
2.16415094339623e-02 7.65863791787353e+01 3.11151456312280e-01
2.19207547169811e-02 7.60900715765443e+01 3.11123232029790e-01
2.22000000000000e-02 7.55969802280423e+01 3.11069762747151e-01
2.24792452830189e-02 7.51070842916126e+01 3.10991692554282e-01
2.27584905660377e-02 7.46203630589425e+01 3.10889647468096e-01
2.30377358490566e-02 7.41367959568019e+01 3.10764236265690e-01
2.33169811320755e-02 7.36563625452814e+01 3.10616050922730e-01
2.35962264150943e-02 7.31790425169296e+01 3.10445667304731e-01
2.38754716981132e-02 7.27048156958960e+01 3.10253645822976e-01
2.41547169811321e-02 7.22336620378564e+01 3.10040531796522e-01
2.44339622641509e-02 7.17655616268094e+01 3.09806856116590e-01
2.47132075471698e-02 7.13004946766083e+01 3.09553135889402e-01
2.49924528301887e-02 7.08384415293263e+01 3.09279874722439e-01
2.52716981132075e-02 7.03793826544277e+01 3.08987563252511e-01
2.55509433962264e-02 6.99232986479423e+01 3.08676679648689e-01
2.58301886792453e-02 6.94701702323459e+01 3.08347689848229e-01
2.61094339622641e-02 6.90199782536267e+01 3.08001048081023e-01
2.63886792452830e-02 6.85727036826093e+01 3.07637197378305e-01
2.66679245283019e-02 6.81283276134330e+01 3.07256569756411e-01
2.69471698113208e-02 6.76868312627546e+01 3.06859586629857e-01
2.72264150943396e-02 6.72481959689543e+01 3.06446659205931e-01
2.75056603773585e-02 6.68124031919794e+01 3.06018188634627e-01
2.77849056603774e-02 6.63794345106481e+01 3.05574566432246e-01
2.80641509433962e-02 6.59492716237964e+01 3.05116174893158e-01
2.83433962264151e-02 6.55218963488575e+01 3.04643387203011e-01
2.86226415094340e-02 6.50972906210950e+01 3.04156567768642e-01
2.89018867924528e-02 6.46754364928389e+01 3.03656072534066e-01
2.91811320754717e-02 6.42563161333003e+01 3.03142249070694e-01
2.94603773584906e-02 6.38399118260845e+01 3.02615436926493e-01
2.97396226415094e-02 6.34262059701874e+01 3.02075967965701e-01
3.00188679245283e-02 6.30151810786643e+01 3.01524166432897e-01
3.02981132075472e-02 6.26068197778935e+01 3.00960349272406e-01
3.05773584905660e-02 6.22011048073698e+01 3.00384826182620e-01
3.08566037735849e-02 6.17980190173771e+01 2.99797899917093e-01
3.11358490566038e-02 6.13975453698716e+01 2.99199866577553e-01
3.14150943396226e-02 6.09996669372222e+01 2.98591015648350e-01
3.16943396226415e-02 6.06043669014941e+01 2.97971630225281e-01
3.19735849056604e-02 6.02116285537398e+01 2.97341987235708e-01
3.22528301886792e-02 5.98214352937738e+01 2.96702357461315e-01
3.25320754716981e-02 5.94337706280153e+01 2.96053005793907e-01
3.28113207547170e-02 5.90486181702563e+01 2.95394191484264e-01
3.30905660377358e-02 5.86659616404770e+01 2.94726168150651e-01
3.33698113207547e-02 5.82857848641577e+01 2.94049183970200e-01
3.36490566037736e-02 5.79080717715959e+01 2.93363481863398e-01
3.39283018867925e-02 5.75328063976677e+01 2.92669299494451e-01
3.42075471698113e-02 5.71599728798215e+01 2.91966869491512e-01
3.44867924528302e-02 5.67895554587473e+01 2.91256419660774e-01
3.47660377358491e-02 5.64215384772607e+01 2.90538172976549e-01
3.50452830188679e-02 5.60559063796413e+01 2.89812347743423e-01
3.53245283018868e-02 5.56926437109760e+01 2.89079157752822e-01
3.56037735849057e-02 5.53317351169092e+01 2.88338812267439e-01
3.58830188679245e-02 5.49731653417739e+01 2.87591516213064e-01
3.61622641509434e-02 5.46169192291744e+01 2.86837470364828e-01
3.64415094339623e-02 5.42629817209335e+01 2.86076871324202e-01
3.67207547169811e-02 5.39113378564565e+01 2.85309911657984e-01
3.70000000000000e-02 5.35619727720992e+01 2.84536780032691e-01
3.72792452830189e-02 5.32148717009102e+01 2.83757661187624e-01
3.75584905660377e-02 5.28700199708865e+01 2.82972736103641e-01
3.78377358490566e-02 5.25274030054808e+01 2.82182182166784e-01
3.81169811320755e-02 5.21870063226065e+01 2.81386173136129e-01
3.83962264150943e-02 5.18488155340263e+01 2.80584879264075e-01
3.86754716981132e-02 5.15128163447444e+01 2.79778467412844e-01
3.89547169811321e-02 5.11789945527431e+01 2.78967101019510e-01
3.92339622641509e-02 5.08473360473518e+01 2.78150940245885e-01
3.95132075471698e-02 5.05178268096875e+01 2.77330142123493e-01
3.97924528301887e-02 5.01904529117147e+01 2.76504860515026e-01
4.00716981132075e-02 4.98652005156566e+01 2.75675246219436e-01
4.03509433962264e-02 4.95420558734102e+01 2.74841447073763e-01
4.06301886792453e-02 4.92210053262806e+01 2.74003607912671e-01
4.09094339622641e-02 4.89020353034521e+01 2.73161870702549e-01
4.11886792452830e-02 4.85851323223718e+01 2.72316374670949e-01
4.14679245283019e-02 4.82702829878580e+01 2.71467256263682e-01
4.17471698113208e-02 4.79574739915350e+01 2.70614649237310e-01
4.20264150943396e-02 4.76466921112703e+01 2.69758684749008e-01
4.23056603773585e-02 4.73379242109067e+01 2.68899491312362e-01
4.25849056603774e-02 4.70311572388285e+01 2.68037194918051e-01
4.28641509433962e-02 4.67263782282937e+01 2.67171919150276e-01
4.31433962264151e-02 4.64235742965891e+01 2.66303785141008e-01
4.34226415094340e-02 4.61227326444865e+01 2.65432911652024e-01
4.37018867924528e-02 4.58238405557012e+01 2.64559415154660e-01
4.39811320754717e-02 4.55268853966240e+01 2.63683409783277e-01
4.42603773584906e-02 4.52318546149747e+01 2.62805007444587e-01
4.45396226415094e-02 4.49387357400885e+01 2.61924317922841e-01
4.48188679245283e-02 4.46475163821146e+01 2.61041448832497e-01
4.50981132075472e-02 4.43581842314935e+01 2.60156505721179e-01
4.53773584905660e-02 4.40707270586881e+01 2.59269592022014e-01
4.56566037735849e-02 4.37851327129062e+01 2.58380809154640e-01
4.59358490566038e-02 4.35013891223520e+01 2.57490256622246e-01
4.62150943396226e-02 4.32194842934591e+01 2.56598031963474e-01
4.64943396226415e-02 4.29394063103838e+01 2.55704230819319e-01
4.67735849056604e-02 4.26611433345015e+01 2.54808946998323e-01
4.70528301886792e-02 4.23846836041401e+01 2.53912272428164e-01
4.73320754716981e-02 4.21100154333770e+01 2.53014297247982e-01
4.76113207547170e-02 4.18371272122553e+01 2.52115109896836e-01
4.78905660377358e-02 4.15660074060546e+01 2.51214797065399e-01
4.81698113207547e-02 4.12966445548033e+01 2.50313443756215e-01
4.84490566037736e-02 4.10290272727951e+01 2.49411133342507e-01
4.87283018867924e-02 4.07631442483244e+01 2.48507947519694e-01
4.90075471698113e-02 4.04989842425527e+01 2.47603966390098e-01
4.92867924528302e-02 4.02365360896927e+01 2.46699268543916e-01
4.95660377358491e-02 3.99757886963156e+01 2.45793931011146e-01
4.98452830188679e-02 3.97167310408818e+01 2.44888029316181e-01
5.01245283018868e-02 3.94593521732754e+01 2.43981637531058e-01
5.04037735849057e-02 3.92036412145434e+01 2.43074828227339e-01
5.06830188679245e-02 3.89495873558261e+01 2.42167672554112e-01
5.09622641509434e-02 3.86971798585133e+01 2.41260240312372e-01
5.12415094339623e-02 3.84464080535847e+01 2.40352599907583e-01
5.15207547169811e-02 3.81972613411593e+01 2.39444818399276e-01
5.18000000000000e-02 3.79497291900471e+01 2.38536961549491e-01
5.20792452830189e-02 3.77038011374922e+01 2.37629093775387e-01
5.23584905660377e-02 3.74594667881630e+01 2.36721278221262e-01
5.26377358490566e-02 3.72167158142836e+01 2.35813576827106e-01
5.29169811320755e-02 3.69755379550054e+01 2.34906050282021e-01
5.31962264150943e-02 3.67359230159743e+01 2.33998758069479e-01
5.34754716981132e-02 3.64978608688990e+01 2.33091758511605e-01
5.37547169811321e-02 3.62613414512986e+01 2.32185108722667e-01
5.40339622641509e-02 3.60263547655485e+01 2.31278864675811e-01
5.43132075471698e-02 3.57928908789892e+01 2.30373081266352e-01
5.45924528301887e-02 3.55609399233287e+01 2.29467812266341e-01
5.48716981132075e-02 3.53304920942247e+01 2.28563110366015e-01
5.51509433962264e-02 3.51015376508709e+01 2.27659027214278e-01
5.54301886792453e-02 3.48740669157484e+01 2.26755613373344e-01
5.57094339622641e-02 3.46480702737235e+01 2.25852918380694e-01
5.59886792452830e-02 3.44235381721373e+01 2.24950990807770e-01
5.62679245283019e-02 3.42004611202354e+01 2.24049878215675e-01
5.65471698113207e-02 3.39788296887670e+01 2.23149627193226e-01
5.68264150943396e-02 3.37586345095863e+01 2.22250283394218e-01
5.71056603773585e-02 3.35398662754090e+01 2.21351891493290e-01
5.73849056603774e-02 3.33225157389588e+01 2.20454495243517e-01
5.76641509433962e-02 3.31065737130393e+01 2.19558137530931e-01
5.79433962264151e-02 3.28920310699902e+01 2.18662860331553e-01
5.82226415094340e-02 3.26788787413017e+01 2.17768704746423e-01
5.85018867924528e-02 3.24671077172317e+01 2.16875711035937e-01
5.87811320754717e-02 3.22567090465667e+01 2.15983918576997e-01
5.90603773584906e-02 3.20476738358138e+01 2.15093365916736e-01
5.93396226415094e-02 3.18399932492574e+01 2.14204090823255e-01
5.96188679245283e-02 3.16336585084401e+01 2.13316130244001e-01
5.98981132075472e-02 3.14286608917924e+01 2.12429520356487e-01
6.01773584905660e-02 3.12249917343983e+01 2.11544296526586e-01
6.04566037735849e-02 3.10226424272230e+01 2.10660493359256e-01
6.07358490566038e-02 3.08216044171575e+01 2.09778144746363e-01
6.10150943396226e-02 3.06218692065198e+01 2.08897283826222e-01
6.12943396226415e-02 3.04234283526960e+01 2.08017943013923e-01
6.15735849056604e-02 3.02262734677835e+01 2.07140154031069e-01
6.18528301886792e-02 3.00303962183624e+01 2.06263947865491e-01
6.21320754716981e-02 2.98357883247629e+01 2.05389354818661e-01
6.24113207547170e-02 2.96424415610981e+01 2.04516404550317e-01
6.26905660377358e-02 2.94503477547875e+01 2.03645126039482e-01
6.29698113207547e-02 2.92594987862120e+01 2.02775547612519e-01
6.32490566037736e-02 2.90698865883705e+01 2.01907696970700e-01
6.35283018867925e-02 2.88815031466572e+01 2.01041601151347e-01
6.38075471698113e-02 2.86943404981665e+01 2.00177286572235e-01
6.40867924528302e-02 2.85083907317148e+01 1.99314779073320e-01
6.43660377358490e-02 2.83236459873853e+01 1.98454103879140e-01
6.46452830188679e-02 2.81400984561967e+01 1.97595285624873e-01
6.49245283018868e-02 2.79577403797727e+01 1.96738348381965e-01
6.52037735849057e-02 2.77765640501246e+01 1.95883315620663e-01
6.54830188679245e-02 2.75965618089920e+01 1.95030210251655e-01
6.57622641509434e-02 2.74177260478547e+01 1.94179054665139e-01
6.60415094339623e-02 2.72400492074982e+01 1.93329870694625e-01
6.63207547169811e-02 2.70635237776945e+01 1.92482679641168e-01
6.66000000000000e-02 2.68881422968847e+01 1.91637502297206e-01
6.68792452830189e-02 2.67138973519671e+01 1.90794358910513e-01
6.71584905660377e-02 2.65407815776714e+01 1.89953269223291e-01
6.74377358490566e-02 2.63687876565614e+01 1.89114252508742e-01
6.77169811320755e-02 2.61979083186208e+01 1.88277327536309e-01
6.79962264150943e-02 2.60281363409452e+01 1.87442512594252e-01
6.82754716981132e-02 2.58594645474377e+01 1.86609825511829e-01
6.85547169811321e-02 2.56918858086021e+01 1.85779283624622e-01
6.88339622641509e-02 2.55253930409487e+01 1.84950903811291e-01
6.91132075471698e-02 2.53599792069895e+01 1.84124702527930e-01
6.93924528301887e-02 2.51956373148417e+01 1.83300695774610e-01
6.96716981132075e-02 2.50323604179329e+01 1.82478899116452e-01
6.99509433962264e-02 2.48701416147066e+01 1.81659327704349e-01
7.02301886792453e-02 2.47089740484225e+01 1.80841996241600e-01
7.05094339622641e-02 2.45488509065908e+01 1.80026919018525e-01
7.07886792452830e-02 2.43897654209615e+01 1.79214109944723e-01
7.10679245283019e-02 2.42317108671450e+01 1.78403582516949e-01
7.13471698113207e-02 2.40746805643284e+01 1.77595349838782e-01
7.16264150943396e-02 2.39186678749929e+01 1.76789424639990e-01
7.19056603773585e-02 2.37636662047189e+01 1.75985819244514e-01
7.21849056603774e-02 2.36096690016488e+01 1.75184545603031e-01
7.24641509433962e-02 2.34566697564700e+01 1.74385615323276e-01
7.27433962264151e-02 2.33046620020524e+01 1.73589039639251e-01
7.30226415094340e-02 2.31536393131755e+01 1.72794829429594e-01
7.33018867924528e-02 2.30035953062565e+01 1.72002995235702e-01
7.35811320754717e-02 2.28545236391610e+01 1.71213547230983e-01
7.38603773584906e-02 2.27064180106922e+01 1.70426495251547e-01
7.41396226415094e-02 2.25592721605685e+01 1.69641848824754e-01
7.44188679245283e-02 2.24130798690773e+01 1.68859617139676e-01
7.46981132075472e-02 2.22678349568120e+01 1.68079809075970e-01
7.49773584905660e-02 2.21235312844872e+01 1.67302433174145e-01
7.52566037735849e-02 2.19801627524488e+01 1.66527497664836e-01
7.55358490566038e-02 2.18377233006477e+01 1.65755010495942e-01
7.58150943396226e-02 2.16962069083062e+01 1.64984979304055e-01
7.60943396226415e-02 2.15556075936633e+01 1.64217411430782e-01
7.63735849056604e-02 2.14159194137222e+01 1.63452313938838e-01
7.66528301886792e-02 2.12771364640707e+01 1.62689693583555e-01
7.69320754716981e-02 2.11392528784148e+01 1.61929556840439e-01
7.72113207547170e-02 2.10022628285488e+01 1.61171909930776e-01
7.74905660377358e-02 2.08661605240360e+01 1.60416758794268e-01
7.77698113207547e-02 2.07309402119635e+01 1.59664109104316e-01
7.80490566037736e-02 2.05965961766998e+01 1.58913966283129e-01
7.83283018867924e-02 2.04631227397203e+01 1.58166335474382e-01
7.86075471698113e-02 2.03305142591633e+01 1.57421221569267e-01
7.88867924528302e-02 2.01987651297965e+01 1.56678629230643e-01
7.91660377358491e-02 2.00678697827119e+01 1.55938562866795e-01
7.94452830188679e-02 1.99378226850898e+01 1.55201026645776e-01
7.97245283018868e-02 1.98086183399654e+01 1.54466024509599e-01
8.00037735849057e-02 1.96802512860597e+01 1.53733560148040e-01
8.02830188679245e-02 1.95527160973569e+01 1.53003637023258e-01
8.05622641509434e-02 1.94260073830681e+01 1.52276258392557e-01
8.08415094339623e-02 1.93001197873385e+01 1.51551427283258e-01
8.11207547169811e-02 1.91750479890214e+01 1.50829146506192e-01
8.14000000000000e-02 1.90507867014527e+01 1.50109418669007e-01
8.16792452830189e-02 1.89273306722884e+01 1.49392246151088e-01
8.19584905660377e-02 1.88046746831005e+01 1.48677631126807e-01
8.22377358490566e-02 1.86828135493391e+01 1.47965575587028e-01
8.25169811320755e-02 1.85617421200520e+01 1.47256081315047e-01
8.27962264150943e-02 1.84414552776671e+01 1.46549149899283e-01
8.30754716981132e-02 1.83219479377759e+01 1.45844782745774e-01
8.33547169811321e-02 1.82032150489756e+01 1.45142981054132e-01
8.36339622641509e-02 1.80852515924843e+01 1.44443745839570e-01
8.39132075471698e-02 1.79680525821009e+01 1.43747077953201e-01
8.41924528301887e-02 1.78516130639366e+01 1.43052978059015e-01
8.44716981132075e-02 1.77359281162057e+01 1.42361446645785e-01
8.47509433962264e-02 1.76209928490175e+01 1.41672484038854e-01
8.50301886792453e-02 1.75068024042228e+01 1.40986090377089e-01
8.53094339622641e-02 1.73933519550478e+01 1.40302265633733e-01
8.55886792452830e-02 1.72806367060518e+01 1.39621009635597e-01
8.58679245283019e-02 1.71686518928704e+01 1.38942322040999e-01
8.61471698113207e-02 1.70573927820139e+01 1.38266202350984e-01
8.64264150943396e-02 1.69468546706673e+01 1.37592649920408e-01
8.67056603773585e-02 1.68370328865420e+01 1.36921663935883e-01
8.69849056603774e-02 1.67279227875263e+01 1.36253243435523e-01
8.72641509433962e-02 1.66195197616420e+01 1.35587387327079e-01
8.75433962264151e-02 1.65118192267981e+01 1.34924094366815e-01
8.78226415094340e-02 1.64048166305971e+01 1.34263363170094e-01
8.81018867924528e-02 1.62985074501428e+01 1.33605192221812e-01
