Energy (eV)          EEDF (eV^-(3/2))     First Anisotropy
1.44642857142857e-02 1.11063397270024e-01 5.56757461658036e-05
4.33928571428571e-02 1.10379162878319e-01 9.19624423620786e-05
7.23214285714286e-02 1.09699143885705e-01 1.21469638723119e-04
1.01250000000000e-01 1.09023314324202e-01 1.43928415636608e-04
1.30178571428571e-01 1.08351648381216e-01 1.62694056763610e-04
1.59107142857143e-01 1.07684120410214e-01 1.79033824330911e-04
1.88035714285714e-01 1.07020704913134e-01 1.93602876628655e-04
2.16964285714286e-01 1.06361376558325e-01 2.06796460713379e-04
2.45892857142857e-01 1.05706110165145e-01 2.18876460735876e-04
2.74821428571429e-01 1.05054880706257e-01 2.30027793790837e-04
3.03750000000000e-01 1.04407663313561e-01 2.40387215058817e-04
3.32678571428571e-01 1.03764433267519e-01 2.50059495706577e-04
3.61607142857143e-01 1.03125166005131e-01 2.59127173086348e-04
3.90535714285714e-01 1.02489837110788e-01 2.67656756807378e-04
4.19464285714286e-01 1.01858422322940e-01 2.75702854811795e-04
4.48392857142857e-01 1.01230897527558e-01 2.83311017447300e-04
4.77321428571429e-01 1.00607238757981e-01 2.90519755196435e-04
5.06250000000000e-01 9.99874221978983e-02 2.97362009398984e-04
5.35178571428571e-01 9.93714241751640e-02 3.03866246232051e-04
5.64107142857143e-01 9.87592211658982e-02 3.10057286588823e-04
5.93035714285714e-01 9.81507897888345e-02 3.15956946194293e-04
6.21964285714286e-01 9.75461068089512e-02 3.21584536460525e-04
6.50892857142857e-01 9.69451491332147e-02 3.26957262377410e-04
6.79821428571429e-01 9.63478938100311e-02 3.32090540620745e-04
7.08750000000000e-01 9.57543180309988e-02 3.36998258732557e-04
7.37678571428571e-01 9.51643991265080e-02 3.41692986870832e-04
7.66607142857143e-01 9.45781145682687e-02 3.46186152851045e-04
7.95535714285714e-01 9.39954419651849e-02 3.50488188002320e-04
8.24464285714286e-01 9.34163590656448e-02 3.54608649432186e-04
8.53392857142857e-01 9.28408437543221e-02 3.58556323892302e-04
8.82321428571429e-01 9.22688740515153e-02 3.62339315084220e-04
9.11250000000000e-01 9.17004281142497e-02 3.65965119323901e-04
9.40178571428571e-01 9.11354842328453e-02 3.69440690166222e-04
9.69107142857143e-01 9.05740208326043e-02 3.72772494341373e-04
9.98035714285714e-01 9.00160164705483e-02 3.75966560380063e-04
1.02696428571429e+00 8.94614498369644e-02 3.79028520836978e-04
1.05589285714286e+00 8.89102997533372e-02 3.81963649931979e-04
1.08482142857143e+00 8.83625451710914e-02 3.84776895959152e-04
1.11375000000000e+00 8.78181651713307e-02 3.87472910931543e-04
1.14267857142857e+00 8.72771389592949e-02 3.90056073716897e-04
1.17160714285714e+00 8.67394458779965e-02 3.92530514525089e-04
1.20053571428571e+00 8.62050653927885e-02 3.94900136927118e-04
1.22946428571429e+00 8.56739770955362e-02 3.97168633415744e-04
1.25839285714286e+00 8.51461607038165e-02 3.99339502578310e-04
1.28732142857143e+00 8.46215960601871e-02 4.01416063764422e-04
1.31625000000000e+00 8.41002631313931e-02 4.03401471068336e-04
1.34517857142857e+00 8.35821420037493e-02 4.05298723040933e-04
1.37410714285714e+00 8.30672128940826e-02 4.07110675054332e-04
1.40303571428571e+00 8.25554561371202e-02 4.08840050668689e-04
1.43196428571429e+00 8.20468521887443e-02 4.10489448308837e-04
1.46089285714286e+00 8.15413816252308e-02 4.12061350217313e-04
1.48982142857143e+00 8.10390251425379e-02 4.13558129937852e-04
1.51875000000000e+00 8.05397635555532e-02 4.14982059838701e-04
1.54767857142857e+00 8.00435777941575e-02 4.16335315393041e-04
1.57660714285714e+00 7.95504489122155e-02 4.17619982312442e-04
1.60553571428571e+00 7.90603580770181e-02 4.18838063220240e-04
1.63446428571429e+00 7.85732865718810e-02 4.19991480515272e-04
1.66339285714286e+00 7.80892157954192e-02 4.21082081590933e-04
1.69232142857143e+00 7.76081272608592e-02 4.22111643030790e-04
1.72125000000000e+00 7.71300025953211e-02 4.23081875097369e-04
1.75017857142857e+00 7.66548235364067e-02 4.23994423531153e-04
1.77910714285714e+00 7.61825719397188e-02 4.24850874116318e-04
1.80803571428571e+00 7.57132297698615e-02 4.25652757013089e-04
1.83696428571429e+00 7.52467791025513e-02 4.26401547820668e-04
1.86589285714286e+00 7.47832021239245e-02 4.27098670899922e-04
1.89482142857143e+00 7.43224811298740e-02 4.27745501901433e-04
1.92375000000000e+00 7.38645985253639e-02 4.28343370673412e-04
1.95267857142857e+00 7.34095368214336e-02 4.28893561835997e-04
1.98160714285714e+00 7.29572786415721e-02 4.29397317953190e-04
2.01053571428571e+00 7.25078067139401e-02 4.29855842577706e-04
2.03946428571429e+00 7.20611038731060e-02 4.30270300408309e-04
2.06839285714286e+00 7.16171530593849e-02 4.30641819561161e-04
2.09732142857143e+00 7.11759373181995e-02 4.30971493182192e-04
2.12625000000000e+00 7.07374397994263e-02 4.31260381461297e-04
2.15517857142857e+00 7.03016437547361e-02 4.31509511571497e-04
2.18410714285714e+00 6.98685325430585e-02 4.31719880019877e-04
2.21303571428571e+00 6.94380896237832e-02 4.31892454925391e-04
2.24196428571429e+00 6.90102985582030e-02 4.32028175704113e-04
2.27089285714286e+00 6.85851430088810e-02 4.32127954714805e-04
2.29982142857143e+00 6.81626067390372e-02 4.32192678335733e-04
2.32875000000000e+00 6.77426736119225e-02 4.32223208438385e-04
2.35767857142857e+00 6.73253275884395e-02 4.32220381989161e-04
2.38660714285714e+00 6.69105527318680e-02 4.32185012882337e-04
2.41553571428571e+00 6.64983332018687e-02 4.32117893729407e-04
2.44446428571429e+00 6.60886532556912e-02 4.32019795296295e-04
2.47339285714286e+00 6.56814972475686e-02 4.31891467753307e-04
2.50232142857143e+00 6.52768496281285e-02 4.31733641422241e-04
2.53125000000000e+00 6.48746949437946e-02 4.31547027904172e-04
2.56017857142857e+00 6.44750178346418e-02 4.31332319502863e-04
2.58910714285714e+00 6.40778030385144e-02 4.31090190711146e-04
2.61803571428571e+00 6.36830353856967e-02 4.30821299670648e-04
2.64696428571429e+00 6.32906997999305e-02 4.30526287482841e-04
2.67589285714286e+00 6.29007812978355e-02 4.30205779195844e-04
2.70482142857143e+00 6.25132649883443e-02 4.29860384339463e-04
2.73375000000000e+00 6.21281360721298e-02 4.29490697820691e-04
2.76267857142857e+00 6.17453798396610e-02 4.29097299257220e-04
2.79160714285714e+00 6.13649816748132e-02 4.28680754220151e-04
2.82053571428571e+00 6.09869270501027e-02 4.28241615460415e-04
2.84946428571429e+00 6.06112015275461e-02 4.27780422161774e-04
2.87839285714286e+00 6.02377907581063e-02 4.27297700744694e-04
2.90732142857143e+00 5.98666804811504e-02 4.26793965260087e-04
2.93625000000000e+00 5.94978565239020e-02 4.26269718121902e-04
2.96517857142857e+00 5.91313047996692e-02 4.25725449401903e-04
2.99410714285714e+00 5.87670113110280e-02 4.25161637893359e-04
3.02303571428571e+00 5.84049621455362e-02 4.24578752164781e-04
3.05196428571429e+00 5.80451434764629e-02 4.23977249794475e-04
3.08089285714286e+00 5.76875415622583e-02 4.23357578042353e-04
3.10982142857143e+00 5.73321427460336e-02 4.22720174146512e-04
3.13875000000000e+00 5.69789334550365e-02 4.22065465937266e-04
3.16767857142857e+00 5.66279001990310e-02 4.21393871122844e-04
3.19660714285714e+00 5.62790295731154e-02 4.20705798216788e-04
3.22553571428571e+00 5.59323082538503e-02 4.20001647459413e-04
3.25446428571429e+00 5.55877229998791e-02 4.19281810056824e-04
3.28339285714286e+00 5.52452606514201e-02 4.18546668753965e-04
3.31232142857143e+00 5.49049081297678e-02 4.17796598062593e-04
3.34125000000000e+00 5.45666524367918e-02 4.17031964786222e-04
3.37017857142857e+00 5.42304806534476e-02 4.16253127314467e-04
3.39910714285714e+00 5.38963799422830e-02 4.15460436443133e-04
3.42803571428571e+00 5.35643375439252e-02 4.14654236191015e-04
3.45696428571429e+00 5.32343407776090e-02 4.13834863056974e-04
3.48589285714286e+00 5.29063770406905e-02 4.13002646516808e-04
3.51482142857143e+00 5.25804338081699e-02 4.12157909201630e-04
3.54375000000000e+00 5.22564986322105e-02 4.11300967354047e-04
3.57267857142857e+00 5.19345591407678e-02 4.10432130141342e-04
3.60160714285714e+00 5.16146030398252e-02 4.09551700388816e-04
3.63053571428571e+00 5.12966181101958e-02 4.08659975311760e-04
3.65946428571429e+00 5.09805922079723e-02 4.07757245798057e-04
3.68839285714286e+00 5.06665132640616e-02 4.06843796844998e-04
3.71732142857143e+00 5.03543692837271e-02 4.05919907701085e-04
3.74625000000000e+00 5.00441483461287e-02 4.04985852267412e-04
3.77517857142857e+00 4.97358386030557e-02 4.04041898435829e-04
3.80410714285714e+00 4.94294282809283e-02 4.03088308750569e-04
3.83303571428571e+00 4.91249056778760e-02 4.02125341069622e-04
3.86196428571429e+00 4.88222591641205e-02 4.01153247877266e-04
3.89089285714286e+00 4.85214771815309e-02 4.00172276672200e-04
3.91982142857143e+00 4.82225482431842e-02 3.99182670081682e-04
3.94875000000000e+00 4.79254609329259e-02 3.98184666218801e-04
3.97767857142857e+00 4.76302039041955e-02 3.97178498048531e-04
4.00660714285714e+00 4.73367658818230e-02 3.96164393988952e-04
4.03553571428571e+00 4.70451356593528e-02 3.95142578513033e-04
4.06446428571429e+00 4.67553020993695e-02 3.94113271492774e-04
4.09339285714286e+00 4.64672541330720e-02 3.93076688547432e-04
4.12232142857143e+00 4.61809807598520e-02 3.92033041136494e-04
4.15125000000000e+00 4.58964710468736e-02 3.90982536880292e-04
4.18017857142857e+00 4.56137141279831e-02 3.89925378955508e-04
4.20910714285714e+00 4.53326992053252e-02 3.88861766644640e-04
4.23803571428571e+00 4.50534155468851e-02 3.87791895886666e-04
4.26696428571429e+00 4.47758524867653e-02 3.86715958653407e-04
4.29589285714286e+00 4.44999994247777e-02 3.85634143264026e-04
4.32482142857143e+00 4.42258458260403e-02 3.84546634461789e-04
4.35375000000000e+00 4.39533812205738e-02 3.83453613704011e-04
4.38267857142857e+00 4.36825952022879e-02 3.82355258587024e-04
4.41160714285714e+00 4.34134774304388e-02 3.81251743350859e-04
4.44053571428571e+00 4.31460176273664e-02 3.80143239385406e-04
4.46946428571429e+00 4.28802055787290e-02 3.79029914638750e-04
4.49839285714286e+00 4.26160311331119e-02 3.77911933903050e-04
4.52732142857143e+00 4.23534842016420e-02 3.76789458878441e-04
4.55625000000000e+00 4.20925547576010e-02 3.75662648436742e-04
4.58517857142857e+00 4.18332328354810e-02 3.74531658075749e-04
4.61410714285714e+00 4.15755085323010e-02 3.73396640384565e-04
4.64303571428571e+00 4.13193720055199e-02 3.72257745510577e-04
4.67196428571429e+00 4.10648134732341e-02 3.71115120598876e-04
4.70089285714286e+00 4.08118232138034e-02 3.69968910053600e-04
4.72982142857143e+00 4.05603915654808e-02 3.68819255591565e-04
4.75875000000000e+00 4.03105089260433e-02 3.67666296483278e-04
4.78767857142857e+00 4.00621657519091e-02 3.66510169035865e-04
4.81660714285714e+00 3.98153525593301e-02 3.65351007023405e-04
4.84553571428571e+00 3.95700599224630e-02 3.64188942119175e-04
4.87446428571429e+00 3.93262784735345e-02 3.63024103365153e-04
4.90339285714286e+00 3.90839989024834e-02 3.61856617411852e-04
4.93232142857143e+00 3.88432119566064e-02 3.60686608563661e-04
4.96125000000000e+00 3.86039084402034e-02 3.59514199000157e-04
4.99017857142857e+00 3.83660792137537e-02 3.58339508286555e-04
5.01910714285714e+00 3.81297151949962e-02 3.57162653772794e-04
5.04803571428571e+00 3.78948073571433e-02 3.55983750994699e-04
5.07696428571429e+00 3.76613467290196e-02 3.54802913172334e-04
5.10589285714286e+00 3.74293243947183e-02 3.53620251430767e-04
5.13482142857143e+00 3.71987314932616e-02 3.52435874838810e-04
5.16375000000000e+00 3.69695592182626e-02 3.51249890612981e-04
5.19267857142857e+00 3.67417988171522e-02 3.50062403654208e-04
5.22160714285714e+00 3.65154415921612e-02 3.48873516918892e-04
5.25053571428571e+00 3.62904788986636e-02 3.47683331792021e-04
5.27946428571429e+00 3.60669021452910e-02 3.46491947612918e-04
5.30839285714286e+00 3.58447027936037e-02 3.45299461879330e-04
5.33732142857143e+00 3.56238723577659e-02 3.44105970280560e-04
5.36625000000000e+00 3.54044024042209e-02 3.42911566886013e-04
5.39517857142857e+00 3.51862845509676e-02 3.41716343707002e-04
5.42410714285714e+00 3.49695104684526e-02 3.40520391042410e-04
5.45303571428571e+00 3.47540718780322e-02 3.39323797826430e-04
5.48196428571429e+00 3.45399605520652e-02 3.38126651180384e-04
5.51089285714286e+00 3.43271683135986e-02 3.36929036601744e-04
5.53982142857143e+00 3.41156870360563e-02 3.35731037992673e-04
5.56875000000000e+00 3.39055086429277e-02 3.34532737834880e-04
5.59767857142857e+00 3.36966251070892e-02 3.33334216775218e-04
5.62660714285714e+00 3.34890284516162e-02 3.32135553948207e-04
5.65553571428571e+00 3.32827107483527e-02 3.30936827300715e-04
5.68446428571429e+00 3.30776641179862e-02 3.29738113168383e-04
5.71339285714286e+00 3.28738807297462e-02 3.28539486451185e-04
5.74232142857143e+00 3.26713528011063e-02 3.27341020638214e-04
5.77125000000000e+00 3.24700725974862e-02 3.26142787970034e-04
5.80017857142857e+00 3.22700324316140e-02 3.24944859046857e-04
5.82910714285714e+00 3.20712246642664e-02 3.23747303130044e-04
5.85803571428571e+00 3.18736417029368e-02 3.22550188445644e-04
5.88696428571429e+00 3.16772760018942e-02 3.21353581784106e-04
5.91589285714286e+00 3.14821200618947e-02 3.20157548663653e-04
5.94482142857143e+00 3.12881664298958e-02 3.18962153351837e-04
5.97375000000000e+00 3.10954076987712e-02 3.17767459016722e-04
6.00267857142857e+00 3.09038365067113e-02 3.16573527356366e-04
6.03160714285714e+00 3.07134455378985e-02 3.15380418880999e-04
6.06053571428571e+00 3.05242275212656e-02 3.14188193197239e-04
6.08946428571429e+00 3.03361752305402e-02 3.12996908629710e-04
6.11839285714286e+00 3.01492814839694e-02 3.11806622373422e-04
6.14732142857143e+00 2.99635391440454e-02 3.10617390512625e-04
6.17625000000000e+00 2.97789411172328e-02 3.09429268161701e-04
6.20517857142857e+00 2.95954803534042e-02 3.08242309114872e-04
6.23410714285714e+00 2.94131498464572e-02 3.07056566110625e-04
6.26303571428571e+00 2.92319426331550e-02 3.05872091098083e-04
6.29196428571429e+00 2.90518517931595e-02 3.04688934879377e-04
6.32089285714286e+00 2.88728704487672e-02 3.03507147251924e-04
6.34982142857143e+00 2.86949917646464e-02 3.02326777024964e-04
6.37875000000000e+00 2.85182089475764e-02 3.01147872151153e-04
6.40767857142857e+00 2.83425152459154e-02 2.99970479395322e-04
6.43660714285714e+00 2.81679039501650e-02 2.98794644582499e-04
6.46553571428571e+00 2.79943683918863e-02 2.97620412847826e-04
6.49446428571429e+00 2.78219019437236e-02 2.96447828298535e-04
6.52339285714286e+00 2.76504980191502e-02 2.95276934146934e-04
6.55232142857143e+00 2.74801500722176e-02 2.94107772724991e-04
6.58125000000000e+00 2.73108515973054e-02 2.92940385607416e-04
6.61017857142857e+00 2.71425961286199e-02 2.91774813298350e-04
6.63910714285714e+00 2.69753772407102e-02 2.90611095464265e-04
6.66803571428571e+00 2.68091885474551e-02 2.89449271168691e-04
6.69696428571429e+00 2.66440237020770e-02 2.88289378552595e-04
6.72589285714286e+00 2.64798763968988e-02 2.87131454958878e-04
6.75482142857143e+00 2.63167403631039e-02 2.85975536945264e-04
6.78375000000000e+00 2.61546093704961e-02 2.84821660399551e-04
6.81267857142857e+00 2.59934772270272e-02 2.83669860243269e-04
6.84160714285714e+00 2.58333377792692e-02 2.82520170650544e-04
6.87053571428571e+00 2.56741849114662e-02 2.81372625268693e-04
6.89946428571429e+00 2.55160125455401e-02 2.80227256915972e-04
6.92839285714286e+00 2.53588146408578e-02 2.79084097698320e-04
6.95732142857143e+00 2.52025851940018e-02 2.77943179020720e-04
6.98625000000000e+00 2.50473182385399e-02 2.76804531695258e-04
7.01517857142857e+00 2.48930078445793e-02 2.75668185660791e-04
7.04410714285714e+00 2.47396481191989e-02 2.74534170188712e-04
7.07303571428571e+00 2.45872332055618e-02 2.73402514090508e-04
7.10196428571429e+00 2.44357572829137e-02 2.72273245431882e-04
7.13089285714286e+00 2.42852145663602e-02 2.71146391642253e-04
7.15982142857143e+00 2.41355993066465e-02 2.70021979524860e-04
7.18875000000000e+00 2.39869057899374e-02 2.68900035358140e-04
7.21767857142857e+00 2.38391283373963e-02 2.67780584630461e-04
7.24660714285714e+00 2.36922613055809e-02 2.66663652233840e-04
7.27553571428571e+00 2.35462990856117e-02 2.65549262659281e-04
7.30446428571429e+00 2.34012361031638e-02 2.64437439726282e-04
7.33339285714286e+00 2.32570668182543e-02 2.63328206685681e-04
7.36232142857143e+00 2.31137857250310e-02 2.62221586228699e-04
7.39125000000000e+00 2.29713873515618e-02 2.61117600582123e-04
7.42017857142857e+00 2.28298662594366e-02 2.60016271257222e-04
7.44910714285714e+00 2.26892170441309e-02 2.58917619232219e-04
7.47803571428571e+00 2.25494343342243e-02 2.57821665136242e-04
7.50696428571429e+00 2.24105127913889e-02 2.56728428993438e-04
7.53589285714286e+00 2.22724471101846e-02 2.55637930319604e-04
7.56482142857143e+00 2.21352320178569e-02 2.54550188130196e-04
7.59375000000000e+00 2.19988622741355e-02 2.53465221029860e-04
7.62267857142857e+00 2.18633326708576e-02 2.52383046974764e-04
7.65160714285714e+00 2.17286380323017e-02 2.51303683444475e-04
7.68053571428571e+00 2.15947732144541e-02 2.50227147615403e-04
7.70946428571429e+00 2.14617331049920e-02 2.49153456118588e-04
7.73839285714286e+00 2.13295126230886e-02 2.48082625130533e-04
7.76732142857143e+00 2.11981067192185e-02 2.47014670380475e-04
7.79625000000000e+00 2.10675103749657e-02 2.45949607234509e-04
7.82517857142857e+00 2.09377186026663e-02 2.44887450470547e-04
7.85410714285714e+00 2.08087264457156e-02 2.43828214440474e-04
7.88303571428571e+00 2.06805289778788e-02 2.42771913233648e-04
7.91196428571429e+00 2.05531213032704e-02 2.41718560447577e-04
7.94089285714286e+00 2.04264985561671e-02 2.40668169273454e-04
7.96982142857143e+00 2.03006559008224e-02 2.39620752502636e-04
7.99875000000000e+00 2.01755885312816e-02 2.38576322605845e-04
8.02767857142857e+00 2.00512916710445e-02 2.37534891520077e-04
8.05660714285714e+00 1.99277605733468e-02 2.36496470801520e-04
8.08553571428571e+00 1.98049905205128e-02 2.35461071779861e-04
8.11446428571429e+00 1.96829768239309e-02 2.34428705341124e-04
8.14339285714286e+00 1.95617148238750e-02 2.33399382008222e-04
8.17232142857143e+00 1.94411998893264e-02 2.32373111946781e-04
8.20125000000000e+00 1.93214274177971e-02 2.31349905039708e-04
8.23017857142857e+00 1.92023928350102e-02 2.30329770685382e-04
8.25910714285714e+00 1.90840915951587e-02 2.29312717941990e-04
8.28803571428571e+00 1.89665191802958e-02 2.28298755673141e-04
8.31696428571429e+00 1.88496711003090e-02 2.27287892342217e-04
8.34589285714286e+00 1.87335428927479e-02 2.26280136088283e-04
8.37482142857143e+00 1.86181301226544e-02 2.25275494731308e-04
8.40375000000000e+00 1.85034283823931e-02 2.24273975842458e-04
8.43267857142857e+00 1.83894332913488e-02 2.23275586552877e-04
8.46160714285714e+00 1.82761404961639e-02 2.22280333689997e-04
8.49053571428571e+00 1.81635456701653e-02 2.21288223915039e-04
8.51946428571429e+00 1.80516445133354e-02 2.20299263528189e-04
8.54839285714286e+00 1.79404327521477e-02 2.19313458540197e-04
8.57732142857143e+00 1.78299061394044e-02 2.18330814677046e-04
8.60625000000000e+00 1.77200604540731e-02 2.17351337446240e-04
8.63517857142857e+00 1.76108915010011e-02 2.16375031955656e-04
8.66410714285714e+00 1.75023951111331e-02 2.15401903042236e-04
8.69303571428572e+00 1.73945671409715e-02 2.14431955401882e-04
8.72196428571429e+00 1.72874034725459e-02 2.13465193404935e-04
8.75089285714286e+00 1.71809000132555e-02 2.12501621163671e-04
8.77982142857143e+00 1.70750526957133e-02 2.11541242536508e-04
8.80875000000000e+00 1.69698574775901e-02 2.10584061190529e-04
8.83767857142857e+00 1.68653103413436e-02 2.09630080429816e-04
8.86660714285714e+00 1.67614072944182e-02 2.08679303317056e-04
8.89553571428571e+00 1.66581443687371e-02 2.07731732796314e-04
8.92446428571429e+00 1.65555176206698e-02 2.06787371518175e-04
8.95339285714286e+00 1.64535231308812e-02 2.05846221903393e-04
8.98232142857143e+00 1.63521570041828e-02 2.04908286146705e-04
9.01125000000000e+00 1.62514153693831e-02 2.03973566275896e-04
9.04017857142857e+00 1.61512943790303e-02 2.03042063988975e-04
9.06910714285714e+00 1.60517902095965e-02 2.02113780769199e-04
9.09803571428571e+00 1.59528990609990e-02 2.01188718001139e-04
9.12696428571429e+00 1.58546171565661e-02 2.00266876804904e-04
