Energy (eV)          EEDF (eV^-(3/2))     First Anisotropy
2.87000000000000e-02 4.70077041449538e-02 2.49464934039826e-05
8.61000000000000e-02 4.66838107610585e-02 4.11903079168812e-05
1.43500000000000e-01 4.63621490735045e-02 5.43667532916778e-05
2.00900000000000e-01 4.60427037054597e-02 6.43714541399088e-05
2.58300000000000e-01 4.57254593860056e-02 7.27109101020652e-05
3.15700000000000e-01 4.54104009494380e-02 7.99547183620455e-05
3.73100000000000e-01 4.50975133345461e-02 8.63976503967504e-05
4.30500000000000e-01 4.47867815838934e-02 9.22177124580691e-05
4.87900000000000e-01 4.44781908431032e-02 9.75329629136491e-05
5.45300000000000e-01 4.41717263601486e-02 1.02426843946895e-04
6.02700000000000e-01 4.38673734846472e-02 1.06961124466941e-04
6.60100000000000e-01 4.35651176671611e-02 1.11183172419991e-04
7.17500000000000e-01 4.32649444585010e-02 1.15130339355833e-04
7.74900000000000e-01 4.29668395090356e-02 1.18832752243127e-04
8.32300000000000e-01 4.26707885680059e-02 1.22315170407382e-04
8.89700000000000e-01 4.23767774828437e-02 1.25598265602485e-04
9.47100000000000e-01 4.20847921984949e-02 1.28699531175312e-04
1.00450000000000e+00 4.17948187567480e-02 1.31633944377031e-04
1.06190000000000e+00 4.15068432955666e-02 1.34414459484652e-04
1.11930000000000e+00 4.12208520484266e-02 1.37052381985420e-04
1.17670000000000e+00 4.09368313436586e-02 1.39557657282135e-04
1.23410000000000e+00 4.06547676037937e-02 1.41939096758392e-04
1.29150000000000e+00 4.03746473449148e-02 1.44204557140947e-04
1.34890000000000e+00 4.00964571760120e-02 1.46361084500215e-04
1.40630000000000e+00 3.98201837983423e-02 1.48415031101687e-04
1.46370000000000e+00 3.95458140047941e-02 1.50372151150418e-04
1.52110000000000e+00 3.92733346792556e-02 1.52237679937754e-04
1.57850000000000e+00 3.90027327959878e-02 1.54016399799437e-04
1.63590000000000e+00 3.87339954190022e-02 1.55712695493523e-04
1.69330000000000e+00 3.84671097014417e-02 1.57330601015567e-04
1.75070000000000e+00 3.82020628849670e-02 1.58873839427512e-04
1.80810000000000e+00 3.79388422991468e-02 1.60345856943426e-04
1.86550000000000e+00 3.76774353608515e-02 1.61749852260826e-04
1.92290000000000e+00 3.74178295736522e-02 1.63088801930593e-04
1.98030000000000e+00 3.71600125272231e-02 1.64365482405941e-04
2.03770000000000e+00 3.69039718967483e-02 1.65582489291512e-04
2.09510000000000e+00 3.66496954423325e-02 1.66742254219338e-04
2.15250000000000e+00 3.63971710084160e-02 1.67847059703150e-04
2.20990000000000e+00 3.61463865231936e-02 1.68899052262381e-04
2.26730000000000e+00 3.58973299980375e-02 1.69900254058629e-04
2.32470000000000e+00 3.56499895269241e-02 1.70852573247717e-04
2.38210000000000e+00 3.54043532858650e-02 1.71757813218561e-04
2.43950000000000e+00 3.51604095323415e-02 1.72617680863375e-04
2.49690000000000e+00 3.49181466047437e-02 1.73433794002037e-04
2.55430000000000e+00 3.46775529218125e-02 1.74207688065370e-04
2.61170000000000e+00 3.44386169820863e-02 1.74940822126882e-04
2.66910000000000e+00 3.42013273633512e-02 1.75634584360083e-04
2.72650000000000e+00 3.39656727220946e-02 1.76290296987738e-04
2.78390000000000e+00 3.37316417929635e-02 1.76909220780522e-04
2.84130000000000e+00 3.34992233882254e-02 1.77492559154960e-04
2.89870000000000e+00 3.32684063972338e-02 1.78041461914171e-04
2.95610000000000e+00 3.30391797858971e-02 1.78557028669229e-04
3.01350000000000e+00 3.28115325961509e-02 1.79040311974431e-04
3.07090000000000e+00 3.25854539454342e-02 1.79492320205771e-04
3.12830000000000e+00 3.23609330261694e-02 1.79914020208183e-04
3.18570000000000e+00 3.21379591052454e-02 1.80306339734242e-04
3.24310000000000e+00 3.19165215235046e-02 1.80670169694551e-04
3.30050000000000e+00 3.16966096952333e-02 1.81006366237557e-04
3.35790000000000e+00 3.14782131076557e-02 1.81315752674539e-04
3.41530000000000e+00 3.12613213204313e-02 1.81599121264074e-04
3.47270000000000e+00 3.10459239651558e-02 1.81857234868501e-04
3.53010000000000e+00 3.08320107448658e-02 1.82090828493591e-04
3.58750000000000e+00 3.06195714335457e-02 1.82300610721651e-04
3.64490000000000e+00 3.04085958756398e-02 1.82487265047088e-04
3.70230000000000e+00 3.01990739855663e-02 1.82651451122605e-04
3.75970000000000e+00 2.99909957472352e-02 1.82793805923405e-04
3.81710000000000e+00 2.97843512135695e-02 1.82914944836066e-04
3.87450000000000e+00 2.95791305060301e-02 1.83015462678094e-04
3.93190000000000e+00 2.93753238141427e-02 1.83095934653568e-04
3.98930000000000e+00 2.91729213950296e-02 1.83156917249901e-04
4.04670000000000e+00 2.89719135729437e-02 1.83198949080149e-04
4.10410000000000e+00 2.87722907388057e-02 1.83222551674957e-04
4.16150000000000e+00 2.85740433497452e-02 1.83228230227915e-04
4.21890000000000e+00 2.83771619286442e-02 1.83216474297676e-04
4.27630000000000e+00 2.81816370636841e-02 1.83187758470003e-04
4.33370000000000e+00 2.79874594078956e-02 1.83142542982487e-04
4.39110000000000e+00 2.77946196787124e-02 1.83081274314647e-04
4.44850000000000e+00 2.76031086575270e-02 1.83004385745765e-04
4.50590000000000e+00 2.74129171892499e-02 1.82912297882586e-04
4.56330000000000e+00 2.72240361818726e-02 1.82805419159057e-04
4.62070000000000e+00 2.70364566060321e-02 1.82684146309791e-04
4.67810000000000e+00 2.68501694945800e-02 1.82548864819028e-04
4.73550000000000e+00 2.66651659421534e-02 1.82399949346773e-04
4.79290000000000e+00 2.64814371047492e-02 1.82237764133395e-04
4.85030000000000e+00 2.62989741993015e-02 1.82062663384130e-04
4.90770000000000e+00 2.61177685032619e-02 1.81874991634796e-04
4.96510000000000e+00 2.59378113541819e-02 1.81675084099752e-04
5.02250000000000e+00 2.57590941492992e-02 1.81463267003225e-04
5.07990000000000e+00 2.55816083451268e-02 1.81239857895017e-04
5.13730000000000e+00 2.54053454570437e-02 1.81005165951497e-04
5.19470000000000e+00 2.52302970588901e-02 1.80759492262745e-04
5.25210000000000e+00 2.50564547825641e-02 1.80503130106601e-04
5.30950000000000e+00 2.48838103176222e-02 1.80236365210493e-04
5.36690000000000e+00 2.47123554108812e-02 1.79959476001548e-04
5.42430000000000e+00 2.45420818660246e-02 1.79672733845802e-04
5.48170000000000e+00 2.43729815432100e-02 1.79376403277017e-04
5.53910000000000e+00 2.42050463586803e-02 1.79070742215681e-04
5.59650000000000e+00 2.40382682843776e-02 1.78756002178781e-04
5.65390000000000e+00 2.38726393475587e-02 1.78432428480739e-04
5.71130000000000e+00 2.37081516304144e-02 1.78100260426044e-04
5.76870000000000e+00 2.35447972696912e-02 1.77759731494043e-04
5.82610000000000e+00 2.33825684563149e-02 1.77411069516205e-04
5.88350000000000e+00 2.32214574350176e-02 1.77054496846307e-04
5.94090000000000e+00 2.30614565039668e-02 1.76690230523887e-04
5.99830000000000e+00 2.29025580143976e-02 1.76318482431248e-04
6.05570000000000e+00 2.27447543702464e-02 1.75939459444417e-04
6.11310000000000e+00 2.25880380277884e-02 1.75553363578329e-04
6.17050000000000e+00 2.24324014952766e-02 1.75160392126472e-04
6.22790000000000e+00 2.22778373325839e-02 1.74760737795251e-04
6.28530000000000e+00 2.21243381508471e-02 1.74354588833450e-04
6.34270000000000e+00 2.19718966121141e-02 1.73942129156857e-04
6.40010000000000e+00 2.18205054289928e-02 1.73523538468332e-04
6.45750000000000e+00 2.16701573643027e-02 1.73098992373602e-04
6.51490000000000e+00 2.15208452307294e-02 1.72668662492908e-04
6.57230000000000e+00 2.13725618904803e-02 1.72232716568669e-04
6.62970000000000e+00 2.12253002549440e-02 1.71791318569409e-04
6.68710000000000e+00 2.10790532843512e-02 1.71344628790049e-04
6.74450000000000e+00 2.09338139874379e-02 1.70892803948749e-04
6.80190000000000e+00 2.07895754211116e-02 1.70435997280498e-04
6.85930000000000e+00 2.06463306901193e-02 1.69974358627521e-04
6.91670000000000e+00 2.05040729467178e-02 1.69508034526641e-04
6.97410000000000e+00 2.03627953903462e-02 1.69037168293774e-04
7.03150000000000e+00 2.02224912673010e-02 1.68561900105663e-04
7.08890000000000e+00 2.00831538704133e-02 1.68082367078923e-04
7.14630000000000e+00 1.99447765387280e-02 1.67598703346533e-04
7.20370000000000e+00 1.98073526571854e-02 1.67111040131939e-04
7.26110000000000e+00 1.96708756563051e-02 1.66619505820768e-04
7.31850000000000e+00 1.95353390118718e-02 1.66124226030281e-04
7.37590000000000e+00 1.94007362446236e-02 1.65625323676681e-04
7.43330000000000e+00 1.92670609199418e-02 1.65122919040342e-04
7.49070000000000e+00 1.91343066475440e-02 1.64617129829046e-04
7.54810000000000e+00 1.90024670811780e-02 1.64108071239288e-04
7.60550000000000e+00 1.88715359183189e-02 1.63595856015762e-04
7.66290000000000e+00 1.87415068998674e-02 1.63080594509022e-04
7.72030000000000e+00 1.86123738098508e-02 1.62562394731481e-04
7.77770000000000e+00 1.84841304751257e-02 1.62041362411746e-04
7.83510000000000e+00 1.83567707650834e-02 1.61517601047368e-04
7.89250000000000e+00 1.82302885913560e-02 1.60991211956081e-04
7.94990000000000e+00 1.81046779075260e-02 1.60462294325548e-04
8.00730000000000e+00 1.79799327088370e-02 1.59930945261708e-04
8.06470000000000e+00 1.78560470319067e-02 1.59397259835731e-04
8.12210000000000e+00 1.77330149544419e-02 1.58861331129686e-04
8.17950000000000e+00 1.76108305949550e-02 1.58323250280962e-04
8.23690000000000e+00 1.74894881124835e-02 1.57783106525386e-04
8.29430000000000e+00 1.73689817063103e-02 1.57240987239201e-04
8.35170000000000e+00 1.72493056156863e-02 1.56696977979937e-04
8.40910000000000e+00 1.71304541195555e-02 1.56151162526102e-04
8.46650000000000e+00 1.70124215362810e-02 1.55603622915851e-04
8.52390000000000e+00 1.68952022233739e-02 1.55054439484642e-04
8.58130000000000e+00 1.67787905772231e-02 1.54503690901856e-04
8.63870000000000e+00 1.66631810328276e-02 1.53951454206486e-04
8.69610000000000e+00 1.65483680635305e-02 1.53397804841872e-04
8.75350000000000e+00 1.64343461807548e-02 1.52842816689547e-04
8.81090000000000e+00 1.63211099337410e-02 1.52286562102199e-04
8.86830000000000e+00 1.62086539092865e-02 1.51729111935818e-04
8.92570000000000e+00 1.60969727314868e-02 1.51170535581000e-04
8.98310000000000e+00 1.59860610614788e-02 1.50610900993481e-04
9.04050000000000e+00 1.58759135971851e-02 1.50050274723882e-04
9.09790000000000e+00 1.57665250730607e-02 1.49488721946718e-04
9.15530000000000e+00 1.56578902598418e-02 1.48926306488739e-04
9.21270000000000e+00 1.55500039642948e-02 1.48363090856501e-04
9.27010000000000e+00 1.54428610289690e-02 1.47799136263276e-04
9.32750000000000e+00 1.53364563319495e-02 1.47234502655355e-04
9.38490000000000e+00 1.52307847866126e-02 1.46669248737674e-04
9.44230000000000e+00 1.51258413413826e-02 1.46103431998852e-04
9.49970000000000e+00 1.50216209794902e-02 1.45537108735605e-04
9.55710000000000e+00 1.49181187187326e-02 1.44970334076594e-04
9.61450000000000e+00 1.48153296112356e-02 1.44403162005717e-04
9.67190000000000e+00 1.47132487432171e-02 1.43835645384847e-04
9.72930000000000e+00 1.46118712347517e-02 1.43267835976031e-04
9.78670000000000e+00 1.45111922395380e-02 1.42699784463214e-04
9.84410000000000e+00 1.44112069446666e-02 1.42131540473415e-04
9.90150000000000e+00 1.43119105703902e-02 1.41563152597419e-04
9.95890000000000e+00 1.42132983698948e-02 1.40994668410056e-04
1.00163000000000e+01 1.41153656290730e-02 1.40426134489949e-04
1.00737000000000e+01 1.40181076662990e-02 1.39857596438861e-04
1.01311000000000e+01 1.39215198322040e-02 1.39289098900594e-04
1.01885000000000e+01 1.38255975094545e-02 1.38720685579456e-04
1.02459000000000e+01 1.37303361125316e-02 1.38152399258356e-04
1.03033000000000e+01 1.36357310875114e-02 1.37584281816454e-04
1.03607000000000e+01 1.35417779118476e-02 1.37016374246441e-04
1.04181000000000e+01 1.34484720941554e-02 1.36448716671470e-04
1.04755000000000e+01 1.33558091739965e-02 1.35881348361670e-04
1.05329000000000e+01 1.32637847216659e-02 1.35314307750322e-04
1.05903000000000e+01 1.31723943379803e-02 1.34747632449703e-04
1.06477000000000e+01 1.30816336540679e-02 1.34181359266587e-04
1.07051000000000e+01 1.29914983311592e-02 1.33615524217396e-04
1.07625000000000e+01 1.29019840603798e-02 1.33050162543038e-04
1.08199000000000e+01 1.28130865625444e-02 1.32485308723444e-04
1.08773000000000e+01 1.27248015879524e-02 1.31920996491780e-04
1.09347000000000e+01 1.26371249161842e-02 1.31357258848389e-04
1.09921000000000e+01 1.25500523559001e-02 1.30794128074424e-04
1.10495000000000e+01 1.24635797446396e-02 1.30231635745195e-04
1.11069000000000e+01 1.23777029486224e-02 1.29669812743237e-04
1.11643000000000e+01 1.22924178625510e-02 1.29108689271124e-04
1.12217000000000e+01 1.22077204094140e-02 1.28548294864032e-04
1.12791000000000e+01 1.21236065402919e-02 1.27988658402012e-04
1.13365000000000e+01 1.20400722341628e-02 1.27429808122048e-04
1.13939000000000e+01 1.19571134977107e-02 1.26871771629854e-04
1.14513000000000e+01 1.18747263651344e-02 1.26314575911412e-04
1.15087000000000e+01 1.17929068979579e-02 1.25758247344333e-04
1.15661000000000e+01 1.17116511848422e-02 1.25202811708947e-04
1.16235000000000e+01 1.16309553413982e-02 1.24648294199190e-04
1.16809000000000e+01 1.15508155100012e-02 1.24094719433277e-04
1.17383000000000e+01 1.14712278596064e-02 1.23542111464155e-04
1.17957000000000e+01 1.13921885855656e-02 1.22990493789768e-04
1.18531000000000e+01 1.13136939094456e-02 1.22439889363084e-04
1.19105000000000e+01 1.12357400788473e-02 1.21890320601977e-04
1.19679000000000e+01 1.11583233672265e-02 1.21341809398883e-04
1.20253000000000e+01 1.10814400737158e-02 1.20794377130284e-04
1.20827000000000e+01 1.10050865229475e-02 1.20248044666009e-04
1.21401000000000e+01 1.09292590648780e-02 1.19702832378340e-04
1.21975000000000e+01 1.08539540746133e-02 1.19158760150955e-04
1.22549000000000e+01 1.07791679522358e-02 1.18615847387716e-04
1.23123000000000e+01 1.07048971226319e-02 1.18074113021269e-04
1.23697000000000e+01 1.06311380353215e-02 1.17533575521488e-04
1.24271000000000e+01 1.05578871642880e-02 1.16994252903752e-04
1.24845000000000e+01 1.04851410078100e-02 1.16456162737084e-04
1.25419000000000e+01 1.04128960882935e-02 1.15919322152137e-04
1.25993000000000e+01 1.03411489521060e-02 1.15383747849002e-04
1.26567000000000e+01 1.02698961694113e-02 1.14849456104897e-04
1.27141000000000e+01 1.01991343340054e-02 1.14316462781711e-04
1.27715000000000e+01 1.01288600631540e-02 1.13784783333413e-04
1.28289000000000e+01 1.00590699974303e-02 1.13254432813298e-04
1.28863000000000e+01 9.98976080055507e-03 1.12725425881132e-04
1.29437000000000e+01 9.92092915923641e-03 1.12197776810148e-04
1.30011000000000e+01 9.85257178301190e-03 1.11671499493912e-04
1.30585000000000e+01 9.78468540409109e-03 1.11146607453082e-04
1.31159000000000e+01 9.71726677719935e-03 1.10623113842018e-04
1.31733000000000e+01 9.65031267942267e-03 1.10101031455300e-04
1.32307000000000e+01 9.58381991005365e-03 1.09580372734115e-04
1.32881000000000e+01 9.51778529043845e-03 1.09061149772522e-04
1.33455000000000e+01 9.45220566382485e-03 1.08543374323616e-04
1.34029000000000e+01 9.38707789521135e-03 1.08027057805573e-04
1.34603000000000e+01 9.32239887119731e-03 1.07512211307601e-04
1.35177000000000e+01 9.25816549983409e-03 1.06998845595770e-04
1.35751000000000e+01 9.19437471047724e-03 1.06486971118745e-04
1.36325000000000e+01 9.13102345363975e-03 1.05976598013417e-04
1.36899000000000e+01 9.06810870084623e-03 1.05467736110434e-04
1.37473000000000e+01 9.00562744448815e-03 1.04960394939638e-04
1.38047000000000e+01 8.94357669768006e-03 1.04454583735393e-04
1.38621000000000e+01 8.88195349411681e-03 1.03950311441844e-04
1.39195000000000e+01 8.82075488793175e-03 1.03447586718064e-04
1.39769000000000e+01 8.75997795355588e-03 1.02946417943111e-04
1.40343000000000e+01 8.69961978557801e-03 1.02446813221013e-04
1.40917000000000e+01 8.63967749860589e-03 1.01948780385652e-04
1.41491000000000e+01 8.58014822712824e-03 1.01452327005564e-04
1.42065000000000e+01 8.52102912537778e-03 1.00957460388664e-04
1.42639000000000e+01 8.46231736719521e-03 1.00464187586884e-04
1.43213000000000e+01 8.40401014589406e-03 9.99725154007413e-05
1.43787000000000e+01 8.34610467412655e-03 9.94824503838094e-05
1.44361000000000e+01 8.28859818375036e-03 9.89939988471159e-05
1.44935000000000e+01 8.23148792569624e-03 9.85071668634807e-05
1.45509000000000e+01 8.17477116983668e-03 9.80219602717801e-05
1.46083000000000e+01 8.11844520485530e-03 9.75383846811229e-05
1.46657000000000e+01 8.06250733811730e-03 9.70564454749453e-05
1.47231000000000e+01 8.00695489554073e-03 9.65761478150711e-05
1.47805000000000e+01 7.95178522146865e-03 9.60974966456848e-05
1.48379000000000e+01 7.89699567854217e-03 9.56204966972330e-05
1.48953000000000e+01 7.84258364757438e-03 9.51451524902572e-05
1.49527000000000e+01 7.78854652742516e-03 9.46714683391767e-05
1.50101000000000e+01 7.73488173487680e-03 9.41994483560113e-05
1.50675000000000e+01 7.68158670451051e-03 9.37290964540095e-05
1.51249000000000e+01 7.62865888858384e-03 9.32604163512490e-05
1.51823000000000e+01 7.57609575690882e-03 9.27934115741681e-05
1.52397000000000e+01 7.52389479673101e-03 9.23280854610289e-05
1.52971000000000e+01 7.47205351260944e-03 9.18644411653258e-05
1.53545000000000e+01 7.42056942629724e-03 9.14024816591504e-05
1.54119000000000e+01 7.36944007662323e-03 9.09422097364852e-05
1.54693000000000e+01 7.31866301937422e-03 9.04836280164482e-05
1.55267000000000e+01 7.26823582717819e-03 9.00267389464834e-05
1.55841000000000e+01 7.21815608938826e-03 8.95715448054941e-05
1.56415000000000e+01 7.16842141196740e-03 8.91180477069340e-05
1.56989000000000e+01 7.11902941737406e-03 8.86662496018506e-05
1.57563000000000e+01 7.06997774444845e-03 8.82161522818550e-05
1.58137000000000e+01 7.02126404829970e-03 8.77677573820597e-05
1.58711000000000e+01 6.97288600019373e-03 8.73210663839783e-05
1.59285000000000e+01 6.92484128744196e-03 8.68760806183481e-05
1.59859000000000e+01 6.87712761329076e-03 8.64328012679322e-05
1.60433000000000e+01 6.82974269681162e-03 8.59912293702769e-05
1.61007000000000e+01 6.78268427279212e-03 8.55513658204081e-05
1.61581000000000e+01 6.73595009162767e-03 8.51132113734796e-05
1.62155000000000e+01 6.68953791921392e-03 8.46767666474015e-05
1.62729000000000e+01 6.64344553684000e-03 8.42420321254021e-05
1.63303000000000e+01 6.59767074108247e-03 8.38090081585645e-05
1.63877000000000e+01 6.55221134369992e-03 8.33776949683283e-05
1.64451000000000e+01 6.50706517152844e-03 8.29480926489125e-05
1.65025000000000e+01 6.46223006637766e-03 8.25202011697445e-05
1.65599000000000e+01 6.41770388492765e-03 8.20940203778277e-05
1.66173000000000e+01 6.37348449862639e-03 8.16695500000681e-05
1.66747000000000e+01 6.32956979358807e-03 8.12467896455708e-05
1.67321000000000e+01 6.28595767049202e-03 8.08257388078998e-05
1.67895000000000e+01 6.24264604448235e-03 8.04063968672962e-05
1.68469000000000e+01 6.19963284506825e-03 7.99887630928567e-05
1.69043000000000e+01 6.15691601602510e-03 7.95728366447008e-05
1.69617000000000e+01 6.11449351529608e-03 7.91586165760655e-05
1.70191000000000e+01 6.07236331489459e-03 7.87461018353967e-05
1.70765000000000e+01 6.03052340080732e-03 7.83352912683957e-05
1.71339000000000e+01 5.98897177289794e-03 7.79261836200243e-05
1.71913000000000e+01 5.94770644481151e-03 7.75187775365028e-05
1.72487000000000e+01 5.90672544387950e-03 7.71130715672535e-05
1.73061000000000e+01 5.86602681102550e-03 7.67090641668129e-05
1.73635000000000e+01 5.82560860067156e-03 7.63067536967219e-05
1.74209000000000e+01 5.78546888064521e-03 7.59061384273881e-05
1.74783000000000e+01 5.74560573208706e-03 7.55072165399142e-05
1.75357000000000e+01 5.70601724935906e-03 7.51099861278922e-05
1.75931000000000e+01 5.66670153995346e-03 7.47144451991724e-05
1.76505000000000e+01 5.62765672440227e-03 7.43205916776054e-05
1.77079000000000e+01 5.58888093618748e-03 7.39284234047594e-05
1.77653000000000e+01 5.55037232165177e-03 7.35379381416016e-05
1.78227000000000e+01 5.51212903990994e-03 7.31491335701580e-05
1.78801000000000e+01 5.47414926276089e-03 7.27620072951522e-05
1.79375000000000e+01 5.43643117460022e-03 7.23765568456059e-05
1.79949000000000e+01 5.39897297233345e-03 7.19927796764175e-05
1.80523000000000e+01 5.36177286528982e-03 7.16106731699211e-05
1.81097000000000e+01 5.32482907513667e-03 7.12302346374191e-05
