Energy (eV)          EEDF (eV^-(3/2))     First Anisotropy
3.40625000000000e-02 2.00366165905512e-01 1.86437787235480e-04
1.02187500000000e-01 1.96068697102624e-01 3.05587582096900e-04
1.70312500000000e-01 1.91863400738277e-01 3.97430028485599e-04
2.38437500000000e-01 1.87748299890977e-01 4.63668097361327e-04
3.06562500000000e-01 1.83721460040400e-01 5.16059873973671e-04
3.74687500000000e-01 1.79780988157956e-01 5.59153728431338e-04
4.42812500000000e-01 1.75925031816881e-01 5.95354547309459e-04
5.10937500000000e-01 1.72151778321400e-01 6.26144693128268e-04
5.79062500000000e-01 1.68459453854574e-01 6.52526859167675e-04
6.47187500000000e-01 1.64846322644427e-01 6.75223240851683e-04
7.15312500000000e-01 1.61310686147952e-01 6.94778173875930e-04
7.83437500000000e-01 1.57850882252622e-01 7.11616295449224e-04
8.51562500000000e-01 1.54465284495024e-01 7.26077909004181e-04
9.19687500000000e-01 1.51152301296260e-01 7.38441694876375e-04
9.87812500000000e-01 1.47910375213735e-01 7.48939946374849e-04
1.05593750000000e+00 1.44737982209003e-01 7.57769164379301e-04
1.12406250000000e+00 1.41633630931310e-01 7.65097648658786e-04
1.19218750000000e+00 1.38595862016506e-01 7.71071077639570e-04
1.26031250000000e+00 1.35623247400995e-01 7.75816700635135e-04
1.32843750000000e+00 1.32714389650400e-01 7.79446548352552e-04
1.39656250000000e+00 1.29867921302619e-01 7.82059933232717e-04
1.46468750000000e+00 1.27082504224986e-01 7.83745425935613e-04
1.53281250000000e+00 1.24356828985202e-01 7.84582438643187e-04
1.60093750000000e+00 1.21689614235775e-01 7.84642508643068e-04
1.66906250000000e+00 1.19079606111651e-01 7.83990350225938e-04
1.73718750000000e+00 1.16525577640768e-01 7.82684725208056e-04
1.80531250000000e+00 1.14026328167256e-01 7.80779169822291e-04
1.87343750000000e+00 1.11580682787002e-01 7.78322606664318e-04
1.94156250000000e+00 1.09187491795328e-01 7.75359863759402e-04
2.00968750000000e+00 1.06845630146507e-01 7.71932117908986e-04
2.07781250000000e+00 1.04553996924881e-01 7.68077275796870e-04
2.14593750000000e+00 1.02311514827314e-01 7.63830303543699e-04
2.21406250000000e+00 1.00117129656749e-01 7.59223513259123e-04
2.28218750000000e+00 9.79698098266295e-02 7.54286813485464e-04
2.35031250000000e+00 9.58685458759445e-02 7.49047929133526e-04
2.41843750000000e+00 9.38123499946806e-02 7.43532595493151e-04
2.48656250000000e+00 9.18002555594489e-02 7.37764730092727e-04
2.55468750000000e+00 8.98313166790724e-02 7.31766585535338e-04
2.62281250000000e+00 8.79046077499202e-02 7.25558885919041e-04
2.69093750000000e+00 8.60192230207788e-02 7.19160949026729e-04
2.75906250000000e+00 8.41742761670556e-02 7.12590796127085e-04
2.82718750000000e+00 8.23688998741155e-02 7.05865250945960e-04
2.89531250000000e+00 8.06022454295540e-02 6.99000029134620e-04
2.96343750000000e+00 7.88734823242146e-02 6.92009819368428e-04
3.03156250000000e+00 7.71817978617648e-02 6.84908357048670e-04
3.09968750000000e+00 7.55263967766449e-02 6.77708491445563e-04
3.16781250000000e+00 7.39065008602117e-02 6.70422247007212e-04
3.23593750000000e+00 7.23213485949000e-02 6.63060879463699e-04
3.30406250000000e+00 7.07701947962317e-02 6.55634927274384e-04
3.37218750000000e+00 6.92523102625020e-02 6.48154258897342e-04
3.44031250000000e+00 6.77669814319800e-02 6.40628116300974e-04
3.50843750000000e+00 6.63135100474611e-02 6.33065155087018e-04
3.57656250000000e+00 6.48912128280145e-02 6.25473481550807e-04
3.64468750000000e+00 6.34994211477711e-02 6.17860686966974e-04
3.71281250000000e+00 6.21374807216000e-02 6.10233879356081e-04
3.78093750000000e+00 6.08047512975281e-02 6.02599712959511e-04
3.84906250000000e+00 5.95006063557551e-02 5.94964415625152e-04
3.91718750000000e+00 5.82244328141253e-02 5.87333814284979e-04
3.98531250000000e+00 5.69756307399159e-02 5.79713358686691e-04
4.05343750000000e+00 5.57536130678066e-02 5.72108143524910e-04
4.12156250000000e+00 5.45578053238992e-02 5.64522929102873e-04
4.18968750000000e+00 5.33876453556553e-02 5.56962160642736e-04
4.25781250000000e+00 5.22425830676268e-02 5.49429986351081e-04
4.32593750000000e+00 5.11220801628551e-02 5.41930274336106e-04
4.39406250000000e+00 5.00256098898156e-02 5.34466628464001e-04
4.46218750000000e+00 4.89526567947905e-02 5.27042403233987e-04
4.53031250000000e+00 4.79027164795528e-02 5.19660717744332e-04
4.59843750000000e+00 4.68752953642470e-02 5.12324468815274e-04
4.66656250000000e+00 4.58699104553561e-02 5.05036343329003e-04
4.73468750000000e+00 4.48860891186448e-02 4.97798829841695e-04
4.80281250000000e+00 4.39233688569729e-02 4.90614229518076e-04
4.87093750000000e+00 4.29812970928741e-02 4.83484666434644e-04
4.93906250000000e+00 4.20594309557982e-02 4.76412097293994e-04
5.00718750000000e+00 4.11573370739162e-02 4.69398320589323e-04
5.07531250000000e+00 4.02745913703913e-02 4.62444985255051e-04
5.14343750000000e+00 3.94107788640189e-02 4.55553598836667e-04
5.21156250000000e+00 3.85654934741429e-02 4.48725535210443e-04
5.27968750000000e+00 3.77383378297562e-02 4.41962041881288e-04
5.34781250000000e+00 3.69289230826952e-02 4.35264246884930e-04
5.41593750000000e+00 3.61368687248415e-02 4.28633165318677e-04
5.48406250000000e+00 3.53618024092437e-02 4.22069705523322e-04
5.55218750000000e+00 3.46033597750763e-02 4.15574674936952e-04
5.62031250000000e+00 3.38611842763526e-02 4.09148785640190e-04
5.68843750000000e+00 3.31349270143113e-02 4.02792659610960e-04
5.75656250000000e+00 3.24242465733983e-02 3.96506833705515e-04
5.82468750000000e+00 3.17288088607665e-02 3.90291764381493e-04
5.89281250000000e+00 3.10482869492176e-02 3.84147832177621e-04
5.96093750000000e+00 3.03823609235127e-02 3.78075345963741e-04
6.02906250000000e+00 2.97307177299794e-02 3.72074546973940e-04
6.09718750000000e+00 2.90930510293443e-02 3.66145612634748e-04
6.16531250000000e+00 2.84690610527221e-02 3.60288660199620e-04
6.23343750000000e+00 2.78584544606935e-02 3.54503750200156e-04
6.30156250000000e+00 2.72609442054052e-02 3.48790889723947e-04
6.36968750000000e+00 2.66762493956284e-02 3.43150035528254e-04
6.43781250000000e+00 2.61040951647107e-02 3.37581096998173e-04
6.50593750000000e+00 2.55442125413605e-02 3.32083938957488e-04
6.57406250000000e+00 2.49963383232031e-02 3.26658384339858e-04
6.64218750000000e+00 2.44602149530484e-02 3.21304216727517e-04
6.71031250000000e+00 2.39355903978125e-02 3.16021182764336e-04
6.77843750000000e+00 2.34222180300362e-02 3.10808994449621e-04
6.84656250000000e+00 2.29198565119452e-02 3.05667331318664e-04
6.91468750000000e+00 2.24282696819958e-02 3.00595842515764e-04
6.98281250000000e+00 2.19472264438552e-02 2.95594148765098e-04
7.05093750000000e+00 2.14765006577626e-02 2.90661844244512e-04
7.11906250000000e+00 2.10158710342196e-02 2.85798498366990e-04
7.18718750000000e+00 2.05651210299622e-02 2.81003657474376e-04
7.25531250000000e+00 2.01240387461627e-02 2.76276846447652e-04
7.32343750000000e+00 1.96924168288157e-02 2.71617570237779e-04
7.39156250000000e+00 1.92700523712601e-02 2.67025315320978e-04
7.45968750000000e+00 1.88567468187925e-02 2.62499551082071e-04
7.52781250000000e+00 1.84523058753259e-02 2.58039731129343e-04
7.59593750000000e+00 1.80565394120507e-02 2.53645294544210e-04
7.66406250000000e+00 1.76692613780543e-02 2.49315667068762e-04
7.73218750000000e+00 1.72902897128583e-02 2.45050262234127e-04
7.80031250000000e+00 1.69194462608314e-02 2.40848482432468e-04
7.86843750000000e+00 1.65565566874378e-02 2.36709719935265e-04
7.93656250000000e+00 1.62014503972822e-02 2.32633357860373e-04
8.00468750000000e+00 1.58539604539123e-02 2.28618771090271e-04
8.07281250000000e+00 1.55139235013415e-02 2.24665327143779e-04
8.14093750000000e+00 1.51811796872549e-02 2.20772387003396e-04
8.20906250000000e+00 1.48555725878622e-02 2.16939305900313e-04
8.27718750000000e+00 1.45369491343627e-02 2.13165434059076e-04
8.34531250000000e+00 1.42251595409866e-02 2.09450117403745e-04
8.41343750000000e+00 1.39200572345811e-02 2.05792698227327e-04
8.48156250000000e+00 1.36214987857053e-02 2.02192515826175e-04
8.54968750000000e+00 1.33293438412040e-02 1.98648907100967e-04
8.61781250000000e+00 1.30434550582272e-02 1.95161207125783e-04
8.68593750000000e+00 1.27636980396647e-02 1.91728749686743e-04
8.75406250000000e+00 1.24899412709659e-02 1.88350867791622e-04
8.82218750000000e+00 1.22220560583143e-02 1.85026894151738e-04
8.89031250000000e+00 1.19599164681279e-02 1.81756161637393e-04
8.95843750000000e+00 1.17033992678583e-02 1.78538003708080e-04
9.02656250000000e+00 1.14523838680577e-02 1.75371754818604e-04
9.09468750000000e+00 1.12067522656902e-02 1.72256750802205e-04
9.16281250000000e+00 1.09663889886580e-02 1.69192329231754e-04
9.23093750000000e+00 1.07311810415176e-02 1.66177829760013e-04
9.29906250000000e+00 1.05010178523605e-02 1.63212594439898e-04
9.36718750000000e+00 1.02757912208328e-02 1.60295968025695e-04
9.43531250000000e+00 1.00553952672701e-02 1.57427298256085e-04
9.50343750000000e+00 9.83972638292303e-03 1.54605936119791e-04
9.57156250000000e+00 9.62868318125073e-03 1.51831236104671e-04
9.63968750000000e+00 9.42216645025849e-03 1.49102556431011e-04
9.70781250000000e+00 9.22007910585804e-03 1.46419259269737e-04
9.77593750000000e+00 9.02232614622807e-03 1.43780710946252e-04
9.84406250000000e+00 8.82881460715354e-03 1.41186282130549e-04
9.91218750000000e+00 8.63945351832301e-03 1.38635348014255e-04
9.98031250000000e+00 8.45415386056318e-03 1.36127288475182e-04
1.00484375000000e+01 8.27282852399081e-03 1.33661488230008e-04
1.01165625000000e+01 8.09539226706205e-03 1.31237336975607e-04
1.01846875000000e+01 7.92176167650019e-03 1.28854229519577e-04
1.02528125000000e+01 7.75185512808284e-03 1.26511565900469e-04
1.03209375000000e+01 7.58559274827015e-03 1.24208751498197e-04
1.03890625000000e+01 7.42289637665604e-03 1.21945197135112e-04
1.04571875000000e+01 7.26368952922479e-03 1.19720319168166e-04
1.05253125000000e+01 7.10789736239567e-03 1.17533539572597e-04
1.05934375000000e+01 6.95544663783878e-03 1.15384286017553e-04
1.06615625000000e+01 6.80626568804550e-03 1.13271991934026e-04
1.07296875000000e+01 6.66028438263741e-03 1.11196096575483e-04
1.07978125000000e+01 6.51743409539777e-03 1.09156045071537e-04
1.08659375000000e+01 6.37764767201021e-03 1.07151288475025e-04
1.09340625000000e+01 6.24085939848922e-03 1.05181283802788e-04
1.10021875000000e+01 6.10700497028787e-03 1.03245494070480e-04
1.10703125000000e+01 5.97602146206806e-03 1.01343388321718e-04
1.11384375000000e+01 5.84784729811914e-03 9.94744416518255e-05
1.12065625000000e+01 5.72242222341099e-03 9.76381352264843e-05
1.12746875000000e+01 5.59968727526798e-03 9.58339562955293e-05
1.13428125000000e+01 5.47958475565044e-03 9.40613982021357e-05
1.14109375000000e+01 5.36205820403064e-03 9.23199603876592e-05
1.14790625000000e+01 5.24705237085058e-03 9.06091483923455e-05
1.15471875000000e+01 5.13451319154897e-03 8.89284738521214e-05
1.16153125000000e+01 5.02438776114535e-03 8.72774544916930e-05
1.16834375000000e+01 4.91662430936934e-03 8.56556141141473e-05
1.17515625000000e+01 4.81117217632324e-03 8.40624825872414e-05
1.18196875000000e+01 4.70798178866671e-03 8.24975958265766e-05
1.18878125000000e+01 4.60700463631219e-03 8.09604957758253e-05
1.19559375000000e+01 4.50819324962019e-03 7.94507303841770e-05
1.20240625000000e+01 4.41150117708365e-03 7.79678535811749e-05
1.20921875000000e+01 4.31688296349097e-03 7.65114252490826e-05
1.21603125000000e+01 4.22429412855742e-03 7.50810111929442e-05
1.22284375000000e+01 4.13369114601479e-03 7.36761831084678e-05
1.22965625000000e+01 4.04503142314958e-03 7.22965185478639e-05
1.23646875000000e+01 3.95827328078007e-03 7.09416008837856e-05
1.24328125000000e+01 3.87337593366282e-03 6.96110192714754e-05
1.25009375000000e+01 3.79029947131938e-03 6.83043686092373e-05
1.25690625000000e+01 3.70900483927428e-03 6.70212494973597e-05
1.26371875000000e+01 3.62945382069545e-03 6.57612681955892e-05
1.27053125000000e+01 3.55160901842831e-03 6.45240365792518e-05
1.27734375000000e+01 3.47543383741533e-03 6.33091720941255e-05
1.28415625000000e+01 3.40089246749255e-03 6.21162977101624e-05
1.29096875000000e+01 3.32794986655514e-03 6.09450418741391e-05
1.29778125000000e+01 3.25657174408400e-03 5.97950384613265e-05
1.30459375000000e+01 3.18672454502572e-03 5.86659267262650e-05
1.31140625000000e+01 3.11837543401820e-03 5.75573512527113e-05
1.31821875000000e+01 3.05149227995473e-03 5.64689619028401e-05
1.32503125000000e+01 2.98604364087898e-03 5.54004137657705e-05
1.33184375000000e+01 2.92199874920415e-03 5.43513671054756e-05
1.33865625000000e+01 2.85932749724893e-03 5.33214873081489e-05
1.34546875000000e+01 2.79800042308390e-03 5.23104448290894e-05
1.35228125000000e+01 2.73798869668133e-03 5.13179151391571e-05
1.35909375000000e+01 2.67926410636213e-03 5.03435786708529e-05
1.36590625000000e+01 2.62179904553343e-03 4.93871207640853e-05
1.37271875000000e+01 2.56556649971070e-03 4.84482316116678e-05
1.37953125000000e+01 2.51054003381812e-03 4.75266062045905e-05
1.38634375000000e+01 2.45669377976140e-03 4.66219442771225e-05
1.39315625000000e+01 2.40400242426709e-03 4.57339502517785e-05
1.39996875000000e+01 2.35244119698277e-03 4.48623331841922e-05
1.40678125000000e+01 2.30198585883244e-03 4.40068067079391e-05
1.41359375000000e+01 2.25261269062163e-03 4.31670889793435e-05
1.42040625000000e+01 2.20429848188697e-03 4.23429026223049e-05
1.42721875000000e+01 2.15702051998487e-03 4.15339746731737e-05
1.43403125000000e+01 2.11075657941427e-03 4.07400365257131e-05
1.44084375000000e+01 2.06548491136833e-03 3.99608238761741e-05
1.44765625000000e+01 2.02118423351030e-03 3.91960766685095e-05
1.45446875000000e+01 1.97783371996859e-03 3.84455390397586e-05
1.46128125000000e+01 1.93541299154650e-03 3.77089592656222e-05
1.46809375000000e+01 1.89390210614189e-03 3.69860897062561e-05
1.47490625000000e+01 1.85328154937236e-03 3.62766867523021e-05
1.48171875000000e+01 1.81353222540146e-03 3.55805107711792e-05
1.48853125000000e+01 1.77463544796170e-03 3.48973260536539e-05
1.49534375000000e+01 1.73657293157009e-03 3.42269007607098e-05
1.50215625000000e+01 1.69932678293204e-03 3.35690068707321e-05
1.50896875000000e+01 1.66287949252975e-03 3.29234201270224e-05
1.51578125000000e+01 1.62721392639085e-03 3.22899199856629e-05
1.52259375000000e+01 1.59231331803376e-03 3.16682895637404e-05
1.52940625000000e+01 1.55816126058565e-03 3.10583155879466e-05
1.53621875000000e+01 1.52474169906953e-03 3.04597883435652e-05
1.54303125000000e+01 1.49203892285683e-03 2.98725016238555e-05
1.54984375000000e+01 1.46003755828170e-03 2.92962526798488e-05
1.55665625000000e+01 1.42872256141386e-03 2.87308421705606e-05
1.56346875000000e+01 1.39807921098640e-03 2.81760741136346e-05
1.57028125000000e+01 1.36809310147524e-03 2.76317558364229e-05
1.57709375000000e+01 1.33875013632712e-03 2.70976979275078e-05
1.58390625000000e+01 1.31003652133269e-03 2.65737141886794e-05
1.59071875000000e+01 1.28193875814188e-03 2.60596215873689e-05
1.59753125000000e+01 1.25444363791825e-03 2.55552402095460e-05
1.60434375000000e+01 1.22753823512949e-03 2.50603932130872e-05
1.61115625000000e+01 1.20120990147109e-03 2.45749067816147e-05
1.61796875000000e+01 1.17544625992035e-03 2.40986100788168e-05
1.62478125000000e+01 1.15023519891789e-03 2.36313352032478e-05
1.63159375000000e+01 1.12556486667398e-03 2.31729171436130e-05
1.63840625000000e+01 1.10142366559698e-03 2.27231937345416e-05
1.64521875000000e+01 1.07780024684129e-03 2.22820056128502e-05
1.65203125000000e+01 1.05468350497218e-03 2.18491961742956e-05
1.65884375000000e+01 1.03206257274518e-03 2.14246115308233e-05
1.66565625000000e+01 1.00992681599728e-03 2.10081004683093e-05
1.67246875000000e+01 9.88265828647799e-04 2.05995144047969e-05
1.67928125000000e+01 9.67069427806494e-04 2.01987073492288e-05
1.68609375000000e+01 9.46327648986513e-04 1.98055358606748e-05
1.69290625000000e+01 9.26030741420081e-04 1.94198590080548e-05
1.69971875000000e+01 9.06169163474633e-04 1.90415383303574e-05
1.70653125000000e+01 8.86733578167267e-04 1.86704377973511e-05
1.71334375000000e+01 8.67714848775403e-04 1.83064237707900e-05
1.72015625000000e+01 8.49104034541583e-04 1.79493649661100e-05
1.72696875000000e+01 8.30892386470397e-04 1.75991324146161e-05
1.73378125000000e+01 8.13071343215555e-04 1.72555994261574e-05
1.74059375000000e+01 7.95632527055174e-04 1.69186415522886e-05
1.74740625000000e+01 7.78567739953390e-04 1.65881365499173e-05
1.75421875000000e+01 7.61868959706438e-04 1.62639643454317e-05
1.76103125000000e+01 7.45528336171390e-04 1.59460069993087e-05
1.76784375000000e+01 7.29538187575781e-04 1.56341486711986e-05
1.77465625000000e+01 7.13890996906390e-04 1.53282755854843e-05
1.78146875000000e+01 6.98579408375467e-04 1.50282759973111e-05
1.78828125000000e+01 6.83596223962759e-04 1.47340401590853e-05
1.79509375000000e+01 6.68934400031699e-04 1.44454602874369e-05
1.80190625000000e+01 6.54587044018175e-04 1.41624305306436e-05
1.80871875000000e+01 6.40547411190317e-04 1.38848469365141e-05
1.81553125000000e+01 6.26808901477776e-04 1.36126074207248e-05
1.82234375000000e+01 6.13365056369016e-04 1.33456117356077e-05
1.82915625000000e+01 6.00209555875150e-04 1.30837614393856e-05
1.83596875000000e+01 5.87336215558892e-04 1.28269598658502e-05
1.84278125000000e+01 5.74738983627242e-04 1.25751120944806e-05
1.84959375000000e+01 5.62411938086514e-04 1.23281249209955e-05
1.85640625000000e+01 5.50349283958395e-04 1.20859068283385e-05
1.86321875000000e+01 5.38545350555711e-04 1.18483679580906e-05
1.87003125000000e+01 5.26994588816617e-04 1.16154200823045e-05
1.87684375000000e+01 5.15691568695968e-04 1.13869765757600e-05
1.88365625000000e+01 5.04630976612645e-04 1.11629523886327e-05
1.89046875000000e+01 4.93807612951618e-04 1.09432640195742e-05
1.89728125000000e+01 4.83216389619600e-04 1.07278294891981e-05
1.90409375000000e+01 4.72852327653116e-04 1.05165683139684e-05
1.91090625000000e+01 4.62710554877877e-04 1.03094014804847e-05
1.91771875000000e+01 4.52786303618361e-04 1.01062514201622e-05
1.92453125000000e+01 4.43074908456516e-04 9.90704198429874e-06
1.93134375000000e+01 4.33571804038528e-04 9.71169841952774e-06
1.93815625000000e+01 4.24272522928644e-04 9.52014734365082e-06
1.94496875000000e+01 4.15172693509011e-04 9.33231672184594e-06
1.95178125000000e+01 4.06268037924570e-04 9.14813584324696e-06
1.95859375000000e+01 3.97554370072022e-04 8.96753529788977e-06
1.96540625000000e+01 3.89027593631933e-04 8.79044695402131e-06
1.97221875000000e+01 3.80683700143039e-04 8.61680393576633e-06
1.97903125000000e+01 3.72518767117859e-04 8.44654060114755e-06
1.98584375000000e+01 3.64528956198723e-04 8.27959252045536e-06
1.99265625000000e+01 3.56710511353349e-04 8.11589645496232e-06
1.99946875000000e+01 3.49059757109121e-04 7.95539033597775e-06
2.00628125000000e+01 3.41573096825241e-04 7.79801324423862e-06
2.01309375000000e+01 3.34247011001935e-04 7.64370538963222e-06
2.01990625000000e+01 3.27078055625932e-04 7.49240809124603e-06
2.02671875000000e+01 3.20062860551416e-04 7.34406375774073e-06
2.03353125000000e+01 3.13198127915719e-04 7.19861586804224e-06
2.04034375000000e+01 3.06480630588981e-04 7.05600895234795e-06
2.04715625000000e+01 2.99907210657070e-04 6.91618857344336e-06
2.05396875000000e+01 2.93474777937037e-04 6.77910130832496e-06
2.06078125000000e+01 2.87180308524411e-04 6.64469473012476e-06
2.06759375000000e+01 2.81020843371658e-04 6.51291739033256e-06
2.07440625000000e+01 2.74993486897117e-04 6.38371880131230e-06
2.08121875000000e+01 2.69095405623787e-04 6.25704941910725e-06
2.08803125000000e+01 2.63323826847296e-04 6.13286062653095e-06
2.09484375000000e+01 2.57676037332446e-04 6.01110471653935e-06
2.10165625000000e+01 2.52149382037715e-04 5.89173487588091e-06
2.10846875000000e+01 2.46741262867115e-04 5.77470516901970e-06
2.11528125000000e+01 2.41449137448818e-04 5.65997052232783e-06
2.12209375000000e+01 2.36270517939981e-04 5.54748670854366e-06
2.12890625000000e+01 2.31202969857204e-04 5.43721033149199e-06
2.13571875000000e+01 2.26244110932072e-04 5.32909881106169e-06
2.14253125000000e+01 2.21391609991245e-04 5.22311036843765e-06
2.14934375000000e+01 2.16643185860566e-04 5.11920401158313e-06
