Energy (eV)          EEDF (eV^-(3/2))     First Anisotropy
5.44117647058824e-02 3.20154839802083e-02 2.05680169584462e-05
1.63235294117647e-01 3.16919103509393e-02 3.39059958007907e-05
2.72058823529412e-01 3.13716070097780e-02 4.46073015287684e-05
3.80882352941176e-01 3.10545409063912e-02 5.26449795747713e-05
4.89705882352941e-01 3.07406793216106e-02 5.92726453625816e-05
5.98529411764706e-01 3.04299898688917e-02 6.49665666140468e-05
7.07352941176471e-01 3.01224404880018e-02 6.99743443345789e-05
8.16176470588235e-01 2.98179994424937e-02 7.44461664480039e-05
9.25000000000000e-01 2.95166353174816e-02 7.84820791418836e-05
1.03382352941176e+00 2.92183170148556e-02 8.21531009643100e-05
1.14264705882353e+00 2.89230137524610e-02 8.55120302445786e-05
1.25147058823529e+00 2.86306950565727e-02 8.85995278889628e-05
1.36029411764706e+00 2.83413307628560e-02 9.14477909663964e-05
1.46911764705882e+00 2.80548910118321e-02 9.40828962464474e-05
1.57794117647059e+00 2.77713462457994e-02 9.65263613545140e-05
1.68676470588235e+00 2.74906672057851e-02 9.87962228591621e-05
1.79558823529412e+00 2.72128249285267e-02 1.00907803296508e-04
1.90441176470588e+00 2.69377907434850e-02 1.02874270902639e-04
2.01323529411765e+00 2.66655362698783e-02 1.04707057085121e-04
2.12205882352941e+00 2.63960334137704e-02 1.06416173761679e-04
2.23088235294118e+00 2.61292543651625e-02 1.08010458641420e-04
2.33970588235294e+00 2.58651715951242e-02 1.09497767629884e-04
2.44852941176471e+00 2.56037578529530e-02 1.10885127762142e-04
2.55735294117647e+00 2.53449861633624e-02 1.12178860209365e-04
2.66617647058824e+00 2.50888298236986e-02 1.13384680279190e-04
2.77500000000000e+00 2.48352624011853e-02 1.14507779406436e-04
2.88382352941176e+00 2.45842577310786e-02 1.15552893444770e-04
2.99264705882353e+00 2.43357899112717e-02 1.16524359229300e-04
3.10147058823529e+00 2.40898333023681e-02 1.17426162124752e-04
3.21029411764706e+00 2.38463625241029e-02 1.18261976788136e-04
3.31911764705882e+00 2.36053524527236e-02 1.19035201544303e-04
3.42794117647059e+00 2.33667782183974e-02 1.19748987954387e-04
3.53676470588235e+00 2.31306152026455e-02 1.20406266311588e-04
3.64558823529412e+00 2.28968390358021e-02 1.21009767738758e-04
3.75441176470588e+00 2.26654255945003e-02 1.21562043433430e-04
3.86323529411765e+00 2.24363509991812e-02 1.22065481503669e-04
3.97205882352941e+00 2.22095916116327e-02 1.22522321759924e-04
4.08088235294118e+00 2.19851240325490e-02 1.22934668763171e-04
4.18970588235294e+00 2.17629250991157e-02 1.23304503377419e-04
4.29852941176471e+00 2.15429718826199e-02 1.23633693035286e-04
4.40735294117647e+00 2.13252416860841e-02 1.23924000890636e-04
4.51617647058824e+00 2.11097120419241e-02 1.24177094005067e-04
4.62500000000000e+00 2.08963607096308e-02 1.24394550627205e-04
4.73382352941177e+00 2.06851656739233e-02 1.24577866998761e-04
4.84264705882353e+00 2.04761051411136e-02 1.24728463183488e-04
4.95147058823529e+00 2.02691575382406e-02 1.24847688325837e-04
5.06029411764706e+00 2.00643015103763e-02 1.24936825745636e-04
5.16911764705882e+00 1.98615159184225e-02 1.24997097315203e-04
5.27794117647059e+00 1.96607798369290e-02 1.25029667509761e-04
5.38676470588235e+00 1.94620725519345e-02 1.25035647105719e-04
5.49558823529412e+00 1.92653735588294e-02 1.25016096564467e-04
5.60441176470588e+00 1.90706625602394e-02 1.24972029134731e-04
5.71323529411765e+00 1.88779194639312e-02 1.24904413701980e-04
5.82205882352941e+00 1.86871243807394e-02 1.24814177410785e-04
5.93088235294118e+00 1.84982576225145e-02 1.24702208082474e-04
6.03970588235294e+00 1.83112997000906e-02 1.24569356447466e-04
6.14852941176471e+00 1.81262313212747e-02 1.24416438210166e-04
6.25735294117647e+00 1.79430333888557e-02 1.24244235961891e-04
6.36617647058824e+00 1.77616869986339e-02 1.24053500955778e-04
6.47500000000000e+00 1.75821734374702e-02 1.23844954709478e-04
6.58382352941176e+00 1.74044741816256e-02 1.23619290680400e-04
6.69264705882353e+00 1.72285708940290e-02 1.23377175601027e-04
6.80147058823529e+00 1.70544454232153e-02 1.23119250717089e-04
6.91029411764706e+00 1.68820798011725e-02 1.22846133178671e-04
7.01911764705882e+00 1.67114562414873e-02 1.22558417157065e-04
7.12794117647059e+00 1.65425571375100e-02 1.22256674936266e-04
7.23676470588235e+00 1.63753650605371e-02 1.21941457936261e-04
7.34558823529412e+00 1.62098627580137e-02 1.21613297673417e-04
7.45441176470588e+00 1.60460331517525e-02 1.21272706662869e-04
7.56323529411765e+00 1.58838593361714e-02 1.20920179267119e-04
7.67205882352941e+00 1.57233245765498e-02 1.20556192495054e-04
7.78088235294118e+00 1.55644123073012e-02 1.20181206755053e-04
7.88970588235294e+00 1.54071061302639e-02 1.19795666565247e-04
7.99852941176471e+00 1.52513898130091e-02 1.19400001224158e-04
8.10735294117647e+00 1.50972472871654e-02 1.18994625444471e-04
8.21617647058824e+00 1.49446626467610e-02 1.18579939952465e-04
8.32500000000000e+00 1.47936201465824e-02 1.18156332020942e-04
8.43382352941176e+00 1.46441042007267e-02 1.17724176111223e-04
8.54264705882353e+00 1.44960993804562e-02 1.17283834312771e-04
8.65147058823529e+00 1.43495904131491e-02 1.16835656755684e-04
8.76029411764706e+00 1.42045621805410e-02 1.16379982177450e-04
8.86911764705882e+00 1.40609997171642e-02 1.15917138323244e-04
8.97794117647059e+00 1.39188882088039e-02 1.15447442360937e-04
9.08676470588235e+00 1.37782129909694e-02 1.14971201276050e-04
9.19558823529412e+00 1.36389595473808e-02 1.14488712247828e-04
9.30441176470588e+00 1.35011135084712e-02 1.14000263007624e-04
9.41323529411765e+00 1.33646606499035e-02 1.13506132180499e-04
9.52205882352941e+00 1.32295868911033e-02 1.13006589611195e-04
9.63088235294118e+00 1.30958782938052e-02 1.12501896675383e-04
9.73970588235294e+00 1.29635210606152e-02 1.11992306576867e-04
9.84852941176471e+00 1.28325015335862e-02 1.11478064631654e-04
9.95735294117647e+00 1.27028061928095e-02 1.10959408512542e-04
1.00661764705882e+01 1.25744216551460e-02 1.10436568511483e-04
1.01750000000000e+01 1.24473346728312e-02 1.09909768157496e-04
1.02838235294118e+01 1.23215321305189e-02 1.09379223603508e-04
1.03926470588235e+01 1.21970010478835e-02 1.08845144309149e-04
1.05014705882353e+01 1.20737285745356e-02 1.08307734104915e-04
1.06102941176471e+01 1.19517019888192e-02 1.07767189823690e-04
1.07191176470588e+01 1.18309086999770e-02 1.07223702291624e-04
1.08279411764706e+01 1.17113362433264e-02 1.06677457037535e-04
1.09367647058824e+01 1.15929722801622e-02 1.06128633929518e-04
1.10455882352941e+01 1.14758045954328e-02 1.05577406905345e-04
1.11544117647059e+01 1.13598210996767e-02 1.05023944625589e-04
1.12632352941176e+01 1.12450098245333e-02 1.04468411346239e-04
1.13720588235294e+01 1.11313589216133e-02 1.03910965660490e-04
1.14808823529412e+01 1.10188566642912e-02 1.03351761360718e-04
1.15897058823529e+01 1.09074914434385e-02 1.02790948048194e-04
1.16985294117647e+01 1.07972517672590e-02 1.02228670782504e-04
1.18073529411765e+01 1.06881262591853e-02 1.01665069814805e-04
1.19161764705882e+01 1.05801036594880e-02 1.01100281151369e-04
1.20250000000000e+01 1.04731728212955e-02 1.00534437318236e-04
1.21338235294118e+01 1.03673227095307e-02 9.99676662083401e-05
1.22426470588235e+01 1.02625424024016e-02 9.94000918373467e-05
1.23514705882353e+01 1.01588210876100e-02 9.88318350687234e-05
1.24602941176471e+01 1.00561480613164e-02 9.82630125008672e-05
1.25691176470588e+01 9.95451272952450e-03 9.76937371843955e-05
1.26779411764706e+01 9.85390460446832e-03 9.71241191253583e-05
1.27867647058824e+01 9.75431330437918e-03 9.65542649594746e-05
1.28955882352941e+01 9.65572855165686e-03 9.59842776981310e-05
1.30044117647059e+01 9.55814017411175e-03 9.54142571953259e-05
1.31132352941176e+01 9.46153810158268e-03 9.48443007889483e-05
1.32220588235294e+01 9.36591236496854e-03 9.42745022837227e-05
1.33308823529412e+01 9.27125309737975e-03 9.37049525869874e-05
1.34397058823529e+01 9.17755053091195e-03 9.31357401510129e-05
1.35485294117647e+01 9.08479499638370e-03 9.25669506685285e-05
1.36573529411765e+01 8.99297692167134e-03 9.19986668325340e-05
1.37661764705882e+01 8.90208683274434e-03 9.14309687475609e-05
1.38750000000000e+01 8.81211535064057e-03 9.08639345005368e-05
1.39838235294118e+01 8.72305319055765e-03 9.02976392319137e-05
1.40926470588235e+01 8.63489116281338e-03 8.97321557015235e-05
1.42014705882353e+01 8.54762016995495e-03 8.91675548329583e-05
1.43102941176471e+01 8.46123120587586e-03 8.86039048180512e-05
1.44191176470588e+01 8.37571535670811e-03 8.80412716566981e-05
1.45279411764706e+01 8.29106379805955e-03 8.74797195306400e-05
1.46367647058824e+01 8.20726779472412e-03 8.69193105282483e-05
1.47455882352941e+01 8.12431869922284e-03 8.63601044245694e-05
1.48544117647059e+01 8.04220795260491e-03 8.58021590295969e-05
1.49632352941176e+01 7.96092708185052e-03 8.52455306753370e-05
1.50720588235294e+01 7.88046769904556e-03 8.46902733981948e-05
1.51808823529412e+01 7.80082150212432e-03 8.41364394226408e-05
1.52897058823529e+01 7.72198027238509e-03 8.35840794940539e-05
1.53985294117647e+01 7.64393587419142e-03 8.30332426242809e-05
1.55073529411765e+01 7.56668025363790e-03 8.24839758868698e-05
1.56161764705882e+01 7.49020543921774e-03 8.19363247275422e-05
1.57250000000000e+01 7.41450353948468e-03 8.13903334018380e-05
1.58338235294118e+01 7.33956674228036e-03 8.08460442284919e-05
1.59426470588235e+01 7.26538731535304e-03 8.03034980237678e-05
1.60514705882353e+01 7.19195760411799e-03 7.97627345202071e-05
1.61602941176471e+01 7.11927003090693e-03 7.92237916469717e-05
1.62691176470588e+01 7.04731709554229e-03 7.86867059455160e-05
1.63779411764706e+01 6.97609137319199e-03 7.81515128548706e-05
1.64867647058824e+01 6.90558551406504e-03 7.76182464840236e-05
1.65955882352941e+01 6.83579224223616e-03 7.70869394272313e-05
1.67044117647059e+01 6.76670435616042e-03 7.65576230304422e-05
1.68132352941176e+01 6.69831472665008e-03 7.60303277686551e-05
1.69220588235294e+01 6.63061629617385e-03 7.55050825885037e-05
1.70308823529412e+01 6.56360207933324e-03 7.49819152832389e-05
1.71397058823529e+01 6.49726516092327e-03 7.44608527488398e-05
1.72485294117647e+01 6.43159869562982e-03 7.39419207744280e-05
1.73573529411765e+01 6.36659590695148e-03 7.34251438714336e-05
1.74661764705882e+01 6.30225008762638e-03 7.29105455129506e-05
1.75750000000000e+01 6.23855459780182e-03 7.23981484748322e-05
1.76838235294118e+01 6.17550286437910e-03 7.18879742348470e-05
1.77926470588235e+01 6.11308838140820e-03 7.13800433113949e-05
1.79014705882353e+01 6.05130470833137e-03 7.08743755906041e-05
1.80102941176471e+01 5.99014546934689e-03 7.03709897470849e-05
1.81191176470588e+01 5.92960435377445e-03 6.98699035687768e-05
1.82279411764706e+01 5.86967511436977e-03 6.93711341784848e-05
1.83367647058824e+01 5.81035156702803e-03 6.88746978471648e-05
1.84455882352941e+01 5.75162758983011e-03 6.83806098408413e-05
1.85544117647059e+01 5.69349712336845e-03 6.78888846277934e-05
1.86632352941176e+01 5.63595416915358e-03 6.73995361747529e-05
1.87720588235294e+01 5.57899278902055e-03 6.69125774171923e-05
1.88808823529412e+01 5.52260710542944e-03 6.64280205537409e-05
1.89897058823529e+01 5.46679129993552e-03 6.59458772461646e-05
1.90985294117647e+01 5.41153961290008e-03 6.54661584477002e-05
1.92073529411765e+01 5.35684634261341e-03 6.49888742618325e-05
1.93161764705882e+01 5.30270584556242e-03 6.45140341294002e-05
1.94250000000000e+01 5.24911253498343e-03 6.40416470974548e-05
1.95338235294118e+01 5.19606088030764e-03 6.35717213345992e-05
1.96426470588235e+01 5.14354540740741e-03 6.31042643980113e-05
1.97514705882353e+01 5.09156069720556e-03 6.26392834916559e-05
1.98602941176471e+01 5.04010138513698e-03 6.21767849989057e-05
1.99691176470588e+01 4.98916216137553e-03 6.17167747390209e-05
2.00779411764706e+01 4.93873776949765e-03 6.12592581412177e-05
2.01867647058824e+01 4.88882300620527e-03 6.08042400919590e-05
2.02955882352941e+01 4.83941272054748e-03 6.03517248087952e-05
2.04044117647059e+01 4.79050181412103e-03 5.99017160033003e-05
2.05132352941176e+01 4.74208523980441e-03 5.94542171157147e-05
2.06220588235294e+01 4.69415800125577e-03 5.90092308870258e-05
2.07308823529412e+01 4.64671515309659e-03 5.85667595922054e-05
2.08397058823529e+01 4.59975179969470e-03 5.81268051979730e-05
2.09485294117647e+01 4.55326309489721e-03 5.76893692224248e-05
2.10573529411765e+01 4.50724424131349e-03 5.72544526187754e-05
2.11661764705882e+01 4.46169049047690e-03 5.68220559230653e-05
2.12750000000000e+01 4.41659714169141e-03 5.63921794677897e-05
2.13838235294118e+01 4.37195954156288e-03 5.59648229899203e-05
2.14926470588235e+01 4.32777308414666e-03 5.55399858430899e-05
2.16014705882353e+01 4.28403320983789e-03 5.51176672029979e-05
2.17102941176471e+01 4.24073540491662e-03 5.46978656892799e-05
2.18191176470588e+01 4.19787520168244e-03 5.42805795695418e-05
2.19279411764706e+01 4.15544817738704e-03 5.38658068973036e-05
2.20367647058824e+01 4.11344995398182e-03 5.34535453871745e-05
2.21455882352941e+01 4.07187619747999e-03 5.30437923111149e-05
2.22544117647059e+01 4.03072261807367e-03 5.26365446276367e-05
2.23632352941176e+01 3.98998496912105e-03 5.22317991689425e-05
2.24720588235294e+01 3.94965904672223e-03 5.18295522943423e-05
2.25808823529412e+01 3.90974068982515e-03 5.14298000762635e-05
2.26897058823529e+01 3.87022577925092e-03 5.10325384256429e-05
2.27985294117647e+01 3.83111023745242e-03 5.06377629771637e-05
2.29073529411765e+01 3.79239002792576e-03 5.02454689936853e-05
2.30161764705882e+01 3.75406115530163e-03 4.98556514837049e-05
2.31250000000000e+01 3.71611966442017e-03 4.94683053721350e-05
2.32338235294118e+01 3.67856163993513e-03 4.90834251824800e-05
2.33426470588235e+01 3.64138320639585e-03 4.87010052064531e-05
2.34514705882353e+01 3.60458052735641e-03 4.83210396683229e-05
2.35602941176471e+01 3.56814980499146e-03 4.79435224182179e-05
2.36691176470588e+01 3.53208728016973e-03 4.75684470953719e-05
2.37779411764706e+01 3.49638923159616e-03 4.71958072381384e-05
2.38867647058824e+01 3.46105197558601e-03 4.68255961819129e-05
2.39955882352941e+01 3.42607186554016e-03 4.64578069738899e-05
2.41044117647059e+01 3.39144529200692e-03 4.60924324761484e-05
2.42132352941176e+01 3.35716868186708e-03 4.57294655156963e-05
2.43220588235294e+01 3.32323849797579e-03 4.53688986030608e-05
2.44308823529412e+01 3.28965123921705e-03 4.50107240814118e-05
2.45397058823529e+01 3.25640343971875e-03 4.46549342267992e-05
2.46485294117647e+01 3.22349166863771e-03 4.43015211542588e-05
2.47573529411765e+01 3.19091252967498e-03 4.39504767392752e-05
2.48661764705882e+01 3.15866266112075e-03 4.36017927117109e-05
2.49750000000000e+01 3.12673873510833e-03 4.32554607929793e-05
2.50838235294118e+01 3.09513745728008e-03 4.29114724377333e-05
2.51926470588235e+01 3.06385556682620e-03 4.25698189700989e-05
2.53014705882353e+01 3.03288983576574e-03 4.22304917157780e-05
2.54102941176471e+01 3.00223706862250e-03 4.18934817526954e-05
2.55191176470588e+01 2.97189410245818e-03 4.15587800422054e-05
2.56279411764706e+01 2.94185780617964e-03 4.12263775172798e-05
2.57367647058824e+01 2.91212508033900e-03 4.08962649989449e-05
2.58455882352941e+01 2.88269285670088e-03 4.05684331262281e-05
2.59544117647059e+01 2.85355809826797e-03 4.02428724388084e-05
2.60632352941176e+01 2.82471779862209e-03 3.99195734978222e-05
2.61720588235294e+01 2.79616898162208e-03 3.95985266568547e-05
2.62808823529412e+01 2.76790870142463e-03 3.92797221819900e-05
2.63897058823529e+01 2.73993404184914e-03 3.89631503323042e-05
2.64985294117647e+01 2.71224211618829e-03 3.86488012829635e-05
2.66073529411765e+01 2.68483006680788e-03 3.83366650606635e-05
2.67161764705882e+01 2.65769506516143e-03 3.80267316190711e-05
2.68250000000000e+01 2.63083431118592e-03 3.77189909494386e-05
2.69338235294118e+01 2.60424503302004e-03 3.74134328701926e-05
2.70426470588235e+01 2.57792448701485e-03 3.71100471367764e-05
2.71514705882353e+01 2.55186995715110e-03 3.68088235482336e-05
2.72602941176471e+01 2.52607875476580e-03 3.65097517440404e-05
2.73691176470588e+01 2.50054821855940e-03 3.62128213099523e-05
2.74779411764706e+01 2.47527571403388e-03 3.59180218489732e-05
2.75867647058824e+01 2.45025863331754e-03 3.56253429128818e-05
2.76955882352941e+01 2.42549439480717e-03 3.53347739446171e-05
2.78044117647059e+01 2.40098044317031e-03 3.50463043448044e-05
2.79132352941176e+01 2.37671424881032e-03 3.47599235693651e-05
2.80220588235294e+01 2.35269330761165e-03 3.44756209427574e-05
2.81308823529412e+01 2.32891514093904e-03 3.41933857549552e-05
2.82397058823529e+01 2.30537729512163e-03 3.39132073263264e-05
2.83485294117647e+01 2.28207734128735e-03 3.36350749445740e-05
2.84573529411765e+01 2.25901287503181e-03 3.33589778116215e-05
2.85661764705882e+01 2.23618151641361e-03 3.30849051044324e-05
2.86750000000000e+01 2.21358090946309e-03 3.28128460644884e-05
2.87838235294118e+01 2.19120872194479e-03 3.25427898260565e-05
2.88926470588235e+01 2.16906264535029e-03 3.22747255050378e-05
2.90014705882353e+01 2.14714039442425e-03 3.20086422852271e-05
2.91102941176471e+01 2.12543970693389e-03 3.17445292524495e-05
2.92191176470588e+01 2.10395834365976e-03 3.14823754802126e-05
2.93279411764706e+01 2.08269408793838e-03 3.12221700870146e-05
2.94367647058824e+01 2.06164474550964e-03 3.09639021801538e-05
2.95455882352941e+01 2.04080814422036e-03 3.07075608083128e-05
2.96544117647059e+01 2.02018213401204e-03 3.04531350152863e-05
2.97632352941176e+01 1.99976458648510e-03 3.02006139190634e-05
2.98720588235294e+01 1.97955339468414e-03 2.99499865592450e-05
2.99808823529412e+01 1.95954647308385e-03 2.97012419756107e-05
3.00897058823529e+01 1.93974175716850e-03 2.94543692605704e-05
3.01985294117647e+01 1.92013720328804e-03 2.92093575073925e-05
3.03073529411765e+01 1.90073078838362e-03 2.89661957664708e-05
3.04161764705882e+01 1.88152050997113e-03 2.87248730945001e-05
3.05250000000000e+01 1.86250438574051e-03 2.84853786270540e-05
3.06338235294118e+01 1.84368045335556e-03 2.82477014381734e-05
3.07426470588235e+01 1.82504677043600e-03 2.80118306124202e-05
3.08514705882353e+01 1.80660141417073e-03 2.77777553148723e-05
3.09602941176471e+01 1.78834248112352e-03 2.75454646554746e-05
3.10691176470588e+01 1.77026808721393e-03 2.73149477585356e-05
3.11779411764706e+01 1.75237636734399e-03 2.70861938091324e-05
3.12867647058824e+01 1.73466547526584e-03 2.68591920069384e-05
3.13955882352941e+01 1.71713358333587e-03 2.66339315271666e-05
3.15044117647059e+01 1.69977888249383e-03 2.64104015640813e-05
3.16132352941176e+01 1.68259958190688e-03 2.61885913952287e-05
3.17220588235294e+01 1.66559390878854e-03 2.59684902565624e-05
3.18308823529412e+01 1.64876010837690e-03 2.57500874062503e-05
3.19397058823529e+01 1.63209644359090e-03 2.55333721671904e-05
3.20485294117647e+01 1.61560119490582e-03 2.53183338844535e-05
3.21573529411765e+01 1.59927266012542e-03 2.51049618892418e-05
3.22661764705882e+01 1.58310915435880e-03 2.48932455387535e-05
3.23750000000000e+01 1.56710900969264e-03 2.46831742751846e-05
3.24838235294118e+01 1.55127057502252e-03 2.44747375107397e-05
3.25926470588235e+01 1.53559221602897e-03 2.42679246862023e-05
3.27014705882353e+01 1.52007231486102e-03 2.40627253278586e-05
3.28102941176471e+01 1.50470926997249e-03 2.38591289363851e-05
3.29191176470588e+01 1.48950149609747e-03 2.36571250433574e-05
3.30279411764706e+01 1.47444742394474e-03 2.34567032489123e-05
3.31367647058824e+01 1.45954550008356e-03 2.32578531837714e-05
3.32455882352941e+01 1.44479418673936e-03 2.30605644770399e-05
3.33544117647059e+01 1.43019196176833e-03 2.28648267915192e-05
3.34632352941176e+01 1.41573731836585e-03 2.26706298759887e-05
3.35720588235294e+01 1.40142876491396e-03 2.24779634628531e-05
3.36808823529412e+01 1.38726482495552e-03 2.22868173200696e-05
3.37897058823529e+01 1.37324403691261e-03 2.20971812856911e-05
3.38985294117647e+01 1.35936495397916e-03 2.19090452328361e-05
3.40073529411765e+01 1.34562614393160e-03 2.17223990399600e-05
3.41161764705882e+01 1.33202618910234e-03 2.15372326232451e-05
3.42250000000000e+01 1.31856368611111e-03 2.13535359846604e-05
3.43338235294118e+01 1.30523724572280e-03 2.11712991176541e-05
