Energy (eV)          EEDF (eV^-(3/2))     First Anisotropy
4.26923076923077e-03 2.18175017423729e+00 1.57129185148667e-03
1.28076923076923e-02 2.15289958251633e+00 2.58618841176167e-03
2.13461538461538e-02 2.12443049942912e+00 3.39172018521273e-03
2.98846153846154e-02 2.09633788018419e+00 3.99026218670394e-03
3.84230769230769e-02 2.06861674644340e+00 4.47846504160948e-03
4.69615384615385e-02 2.04126218592678e+00 4.89322516502606e-03
5.55000000000000e-02 2.01426935119727e+00 5.25381201971439e-03
6.40384615384615e-02 1.98763345889002e+00 5.57196574624936e-03
7.25769230769231e-02 1.96134978898686e+00 5.85554072203794e-03
8.11153846153846e-02 1.93541368383347e+00 6.11013596108592e-03
8.96538461538462e-02 1.90982054734301e+00 6.33993109912990e-03
9.81923076923077e-02 1.88456584426381e+00 6.54815776746327e-03
1.06730769230769e-01 1.85964509937272e+00 6.73738480397739e-03
1.15269230769231e-01 1.83505389634426e+00 6.90970044005978e-03
1.23807692307692e-01 1.81078787745497e+00 7.06683389672253e-03
1.32346153846154e-01 1.78684274280175e+00 7.21023958676115e-03
1.40884615384615e-01 1.76321424895270e+00 7.34115702598351e-03
1.49423076923077e-01 1.73989820894521e+00 7.46065467753776e-03
1.57961538461538e-01 1.71689049085712e+00 7.56966271340892e-03
1.66500000000000e-01 1.69418701770654e+00 7.66899795281502e-03
1.75038461538462e-01 1.67178376614503e+00 7.75938318421098e-03
1.83576923076923e-01 1.64967676628689e+00 7.84146234156989e-03
1.92115384615385e-01 1.62786210050062e+00 7.91581259930063e-03
2.00653846153846e-01 1.60633590318649e+00 7.98295411129425e-03
2.09192307692308e-01 1.58509435964945e+00 8.04335795188366e-03
2.17730769230769e-01 1.56413370583839e+00 8.09745264057654e-03
2.26269230769231e-01 1.54345022728815e+00 8.14562957173493e-03
2.34807692307692e-01 1.52304025874582e+00 8.18824751251890e-03
2.43346153846154e-01 1.50290018351062e+00 8.22563647496554e-03
2.51884615384615e-01 1.48302643253906e+00 8.25810092768523e-03
2.60423076923077e-01 1.46341548414301e+00 8.28592257282816e-03
2.68961538461538e-01 1.44406386305221e+00 8.30936273063993e-03
2.77500000000000e-01 1.42496814009604e+00 8.32866439468636e-03
2.86038461538462e-01 1.40612493131281e+00 8.34405402228556e-03
2.94576923076923e-01 1.38753089761962e+00 8.35574309236988e-03
3.03115384615385e-01 1.36918274396372e+00 8.36392947617951e-03
3.11653846153846e-01 1.35107721898377e+00 8.36879863974875e-03
3.20192307692308e-01 1.33321111419946e+00 8.37052471137074e-03
3.28730769230769e-01 1.31558126366694e+00 8.36927142479047e-03
3.37269230769231e-01 1.29818454320335e+00 8.36519296875232e-03
3.45807692307692e-01 1.28101786999081e+00 8.35843471536253e-03
3.54346153846154e-01 1.26407820202503e+00 8.34913392937526e-03
3.62884615384615e-01 1.24736253743253e+00 8.33742035258145e-03
3.71423076923077e-01 1.23086791412704e+00 8.32341675510266e-03
3.79961538461538e-01 1.21459140910370e+00 8.30723943195911e-03
3.88500000000000e-01 1.19853013809498e+00 8.28899864994299e-03
3.97038461538462e-01 1.18268125489230e+00 8.26879905706264e-03
4.05576923076923e-01 1.16704195100259e+00 8.24674005246005e-03
4.14115384615385e-01 1.15160945499572e+00 8.22291612725312e-03
4.22653846153846e-01 1.13638103216257e+00 8.19741717353446e-03
4.31192307692308e-01 1.12135398388658e+00 8.17032877058500e-03
4.39730769230769e-01 1.10652564730432e+00 8.14173244512774e-03
4.48269230769231e-01 1.09189339469964e+00 8.11170591761583e-03
4.56807692307692e-01 1.07745463313700e+00 8.08032330695366e-03
4.65346153846154e-01 1.06320680399896e+00 8.04765536105162e-03
4.73884615384615e-01 1.04914738244164e+00 8.01376963055701e-03
4.82423076923077e-01 1.03527387706726e+00 7.97873064811942e-03
4.90961538461538e-01 1.02158382936668e+00 7.94260009311667e-03
4.99500000000000e-01 1.00807481339583e+00 7.90543694250721e-03
5.08038461538462e-01 9.94744435237429e-01 7.86729761353375e-03
5.16576923076923e-01 9.81590332681640e-01 7.82823609460441e-03
5.25115384615385e-01 9.68610174705921e-01 7.78830406960501e-03
5.33653846153846e-01 9.55801661160322e-01 7.74755103205390e-03
5.42192307692308e-01 9.43162522264571e-01 7.70602439395010e-03
5.50730769230769e-01 9.30690518298219e-01 7.66376958582743e-03
5.59269230769231e-01 9.18383439114210e-01 7.62083015555012e-03
5.67807692307692e-01 9.06239103813519e-01 7.57724784423955e-03
5.76346153846154e-01 8.94255360356824e-01 7.53306268899064e-03
5.84884615384615e-01 8.82430085121628e-01 7.48831308940011e-03
5.93423076923077e-01 8.70761182607044e-01 7.44303588420201e-03
6.01961538461538e-01 8.59246584983746e-01 7.39726642213113e-03
6.10500000000000e-01 8.47884251803944e-01 7.35103862714201e-03
6.19038461538462e-01 8.36672169565609e-01 7.30438506164790e-03
6.27576923076923e-01 8.25608351427726e-01 7.25733698473202e-03
6.36115384615385e-01 8.14690836788207e-01 7.20992440877773e-03
6.44653846153846e-01 8.03917691004485e-01 7.16217615159852e-03
6.53192307692308e-01 7.93287004984563e-01 7.11411988731633e-03
6.61730769230769e-01 7.82796894912987e-01 7.06578219318981e-03
6.70269230769231e-01 7.72445501854523e-01 7.01718859779593e-03
6.78807692307692e-01 7.62230991471093e-01 6.96836361386232e-03
6.87346153846154e-01 7.52151553695477e-01 6.91933079362058e-03
6.95884615384615e-01 7.42205402367336e-01 6.87011275815276e-03
7.04423076923077e-01 7.32390774973752e-01 6.82073123616932e-03
7.12961538461538e-01 7.22705932281374e-01 6.77120709980045e-03
7.21500000000000e-01 7.13149158082256e-01 6.72156039746237e-03
7.30038461538462e-01 7.03718758837122e-01 6.67181038641045e-03
7.38576923076923e-01 6.94413063426484e-01 6.62197556261196e-03
7.47115384615385e-01 6.85230422804627e-01 6.57207369042085e-03
7.55653846153846e-01 6.76169209755967e-01 6.52212182978912e-03
7.64192307692308e-01 6.67227818559372e-01 6.47213636337625e-03
7.72730769230769e-01 6.58404664749729e-01 6.42213302138705e-03
7.81269230769231e-01 6.49698184792232e-01 6.37212690820466e-03
7.89807692307692e-01 6.41106835838681e-01 6.32213251781222e-03
7.98346153846154e-01 6.32629095453208e-01 6.27216376740361e-03
8.06884615384615e-01 6.24263461311288e-01 6.22223401134756e-03
8.15423076923077e-01 6.16008450974756e-01 6.17235606308074e-03
8.23961538461538e-01 6.07862601588902e-01 6.12254221517281e-03
8.32500000000000e-01 5.99824469662448e-01 6.07280425762556e-03
8.41038461538462e-01 5.91892630773516e-01 6.02315349635386e-03
8.49576923076923e-01 5.84065679354506e-01 5.97360077001905e-03
8.58115384615385e-01 5.76342228406638e-01 5.92415646707747e-03
8.66653846153846e-01 5.68720909289661e-01 5.87483054128847e-03
8.75192307692308e-01 5.61200371444683e-01 5.82563252746318e-03
8.83730769230769e-01 5.53779282188650e-01 5.77657155577146e-03
8.92269230769231e-01 5.46456326445186e-01 5.72765636774151e-03
9.00807692307692e-01 5.39230206536083e-01 5.67889532373355e-03
9.09346153846154e-01 5.32099641950714e-01 5.63029642497943e-03
9.17884615384615e-01 5.25063369096134e-01 5.58186732040607e-03
9.26423076923077e-01 5.18120141103563e-01 5.53361531993734e-03
9.34961538461538e-01 5.11268727577749e-01 5.48554740655640e-03
9.43500000000000e-01 5.04507914407922e-01 5.43767024719353e-03
9.52038461538462e-01 4.97836503524332e-01 5.38999020393122e-03
9.60576923076923e-01 4.91253312713599e-01 5.34251334410159e-03
9.69115384615385e-01 4.84757175382197e-01 5.29524545070580e-03
9.77653846153846e-01 4.78346940376127e-01 5.24819203178739e-03
9.86192307692308e-01 4.72021471751127e-01 5.20135833013058e-03
9.94730769230769e-01 4.65779648596582e-01 5.15474933196979e-03
1.00326923076923e+00 4.59620364812258e-01 5.10836977489628e-03
1.01180769230769e+00 4.53542528942082e-01 5.06222415716181e-03
1.02034615384615e+00 4.47545063951035e-01 5.01631674943732e-03
1.02888461538462e+00 4.41626907046393e-01 4.97065160741605e-03
1.03742307692308e+00 4.35787009435577e-01 4.92523254917807e-03
1.04596153846154e+00 4.30024336303707e-01 4.88006318443233e-03
1.05450000000000e+00 4.24337866464800e-01 4.83514694403973e-03
1.06303846153846e+00 4.18726592236596e-01 4.79048705287539e-03
1.07157692307692e+00 4.13189519262038e-01 4.74608654784458e-03
1.08011538461538e+00 4.07725666333107e-01 4.70194829398264e-03
1.08865384615385e+00 4.02334065169520e-01 4.65807496118019e-03
1.09719230769231e+00 3.97013760390990e-01 4.61446904990388e-03
1.10573076923077e+00 3.91763809202327e-01 4.57113291720666e-03
1.11426923076923e+00 3.86583281275495e-01 4.52806875169171e-03
1.12280769230769e+00 3.81471258584678e-01 4.48527858918275e-03
1.13134615384615e+00 3.76426835243759e-01 4.44276431793230e-03
1.13988461538462e+00 3.71449117345705e-01 4.40052769229711e-03
1.14842307692308e+00 3.66537222763287e-01 4.35857031150813e-03
1.15696153846154e+00 3.61690281116840e-01 4.31689364190747e-03
1.16550000000000e+00 3.56907433494455e-01 4.27549903946989e-03
1.17403846153846e+00 3.52187832342108e-01 4.23438772708625e-03
1.18257692307692e+00 3.47530641313498e-01 4.19356080796914e-03
1.19111538461538e+00 3.42935035121880e-01 4.15301927758605e-03
1.19965384615385e+00 3.38400199357621e-01 4.11276400409338e-03
1.20819230769231e+00 3.33925330453621e-01 4.07279574804598e-03
1.21673076923077e+00 3.29509635431873e-01 4.03311518238346e-03
1.22526923076923e+00 3.25152331800404e-01 3.99372287156157e-03
1.23380769230769e+00 3.20852647414555e-01 3.95461928331724e-03
1.24234615384615e+00 3.16609820340263e-01 3.91580479208464e-03
1.25088461538462e+00 3.12423098718983e-01 3.87727968923763e-03
1.25942307692308e+00 3.08291740603108e-01 3.83904416533502e-03
1.26796153846154e+00 3.04215013919618e-01 3.80109832728912e-03
1.27650000000000e+00 3.00192196244105e-01 3.76344221579605e-03
1.28503846153846e+00 2.96222574705198e-01 3.72607578646526e-03
1.29357692307692e+00 2.92305445858259e-01 3.68899891997313e-03
1.30211538461538e+00 2.88440115560751e-01 3.65221143106933e-03
1.31065384615385e+00 2.84625898821380e-01 3.61571305226476e-03
1.31919230769231e+00 2.80862119763146e-01 3.57950344913124e-03
1.32773076923077e+00 2.77148111418156e-01 3.54358223585075e-03
1.33626923076923e+00 2.73483215638236e-01 3.50794895791566e-03
1.34480769230769e+00 2.69866782978272e-01 3.47260310109780e-03
1.35334615384615e+00 2.66298172581195e-01 3.43754409371817e-03
1.36188461538462e+00 2.62776752064378e-01 3.40277131443556e-03
1.37042307692308e+00 2.59301897383353e-01 3.36828407748309e-03
1.37896153846154e+00 2.55872992794718e-01 3.33408164606913e-03
1.38750000000000e+00 2.52489430672683e-01 3.30016324600912e-03
1.39603846153846e+00 2.49150611426446e-01 3.26652805010777e-03
1.40457692307692e+00 2.45855943393961e-01 3.23317518594964e-03
1.41311538461538e+00 2.42604842737105e-01 3.20010374278606e-03
1.42165384615385e+00 2.39396733316628e-01 3.16731275799272e-03
1.43019230769231e+00 2.36231046655507e-01 3.13480122905987e-03
1.43873076923077e+00 2.33107221772007e-01 3.10256812580004e-03
1.44726923076923e+00 2.30024705102601e-01 3.07061237604434e-03
1.45580769230769e+00 2.26982950403838e-01 3.03893287255697e-03
1.46434615384615e+00 2.23981418655604e-01 3.00752847455094e-03
1.47288461538462e+00 2.21019577965577e-01 2.97639801367776e-03
1.48142307692308e+00 2.18096903456123e-01 2.94554028178651e-03
1.48996153846154e+00 2.15212877228455e-01 2.91495404146918e-03
1.49850000000000e+00 2.12366988213041e-01 2.88463803680621e-03
1.50703846153846e+00 2.09558732098520e-01 2.85459098046205e-03
1.51557692307692e+00 2.06787611242347e-01 2.82481155972027e-03
1.52411538461538e+00 2.04053134582618e-01 2.79529844180167e-03
1.53265384615385e+00 2.01354817534212e-01 2.76605026264452e-03
1.54119230769231e+00 1.98692181953959e-01 2.73706563636904e-03
1.54973076923077e+00 1.96064756004297e-01 2.70834316492862e-03
1.55826923076923e+00 1.93472074087057e-01 2.67988142629548e-03
1.56680769230769e+00 1.90913676760938e-01 2.65167897983676e-03
1.57534615384615e+00 1.88389110660131e-01 2.62373436732498e-03
1.58388461538462e+00 1.85897928413957e-01 2.59604611758283e-03
1.59242307692308e+00 1.83439688552848e-01 2.56861273634759e-03
1.60096153846154e+00 1.81013955474830e-01 2.54143271462199e-03
1.60950000000000e+00 1.78620299323122e-01 2.51450453719555e-03
1.61803846153846e+00 1.76258295925187e-01 2.48782667198812e-03
1.62657692307692e+00 1.73927526717582e-01 2.46139757475995e-03
1.63511538461538e+00 1.71627578671788e-01 2.43521569324910e-03
1.64365384615385e+00 1.69358044207822e-01 2.40927945788413e-03
1.65219230769231e+00 1.67118521162019e-01 2.38358728929722e-03
1.66073076923077e+00 1.64908612675313e-01 2.35813760599544e-03
1.66926923076923e+00 1.62727927136547e-01 2.33292881460506e-03
1.67780769230769e+00 1.60576078113058e-01 2.30795931407921e-03
1.68634615384615e+00 1.58452684282233e-01 2.28322749636425e-03
1.69488461538462e+00 1.56357369363918e-01 2.25873175002542e-03
1.70342307692308e+00 1.54289762042150e-01 2.23447045185877e-03
1.71196153846154e+00 1.52249495934506e-01 2.21044197353683e-03
1.72050000000000e+00 1.50236209491638e-01 2.18664468839873e-03
1.72903846153846e+00 1.48249545945182e-01 2.16307696264989e-03
1.73757692307692e+00 1.46289153244535e-01 2.13973715905891e-03
1.74611538461538e+00 1.44354683994480e-01 2.11662364019561e-03
1.75465384615385e+00 1.42445795383222e-01 2.09373476074484e-03
1.76319230769231e+00 1.40562149153163e-01 2.07106887349714e-03
1.77173076923077e+00 1.38703411509089e-01 2.04862433547329e-03
1.78026923076923e+00 1.36869253069766e-01 2.02639949986648e-03
1.78880769230769e+00 1.35059348809555e-01 2.00439271935238e-03
1.79734615384615e+00 1.33273378000838e-01 1.98260234652001e-03
1.80588461538462e+00 1.31511024157174e-01 1.96102673671624e-03
1.81442307692308e+00 1.29771974968060e-01 1.93966424110360e-03
1.82296153846154e+00 1.28055922271342e-01 1.91851321197047e-03
1.83150000000000e+00 1.26362561970550e-01 1.89757200816264e-03
1.84003846153846e+00 1.24691593990464e-01 1.87683898781309e-03
1.84857692307692e+00 1.23042722223937e-01 1.85631251125736e-03
1.85711538461538e+00 1.21415654479432e-01 1.83599094357879e-03
1.86565384615385e+00 1.19810102421017e-01 1.81587264824665e-03
1.87419230769231e+00 1.18225781542196e-01 1.79595599191071e-03
1.88273076923077e+00 1.16662411090296e-01 1.77623934930781e-03
1.89126923076923e+00 1.15119714025206e-01 1.75672109660356e-03
1.89980769230769e+00 1.13597416970277e-01 1.73739961400720e-03
1.90834615384615e+00 1.12095250163892e-01 1.71827328604007e-03
1.91688461538462e+00 1.10612947411655e-01 1.69934050377625e-03
1.92542307692308e+00 1.09150246031965e-01 1.68059965909583e-03
1.93396153846154e+00 1.07706886831463e-01 1.66204914894171e-03
1.94250000000000e+00 1.06282614036867e-01 1.64368737967832e-03
1.95103846153846e+00 1.04877175257137e-01 1.62551276108244e-03
1.95957692307692e+00 1.03490321438752e-01 1.60752370865023e-03
1.96811538461538e+00 1.02121806821579e-01 1.58971864560559e-03
1.97665384615385e+00 1.00771388888798e-01 1.57209599763287e-03
1.98519230769231e+00 9.94388283437017e-02 1.55465419672517e-03
1.99373076923077e+00 9.81238890473032e-02 1.53739168512684e-03
2.00226923076923e+00 9.68263379832223e-02 1.52030690982846e-03
2.01080769230769e+00 9.55459452163899e-02 1.50339832463936e-03
2.01934615384615e+00 9.42824838523130e-02 1.48666439034450e-03
2.02788461538462e+00 9.30357299968619e-02 1.47010357647534e-03
2.03642307692308e+00 9.18054627108265e-02 1.45371435655030e-03
2.04496153846154e+00 9.05914639882497e-02 1.43749521149667e-03
2.05350000000000e+00 8.93935187001240e-02 1.42144463315787e-03
2.06203846153846e+00 8.82114145622199e-02 1.40556111932297e-03
2.07057692307692e+00 8.70449420974707e-02 1.38984317555835e-03
2.07911538461538e+00 8.58938945988540e-02 1.37428931679698e-03
2.08765384615385e+00 8.47580680875631e-02 1.35889806297480e-03
2.09619230769231e+00 8.36372612926130e-02 1.34366794212784e-03
2.10473076923077e+00 8.25312755992542e-02 1.32859749356792e-03
2.11326923076923e+00 8.14399150191396e-02 1.31368526332791e-03
2.12180769230769e+00 8.03629861555902e-02 1.29892980580902e-03
2.13034615384615e+00 7.93002981693324e-02 1.28432968386134e-03
2.13888461538462e+00 7.82516627446758e-02 1.26988347018715e-03
2.14742307692308e+00 7.72168940515419e-02 1.25558974339689e-03
2.15596153846154e+00 7.61958087264786e-02 1.24144709076639e-03
2.16450000000000e+00 7.51882258260746e-02 1.22745411106529e-03
2.17303846153846e+00 7.41939667996407e-02 1.21360941044323e-03
2.18157692307692e+00 7.32128554575714e-02 1.19991160388730e-03
2.19011538461538e+00 7.22447179401246e-02 1.18635931648290e-03
2.19865384615385e+00 7.12893826824612e-02 1.17295117979683e-03
2.20719230769231e+00 7.03466803968206e-02 1.15968583437512e-03
2.21573076923077e+00 6.94164440298115e-02 1.14656193230653e-03
2.22426923076923e+00 6.84985087370901e-02 1.13357813345154e-03
2.23280769230769e+00 6.75927118541456e-02 1.12073310675447e-03
2.24134615384615e+00 6.66988928674816e-02 1.10802553027240e-03
2.24988461538462e+00 6.58168933861687e-02 1.09545409228989e-03
2.25842307692308e+00 6.49465571100977e-02 1.08301748804878e-03
2.26696153846154e+00 6.40877298134325e-02 1.07071442197412e-03
2.27550000000000e+00 6.32402593060132e-02 1.05854360995963e-03
2.28403846153846e+00 6.24039954101806e-02 1.04650377596052e-03
2.29257692307692e+00 6.15787899341653e-02 1.03459365315570e-03
2.30111538461538e+00 6.07644966458289e-02 1.02281198494992e-03
2.30965384615385e+00 5.99609712434263e-02 1.01115752197416e-03
2.31819230769231e+00 5.91680713401048e-02 9.99629024103847e-04
2.32673076923077e+00 5.83856564284967e-02 9.88225262531832e-04
2.33526923076923e+00 5.76135878592481e-02 9.76945016644132e-04
2.34380769230769e+00 5.68517288164465e-02 9.65787075067124e-04
2.35234615384615e+00 5.60999442933815e-02 9.54750235662403e-04
2.36088461538462e+00 5.53581010686177e-02 9.43833306413459e-04
2.36942307692308e+00 5.46260676794384e-02 9.33035102712806e-04
2.37796153846154e+00 5.39037144074873e-02 9.22354449162141e-04
2.38650000000000e+00 5.31909132467504e-02 9.11790181422168e-04
2.39503846153846e+00 5.24875378839132e-02 9.01341143388651e-04
2.40357692307692e+00 5.17934636759786e-02 8.91006188120804e-04
2.41211538461538e+00 5.11085676281800e-02 8.80784178639128e-04
2.42065384615385e+00 5.04327283695189e-02 8.70673985436212e-04
2.42919230769231e+00 4.97658261393373e-02 8.60674488110022e-04
2.43773076923077e+00 4.91077427579311e-02 8.50784577042960e-04
2.44626923076923e+00 4.84583616083576e-02 8.41003150811676e-04
2.45480769230769e+00 4.78175676157684e-02 8.31329117024067e-04
2.46334615384615e+00 4.71852472270212e-02 8.21761392292293e-04
2.47188461538462e+00 4.65612883905555e-02 8.12298902939245e-04
2.48042307692308e+00 4.59455805341668e-02 8.02940582746516e-04
2.48896153846154e+00 4.53380145525932e-02 7.93685374412403e-04
2.49750000000000e+00 4.47384827809263e-02 7.84532231051392e-04
2.50603846153846e+00 4.41468789779748e-02 7.75480113852087e-04
2.51457692307692e+00 4.35630983074387e-02 7.66527992819798e-04
2.52311538461538e+00 4.29870373193327e-02 7.57674847412607e-04
2.53165384615385e+00 4.24185939295090e-02 7.48919664474486e-04
2.54019230769231e+00 4.18576674080648e-02 7.40261439558982e-04
2.54873076923077e+00 4.13041583549282e-02 7.31699178291099e-04
2.55726923076923e+00 4.07579686844539e-02 7.23231894218406e-04
2.56580769230769e+00 4.02190016080411e-02 7.14858609480999e-04
2.57434615384615e+00 3.96871616169844e-02 7.06578354771191e-04
2.58288461538462e+00 3.91623544655476e-02 6.98390169896971e-04
2.59142307692308e+00 3.86444871523556e-02 6.90293101911601e-04
2.59996153846154e+00 3.81334679096936e-02 6.82286206296055e-04
2.60850000000000e+00 3.76292061814061e-02 6.74368548175975e-04
2.61703846153846e+00 3.71316126088156e-02 6.66539200378027e-04
2.62557692307692e+00 3.66405990148880e-02 6.58797244024633e-04
2.63411538461538e+00 3.61560783886083e-02 6.51141769041555e-04
2.64265384615385e+00 3.56779648678331e-02 6.43571872440720e-04
2.65119230769231e+00 3.52061737293102e-02 6.36086659394368e-04
2.65973076923077e+00 3.47406213683764e-02 6.28685244340917e-04
2.66826923076923e+00 3.42812252859236e-02 6.21366749201090e-04
2.67680769230769e+00 3.38279040737777e-02 6.14130303914811e-04
2.68534615384615e+00 3.33805774002753e-02 6.06975046393551e-04
2.69388461538462e+00 3.29391659960270e-02 5.99900122970174e-04
