Energy (eV)          EEDF (eV^-(3/2))     First Anisotropy
2.34905660377359e-02 5.80705306392038e-02 2.99124687822547e-05
7.04716981132076e-02 5.76934628454907e-02 4.93996957496412e-05
1.17452830188679e-01 5.73188434558259e-02 6.52283190227353e-05
1.64433962264151e-01 5.69466565728350e-02 7.72626608901365e-05
2.11415094339623e-01 5.65768864008072e-02 8.73070822720787e-05
2.58396226415094e-01 5.62095172473695e-02 9.60434041931184e-05
3.05377358490566e-01 5.58445335220483e-02 1.03824281030486e-04
3.52358490566038e-01 5.54819197345024e-02 1.10862558913886e-04
3.99339622641509e-01 5.51216604973399e-02 1.17299328069761e-04
4.46320754716981e-01 5.47637405217824e-02 1.23234256925898e-04
4.93301886792453e-01 5.44081446183389e-02 1.28741087251637e-04
5.40283018867925e-01 5.40548576961560e-02 1.33876338910062e-04
5.87264150943396e-01 5.37038647623746e-02 1.38684556915362e-04
6.34245283018868e-01 5.33551509214915e-02 1.43201651740520e-04
6.81226415094340e-01 5.30087013747236e-02 1.47457120621655e-04
7.28207547169811e-01 5.26645014193850e-02 1.51475578491149e-04
7.75188679245283e-01 5.23225364482608e-02 1.55277845094084e-04
8.22169811320755e-01 5.19827919489851e-02 1.58881736771392e-04
8.69150943396226e-01 5.16452535034257e-02 1.62302655857937e-04
9.16132075471698e-01 5.13099067870715e-02 1.65554037873773e-04
9.63113207547170e-01 5.09767375680725e-02 1.68647696319851e-04
1.01009433962264e+00 5.06457317077156e-02 1.71594092972747e-04
1.05707547169811e+00 5.03168751574108e-02 1.74402551575578e-04
1.10405660377359e+00 4.99901539630951e-02 1.77081430158192e-04
1.15103773584906e+00 4.96655542592499e-02 1.79638260919593e-04
1.19801886792453e+00 4.93430622703670e-02 1.82079863784030e-04
1.24500000000000e+00 4.90226643104269e-02 1.84412441466497e-04
1.29198113207547e+00 4.87043467798054e-02 1.86641657078424e-04
1.33896226415094e+00 4.83880961722798e-02 1.88772700914262e-04
1.38594339622642e+00 4.80738990667069e-02 1.90810347005514e-04
1.43292452830189e+00 4.77617421290770e-02 1.92758999477421e-04
1.47990566037736e+00 4.74516121119898e-02 1.94622733872441e-04
1.52688679245283e+00 4.71434958520438e-02 1.96405331142691e-04
1.57386792452830e+00 4.68373802754523e-02 1.98110308526764e-04
1.62084905660377e+00 4.65332523911959e-02 1.99740946458780e-04
1.66783018867925e+00 4.62310992926059e-02 2.01300310494965e-04
1.71481132075472e+00 4.59309081568355e-02 2.02791272026359e-04
1.76179245283019e+00 4.56326662426101e-02 2.04216525094273e-04
1.80877358490566e+00 4.53363608948426e-02 2.05578602593281e-04
1.85575471698113e+00 4.50419795388493e-02 2.06879890695468e-04
1.90273584905660e+00 4.47495096815992e-02 2.08122640537393e-04
1.94971698113208e+00 4.44589389096925e-02 2.09308978699575e-04
1.99669811320755e+00 4.41702548933869e-02 2.10440917585570e-04
2.04367924528302e+00 4.38834453814440e-02 2.11520364787868e-04
2.09066037735849e+00 4.35984982021716e-02 2.12549130199151e-04
2.13764150943396e+00 4.33154012629159e-02 2.13528933697597e-04
2.18462264150943e+00 4.30341425482582e-02 2.14461410893103e-04
2.23160377358491e+00 4.27547101234259e-02 2.15348119500933e-04
2.27858490566038e+00 4.24770921298056e-02 2.16190545176963e-04
2.32556603773585e+00 4.22012767857803e-02 2.16990105623834e-04
2.37254716981132e+00 4.19272523862401e-02 2.17748155504971e-04
2.41952830188679e+00 4.16550073009562e-02 2.18465989828387e-04
2.46650943396226e+00 4.13845299775060e-02 2.19144848119578e-04
2.51349056603774e+00 4.11158089373173e-02 2.19785918289150e-04
2.56047169811321e+00 4.08488327763464e-02 2.20390339075362e-04
2.60745283018868e+00 4.05835901646063e-02 2.20959203372003e-04
2.65443396226415e+00 4.03200698446873e-02 2.21493560272161e-04
2.70141509433962e+00 4.00582606342903e-02 2.21994417950138e-04
2.74839622641509e+00 3.97981514227037e-02 2.22462746360445e-04
2.79537735849057e+00 3.95397311713579e-02 2.22899478709670e-04
2.84235849056604e+00 3.92829889133649e-02 2.23305513821849e-04
2.88933962264151e+00 3.90279137521673e-02 2.23681717382975e-04
2.93632075471698e+00 3.87744948637479e-02 2.24028924024188e-04
2.98330188679245e+00 3.85227214934660e-02 2.24347939289406e-04
3.03028301886792e+00 3.82725829565131e-02 2.24639540515962e-04
3.07726415094340e+00 3.80240686374632e-02 2.24904478586739e-04
3.12424528301887e+00 3.77771679890323e-02 2.25143478679492e-04
3.17122641509434e+00 3.75318705340178e-02 2.25357241832126e-04
3.21820754716981e+00 3.72881658624389e-02 2.25546446432077e-04
3.26518867924528e+00 3.70460436319100e-02 2.25711748893309e-04
3.31216981132075e+00 3.68054935664777e-02 2.25853784325151e-04
3.35915094339623e+00 3.65665054583832e-02 2.25973167809789e-04
3.40613207547170e+00 3.63290691654053e-02 2.26070495624869e-04
3.45311320754717e+00 3.60931746111770e-02 2.26146345548973e-04
3.50009433962264e+00 3.58588117847618e-02 2.26201277973853e-04
3.54707547169811e+00 3.56259707395723e-02 2.26235836164675e-04
3.59405660377359e+00 3.53946415949339e-02 2.26250547275381e-04
3.64103773584906e+00 3.51648145336585e-02 2.26245923326904e-04
3.68801886792453e+00 3.49364798023017e-02 2.26222461340356e-04
3.73500000000000e+00 3.47096277107533e-02 2.26180644235898e-04
3.78198113207547e+00 3.44842486312296e-02 2.26120940944402e-04
3.82896226415094e+00 3.42603329996651e-02 2.26043807235039e-04
3.87594339622642e+00 3.40378713134881e-02 2.25949686517354e-04
3.92292452830189e+00 3.38168541318284e-02 2.25839009860066e-04
3.96990566037736e+00 3.35972720751199e-02 2.25712196734425e-04
4.01688679245283e+00 3.33791158241596e-02 2.25569655025774e-04
4.06386792452830e+00 3.31623761213508e-02 2.25411781723214e-04
4.11084905660377e+00 3.29470437686556e-02 2.25238963591036e-04
4.15783018867925e+00 3.27331096277606e-02 2.25051577110904e-04
4.20481132075472e+00 3.25205646196914e-02 2.24849989109009e-04
4.25179245283019e+00 3.23093997239317e-02 2.24634556699679e-04
4.29877358490566e+00 3.20996059795372e-02 2.24405627871035e-04
4.34575471698113e+00 3.18911744832437e-02 2.24163542057215e-04
4.39273584905660e+00 3.16840963895986e-02 2.23908630153738e-04
4.43971698113208e+00 3.14783629101233e-02 2.23641214556705e-04
4.48669811320755e+00 3.12739653143403e-02 2.23361609683809e-04
4.53367924528302e+00 3.10708949279889e-02 2.23070122484619e-04
4.58066037735849e+00 3.08691431331324e-02 2.22767052301705e-04
4.62764150943396e+00 3.06687013677929e-02 2.22452691351779e-04
4.67462264150943e+00 3.04695611251636e-02 2.22127324596840e-04
4.72160377358491e+00 3.02717139545331e-02 2.21791230198504e-04
4.76858490566038e+00 3.00751514596292e-02 2.21444679964748e-04
4.81556603773585e+00 2.98798652986983e-02 2.21087939186389e-04
4.86254716981132e+00 2.96858471841528e-02 2.20721267060201e-04
4.90952830188679e+00 2.94930888818277e-02 2.20344916538236e-04
4.95650943396226e+00 2.93015822118149e-02 2.19959134728709e-04
5.00349056603774e+00 2.91113190469219e-02 2.19564163291625e-04
5.05047169811321e+00 2.89222913127271e-02 2.19160238259706e-04
5.09745283018868e+00 2.87344909872395e-02 2.18747590414554e-04
5.14443396226415e+00 2.85479101001963e-02 2.18326445121940e-04
5.19141509433962e+00 2.83625407338164e-02 2.17897022689280e-04
5.23839622641509e+00 2.81783750213634e-02 2.17459538719350e-04
5.28537735849057e+00 2.79954051471810e-02 2.17014203922125e-04
5.33235849056604e+00 2.78136233463628e-02 2.16561224452317e-04
5.37933962264151e+00 2.76330219040884e-02 2.16100801736123e-04
5.42632075471698e+00 2.74535931563057e-02 2.15633132792943e-04
5.47330188679245e+00 2.72753294883873e-02 2.15158410554213e-04
5.52028301886793e+00 2.70982233351492e-02 2.14676823670670e-04
5.56726415094340e+00 2.69222671805309e-02 2.14188556817699e-04
5.61424528301887e+00 2.67474535569661e-02 2.13693790517496e-04
5.66122641509434e+00 2.65737750460024e-02 2.13192701430853e-04
5.70820754716981e+00 2.64012242770416e-02 2.12685462646617e-04
5.75518867924528e+00 2.62297939273453e-02 2.12172243577673e-04
5.80216981132075e+00 2.60594767214311e-02 2.11653209878077e-04
5.84915094339623e+00 2.58902654316488e-02 2.11128523714654e-04
5.89613207547170e+00 2.57221528769815e-02 2.10598344036901e-04
5.94311320754717e+00 2.55551319230402e-02 2.10062826382628e-04
5.99009433962264e+00 2.53891954817618e-02 2.09522123137123e-04
6.03707547169811e+00 2.52243365108362e-02 2.08976383353639e-04
6.08405660377359e+00 2.50605480142295e-02 2.08425753002273e-04
6.13103773584906e+00 2.48978230410583e-02 2.07870375217797e-04
6.17801886792453e+00 2.47361546855729e-02 2.07310390107383e-04
6.22500000000000e+00 2.45755360868647e-02 2.06745934989016e-04
6.27198113207547e+00 2.44159604283220e-02 2.06177144213940e-04
6.31896226415094e+00 2.42574209381059e-02 2.05604149395806e-04
6.36594339622642e+00 2.40999108880912e-02 2.05027079639261e-04
6.41292452830189e+00 2.39434235938400e-02 2.04446061351105e-04
6.45990566037736e+00 2.37879524143188e-02 2.03861218460630e-04
6.50688679245283e+00 2.36334907513801e-02 2.03272672245036e-04
6.55386792452830e+00 2.34800320501959e-02 2.02680541541372e-04
6.60084905660377e+00 2.33275697982605e-02 2.02084942958216e-04
6.64783018867925e+00 2.31760975253556e-02 2.01485990691213e-04
6.69481132075472e+00 2.30256088032761e-02 2.00883796727422e-04
6.74179245283019e+00 2.28760972453363e-02 2.00278470674466e-04
6.78877358490566e+00 2.27275565067658e-02 1.99670119957450e-04
6.83575471698113e+00 2.25799802837682e-02 1.99058850015567e-04
6.88273584905660e+00 2.24333623134795e-02 1.98444764193079e-04
6.92971698113208e+00 2.22876963734927e-02 1.97827963647077e-04
6.97669811320755e+00 2.21429762822271e-02 1.97208547533911e-04
7.02367924528302e+00 2.19991958980278e-02 1.96586613195416e-04
7.07066037735849e+00 2.18563491191191e-02 1.95962255983171e-04
7.11764150943396e+00 2.17144298833459e-02 1.95335569438521e-04
7.16462264150943e+00 2.15734321677208e-02 1.94706645129439e-04
7.21160377358491e+00 2.14333499887598e-02 1.94075572824540e-04
7.25858490566038e+00 2.12941774016327e-02 1.93442440667183e-04
7.30556603773585e+00 2.11559085001103e-02 1.92807335005087e-04
7.35254716981132e+00 2.10185374163144e-02 1.92170340558790e-04
7.39952830188679e+00 2.08820583202851e-02 1.91531540263525e-04
7.44650943396226e+00 2.07464654202879e-02 1.90891015432004e-04
7.49349056603774e+00 2.06117529620092e-02 1.90248845917580e-04
7.54047169811321e+00 2.04779152284995e-02 1.89605109949451e-04
7.58745283018868e+00 2.03449465399315e-02 1.88959884290590e-04
7.63443396226415e+00 2.02128412531862e-02 1.88313244084780e-04
7.68141509433962e+00 2.00815937621339e-02 1.87665263009323e-04
7.72839622641509e+00 1.99511984968723e-02 1.87016013428148e-04
7.77537735849057e+00 1.98216499236656e-02 1.86365566232719e-04
7.82235849056604e+00 1.96929425447107e-02 1.85713990990484e-04
7.86933962264151e+00 1.95650708977414e-02 1.85061355797000e-04
7.91632075471698e+00 1.94380295562851e-02 1.84407727419513e-04
7.96330188679245e+00 1.93118131289406e-02 1.83753171440916e-04
8.01028301886793e+00 1.91864162593147e-02 1.83097752106387e-04
8.05726415094340e+00 1.90618336257947e-02 1.82441532463132e-04
8.10424528301887e+00 1.89380599411711e-02 1.81784574217595e-04
8.15122641509434e+00 1.88150899528711e-02 1.81126937870722e-04
8.19820754716981e+00 1.86929184422744e-02 1.80468682853574e-04
8.24518867924528e+00 1.85715402246467e-02 1.79809867432910e-04
8.29216981132076e+00 1.84509501487747e-02 1.79150548629268e-04
8.33915094339623e+00 1.83311430971853e-02 1.78490782346267e-04
8.38613207547170e+00 1.82121139854875e-02 1.77830623500349e-04
8.43311320754717e+00 1.80938577623044e-02 1.77170125877121e-04
8.48009433962264e+00 1.79763694090595e-02 1.76509342257214e-04
8.52707547169811e+00 1.78596439396267e-02 1.75848324282435e-04
8.57405660377358e+00 1.77436764005310e-02 1.75187122577820e-04
8.62103773584906e+00 1.76284618703233e-02 1.74525786874276e-04
8.66801886792453e+00 1.75139954595106e-02 1.73864365870229e-04
8.71500000000000e+00 1.74002723103489e-02 1.73202907350642e-04
8.76198113207547e+00 1.72872875965087e-02 1.72541458058199e-04
8.80896226415094e+00 1.71750365232576e-02 1.71880063808641e-04
8.85594339622642e+00 1.70635143268663e-02 1.71218769606740e-04
8.90292452830189e+00 1.69527162745380e-02 1.70557619513300e-04
8.94990566037736e+00 1.68426376642070e-02 1.69896656757803e-04
8.99688679245283e+00 1.67332738242187e-02 1.69235923614347e-04
9.04386792452830e+00 1.66246201134964e-02 1.68575461510899e-04
9.09084905660377e+00 1.65166719209763e-02 1.67915311139114e-04
9.13783018867925e+00 1.64094246655357e-02 1.67255512326436e-04
9.18481132075472e+00 1.63028737957984e-02 1.66596104142846e-04
9.23179245283019e+00 1.61970147898275e-02 1.65937124781498e-04
9.27877358490566e+00 1.60918431552778e-02 1.65278611662298e-04
9.32575471698113e+00 1.59873544288587e-02 1.64620601535928e-04
9.37273584905661e+00 1.58835441762607e-02 1.63963130403757e-04
9.41971698113208e+00 1.57804079918587e-02 1.63306233447644e-04
9.46669811320755e+00 1.56779414988541e-02 1.62649945129361e-04
9.51367924528302e+00 1.55761403487574e-02 1.61994299290537e-04
9.56066037735849e+00 1.54750002213150e-02 1.61339329033450e-04
9.60764150943396e+00 1.53745168243260e-02 1.60685066818148e-04
9.65462264150943e+00 1.52746858933570e-02 1.60031544351021e-04
9.70160377358491e+00 1.51755031918721e-02 1.59378792679195e-04
9.74858490566038e+00 1.50769645107397e-02 1.58726842285461e-04
9.79556603773585e+00 1.49790656681597e-02 1.58075722973644e-04
9.84254716981132e+00 1.48818025094852e-02 1.57425463960926e-04
9.88952830188679e+00 1.47851709069496e-02 1.56776093770764e-04
9.93650943396226e+00 1.46891667597847e-02 1.56127640322497e-04
9.98349056603774e+00 1.45937859937511e-02 1.55480130907688e-04
1.00304716981132e+01 1.44990245613458e-02 1.54833592687922e-04
1.00774528301887e+01 1.44048784401307e-02 1.54188051605188e-04
1.01244339622642e+01 1.43113436356574e-02 1.53543532921994e-04
1.01714150943396e+01 1.42184161784712e-02 1.52900062485017e-04
1.02183962264151e+01 1.41260921239950e-02 1.52257664464778e-04
1.02653773584906e+01 1.40343675550749e-02 1.51616362499452e-04
1.03123584905660e+01 1.39432385790798e-02 1.50976180810138e-04
1.03593396226415e+01 1.38527013277860e-02 1.50337141998472e-04
1.04063207547170e+01 1.37627519598388e-02 1.49699268160236e-04
1.04533018867925e+01 1.36733866579438e-02 1.49062581972237e-04
1.05002830188679e+01 1.35846016287527e-02 1.48427104546188e-04
1.05472641509434e+01 1.34963931052434e-02 1.47792856513048e-04
1.05942452830189e+01 1.34087573440002e-02 1.47159858742336e-04
1.06412264150943e+01 1.33216906259151e-02 1.46528131612660e-04
1.06882075471698e+01 1.32351892552259e-02 1.45897694365810e-04
1.07351886792453e+01 1.31492495617861e-02 1.45268565794423e-04
1.07821698113208e+01 1.30638678984655e-02 1.44640765261947e-04
1.08291509433962e+01 1.29790406410386e-02 1.44014310688229e-04
1.08761320754717e+01 1.28947641903792e-02 1.43389219566578e-04
1.09231132075472e+01 1.28110349699423e-02 1.42765509957299e-04
1.09700943396226e+01 1.27278494256540e-02 1.42143198524179e-04
1.10170754716981e+01 1.26452040280346e-02 1.41522301525916e-04
1.10640566037736e+01 1.25630952697580e-02 1.40902835783997e-04
1.11110377358491e+01 1.24815196655437e-02 1.40284816768658e-04
1.11580188679245e+01 1.24004737542111e-02 1.39668259565346e-04
1.12050000000000e+01 1.23199540963135e-02 1.39053179817722e-04
1.12519811320755e+01 1.22399572740319e-02 1.38439591861778e-04
1.12989622641509e+01 1.21604798931633e-02 1.37827509667889e-04
1.13459433962264e+01 1.20815185808267e-02 1.37216947759798e-04
1.13929245283019e+01 1.20030699853588e-02 1.36607919395599e-04
1.14399056603774e+01 1.19251307782379e-02 1.36000437485767e-04
1.14868867924528e+01 1.18476976518608e-02 1.35394515489123e-04
1.15338679245283e+01 1.17707673194391e-02 1.34790165639338e-04
1.15808490566038e+01 1.16943365168617e-02 1.34187399839451e-04
1.16278301886792e+01 1.16184020005396e-02 1.33586230535594e-04
1.16748113207547e+01 1.15429605473033e-02 1.32986668987731e-04
1.17217924528302e+01 1.14680089562063e-02 1.32388726141336e-04
1.17687735849057e+01 1.13935440464350e-02 1.31792413479499e-04
1.18157547169811e+01 1.13195626572070e-02 1.31197741336684e-04
1.18627358490566e+01 1.12460616495183e-02 1.30604719748203e-04
1.19097169811321e+01 1.11730379041157e-02 1.30013359014087e-04
1.19566981132075e+01 1.11004883220003e-02 1.29423669125292e-04
1.20036792452830e+01 1.10284098237001e-02 1.28835659253811e-04
1.20506603773585e+01 1.09567993509389e-02 1.28249338292115e-04
1.20976415094340e+01 1.08856538646945e-02 1.27664715654214e-04
1.21446226415094e+01 1.08149703451006e-02 1.27081799689834e-04
1.21916037735849e+01 1.07447457930629e-02 1.26500598483180e-04
1.22385849056604e+01 1.06749772283753e-02 1.25921120633833e-04
1.22855660377358e+01 1.06056616896232e-02 1.25343373710033e-04
1.23325471698113e+01 1.05367962357493e-02 1.24767365027822e-04
1.23795283018868e+01 1.04683779442251e-02 1.24193102412335e-04
1.24265094339623e+01 1.04004039109563e-02 1.23620592689137e-04
1.24734905660377e+01 1.03328712517995e-02 1.23049842444273e-04
1.25204716981132e+01 1.02657771007877e-02 1.22480858766503e-04
1.25674528301887e+01 1.01991186100372e-02 1.21913647775718e-04
1.26144339622642e+01 1.01328929512172e-02 1.21348215364203e-04
1.26614150943396e+01 1.00670973138278e-02 1.20784567920595e-04
1.27083962264151e+01 1.00017289051074e-02 1.20222710894404e-04
1.27553773584906e+01 9.93678495145826e-03 1.19662649518724e-04
1.28023584905660e+01 9.87226269677367e-03 1.19104389516618e-04
1.28493396226415e+01 9.80815940234760e-03 1.18547935700712e-04
1.28963207547170e+01 9.74447234825574e-03 1.17993292677882e-04
1.29433018867925e+01 9.68119883173230e-03 1.17440465538546e-04
1.29902830188679e+01 9.61833616708017e-03 1.16889458490361e-04
1.30372641509434e+01 9.55588168701014e-03 1.16340275545421e-04
1.30842452830189e+01 9.49383274106482e-03 1.15792920976246e-04
1.31312264150943e+01 9.43218669599712e-03 1.15247398850625e-04
1.31782075471698e+01 9.37094093519712e-03 1.14703712617256e-04
1.32251886792453e+01 9.31009285997368e-03 1.14161865542186e-04
1.32721698113208e+01 9.24963988804250e-03 1.13621861358001e-04
1.33191509433962e+01 9.18957945343924e-03 1.13083702977100e-04
1.33661320754717e+01 9.12990900776214e-03 1.12547393138574e-04
1.34131132075472e+01 9.07062601870334e-03 1.12012935041425e-04
1.34600943396226e+01 9.01172796996374e-03 1.11480331088962e-04
1.35070754716981e+01 8.95321236245786e-03 1.10949583520138e-04
1.35540566037736e+01 8.89507671288709e-03 1.10420695027164e-04
1.36010377358491e+01 8.83731855365617e-03 1.09893667530249e-04
1.36480188679245e+01 8.77993543404160e-03 1.09368502793744e-04
1.36950000000000e+01 8.72292491880555e-03 1.08845203028623e-04
1.37419811320755e+01 8.66628458811382e-03 1.08323769696785e-04
1.37889622641509e+01 8.61001203866907e-03 1.07804204112327e-04
1.38359433962264e+01 8.55410488236413e-03 1.07286508029388e-04
1.38829245283019e+01 8.49856074620133e-03 1.06770682475242e-04
1.39299056603774e+01 8.44337727339175e-03 1.06256728336952e-04
1.39768867924528e+01 8.38855212204681e-03 1.05744646935101e-04
1.40238679245283e+01 8.33408296509872e-03 1.05234438884926e-04
1.40708490566038e+01 8.27996749136700e-03 1.04726104668628e-04
1.41178301886792e+01 8.22620340428720e-03 1.04219645195461e-04
1.41648113207547e+01 8.17278842183234e-03 1.03715060690149e-04
1.42117924528302e+01 8.11972027754785e-03 1.03212351251232e-04
1.42587735849057e+01 8.06699671931620e-03 1.02711517397854e-04
1.43057547169811e+01 8.01461550927939e-03 1.02212558984769e-04
1.43527358490566e+01 7.96257442484331e-03 1.01715475747089e-04
1.43997169811321e+01 7.91087125747713e-03 1.01220267662028e-04
1.44466981132075e+01 7.85950381299062e-03 1.00726934579271e-04
1.44936792452830e+01 7.80846991109159e-03 1.00235475890968e-04
1.45406603773585e+01 7.75776738634842e-03 9.97458908781008e-05
1.45876415094340e+01 7.70739408703633e-03 9.92581792259507e-05
1.46346226415094e+01 7.65734787506293e-03 9.87723400009893e-05
1.46816037735849e+01 7.60762662690228e-03 9.82883721645634e-05
1.47285849056604e+01 7.55822823247321e-03 9.78062750759403e-05
1.47755660377358e+01 7.50915059506628e-03 9.73260474935200e-05
1.48225471698113e+01 7.46039163225032e-03 9.68476880763683e-05
