Energy (eV)          EEDF (eV^-(3/2))     First Anisotropy
3.55555555555556e-02 8.53740951690860e-02 6.13614436466605e-05
1.06666666666667e-01 8.42902902956293e-02 1.01021649021886e-04
1.77777777777778e-01 8.32202440815708e-02 1.32558319460857e-04
2.48888888888889e-01 8.21637818628370e-02 1.56034663122301e-04
3.20000000000000e-01 8.11207311936267e-02 1.75219132254290e-04
3.91111111111111e-01 8.00909218144331e-02 1.91549145605630e-04
4.62222222222222e-01 7.90741856335350e-02 2.05774819622914e-04
5.33333333333333e-01 7.80703566894299e-02 2.18352827047699e-04
6.04444444444444e-01 7.70792711275427e-02 2.29588467078863e-04
6.75555555555556e-01 7.61007671734374e-02 2.39699218606956e-04
7.46666666666667e-01 7.51346851063698e-02 2.48847317546041e-04
8.17777777777778e-01 7.41808672332600e-02 2.57158119868952e-04
8.88888888888889e-01 7.32391578629128e-02 2.64731208042278e-04
9.60000000000000e-01 7.23094032806019e-02 2.71647485328587e-04
1.03111111111111e+00 7.13914517220686e-02 2.77973909350259e-04
1.10222222222222e+00 7.04851533489149e-02 2.83766764976136e-04
1.17333333333333e+00 6.95903602302385e-02 2.89073997388375e-04
1.24444444444444e+00 6.87069263092682e-02 2.93936916846547e-04
1.31555555555556e+00 6.78347073834190e-02 2.98391471237338e-04
1.38666666666667e+00 6.69735610806920e-02 3.02469215693059e-04
1.45777777777778e+00 6.61233468365540e-02 3.06198062977729e-04
1.52888888888889e+00 6.52839258709182e-02 3.09602873049711e-04
1.60000000000000e+00 6.44551611654894e-02 3.12705922871167e-04
1.67111111111111e+00 6.36369174364604e-02 3.15527283102045e-04
1.74222222222222e+00 6.28290611275980e-02 3.18085126970747e-04
1.81333333333333e+00 6.20314603728790e-02 3.20395984416969e-04
1.88444444444444e+00 6.12439849802981e-02 3.22474950643549e-04
1.95555555555556e+00 6.04665064106150e-02 3.24335862296702e-04
2.02666666666667e+00 5.96988977563494e-02 3.25991445496598e-04
2.09777777777778e+00 5.89410337211143e-02 3.27453441449120e-04
2.16888888888889e+00 5.81927905991361e-02 3.28732713719482e-04
2.24000000000000e+00 5.74540462550613e-02 3.29839340731702e-04
2.31111111111111e+00 5.67246801008565e-02 3.30782694298586e-04
2.38222222222222e+00 5.60045730858061e-02 3.31571509468812e-04
2.45333333333333e+00 5.52936076671948e-02 3.32213945565475e-04
2.52444444444444e+00 5.45916677944882e-02 3.32717637927388e-04
2.59555555555556e+00 5.38986388903904e-02 3.33089744816374e-04
2.66666666666667e+00 5.32144078321289e-02 3.33336988533601e-04
2.73777777777778e+00 5.25388629330148e-02 3.33465691897224e-04
2.80888888888889e+00 5.18718939241979e-02 3.33481810721069e-04
2.88000000000000e+00 5.12133919366682e-02 3.33390963101040e-04
2.95111111111111e+00 5.05632494812824e-02 3.33198454570451e-04
3.02222222222222e+00 4.99213604379407e-02 3.32909302041138e-04
3.09333333333333e+00 4.92876200314205e-02 3.32528255447854e-04
3.16444444444444e+00 4.86619248165983e-02 3.32059815916331e-04
3.23555555555556e+00 4.80441726615644e-02 3.31508253322714e-04
3.30666666666667e+00 4.74342627309451e-02 3.30877621976001e-04
3.37777777777778e+00 4.68320954694576e-02 3.30171774903013e-04
3.44888888888889e+00 4.62375725856519e-02 3.29394376890229e-04
3.52000000000000e+00 4.56505970358666e-02 3.28548916635955e-04
3.59111111111111e+00 4.50710730067786e-02 3.27638717006029e-04
3.66222222222222e+00 4.44989059046704e-02 3.26666945538675e-04
3.73333333333333e+00 4.39340023350018e-02 3.25636624154426e-04
3.80444444444444e+00 4.33762700888559e-02 3.24550636972708e-04
3.87555555555556e+00 4.28256181278881e-02 3.23411738423819e-04
3.94666666666667e+00 4.22819565694615e-02 3.22222560531056e-04
4.01777777777778e+00 4.17451966719841e-02 3.20985619660016e-04
4.08888888888889e+00 4.12152508204189e-02 3.19703322783918e-04
4.16000000000000e+00 4.06920325119827e-02 3.18377973489037e-04
4.23111111111111e+00 4.01754563408098e-02 3.17011776836360e-04
4.30222222222222e+00 3.96654379877141e-02 3.15606844789705e-04
4.37333333333333e+00 3.91618942026666e-02 3.14165201312653e-04
4.44444444444444e+00 3.86647427924790e-02 3.12688786195601e-04
4.51555555555556e+00 3.81739026073875e-02 3.11179459375167e-04
4.58666666666667e+00 3.76892935278039e-02 3.09639004796243e-04
4.65777777777778e+00 3.72108364512432e-02 3.08069134035194e-04
4.72888888888889e+00 3.67384532794094e-02 3.06471489702824e-04
4.80000000000000e+00 3.62720669054466e-02 3.04847648794289e-04
4.87111111111111e+00 3.58116012004129e-02 3.03199125235017e-04
4.94222222222222e+00 3.53569810037155e-02 3.01527373026987e-04
5.01333333333333e+00 3.49081321079390e-02 2.99833789237876e-04
5.08444444444444e+00 3.44649812477150e-02 2.98119716041924e-04
5.15555555555556e+00 3.40274560877625e-02 2.96386443264290e-04
5.22666666666667e+00 3.35954852110789e-02 2.94635210632146e-04
5.29777777777778e+00 3.31689981072869e-02 2.92867209905246e-04
5.36888888888889e+00 3.27479251611226e-02 2.91083586894137e-04
5.44000000000000e+00 3.23321976410722e-02 2.89285443499666e-04
5.51111111111111e+00 3.19217476874128e-02 2.87473839138639e-04
5.58222222222222e+00 3.15165083033871e-02 2.85649792726204e-04
5.65333333333333e+00 3.11164133419849e-02 2.83814284576306e-04
5.72444444444444e+00 3.07213974959177e-02 2.81968257553199e-04
5.79555555555556e+00 3.03313962869585e-02 2.80112618685410e-04
5.86666666666667e+00 2.99463460554155e-02 2.78248240571964e-04
5.93777777777778e+00 2.95661839497441e-02 2.76375962722143e-04
6.00888888888889e+00 2.91908479162861e-02 2.74496592832676e-04
6.08000000000000e+00 2.88202766891405e-02 2.72610908112645e-04
6.15111111111111e+00 2.84544097795720e-02 2.70719656117922e-04
6.22222222222222e+00 2.80931874679341e-02 2.68823556079997e-04
6.29333333333333e+00 2.77365507921009e-02 2.66923300189031e-04
6.36444444444444e+00 2.73844415384574e-02 2.65019554266613e-04
6.43555555555556e+00 2.70368022323974e-02 2.63112958847941e-04
6.50666666666667e+00 2.66935761289412e-02 2.61204130107128e-04
6.57777777777778e+00 2.63547072034749e-02 2.59293660743142e-04
6.64888888888889e+00 2.60201401426045e-02 2.57382120828456e-04
6.72000000000000e+00 2.56898203351272e-02 2.55470058712944e-04
6.79111111111111e+00 2.53636938626402e-02 2.53558001525381e-04
6.86222222222222e+00 2.50417074921884e-02 2.51646456106696e-04
6.93333333333333e+00 2.47238086661082e-02 2.49735909916267e-04
7.00444444444444e+00 2.44099454939438e-02 2.47826831431600e-04
7.07555555555556e+00 2.41000667439770e-02 2.45919670905206e-04
7.14666666666667e+00 2.37941218348642e-02 2.44014860997928e-04
7.21777777777778e+00 2.34920608273812e-02 2.42112817387683e-04
7.28888888888889e+00 2.31938344162713e-02 2.40213939354730e-04
7.36000000000000e+00 2.28993939221968e-02 2.38318610421860e-04
7.43111111111111e+00 2.26086912834049e-02 2.36427198659008e-04
7.50222222222222e+00 2.23216790490621e-02 2.34540057362391e-04
7.57333333333333e+00 2.20383103703148e-02 2.32657525717173e-04
7.64444444444444e+00 2.17585389930447e-02 2.30779929034449e-04
7.71555555555556e+00 2.14823192503197e-02 2.28907579298073e-04
7.78666666666667e+00 2.12096060549383e-02 2.27040775611468e-04
7.85777777777778e+00 2.09403548920716e-02 2.25179804628346e-04
7.92888888888889e+00 2.06745218119963e-02 2.23324940968073e-04
8.00000000000000e+00 2.04120634229212e-02 2.21476447682335e-04
8.07111111111111e+00 2.01529368835854e-02 2.19634576439039e-04
8.14222222222222e+00 1.98970998972328e-02 2.17799568030229e-04
8.21333333333333e+00 1.96445107037290e-02 2.15971652869606e-04
8.28444444444444e+00 1.93951280730752e-02 2.14151051129587e-04
8.35555555555556e+00 1.91489112986779e-02 2.12337973146380e-04
8.42666666666667e+00 1.89058201907048e-02 2.10532619742654e-04
8.49777777777778e+00 1.86658150695244e-02 2.08735182539304e-04
8.56888888888889e+00 1.84288567592295e-02 2.06945844256762e-04
8.64000000000000e+00 1.81949065812422e-02 2.05164779062950e-04
8.71111111111111e+00 1.79639263477374e-02 2.03392152681108e-04
8.78222222222222e+00 1.77358783562076e-02 2.01628122777821e-04
8.85333333333333e+00 1.75107253825016e-02 1.99872839344394e-04
8.92444444444445e+00 1.72884306750201e-02 1.98126444771077e-04
8.99555555555555e+00 1.70689579487171e-02 1.96389074153099e-04
9.06666666666667e+00 1.68522713791770e-02 1.94660855527924e-04
9.13777777777778e+00 1.66383355967672e-02 1.92941910104868e-04
9.20888888888889e+00 1.64271156808648e-02 1.91232352487420e-04
9.28000000000000e+00 1.62185771541563e-02 1.89532290937289e-04
9.35111111111111e+00 1.60126859767917e-02 1.87841827433402e-04
9.42222222222222e+00 1.58094085414904e-02 1.86161057973372e-04
9.49333333333333e+00 1.56087116673859e-02 1.84490072870592e-04
9.56444444444444e+00 1.54105625948350e-02 1.82828956788471e-04
9.63555555555556e+00 1.52149289800709e-02 1.81177788975259e-04
9.70666666666667e+00 1.50217788899236e-02 1.79536643440887e-04
9.77777777777778e+00 1.48310807966076e-02 1.77905589128364e-04
9.84888888888889e+00 1.46428035725755e-02 1.76284690079913e-04
9.92000000000000e+00 1.44569164854373e-02 1.74674005640164e-04
9.99111111111111e+00 1.42733891927613e-02 1.73073590609390e-04
1.00622222222222e+01 1.40921917371357e-02 1.71483495058223e-04
1.01333333333333e+01 1.39132945425297e-02 1.69903764902408e-04
1.02044444444444e+01 1.37366684076408e-02 1.68334442172263e-04
1.02755555555556e+01 1.35622845018707e-02 1.66775564713758e-04
1.03466666666667e+01 1.33901143606174e-02 1.65227166498185e-04
1.04177777777778e+01 1.32201298806327e-02 1.63689277751394e-04
1.04888888888889e+01 1.30523033154333e-02 1.62161925079993e-04
1.05600000000000e+01 1.28866072707711e-02 1.60645131958723e-04
1.06311111111111e+01 1.27230146986360e-02 1.59138917738172e-04
1.07022222222222e+01 1.25614988974701e-02 1.57643298504336e-04
1.07733333333333e+01 1.24020335031279e-02 1.56158287950878e-04
1.08444444444444e+01 1.22445924861508e-02 1.54683896336116e-04
1.09155555555556e+01 1.20891501475186e-02 1.53220130975013e-04
1.09866666666667e+01 1.19356811144533e-02 1.51766996339543e-04
1.10577777777778e+01 1.17841603362800e-02 1.50324494156817e-04
1.11288888888889e+01 1.16345630803369e-02 1.48892623505017e-04
1.12000000000000e+01 1.14868649279379e-02 1.47471381222501e-04
1.12711111111111e+01 1.13410417691036e-02 1.46060761036528e-04
1.13422222222222e+01 1.11970698025173e-02 1.44660754295243e-04
1.14133333333333e+01 1.10549255277056e-02 1.43271350711185e-04
1.14844444444444e+01 1.09145857425285e-02 1.41892537447401e-04
1.15555555555556e+01 1.07760275393920e-02 1.40524299532470e-04
1.16266666666667e+01 1.06392283015079e-02 1.39166619936981e-04
1.16977777777778e+01 1.05041656992044e-02 1.37819479648368e-04
1.17688888888889e+01 1.03708176862801e-02 1.36482857744178e-04
1.18400000000000e+01 1.02391624964050e-02 1.35156731737217e-04
1.19111111111111e+01 1.01091786384862e-02 1.33841076810897e-04
1.19822222222222e+01 9.98084489644056e-03 1.32535866444811e-04
1.20533333333333e+01 9.85414032241477e-03 1.31241073050704e-04
1.21244444444444e+01 9.72904423448400e-03 1.29956667171788e-04
1.21955555555556e+01 9.60553621327594e-03 1.28682617834356e-04
1.22666666666667e+01 9.48359609863674e-03 1.27418892606215e-04
1.23377777777778e+01 9.36320398634230e-03 1.26165457653910e-04
1.24088888888889e+01 9.24434022484827e-03 1.24922277798785e-04
1.24800000000000e+01 9.12698541208233e-03 1.23689316809401e-04
1.25511111111111e+01 9.01112039136203e-03 1.22466536730570e-04
1.26222222222222e+01 8.89672625104272e-03 1.21253898419555e-04
1.26933333333333e+01 8.78378431862582e-03 1.20051362091652e-04
1.27644444444444e+01 8.67227615865598e-03 1.18858886618574e-04
1.28355555555556e+01 8.56218356971193e-03 1.17676429827424e-04
1.29066666666667e+01 8.45348858143468e-03 1.16503948545362e-04
1.29777777777778e+01 8.34617345159576e-03 1.15341398643371e-04
1.30488888888889e+01 8.24022066320044e-03 1.14188735079166e-04
1.31200000000000e+01 8.13561292162833e-03 1.13045912145792e-04
1.31911111111111e+01 8.03233315103436e-03 1.11912882882810e-04
1.32622222222222e+01 7.93036449391440e-03 1.10789599537087e-04
1.33333333333333e+01 7.82969030597559e-03 1.09676014031950e-04
1.34044444444444e+01 7.73029415422067e-03 1.08572077352219e-04
1.34755555555556e+01 7.63215981426567e-03 1.07477739799197e-04
1.35466666666667e+01 7.53527126769098e-03 1.06392951024735e-04
1.36177777777778e+01 7.43961269942796e-03 1.05317660064660e-04
1.36888888888889e+01 7.34516849517675e-03 1.04251815371542e-04
1.37600000000000e+01 7.25192323885761e-03 1.03195365026661e-04
1.38311111111111e+01 7.15986170943477e-03 1.02148256223179e-04
1.39022222222222e+01 7.06896888043191e-03 1.01110435662967e-04
1.39733333333333e+01 6.97922991545825e-03 1.00081849960911e-04
1.40444444444444e+01 6.89063016646771e-03 9.90624451056743e-05
1.41155555555556e+01 6.80315517136793e-03 9.80521666777154e-05
1.41866666666667e+01 6.71679065165911e-03 9.70509598751986e-05
1.42577777777778e+01 6.63152251010440e-03 9.60587695393900e-05
1.43288888888889e+01 6.54733682842823e-03 9.50755401795728e-05
1.44000000000000e+01 6.46421986504449e-03 9.41012161542498e-05
1.44711111111111e+01 6.38215805225143e-03 9.31357412173348e-05
1.45422222222222e+01 6.30113799572061e-03 9.21790588605616e-05
1.46133333333333e+01 6.22114647058913e-03 9.12311126625196e-05
1.46844444444444e+01 6.14217041988077e-03 9.02918458156190e-05
1.47555555555556e+01 6.06419695237475e-03 8.93612013129345e-05
1.48266666666667e+01 5.98721334050108e-03 8.84391219677514e-05
1.48977777777778e+01 5.91120701826387e-03 8.75255504327373e-05
1.49688888888889e+01 5.83616557918981e-03 8.66204292187514e-05
1.50400000000000e+01 5.76207677430297e-03 8.57237008500647e-05
1.51111111111111e+01 5.68892850964578e-03 8.48353074657583e-05
1.51822222222222e+01 5.61670884575888e-03 8.39551911156546e-05
1.52533333333333e+01 5.54540599426313e-03 8.30832940621274e-05
1.53244444444444e+01 5.47500831643028e-03 8.22195583649460e-05
1.53955555555556e+01 5.40550432128313e-03 8.13639260417080e-05
1.54666666666667e+01 5.33688266371956e-03 8.05163390824286e-05
1.55377777777778e+01 5.26913214266139e-03 7.96767394638674e-05
1.56088888888889e+01 5.20224169922561e-03 7.88450691635712e-05
1.56800000000000e+01 5.13620041491929e-03 7.80212702930798e-05
1.57511111111111e+01 5.07099750944717e-03 7.72052847477006e-05
1.58222222222222e+01 5.00662234019516e-03 7.63970544626165e-05
1.58933333333333e+01 4.94306439923711e-03 7.55965216742379e-05
1.59644444444444e+01 4.88031331204269e-03 7.48036285556662e-05
1.60355555555556e+01 4.81835883578393e-03 7.40183173546784e-05
1.61066666666667e+01 4.75719085766300e-03 7.32405304044726e-05
1.61777777777778e+01 4.69679939326209e-03 7.24702101341900e-05
1.62488888888889e+01 4.63717458491336e-03 7.17072990792423e-05
1.63200000000000e+01 4.57830670008989e-03 7.09517399958210e-05
1.63911111111111e+01 4.52018612946568e-03 7.02034755530314e-05
1.64622222222222e+01 4.46280338641186e-03 6.94624485548424e-05
1.65333333333333e+01 4.40614910437259e-03 6.87286021666709e-05
1.66044444444444e+01 4.35021403569832e-03 6.80018795951477e-05
1.66755555555556e+01 4.29498905013640e-03 6.72822242069820e-05
1.67466666666667e+01 4.24046513334047e-03 6.65695795366806e-05
1.68177777777778e+01 4.18663338539953e-03 6.58638892941229e-05
1.68888888888889e+01 4.13348501938499e-03 6.51650973719934e-05
1.69600000000000e+01 4.08101135991635e-03 6.44731479443337e-05
1.70311111111111e+01 4.02920384144376e-03 6.37879851958212e-05
1.71022222222222e+01 3.97805400776317e-03 6.31095535143300e-05
1.71733333333333e+01 3.92755350971339e-03 6.24377976875935e-05
1.72444444444444e+01 3.87769410412400e-03 6.17726626217651e-05
1.73155555555556e+01 3.82846765246979e-03 6.11140934439275e-05
1.73866666666667e+01 3.77986611954211e-03 6.04620355074769e-05
1.74577777777778e+01 3.73188157213773e-03 5.98164343973913e-05
1.75288888888889e+01 3.68450617776364e-03 5.91772359353903e-05
1.76000000000000e+01 3.63773220335862e-03 5.85443862648915e-05
1.76711111111111e+01 3.59155201377201e-03 5.79178316128361e-05
1.77422222222222e+01 3.54595807130200e-03 5.72975184569203e-05
1.78133333333333e+01 3.50094293367274e-03 5.66833936964702e-05
1.78844444444444e+01 3.45649925308645e-03 5.60754044049774e-05
1.79555555555556e+01 3.41261977502397e-03 5.54734979186147e-05
1.80266666666667e+01 3.36929733706052e-03 5.48776218397931e-05
1.80977777777778e+01 3.32652486769687e-03 5.42877240406447e-05
1.81688888888889e+01 3.28429538520487e-03 5.37037526664279e-05
1.82400000000000e+01 3.24260199648791e-03 5.31256562088270e-05
1.83111111111111e+01 3.20143789573296e-03 5.25533832963329e-05
1.83822222222222e+01 3.16079636397451e-03 5.19868828396195e-05
1.84533333333333e+01 3.12067076731624e-03 5.14261041801424e-05
1.85244444444444e+01 3.08105455607765e-03 5.08709968724486e-05
1.85955555555556e+01 3.04194126372499e-03 5.03215107606934e-05
1.86666666666667e+01 3.00332450581559e-03 4.97775959807866e-05
1.87377777777778e+01 2.96519797895598e-03 4.92392029624879e-05
1.88088888888889e+01 2.92755545977289e-03 4.87062824314577e-05
1.88800000000000e+01 2.89039080389736e-03 4.81787854725630e-05
1.89511111111111e+01 2.85369794477005e-03 4.76566633453174e-05
1.90222222222222e+01 2.81747089323208e-03 4.71398676103616e-05
1.90933333333333e+01 2.78170373596051e-03 4.66283502587978e-05
1.91644444444444e+01 2.74639063470070e-03 4.61220635206179e-05
1.92355555555556e+01 2.71152582531336e-03 4.56209599308987e-05
1.93066666666667e+01 2.67710361683356e-03 4.51249923308706e-05
1.93777777777778e+01 2.64311839054202e-03 4.46341138689494e-05
1.94488888888889e+01 2.60956459904782e-03 4.41482780017380e-05
1.95200000000000e+01 2.57643676538298e-03 4.36674385487525e-05
1.95911111111111e+01 2.54372948194300e-03 4.31915495298668e-05
1.96622222222222e+01 2.51143741010525e-03 4.27205652754417e-05
1.97333333333333e+01 2.47955527885153e-03 4.22544405389682e-05
1.98044444444444e+01 2.44807788407803e-03 4.17931303284150e-05
1.98755555555556e+01 2.41700008774589e-03 4.13365899635471e-05
1.99466666666667e+01 2.38631681704240e-03 4.08847750761689e-05
2.00177777777778e+01 2.35602306355318e-03 4.04376416103470e-05
2.00888888888889e+01 2.32611388244457e-03 3.99951458226130e-05
2.01600000000000e+01 2.29658439165645e-03 3.95572443293137e-05
2.02311111111111e+01 2.26742977096262e-03 3.91238939633807e-05
2.03022222222222e+01 2.23864526161647e-03 3.86950518702866e-05
2.03733333333333e+01 2.21022616513743e-03 3.82706756062289e-05
2.04444444444444e+01 2.18216784269110e-03 3.78507229895871e-05
2.05155555555556e+01 2.15446571433204e-03 3.74351521505981e-05
2.05866666666667e+01 2.12711525825613e-03 3.70239215309759e-05
2.06577777777778e+01 2.10011201006262e-03 3.66169898835244e-05
2.07288888888889e+01 2.07345156202533e-03 3.62143162717474e-05
2.08000000000000e+01 2.04712956237319e-03 3.58158601108396e-05
2.08711111111111e+01 2.02114171445655e-03 3.54215810414393e-05
2.09422222222222e+01 1.99548377641948e-03 3.50314390132923e-05
2.10133333333333e+01 1.97015156013007e-03 3.46453943708864e-05
2.10844444444444e+01 1.94514093062378e-03 3.42634077225744e-05
2.11555555555556e+01 1.92044780542853e-03 3.38854399836463e-05
2.12266666666667e+01 1.89606815389828e-03 3.35114523754937e-05
2.12977777777778e+01 1.87199799655516e-03 3.31414064247766e-05
2.13688888888889e+01 1.84823340443993e-03 3.27752639625887e-05
2.14400000000000e+01 1.82477049847057e-03 3.24129871599665e-05
2.15111111111111e+01 1.80160544870252e-03 3.20545384165796e-05
2.15822222222222e+01 1.77873447402656e-03 3.16998804337155e-05
2.16533333333333e+01 1.75615384122536e-03 3.13489762890110e-05
2.17244444444444e+01 1.73385986447396e-03 3.10017893211015e-05
2.17955555555556e+01 1.71184890473814e-03 3.06582831669942e-05
2.18666666666667e+01 1.69011736918033e-03 3.03184217609000e-05
2.19377777777778e+01 1.66866171057328e-03 2.99821693330765e-05
2.20088888888889e+01 1.64747842672104e-03 2.96494904086787e-05
2.20800000000000e+01 1.62656405988721e-03 2.93203498385367e-05
2.21511111111111e+01 1.60591519613829e-03 2.89947127009783e-05
2.22222222222222e+01 1.58552846506604e-03 2.86725443655401e-05
2.22933333333333e+01 1.56540053895495e-03 2.83538105582153e-05
2.23644444444444e+01 1.54552813233411e-03 2.80384772597506e-05
2.24355555555556e+01 1.52590800144095e-03 2.77265107380969e-05
