Energy (eV)          EEDF (eV^-(3/2))     First Anisotropy
2.31428571428571e-02 1.10854731264936e-01 7.01628762267611e-05
6.94285714285714e-02 1.09764028965754e-01 1.15677768053447e-04
1.15714285714286e-01 1.08684058112009e-01 1.52228794245762e-04
1.62000000000000e-01 1.07614713115870e-01 1.79707116613107e-04
2.08285714285714e-01 1.06555889432352e-01 2.02385821318303e-04
2.54571428571429e-01 1.05507483540857e-01 2.21887658947175e-04
3.00857142857143e-01 1.04469392936611e-01 2.39055934527595e-04
3.47142857142857e-01 1.03441516131357e-01 2.54401981374381e-04
3.93428571428571e-01 1.02423752630787e-01 2.68266293816416e-04
4.39714285714286e-01 1.01416002927319e-01 2.80890486342615e-04
4.86000000000000e-01 1.00418168497588e-01 2.92454121293335e-04
5.32285714285714e-01 9.94301517847813e-02 3.03095434474696e-04
5.78571428571429e-01 9.84518561920113e-02 3.12923850026279e-04
6.24857142857143e-01 9.74831860713175e-02 3.22027961669697e-04
6.71142857142857e-01 9.65240467191242e-02 3.30480850048907e-04
7.17428571428571e-01 9.55743443618621e-02 3.38343754128555e-04
7.63714285714286e-01 9.46339861474149e-02 3.45668681882495e-04
8.10000000000000e-01 9.37028801398662e-02 3.52500316083773e-04
8.56285714285714e-01 9.27809353064707e-02 3.58877435447501e-04
9.02571428571429e-01 9.18680615101692e-02 3.64833994298997e-04
9.48857142857143e-01 9.09641694998315e-02 3.70399956992410e-04
9.95142857142857e-01 9.00691709044522e-02 3.75601952339213e-04
1.04142857142857e+00 8.91829782247961e-02 3.80463795584309e-04
1.08771428571429e+00 8.83055048109079e-02 3.85006903811456e-04
1.13400000000000e+00 8.74366648818511e-02 3.89250637959816e-04
1.18028571428571e+00 8.65763734849049e-02 3.93212581562644e-04
1.22657142857143e+00 8.57245465183134e-02 3.96908771644107e-04
1.27285714285714e+00 8.48811006932910e-02 4.00353891867983e-04
1.31914285714286e+00 8.40459535544507e-02 4.03561433868392e-04
1.36542857142857e+00 8.32190234504276e-02 4.06543837846699e-04
1.41171428571429e+00 8.24002295276743e-02 4.09312605081230e-04
1.45800000000000e+00 8.15894917399297e-02 4.11878401361323e-04
1.50428571428571e+00 8.07867308171484e-02 4.14251142932545e-04
1.55057142857143e+00 7.99918682801870e-02 4.16440071358362e-04
1.59685714285714e+00 7.92048264114653e-02 4.18453819006644e-04
1.64314285714286e+00 7.84255282683026e-02 4.20300465415880e-04
1.68942857142857e+00 7.76538976597567e-02 4.21987590122074e-04
1.73571428571429e+00 7.68898591402830e-02 4.23522313071919e-04
1.78200000000000e+00 7.61333380155435e-02 4.24911336320427e-04
1.82828571428571e+00 7.53842603174898e-02 4.26160978312463e-04
1.87457142857143e+00 7.46425528142136e-02 4.27277204786845e-04
1.92085714285714e+00 7.39081429862155e-02 4.28265656655657e-04
1.96714285714286e+00 7.31809590353973e-02 4.29131674245450e-04
2.01342857142857e+00 7.24609298660202e-02 4.29880321929719e-04
2.05971428571429e+00 7.17479850785023e-02 4.30516405049056e-04
2.10600000000000e+00 7.10420549729022e-02 4.31044490318962e-04
2.15228571428571e+00 7.03430705282678e-02 4.31468921937003e-04
2.19857142857143e+00 6.96509634093506e-02 4.31793836529569e-04
2.24485714285714e+00 6.89656659468237e-02 4.32023176968345e-04
2.29114285714286e+00 6.82871111434189e-02 4.32160704328566e-04
2.33742857142857e+00 6.76152326578393e-02 4.32210011271194e-04
2.38371428571429e+00 6.69499647988068e-02 4.32174529706799e-04
2.43000000000000e+00 6.62912425269966e-02 4.32057542282753e-04
2.47628571428571e+00 6.56390014375299e-02 4.31862190855550e-04
2.52257142857143e+00 6.49931777645500e-02 4.31591484575367e-04
2.56885714285714e+00 6.43537083643825e-02 4.31248307520805e-04
2.61514285714286e+00 6.37205307197088e-02 4.30835425192743e-04
2.66142857142857e+00 6.30935829257138e-02 4.30355492662897e-04
2.70771428571429e+00 6.24728036844299e-02 4.29811058099163e-04
2.75400000000000e+00 6.18581323056081e-02 4.29204569949780e-04
2.80028571428571e+00 6.12495086916309e-02 4.28538381778816e-04
2.84657142857143e+00 6.06468733405798e-02 4.27814757017561e-04
2.89285714285714e+00 6.00501673316792e-02 4.27035873543244e-04
2.93914285714286e+00 5.94593323280762e-02 4.26203827460286e-04
2.98542857142857e+00 5.88743105647472e-02 4.25320638514315e-04
3.03171428571429e+00 5.82950448431538e-02 4.24388251601334e-04
3.07800000000000e+00 5.77214785313702e-02 4.23408541639299e-04
3.12428571428571e+00 5.71535555509207e-02 4.22383316501001e-04
3.17057142857143e+00 5.65912203787582e-02 4.21314319990770e-04
3.21685714285714e+00 5.60344180345351e-02 4.20203234770845e-04
3.26314285714286e+00 5.54830940823725e-02 4.19051684679898e-04
3.30942857142857e+00 5.49371946201923e-02 4.17861238580852e-04
3.35571428571429e+00 5.43966662746843e-02 4.16633410830611e-04
3.40200000000000e+00 5.38614562009096e-02 4.15369664796552e-04
3.44828571428571e+00 5.33315120707077e-02 4.14071414719684e-04
3.49457142857143e+00 5.28067820738753e-02 4.12740027675862e-04
3.54085714285714e+00 5.22872149069340e-02 4.11376825543521e-04
3.58714285714286e+00 5.17727597741566e-02 4.09983086481007e-04
3.63342857142857e+00 5.12633663780791e-02 4.08560047807431e-04
3.67971428571429e+00 5.07589849147732e-02 4.07108905919308e-04
3.72600000000000e+00 5.02595660730792e-02 4.05630818954615e-04
3.77228571428571e+00 4.97650610243179e-02 4.04126908019189e-04
3.81857142857143e+00 4.92754214228769e-02 4.02598258532353e-04
3.86485714285714e+00 4.87905993962279e-02 4.01045921605510e-04
3.91114285714286e+00 4.83105475454005e-02 3.99470915010628e-04
3.95742857142857e+00 4.78352189364910e-02 3.97874225425756e-04
4.00371428571429e+00 4.73645670962270e-02 3.96256808055292e-04
4.05000000000000e+00 4.68985460109417e-02 3.94619588725303e-04
4.09628571428571e+00 4.64371101173879e-02 3.92963464712965e-04
4.14257142857143e+00 4.59802143028826e-02 3.91289305700942e-04
4.18885714285714e+00 4.55278138963834e-02 3.89597954776427e-04
4.23514285714286e+00 4.50798646685497e-02 3.87890229078823e-04
4.28142857142857e+00 4.46363228241043e-02 3.86166921605575e-04
4.32771428571429e+00 4.41971449976768e-02 3.84428800677799e-04
4.37400000000000e+00 4.37622882526010e-02 3.82676611636860e-04
4.42028571428571e+00 4.33317100726712e-02 3.80911077416964e-04
4.46657142857143e+00 4.29053683619577e-02 3.79132899240787e-04
4.51285714285714e+00 4.24832214367903e-02 3.77342757364022e-04
4.55914285714286e+00 4.20652280255141e-02 3.75541311514060e-04
4.60542857142857e+00 4.16513472615871e-02 3.73729202377874e-04
4.65171428571429e+00 4.12415386796889e-02 3.71907050993775e-04
4.69800000000000e+00 4.08357622144013e-02 3.70075460156698e-04
4.74428571428571e+00 4.04339781927787e-02 3.68235014819320e-04
4.79057142857143e+00 4.00361473339199e-02 3.66386282610684e-04
4.83685714285714e+00 3.96422307417375e-02 3.64529814404328e-04
4.88314285714286e+00 3.92521899044862e-02 3.62666144617024e-04
4.92942857142857e+00 3.88659866885045e-02 3.60795792458179e-04
4.97571428571429e+00 3.84835833345737e-02 3.58919261294770e-04
5.02200000000000e+00 3.81049424565262e-02 3.57037039836154e-04
5.06828571428571e+00 3.77300270345267e-02 3.55149602417763e-04
5.11457142857143e+00 3.73588004144640e-02 3.53257409395223e-04
5.16085714285714e+00 3.69912263014076e-02 3.51360907586580e-04
5.20714285714286e+00 3.66272687589689e-02 3.49460530475206e-04
5.25342857142857e+00 3.62668922036096e-02 3.47556699274652e-04
5.29971428571429e+00 3.59100614012371e-02 3.45649822294502e-04
5.34600000000000e+00 3.55567414657738e-02 3.43740295953416e-04
5.39228571428571e+00 3.52068978530634e-02 3.41828504980584e-04
5.43857142857143e+00 3.48604963601321e-02 3.39914822720125e-04
5.48485714285714e+00 3.45175031192494e-02 3.37999611481104e-04
5.53114285714286e+00 3.41778845971696e-02 3.36083222673688e-04
5.57742857142857e+00 3.38416075899424e-02 3.34165997727657e-04
5.62371428571429e+00 3.35086392197299e-02 3.32248267475117e-04
5.67000000000000e+00 3.31789469333635e-02 3.30330353026401e-04
5.71628571428571e+00 3.28524984968015e-02 3.28412565913083e-04
5.76257142857143e+00 3.25292619942991e-02 3.26495208326234e-04
5.80885714285714e+00 3.22092058230045e-02 3.24578573397415e-04
5.85514285714286e+00 3.18922986921155e-02 3.22662945287728e-04
5.90142857142857e+00 3.15785096181389e-02 3.20748599987665e-04
5.94771428571429e+00 3.12678079219149e-02 3.18835804725805e-04
5.99400000000000e+00 3.09601632271804e-02 3.16924818732992e-04
6.04028571428571e+00 3.06555454555181e-02 3.15015893343169e-04
6.08657142857143e+00 3.03539248254635e-02 3.13109272181979e-04
6.13285714285714e+00 3.00552718475778e-02 3.11205191395099e-04
6.17914285714286e+00 2.97595573235487e-02 3.09303879703715e-04
6.22542857142857e+00 2.94667523418505e-02 3.07405559106428e-04
6.27171428571429e+00 2.91768282749637e-02 3.05510444318751e-04
6.31800000000000e+00 2.88897567779594e-02 3.03618743444756e-04
6.36428571428571e+00 2.86055097838858e-02 3.01730658047047e-04
6.41057142857143e+00 2.83240595028373e-02 2.99846383297533e-04
6.45685714285714e+00 2.80453784174529e-02 2.97966108164944e-04
6.50314285714286e+00 2.77694392819830e-02 2.96090015446082e-04
6.54942857142857e+00 2.74962151183100e-02 2.94218282385725e-04
6.59571428571429e+00 2.72256792133511e-02 2.92351080149176e-04
6.64200000000000e+00 2.69578051176731e-02 2.90488574416110e-04
6.68828571428571e+00 2.66925666412731e-02 2.88630925427781e-04
6.73457142857143e+00 2.64299378526261e-02 2.86778288108515e-04
6.78085714285714e+00 2.61698930745660e-02 2.84930812221097e-04
6.82714285714286e+00 2.59124068833352e-02 2.83088642380640e-04
6.87342857142857e+00 2.56574541049309e-02 2.81251918604855e-04
6.91971428571429e+00 2.54050098126790e-02 2.79420775820143e-04
6.96600000000000e+00 2.51550493258876e-02 2.77595344389323e-04
7.01228571428571e+00 2.49075482059815e-02 2.75775750141967e-04
7.05857142857143e+00 2.46624822555437e-02 2.73962114472953e-04
7.10485714285714e+00 2.44198275145402e-02 2.72154554472198e-04
7.15114285714286e+00 2.41795602593659e-02 2.70353182925968e-04
7.19742857142857e+00 2.39416569994857e-02 2.68558108807564e-04
7.24371428571429e+00 2.37060944751682e-02 2.66769436816415e-04
7.29000000000000e+00 2.34728496561844e-02 2.64987267848983e-04
7.33628571428571e+00 2.32418997382604e-02 2.63211699016552e-04
7.38257142857143e+00 2.30132221421244e-02 2.61442823725619e-04
7.42885714285714e+00 2.27867945100417e-02 2.59680731786942e-04
7.47514285714286e+00 2.25625947048674e-02 2.57925509407819e-04
7.52142857142857e+00 2.23406008069552e-02 2.56177239631214e-04
7.56771428571429e+00 2.21207911120404e-02 2.54436001906817e-04
7.61400000000000e+00 2.19031441299871e-02 2.52701872512719e-04
7.66028571428571e+00 2.16876385815297e-02 2.50974924563823e-04
7.70657142857143e+00 2.14742533973330e-02 2.49255228077674e-04
7.75285714285714e+00 2.12629677148086e-02 2.47542850066696e-04
7.79914285714286e+00 2.10537608771823e-02 2.45837854524070e-04
7.84542857142857e+00 2.08466124306458e-02 2.44140302817916e-04
7.89171428571429e+00 2.06415021223803e-02 2.42450253292816e-04
7.93800000000000e+00 2.04384098993537e-02 2.40767761648581e-04
7.98428571428571e+00 2.02373159053248e-02 2.39092880941635e-04
8.03057142857143e+00 2.00382004799223e-02 2.37425661639179e-04
8.07685714285714e+00 1.98410441557172e-02 2.35766151697542e-04
8.12314285714286e+00 1.96458276573105e-02 2.34114396543575e-04
8.16942857142857e+00 1.94525318987064e-02 2.32470439429474e-04
8.21571428571429e+00 1.92611379814677e-02 2.30834321063087e-04
8.26200000000000e+00 1.90716271935637e-02 2.29206079949037e-04
8.30828571428571e+00 1.88839810066139e-02 2.27585752384882e-04
8.35457142857143e+00 1.86981810749905e-02 2.25973372505787e-04
8.40085714285714e+00 1.85142092331236e-02 2.24368972351373e-04
8.44714285714286e+00 1.83320474946135e-02 2.22772581844062e-04
8.49342857142857e+00 1.81516780498073e-02 2.21184229109227e-04
8.53971428571429e+00 1.79730832640757e-02 2.19603940132551e-04
8.58600000000000e+00 1.77962456767141e-02 2.18031739067885e-04
8.63228571428571e+00 1.76211479984027e-02 2.16467648229614e-04
8.67857142857143e+00 1.74477731103374e-02 2.14911688129547e-04
8.72485714285714e+00 1.72761040617464e-02 2.13363877534149e-04
8.77114285714286e+00 1.71061240690315e-02 2.11824233440946e-04
8.81742857142857e+00 1.69378165135291e-02 2.10292771367954e-04
8.86371428571429e+00 1.67711649399018e-02 2.08769505036337e-04
8.91000000000000e+00 1.66061530550919e-02 2.07254446648795e-04
8.95628571428571e+00 1.64427647259793e-02 2.05747606879186e-04
9.00257142857143e+00 1.62809839785429e-02 2.04248994902984e-04
9.04885714285714e+00 1.61207949955709e-02 2.02758618446467e-04
9.09514285714286e+00 1.59621821158318e-02 2.01276483761969e-04
9.14142857142857e+00 1.58051298320062e-02 1.99802595890015e-04
9.18771428571429e+00 1.56496227891847e-02 1.98336958365524e-04
9.23400000000000e+00 1.54956457838729e-02 1.96879573470014e-04
9.28028571428571e+00 1.53431837618308e-02 1.95430442219243e-04
9.32657142857143e+00 1.51922218172660e-02 1.93989564388403e-04
9.37285714285714e+00 1.50427451907205e-02 1.92556938554490e-04
9.41914285714286e+00 1.48947392682746e-02 1.91132562070993e-04
9.46542857142857e+00 1.47481895796335e-02 1.89716431305660e-04
9.51171428571429e+00 1.46030817967260e-02 1.88308541368636e-04
9.55800000000000e+00 1.44594017327592e-02 1.86908886341300e-04
9.60428571428571e+00 1.43171353402242e-02 1.85517459262530e-04
9.65057142857143e+00 1.41762687101219e-02 1.84134252149512e-04
9.69685714285714e+00 1.40367880700124e-02 1.82759256034328e-04
9.74314285714286e+00 1.38986797832508e-02 1.81392460938541e-04
9.78942857142857e+00 1.37619303472184e-02 1.80033856089174e-04
9.83571428571429e+00 1.36265263920129e-02 1.78683429667190e-04
9.88200000000000e+00 1.34924546795537e-02 1.77341169015382e-04
9.92828571428571e+00 1.33597021017389e-02 1.76007060623778e-04
9.97457142857143e+00 1.32282556797048e-02 1.74681090146786e-04
1.00208571428571e+01 1.30981025620234e-02 1.73363242434851e-04
1.00671428571429e+01 1.29692300239723e-02 1.72053501468043e-04
1.01134285714286e+01 1.28416254660213e-02 1.70751850595562e-04
1.01597142857143e+01 1.27152764124793e-02 1.69458272425743e-04
1.02060000000000e+01 1.25901705104041e-02 1.68172749205814e-04
1.02522857142857e+01 1.24662955271965e-02 1.66895261681557e-04
1.02985714285714e+01 1.23436393530283e-02 1.65625789926183e-04
1.03448571428571e+01 1.22221899960038e-02 1.64364314182425e-04
1.03911428571429e+01 1.21019355822161e-02 1.63110813643980e-04
1.04374285714286e+01 1.19828643545848e-02 1.61865266890632e-04
1.04837142857143e+01 1.18649646717090e-02 1.60627651907427e-04
1.05300000000000e+01 1.17482250067280e-02 1.59397946470499e-04
1.05762857142857e+01 1.16326339451106e-02 1.58176127057752e-04
1.06225714285714e+01 1.15181801868171e-02 1.56962169608834e-04
1.06688571428571e+01 1.14048525418888e-02 1.55756050297420e-04
1.07151428571429e+01 1.12926399304658e-02 1.54557744410397e-04
1.07614285714286e+01 1.11815313817019e-02 1.53367226746263e-04
1.08077142857143e+01 1.10715160326948e-02 1.52184471631462e-04
1.08540000000000e+01 1.09625831274223e-02 1.51009453273687e-04
1.09002857142857e+01 1.08547220147105e-02 1.49842144759467e-04
1.09465714285714e+01 1.07479221501589e-02 1.48682518751397e-04
1.09928571428571e+01 1.06421730921180e-02 1.47530548196737e-04
1.10391428571429e+01 1.05374645016740e-02 1.46386205296155e-04
1.10854285714286e+01 1.04337861416372e-02 1.45249461868744e-04
1.11317142857143e+01 1.03311278755429e-02 1.44120289365900e-04
1.11780000000000e+01 1.02294796666591e-02 1.42998659195094e-04
1.12242857142857e+01 1.01288315761170e-02 1.41884541797052e-04
1.12705714285714e+01 1.00291737646274e-02 1.40777907285771e-04
1.13168571428571e+01 9.93049648880782e-03 1.39678726099100e-04
1.13631428571429e+01 9.83279010114135e-03 1.38586968049476e-04
1.14094285714286e+01 9.73604504903254e-03 1.37502602658547e-04
1.14557142857143e+01 9.64025187387501e-03 1.36425599168991e-04
1.15020000000000e+01 9.54540121012589e-03 1.35355926841379e-04
1.15482857142857e+01 9.45148378358412e-03 1.34293554104331e-04
1.15945714285714e+01 9.35849041292170e-03 1.33238449142342e-04
1.16408571428571e+01 9.26641200632798e-03 1.32190580493345e-04
1.16871428571429e+01 9.17523956144691e-03 1.31149916174628e-04
1.17334285714286e+01 9.08496416449623e-03 1.30116423989793e-04
1.17797142857143e+01 8.99557698939736e-03 1.29090071538775e-04
1.18260000000000e+01 8.90706929691176e-03 1.28070826490201e-04
1.18722857142857e+01 8.81943243305495e-03 1.27058655798499e-04
1.19185714285714e+01 8.73265783046306e-03 1.26053526244021e-04
1.19648571428571e+01 8.64673700532441e-03 1.25055404982180e-04
1.20111428571429e+01 8.56166155729979e-03 1.24064258738317e-04
1.20574285714286e+01 8.47742316870063e-03 1.23080054089437e-04
1.21037142857143e+01 8.39401360367694e-03 1.22102757472677e-04
1.21500000000000e+01 8.31142470741151e-03 1.21132335435306e-04
1.21962857142857e+01 8.22964840465812e-03 1.20168753913284e-04
1.22425714285714e+01 8.14867670096170e-03 1.19211978727779e-04
1.22888571428571e+01 8.06850167985068e-03 1.18261976090038e-04
1.23351428571429e+01 7.98911550274388e-03 1.17318711859493e-04
1.23814285714286e+01 7.91051040818366e-03 1.16382151802491e-04
1.24277142857143e+01 7.83267871107809e-03 1.15452261599421e-04
1.24740000000000e+01 7.75561280194914e-03 1.14529007074305e-04
1.25202857142857e+01 7.67930514558462e-03 1.13612353529784e-04
1.25665714285714e+01 7.60374828212818e-03 1.12702266203720e-04
1.26128571428571e+01 7.52893482450845e-03 1.11798710733586e-04
1.26591428571429e+01 7.45485745833567e-03 1.10901652472632e-04
1.27054285714286e+01 7.38150894118615e-03 1.10011056727563e-04
1.27517142857143e+01 7.30888210189507e-03 1.09126888764539e-04
1.27980000000000e+01 7.23696983985493e-03 1.08249114020118e-04
1.28442857142857e+01 7.16576512377194e-03 1.07377697488064e-04
1.28905714285714e+01 7.09526099263995e-03 1.06512604139427e-04
1.29368571428571e+01 7.02545055338509e-03 1.05653799349832e-04
1.29831428571429e+01 6.95632698075464e-03 1.04801248268989e-04
1.30294285714286e+01 6.88788351664935e-03 1.03954916039132e-04
1.30757142857143e+01 6.82011346946352e-03 1.03114767800046e-04
1.31220000000000e+01 6.75301021343037e-03 1.02280768882954e-04
1.31682857142857e+01 6.68656718747422e-03 1.01452884244943e-04
1.32145714285714e+01 6.62077789608104e-03 1.00631078855599e-04
1.32608571428571e+01 6.55563590713922e-03 9.98153180902906e-05
1.33071428571429e+01 6.49113485182291e-03 9.90055671487086e-05
1.33534285714286e+01 6.42726842396894e-03 9.82017912556913e-05
1.33997142857143e+01 6.36403037946104e-03 9.74039556654214e-05
1.34460000000000e+01 6.30141453561901e-03 9.66120258397097e-05
1.34922857142857e+01 6.23941477013883e-03 9.58259669261851e-05
1.35385714285714e+01 6.17802502187109e-03 9.50457441142713e-05
1.35848571428571e+01 6.11723928884040e-03 9.42713229973328e-05
1.36311428571429e+01 6.05705162812500e-03 9.35026690362352e-05
1.36774285714286e+01 5.99745615527537e-03 9.27397477440751e-05
1.37237142857143e+01 5.93844704373960e-03 9.19825246896572e-05
1.37700000000000e+01 5.88001852429340e-03 9.12309656614779e-05
1.38162857142857e+01 5.82216488406111e-03 9.04850361861896e-05
1.38625714285714e+01 5.76488046721183e-03 8.97447018564563e-05
1.39088571428571e+01 5.70815967314178e-03 8.90099286645077e-05
1.39551428571429e+01 5.65199695635169e-03 8.82806825071371e-05
1.40014285714286e+01 5.59638682590431e-03 8.75569293556758e-05
1.40477142857143e+01 5.54132384488823e-03 8.68386352588332e-05
1.40940000000000e+01 5.48680262988590e-03 8.61257664936029e-05
1.41402857142857e+01 5.43281785006914e-03 8.54182891207806e-05
1.41865714285714e+01 5.37936422782169e-03 8.47161692870003e-05
1.42328571428571e+01 5.32643653707037e-03 8.40193735320600e-05
1.42791428571429e+01 5.27402960316144e-03 8.33278683320306e-05
1.43254285714286e+01 5.22213830235453e-03 8.26416202557177e-05
1.43717142857143e+01 5.17075756132212e-03 8.19605959669576e-05
1.44180000000000e+01 5.11988235665333e-03 8.12847623635170e-05
1.44642857142857e+01 5.06950771401766e-03 8.06140861667209e-05
1.45105714285714e+01 5.01962870872209e-03 7.99485341997902e-05
1.45568571428571e+01 4.97024046417792e-03 7.92880736710855e-05
1.46031428571429e+01 4.92133815177735e-03 7.86326717522938e-05
