Energy (eV)          EEDF (eV^-(3/2))     First Anisotropy
3.87000000000000e-02 9.18803946732281e-01 1.48004038137060e-03
1.16100000000000e-01 8.57439989033974e-01 2.37032354962674e-03
1.93500000000000e-01 8.00174332521466e-01 2.93988006956691e-03
2.70900000000000e-01 7.46733264852203e-01 3.27094437403020e-03
3.48300000000000e-01 6.96861354049834e-01 3.47186669881828e-03
4.25700000000000e-01 6.50320227617400e-01 3.58749399169853e-03
5.03100000000000e-01 6.06887433189620e-01 3.64277744946264e-03
5.80500000000000e-01 5.66355375278552e-01 3.65366458363064e-03
6.57900000000000e-01 5.28530323030579e-01 3.63119332245984e-03
7.35300000000000e-01 4.93231484252124e-01 3.58340064474824e-03
8.12700000000000e-01 4.60290141278191e-01 3.51634241520588e-03
8.90100000000000e-01 4.29548844553478e-01 3.43469267596520e-03
9.67500000000000e-01 4.00860660071606e-01 3.34212146749217e-03
1.04490000000000e+00 3.74088467075455e-01 3.24154626147689e-03
1.12230000000000e+00 3.49104302661842e-01 3.13530659412817e-03
1.19970000000000e+00 3.25788750157937e-01 3.02528961345863e-03
1.27710000000000e+00 3.04030368346050e-01 2.91302292144675e-03
1.35450000000000e+00 2.83725158808658e-01 2.79974485376714e-03
1.43190000000000e+00 2.64776068847742e-01 2.68645872833064e-03
1.50930000000000e+00 2.47092527602543e-01 2.57397541194539e-03
1.58670000000000e+00 2.30590013148517e-01 2.46294718691128e-03
1.66410000000000e+00 2.15189648508360e-01 2.35389501452093e-03
1.74150000000000e+00 2.00817824644151e-01 2.24723070362979e-03
1.81890000000000e+00 1.87405848628645e-01 2.14327509077964e-03
1.89630000000000e+00 1.74889615314063e-01 2.04227305819236e-03
1.97370000000000e+00 1.63209300929074e-01 1.94440601659944e-03
2.05110000000000e+00 1.52309077139442e-01 1.84980233544651e-03
2.12850000000000e+00 1.42136844205648e-01 1.75854609665364e-03
2.20590000000000e+00 1.32643981962050e-01 1.67068446861166e-03
2.28330000000000e+00 1.23785117427347e-01 1.58623393685567e-03
2.36070000000000e+00 1.15517907935590e-01 1.50518558164052e-03
2.43810000000000e+00 1.07802838751174e-01 1.42750955677610e-03
2.51550000000000e+00 1.00603034200476e-01 1.35315889595160e-03
2.59290000000000e+00 9.38840814174005e-02 1.28207275050280e-03
2.67030000000000e+00 8.76138658603937e-02 1.21417914477846e-03
2.74770000000000e+00 8.17624178147453e-02 1.14939732092435e-03
2.82510000000000e+00 7.63017691465092e-02 1.08763973326483e-03
2.90250000000000e+00 7.12058196233678e-02 1.02881374294814e-03
2.97990000000000e+00 6.64502121634954e-02 9.72823055694199e-04
3.05730000000000e+00 6.20122164161489e-02 9.19568939005239e-04
3.13470000000000e+00 5.78706201175357e-02 8.68951249808356e-04
3.21210000000000e+00 5.40056277026731e-02 8.20869298989029e-04
3.28950000000000e+00 5.03987656886357e-02 7.75222575485062e-04
3.36690000000000e+00 4.70327943769512e-02 7.31911349411737e-04
3.44430000000000e+00 4.38916254531085e-02 6.90837170978631e-04
3.52170000000000e+00 4.09602450893295e-02 6.51903279653617e-04
3.59910000000000e+00 3.82246421830595e-02 6.15014936062836e-04
3.67650000000000e+00 3.56717413881776e-02 5.80079687432041e-04
3.75390000000000e+00 3.32893406188368e-02 5.47007575929944e-04
3.83130000000000e+00 3.10660527272215e-02 5.15711298030855e-04
3.90870000000000e+00 2.89912510764603e-02 4.86106321941625e-04
3.98610000000000e+00 2.70550187485481e-02 4.58110969210996e-04
4.06350000000000e+00 2.52481011445078e-02 4.31646465836808e-04
4.14090000000000e+00 2.35618617502346e-02 4.06636967490153e-04
4.21830000000000e+00 2.19882408565974e-02 3.83009562870626e-04
4.29570000000000e+00 2.05197170364911e-02 3.60694258680430e-04
4.37310000000000e+00 1.91492711947135e-02 3.39623949246575e-04
4.45050000000000e+00 1.78703530188344e-02 3.19734373420604e-04
4.52790000000000e+00 1.66768496707031e-02 3.00964061036294e-04
4.60530000000000e+00 1.55630565689502e-02 2.83254270901021e-04
4.68270000000000e+00 1.45236501228312e-02 2.66548922030036e-04
4.76010000000000e+00 1.35536622870891e-02 2.50794519600047e-04
4.83750000000000e+00 1.26484568162161e-02 2.35940076894704e-04
4.91490000000000e+00 1.18037071046162e-02 2.21937034336413e-04
4.99230000000000e+00 1.10153755067528e-02 2.08739176542991e-04
5.06970000000000e+00 1.02796940384362e-02 1.96302548211249e-04
5.14710000000000e+00 9.59314636701035e-03 1.84585369510369e-04
5.22450000000000e+00 8.95245100435729e-03 1.73547951563640e-04
5.30190000000000e+00 8.35454562238635e-03 1.63152612506074e-04
5.37930000000000e+00 7.79657241604148e-03 1.53363594525889e-04
5.45670000000000e+00 7.27586444386621e-03 1.44146982228489e-04
5.53410000000000e+00 6.78993288083824e-03 1.35470622601205e-04
5.61150000000000e+00 6.33645512254628e-03 1.27304046804458e-04
5.68890000000000e+00 5.91326368385046e-03 1.19618393969407e-04
5.76630000000000e+00 5.51833583896567e-03 1.12386337142555e-04
5.84370000000000e+00 5.14978395345021e-03 1.05582011483587e-04
5.92110000000000e+00 4.80584646188987e-03 9.91809447931622e-05
5.99850000000000e+00 4.48487944815348e-03 9.31599904220307e-05
6.07590000000000e+00 4.18534878797598e-03 8.74972625910528e-05
6.15330000000000e+00 3.90582281631320e-03 8.21720741331437e-05
6.23070000000000e+00 3.64496548442030e-03 7.71648766523800e-05
6.30810000000000e+00 3.40152997394697e-03 7.24572030821879e-05
6.38550000000000e+00 3.17435273752664e-03 6.80316126133551e-05
6.46290000000000e+00 2.96234793737553e-03 6.38716379533176e-05
6.54030000000000e+00 2.76450225531983e-03 5.99617348705217e-05
6.61770000000000e+00 2.57987004944436e-03 5.62872339714467e-05
6.69510000000000e+00 2.40756883421317e-03 5.28342946529055e-05
6.77250000000000e+00 2.24677506245827e-03 4.95898611683636e-05
6.84990000000000e+00 2.09672018907577e-03 4.65416207440769e-05
6.92730000000000e+00 1.95668699761509e-03 4.36779636787253e-05
7.00470000000000e+00 1.82600617220346e-03 4.09879453587968e-05
7.08210000000000e+00 1.70405309842051e-03 3.84612501211605e-05
7.15950000000000e+00 1.59024487783220e-03 3.60881568939667e-05
7.23690000000000e+00 1.48403754191439e-03 3.38595065471463e-05
7.31430000000000e+00 1.38492345204942e-03 3.17666708842965e-05
7.39170000000000e+00 1.29242887316873e-03 2.98015232085622e-05
7.46910000000000e+00 1.20611170944383e-03 2.79564103962052e-05
7.54650000000000e+00 1.12555939120342e-03 2.62241264128547e-05
7.62390000000000e+00 1.05038690297636e-03 2.45978872089075e-05
7.70130000000000e+00 9.80234943235310e-04 2.30713069321627e-05
7.77870000000000e+00 9.14768207045286e-04 2.16383753975002e-05
7.85610000000000e+00 8.53673783408443e-04 2.02934367552254e-05
7.93350000000000e+00 7.96659659645131e-04 1.90311693015714e-05
8.01090000000000e+00 7.43453325662501e-04 1.78465663767646e-05
8.08830000000000e+00 6.93800471439512e-04 1.67349182979957e-05
8.16570000000000e+00 6.47463771502728e-04 1.56917952765873e-05
8.24310000000000e+00 6.04221750583064e-04 1.47130312705899e-05
8.32050000000000e+00 5.63867725031660e-04 1.37947087259726e-05
8.39790000000000e+00 5.26208814935191e-04 1.29331441614831e-05
8.47530000000000e+00 4.91065022208800e-04 1.21248745541294e-05
8.55270000000000e+00 4.58268370260253e-04 1.13666444840805e-05
8.63010000000000e+00 4.27662101113145e-04 1.06553939995868e-05
8.70750000000000e+00 3.99099926151662e-04 9.98824716427541e-06
8.78490000000000e+00 3.72445326905696e-04 9.36250125089062e-06
8.86230000000000e+00 3.47570902534263e-04 8.77561654720309e-06
8.93970000000000e+00 3.24357760888407e-04 8.22520674142246e-06
9.01710000000000e+00 3.02694950243050e-04 7.70902985599833e-06
9.09450000000000e+00 2.82478928981648e-04 7.22497970019456e-06
9.17190000000000e+00 2.63613070698892e-04 6.77107781326530e-06
9.24930000000000e+00 2.46007202356017e-04 6.34546587144989e-06
9.32670000000000e+00 2.29577173281221e-04 5.94639853333873e-06
9.40410000000000e+00 2.14244452955166e-04 5.57223669944259e-06
9.48150000000000e+00 1.99935755659088e-04 5.22144116302596e-06
9.55890000000000e+00 1.86582690191451e-04 4.89256663043995e-06
9.63630000000000e+00 1.74121432978897e-04 4.58425609031500e-06
9.71370000000000e+00 1.62492423019065e-04 4.29523551204828e-06
9.79110000000000e+00 1.51640077197199e-04 4.02430885504663e-06
9.86850000000000e+00 1.41512524615837e-04 3.77035337116580e-06
9.94590000000000e+00 1.32061358667772e-04 3.53231518371911e-06
1.00233000000000e+01 1.23241405667256e-04 3.30920512731941e-06
1.01007000000000e+01 1.15010508933584e-04 3.10009483366402e-06
1.01781000000000e+01 1.07329327295043e-04 2.90411304917877e-06
1.02555000000000e+01 1.00161147050126e-04 2.72044217120350e-06
1.03329000000000e+01 9.34717064872560e-05 2.54831499012943e-06
1.04103000000000e+01 8.72290321242758e-05 2.38701162559108e-06
1.04877000000000e+01 8.14032858849682e-05 2.23585664547210e-06
1.05651000000000e+01 7.59666224821692e-05 2.09421635710764e-06
1.06425000000000e+01 7.08930563258020e-05 1.96149626065762e-06
1.07199000000000e+01 6.61583373196958e-05 1.83713865518562e-06
1.07973000000000e+01 6.17398349535346e-05 1.72062038850963e-06
1.08747000000000e+01 5.76164301359324e-05 1.61145074239448e-06
1.09521000000000e+01 5.37684142516277e-05 1.50916944513224e-06
1.10295000000000e+01 5.01773949603248e-05 1.41334480400880e-06
1.11069000000000e+01 4.68262082869259e-05 1.32357195058142e-06
1.11843000000000e+01 4.36988365829738e-05 1.23947119209677e-06
1.12617000000000e+01 4.07803319671863e-05 1.16068646276080e-06
1.13391000000000e+01 3.80567448791503e-05 1.08688386893351e-06
1.14165000000000e+01 3.55150574046851e-05 1.01775032266305e-06
1.14939000000000e+01 3.31431210541893e-05 9.52992258296572e-07
1.15713000000000e+01 3.09295986965725e-05 8.92334427210260e-07
1.16487000000000e+01 2.88639103712322e-05 8.35518765988788e-07
1.17261000000000e+01 2.69361827190745e-05 7.82303333656655e-07
1.18035000000000e+01 2.51372017908741e-05 7.32461313820540e-07
1.18809000000000e+01 2.34583690074120e-05 6.85780077824068e-07
1.19583000000000e+01 2.18916600608939e-05 6.42060305245126e-07
1.20357000000000e+01 2.04295865612103e-05 6.01115158281579e-07
1.21131000000000e+01 1.90651602437199e-05 5.62769506774622e-07
1.21905000000000e+01 1.77918595674793e-05 5.26859200810982e-07
1.22679000000000e+01 1.66035985442702e-05 4.93230388026005e-07
1.23453000000000e+01 1.54946976494346e-05 4.61738872900240e-07
1.24227000000000e+01 1.44598566754823e-05 4.32249515502862e-07
1.25001000000000e+01 1.34941293987185e-05 4.04635667286691e-07
1.25775000000000e+01 1.25928999378057e-05 3.78778641682315e-07
1.26549000000000e+01 1.17518606912607e-05 3.54567217373228e-07
1.27323000000000e+01 1.09669917484363e-05 3.31897172260513e-07
1.28097000000000e+01 1.02345416755759e-05 3.10670846244863e-07
1.28871000000000e+01 9.55100958510653e-06 2.90796731065950e-07
1.29645000000000e+01 8.91312840246598e-06 2.72189085544940e-07
1.30419000000000e+01 8.31784925048419e-06 2.54767574675370e-07
1.31193000000000e+01 7.76232687668211e-06 2.38456931101319e-07
1.31967000000000e+01 7.24390605383406e-06 2.23186637609918e-07
1.32741000000000e+01 6.76010888879276e-06 2.08890629348152e-07
1.33515000000000e+01 6.30862297891720e-06 1.95507014551988e-07
1.34289000000000e+01 5.88729035949441e-06 1.82977812649214e-07
1.35063000000000e+01 5.49409718932749e-06 1.71248708666455e-07
1.35837000000000e+01 5.12716412518993e-06 1.60268822935754e-07
1.36611000000000e+01 4.78473733913913e-06 1.49990495157181e-07
1.37385000000000e+01 4.46518013575470e-06 1.40369081931348e-07
1.38159000000000e+01 4.16696512923437e-06 1.31362766929725e-07
1.38933000000000e+01 3.88866694295647e-06 1.22932382921381e-07
1.39707000000000e+01 3.62895539661519e-06 1.15041244922514e-07
1.40481000000000e+01 3.38658914836512e-06 1.07654993779961e-07
1.41255000000000e+01 3.16040976158643e-06 1.00741449542060e-07
1.42029000000000e+01 2.94933616791177e-06 9.42704740098180e-08
1.42803000000000e+01 2.75235950004979e-06 8.82138418985851e-08
1.43577000000000e+01 2.56853826970766e-06 8.25451200753996e-08
1.44351000000000e+01 2.39699386756471e-06 7.72395543700292e-08
1.45125000000000e+01 2.23690636378829e-06 7.22739634886110e-08
1.45899000000000e+01 2.08751058901967e-06 6.76266395877801e-08
1.46673000000000e+01 1.94809247709829e-06 6.32772550944217e-08
1.47447000000000e+01 1.81798565204365e-06 5.92067753817644e-08
1.48221000000000e+01 1.69656824298173e-06 5.53973769365477e-08
1.48995000000000e+01 1.58325991179220e-06 5.18323706745718e-08
1.49769000000000e+01 1.47751907926950e-06 4.84961300831137e-08
1.50543000000000e+01 1.37884033653971e-06 4.53740238885872e-08
1.51317000000000e+01 1.28675202936054e-06 4.24523529665031e-08
1.52091000000000e+01 1.20081400375814e-06 3.97182912283143e-08
1.52865000000000e+01 1.12061550222559e-06 3.71598302361957e-08
1.53639000000000e+01 1.04577320042750e-06 3.47657273122510e-08
1.54413000000000e+01 9.75929375026805e-07 3.25254569231485e-08
1.55187000000000e+01 9.10750193876519e-07 3.04291651347945e-08
1.55961000000000e+01 8.49924120404036e-07 2.84676269444239e-08
1.56735000000000e+01 7.93160424561506e-07 2.66322063094833e-08
1.57509000000000e+01 7.40187793225030e-07 2.49148187039242e-08
1.58283000000000e+01 6.90753033400816e-07 2.33078960430830e-08
1.59057000000000e+01 6.44619862040025e-07 2.18043538282284e-08
1.59831000000000e+01 6.01567776677982e-07 2.03975603711498e-08
1.60605000000000e+01 5.61391001499765e-07 1.90813079678763e-08
1.61379000000000e+01 5.23897503794679e-07 1.78497858987988e-08
1.62153000000000e+01 4.88908076098562e-07 1.66975551401379e-08
1.62927000000000e+01 4.56255479636865e-07 1.56195246788965e-08
1.63701000000000e+01 4.25783644974398e-07 1.46109293301913e-08
1.64475000000000e+01 3.97346926051112e-07 1.36673089621839e-08
1.65249000000000e+01 3.70809404038432e-07 1.27844890397758e-08
1.66023000000000e+01 3.46044237688780e-07 1.19585624037994e-08
1.66797000000000e+01 3.22933057073164e-07 1.11858722076600e-08
1.67571000000000e+01 3.01365397809081e-07 1.04629959382844e-08
1.68345000000000e+01 2.81238173074518e-07 9.78673045282285e-09
1.69119000000000e+01 2.62455180884436e-07 9.15407796686001e-09
1.69893000000000e+01 2.44926644274676e-07 8.56223293392830e-09
1.70667000000000e+01 2.28568782195493e-07 8.00856975990422e-09
1.71441000000000e+01 2.13303409063742e-07 7.49063129941800e-09
1.72215000000000e+01 1.99057561059672e-07 7.00611808473624e-09
1.72989000000000e+01 1.85763147382159e-07 6.55287824069658e-09
1.73763000000000e+01 1.73356624795485e-07 6.12889804219970e-09
1.74537000000000e+01 1.61778693912077e-07 5.73229307350557e-09
1.75311000000000e+01 1.50974015759560e-07 5.36129995115158e-09
1.76085000000000e+01 1.40890947277368e-07 5.01426857471963e-09
1.76859000000000e+01 1.31481294478696e-07 4.68965487193745e-09
1.77633000000000e+01 1.22700082097968e-07 4.38601400671664e-09
1.78407000000000e+01 1.14505338622808e-07 4.10199402071336e-09
1.79181000000000e+01 1.06857895683029e-07 3.83632988085715e-09
1.79955000000000e+01 9.97212008377991e-08 3.58783790703598e-09
1.80729000000000e+01 9.30611428661324e-08 3.35541055575854e-09
1.81503000000000e+01 8.68458887256801e-08 3.13801153714484e-09
1.82277000000000e+01 8.10457314005118e-08 2.93467124403113e-09
1.83051000000000e+01 7.56329479106550e-08 2.74448247331759e-09
1.83825000000000e+01 7.05816668047212e-08 2.56659642094749e-09
1.84599000000000e+01 6.58677445022721e-08 2.40021893308590e-09
1.85373000000000e+01 6.14686498948817e-08 2.24460699717129e-09
1.86147000000000e+01 5.73633566543211e-08 2.09906545754950e-09
1.86921000000000e+01 5.35322427331342e-08 1.96294394136947e-09
1.87695000000000e+01 4.99569965772449e-08 1.83563398132972e-09
1.88469000000000e+01 4.66205296023237e-08 1.71656632271574e-09
1.89243000000000e+01 4.35068945155751e-08 1.60520840296688e-09
1.90017000000000e+01 4.06012090925504e-08 1.50106199275842e-09
1.90791000000000e+01 3.78895850446614e-08 1.40366098828490e-09
1.91565000000000e+01 3.53590616374043e-08 1.31256934508660e-09
1.92339000000000e+01 3.29975437420082e-08 1.22737914437548e-09
1.93113000000000e+01 3.07937440244152e-08 1.14770878339246e-09
1.93887000000000e+01 2.87371289952716e-08 1.07320128186699e-09
1.94661000000000e+01 2.68178686630672e-08 1.00352269715456e-09
1.95435000000000e+01 2.50267895497793e-08 9.38360641101105e-10
1.96209000000000e+01 2.33553308444500e-08 8.77422892125662e-10
1.96983000000000e+01 2.17955034851255e-08 8.20436096427921e-10
1.97757000000000e+01 2.03398519735808e-08 7.67144552615577e-10
1.98531000000000e+01 1.89814187403157e-08 7.17309074410278e-10
1.99305000000000e+01 1.77137108894986e-08 6.70705926431719e-10
2.00079000000000e+01 1.65306691649079e-08 6.27125828378519e-10
2.00853000000000e+01 1.54266389885385e-08 5.86373023223337e-10
2.01627000000000e+01 1.43963434334463e-08 5.48264405319506e-10
2.02401000000000e+01 1.34348580016500e-08 5.12628704578529e-10
2.03175000000000e+01 1.25375870865350e-08 4.79305723123072e-10
2.03949000000000e+01 1.17002420072578e-08 4.48145621049913e-10
2.04723000000000e+01 1.09188205101620e-08 4.19008248152414e-10
2.05497000000000e+01 1.01895876392283e-08 3.91762518653494e-10
2.06271000000000e+01 9.50905788412616e-09 3.66285826188722e-10
2.07045000000000e+01 8.87397852053903e-09 3.42463496455693e-10
2.07819000000000e+01 8.28131406313598e-09 3.20188275111204e-10
2.08593000000000e+01 7.72823175687921e-09 2.99359848652571e-10
2.09367000000000e+01 7.21208803732042e-09 2.79884396164300e-10
2.10141000000000e+01 6.73041589517038e-09 2.61674169947010e-10
2.10915000000000e+01 6.28091308474824e-09 2.44647103172586e-10
2.11689000000000e+01 5.86143111995057e-09 2.28726442828372e-10
2.12463000000000e+01 5.46996500514417e-09 2.13840406324598e-10
2.13237000000000e+01 5.10464365189950e-09 1.99921860243421e-10
2.14011000000000e+01 4.76372093575964e-09 1.86908019805515e-10
2.14785000000000e+01 4.44556735029884e-09 1.74740167721502e-10
2.15559000000000e+01 4.14866221857969e-09 1.63363391180944e-10
2.16333000000000e+01 3.87158642478188e-09 1.52726335811695e-10
2.17107000000000e+01 3.61301563126220e-09 1.42780975517284e-10
2.17881000000000e+01 3.37171394862519e-09 1.33482397170109e-10
2.18655000000000e+01 3.14652802854941e-09 1.24788599203890e-10
2.19429000000000e+01 2.93638155113486e-09 1.16660303210194e-10
2.20203000000000e+01 2.74027008042263e-09 1.09060777701393e-10
2.20977000000000e+01 2.55725626349795e-09 1.01955673256208e-10
2.21751000000000e+01 2.38646535022960e-09 9.53128683143549e-11
2.22525000000000e+01 2.22708101223156e-09 8.91023249339599e-11
2.23299000000000e+01 2.07834144106268e-09 8.32959538695249e-11
2.24073000000000e+01 1.93953570701512e-09 7.78674883695181e-11
2.24847000000000e+01 1.81000036108754e-09 7.27923661313139e-11
2.25621000000000e+01 1.68911626390154e-09 6.80476188873605e-11
2.26395000000000e+01 1.57630562640463e-09 6.36117691303187e-11
2.27169000000000e+01 1.47102924821505e-09 5.94647335165774e-11
2.27943000000000e+01 1.37278394040869e-09 5.55877325172046e-11
2.28717000000000e+01 1.28110012042977e-09 5.19632059131252e-11
2.29491000000000e+01 1.19553956762968e-09 4.85747337572830e-11
2.30265000000000e+01 1.11569332870616e-09 4.54069624508383e-11
2.31039000000000e+01 1.04117976303148e-09 4.24455356031798e-11
2.31813000000000e+01 9.71642718526828e-10 3.96770293668083e-11
2.32587000000000e+01 9.06749829364150e-10 3.70888919580534e-11
2.33361000000000e+01 8.46190927359081e-10 3.46693870932096e-11
2.34135000000000e+01 7.89676559461762e-10 3.24075410871125e-11
2.34909000000000e+01 7.36936604259698e-10 3.02930933774800e-11
2.35683000000000e+01 6.87718980879932e-10 2.83164502536057e-11
2.36457000000000e+01 6.41788444119492e-10 2.64686415822720e-11
2.37231000000000e+01 5.98925460045183e-10 2.47412803371071e-11
2.38005000000000e+01 5.58925156688467e-10 2.31265247501145e-11
2.38779000000000e+01 5.21596344820038e-10 2.16170429157993e-11
2.39553000000000e+01 4.86760604123721e-10 2.02059796892545e-11
2.40327000000000e+01 4.54251430401872e-10 1.88869257298159e-11
2.41101000000000e+01 4.23913439736177e-10 1.76538885514702e-11
2.41875000000000e+01 3.95601625800004e-10 1.65012654501626e-11
2.42649000000000e+01 3.69180666772453e-10 1.54238181865380e-11
2.43423000000000e+01 3.44524278541405e-10 1.44166493104942e-11
2.44197000000000e+01 3.21514611104040e-10 1.34751800212636e-11
