Energy (eV)          EEDF (eV^-(3/2))     First Anisotropy
1.04464285714286e-02 1.81233793756823e-01 9.08013194964248e-05
3.13392857142857e-02 1.80116101235772e-01 1.49980646590371e-04
5.22321428571429e-02 1.79005301668683e-01 1.98102373238402e-04
7.31250000000000e-02 1.77901352548875e-01 2.34728431583379e-04
9.40178571428572e-02 1.76804211626881e-01 2.65331037368622e-04
1.14910714285714e-01 1.75713836913496e-01 2.91977018326613e-04
1.35803571428571e-01 1.74630186685736e-01 3.15734907497484e-04
1.56696428571429e-01 1.73553219472134e-01 3.37249341014413e-04
1.77589285714286e-01 1.72482894057098e-01 3.56947446316906e-04
1.98482142857143e-01 1.71419169479608e-01 3.75130822743577e-04
2.19375000000000e-01 1.70362005031306e-01 3.92022519697403e-04
2.40267857142857e-01 1.69311360250420e-01 4.07793420860791e-04
2.61160714285714e-01 1.68267194934211e-01 4.22578147262130e-04
2.82053571428571e-01 1.67229469122830e-01 4.36485179835878e-04
3.02946428571429e-01 1.66198143102899e-01 4.49603587887677e-04
3.23839285714286e-01 1.65173177405933e-01 4.62007666987824e-04
3.44732142857143e-01 1.64154532806931e-01 4.73760231469571e-04
3.65625000000000e-01 1.63142170322807e-01 4.84915012394217e-04
3.86517857142857e-01 1.62136051208259e-01 4.95518441064168e-04
4.07410714285714e-01 1.61136136962396e-01 5.05611003260097e-04
4.28303571428571e-01 1.60142389318928e-01 5.15228283852513e-04
4.49196428571429e-01 1.59154770247570e-01 5.24401782958681e-04
4.70089285714286e-01 1.58173241952557e-01 5.33159564361586e-04
4.90982142857143e-01 1.57197766871248e-01 5.41526775624048e-04
5.11875000000000e-01 1.56228307672656e-01 5.49526070242969e-04
5.32767857142857e-01 1.55264827254205e-01 5.57177952411894e-04
5.53660714285714e-01 1.54307288745870e-01 5.64501063088089e-04
5.74553571428571e-01 1.53355655503088e-01 5.71512418375597e-04
5.95446428571429e-01 1.52409891107292e-01 5.78227608347569e-04
6.16339285714286e-01 1.51469959364502e-01 5.84660966003866e-04
6.37232142857143e-01 1.50535824303967e-01 5.90825710728066e-04
6.58125000000000e-01 1.49607450176776e-01 5.96734071229629e-04
6.79017857142857e-01 1.48684801453122e-01 6.02397390438680e-04
6.99910714285714e-01 1.47767842825100e-01 6.07826217218652e-04
7.20803571428571e-01 1.46856539201132e-01 6.13030386094042e-04
7.41696428571429e-01 1.45950855706051e-01 6.18019085759756e-04
7.62589285714286e-01 1.45050757679770e-01 6.22800919937473e-04
7.83482142857143e-01 1.44156210675959e-01 6.27383960719621e-04
8.04375000000000e-01 1.43267180460728e-01 6.31775795870326e-04
8.25267857142857e-01 1.42383633010239e-01 6.35983570001325e-04
8.46160714285714e-01 1.41505534512665e-01 6.40014022086034e-04
8.67053571428571e-01 1.40632851363591e-01 6.43873518963484e-04
8.87946428571429e-01 1.39765550165844e-01 6.47568084385247e-04
9.08839285714286e-01 1.38903597728213e-01 6.51103425801012e-04
9.29732142857143e-01 1.38046961064187e-01 6.54484958283006e-04
9.50625000000000e-01 1.37195607390687e-01 6.57717826277010e-04
9.71517857142857e-01 1.36349504125944e-01 6.60806922613089e-04
9.92410714285714e-01 1.35508618890890e-01 6.63756906060293e-04
1.01330357142857e+00 1.34672919507685e-01 6.66572219657790e-04
1.03419642857143e+00 1.33842373989617e-01 6.69257102913257e-04
1.05508928571429e+00 1.33016950552179e-01 6.71815602795273e-04
1.07598214285714e+00 1.32196617614579e-01 6.74251593042477e-04
1.09687500000000e+00 1.31381343775383e-01 6.76568781273963e-04
1.11776785714286e+00 1.30571097834548e-01 6.78770716081098e-04
1.13866071428571e+00 1.29765848784439e-01 6.80860799724062e-04
1.15955357142857e+00 1.28965565815609e-01 6.82842299631837e-04
1.18044642857143e+00 1.28170218294632e-01 6.84718353492087e-04
1.20133928571429e+00 1.27379775783995e-01 6.86491972267894e-04
1.22223214285714e+00 1.26594208040375e-01 6.88166055683706e-04
1.24312500000000e+00 1.25813484994000e-01 6.89743394304667e-04
1.26401785714286e+00 1.25037576767049e-01 6.91226672578336e-04
1.28491071428571e+00 1.24266453665958e-01 6.92618477227353e-04
1.30580357142857e+00 1.23500086186192e-01 6.93921304876531e-04
1.32669642857143e+00 1.22738444993308e-01 6.95137564156912e-04
1.34758928571429e+00 1.21981500939712e-01 6.96269576172342e-04
1.36848214285714e+00 1.21229225063090e-01 6.97319586424459e-04
1.38937500000000e+00 1.20481588568678e-01 6.98289764816129e-04
1.41026785714286e+00 1.19738562844847e-01 6.99182206691388e-04
1.43116071428571e+00 1.19000119456420e-01 6.99998938859256e-04
1.45205357142857e+00 1.18266230148653e-01 7.00741925073272e-04
1.47294642857143e+00 1.17536866830863e-01 7.01413066618769e-04
1.49383928571429e+00 1.16812001590702e-01 7.02014201524410e-04
1.51473214285714e+00 1.16091606692739e-01 7.02547114278810e-04
1.53562500000000e+00 1.15375654563032e-01 7.03013534805093e-04
1.55651785714286e+00 1.14664117802484e-01 7.03415138459831e-04
1.57741071428571e+00 1.13956969180976e-01 7.03753550637313e-04
1.59830357142857e+00 1.13254181640727e-01 7.04030350956274e-04
1.61919642857143e+00 1.12555728281967e-01 7.04247073044122e-04
1.64008928571429e+00 1.11861582375256e-01 7.04405203123165e-04
1.66098214285714e+00 1.11171717360159e-01 7.04506188236887e-04
1.68187500000000e+00 1.10486106831705e-01 7.04551434713968e-04
1.70276785714286e+00 1.09804724551952e-01 7.04542307611940e-04
1.72366071428571e+00 1.09127544444768e-01 7.04480134407453e-04
1.74455357142857e+00 1.08454540598699e-01 7.04366208349094e-04
1.76544642857143e+00 1.07785687254333e-01 7.04201787809274e-04
1.78633928571429e+00 1.07120958815000e-01 7.03988094569446e-04
1.80723214285714e+00 1.06460329845553e-01 7.03726320970176e-04
1.82812500000000e+00 1.05803775060372e-01 7.03417628135642e-04
1.84901785714286e+00 1.05151269333456e-01 7.03063145121216e-04
1.86991071428571e+00 1.04502787693761e-01 7.02663971978749e-04
1.89080357142857e+00 1.03858305327651e-01 7.02221182538855e-04
1.91169642857143e+00 1.03217797567670e-01 7.01735823532806e-04
1.93258928571429e+00 1.02581239901918e-01 7.01208912751366e-04
1.95348214285714e+00 1.01948607972905e-01 7.00641445374300e-04
1.97437500000000e+00 1.01319877566865e-01 7.00034392102825e-04
1.99526785714286e+00 1.00695024622618e-01 6.99388698155884e-04
2.01616071428571e+00 1.00074025227372e-01 6.98705285885387e-04
2.03705357142857e+00 9.94568556188388e-02 6.97985057147889e-04
2.05794642857143e+00 9.88434921751908e-02 6.97228892311021e-04
2.07883928571429e+00 9.82339114233260e-02 6.96437648382784e-04
2.09973214285714e+00 9.76280900377880e-02 6.95612164689043e-04
2.12062500000000e+00 9.70260048311933e-02 6.94753260995340e-04
2.14151785714286e+00 9.64276327620572e-02 6.93861736435045e-04
2.16241071428571e+00 9.58329509309946e-02 6.92938371786243e-04
2.18330357142857e+00 9.52419365825486e-02 6.91983931535142e-04
2.20419642857143e+00 9.46545670961671e-02 6.90999162834088e-04
2.22508928571429e+00 9.40708199935216e-02 6.89984793655075e-04
2.24598214285714e+00 9.34906729374909e-02 6.88941537931731e-04
2.26687500000000e+00 9.29141037235395e-02 6.87870093716358e-04
2.28776785714286e+00 9.23410902866645e-02 6.86771142088964e-04
2.30866071428571e+00 9.17716106979401e-02 6.85645349170331e-04
2.32955357142857e+00 9.12056431661051e-02 6.84493367945203e-04
2.35044642857143e+00 9.06431660294170e-02 6.83315837211547e-04
2.37133928571429e+00 9.00841577621636e-02 6.82113379788442e-04
2.39223214285714e+00 8.95285969737030e-02 6.80886607206913e-04
2.41312500000000e+00 8.89764624006663e-02 6.79636117927668e-04
2.43401785714286e+00 8.84277329131498e-02 6.78362496259814e-04
2.45491071428571e+00 8.78823875115604e-02 6.77066314161843e-04
2.47580357142857e+00 8.73404053279965e-02 6.75748132872049e-04
2.49669642857143e+00 8.68017656188657e-02 6.74408501872557e-04
2.51758928571429e+00 8.62664477707008e-02 6.73047957167979e-04
2.53848214285714e+00 8.57344312992520e-02 6.71667025588537e-04
2.55937500000000e+00 8.52056958424075e-02 6.70266223081711e-04
2.58026785714286e+00 8.46802211657343e-02 6.68846053657843e-04
2.60116071428571e+00 8.41579871595872e-02 6.67407011016215e-04
2.62205357142857e+00 8.36389738403144e-02 6.65949580016929e-04
2.64294642857143e+00 8.31231613435419e-02 6.64474235673647e-04
2.66383928571429e+00 8.26105299293875e-02 6.62981441510587e-04
2.68473214285714e+00 8.21010599816002e-02 6.61471653527716e-04
2.70562500000000e+00 8.15947320011116e-02 6.59945318572566e-04
2.72651785714286e+00 8.10915266110102e-02 6.58402873322440e-04
2.74741071428571e+00 8.05914245538838e-02 6.56844745763303e-04
2.76830357142857e+00 8.00944066928733e-02 6.55271356528223e-04
2.78919642857143e+00 7.96004540055455e-02 6.53683117926999e-04
2.81008928571429e+00 7.91095475885814e-02 6.52080432384637e-04
2.83098214285714e+00 7.86216686569590e-02 6.50463696107814e-04
2.85187500000000e+00 7.81367985380629e-02 6.48833297538881e-04
2.87276785714286e+00 7.76549186761616e-02 6.47189616380105e-04
2.89366071428571e+00 7.71760106299593e-02 6.45533024946579e-04
2.91455357142857e+00 7.67000560735172e-02 6.43863889390524e-04
2.93544642857143e+00 7.62270367906479e-02 6.42182568771801e-04
2.95633928571429e+00 7.57569346791426e-02 6.40489413578088e-04
2.97723214285714e+00 7.52897317499946e-02 6.38784769124995e-04
2.99812500000000e+00 7.48254101220038e-02 6.37068974091497e-04
3.01901785714286e+00 7.43639520258182e-02 6.35342359588958e-04
3.03991071428571e+00 7.39053398016714e-02 6.33605250404403e-04
3.06080357142857e+00 7.34495559001909e-02 6.31857966125727e-04
3.08169642857143e+00 7.29965828772551e-02 6.30100820255338e-04
3.10258928571429e+00 7.25464033978147e-02 6.28334118809897e-04
3.12348214285714e+00 7.20990002351550e-02 6.26558163481163e-04
3.14437500000000e+00 7.16543562659403e-02 6.24773250250957e-04
3.16526785714286e+00 7.12124544738720e-02 6.22979668505339e-04
3.18616071428571e+00 7.07732779475930e-02 6.21177702181798e-04
3.20705357142857e+00 7.03368098813960e-02 6.19367630807356e-04
3.22794642857143e+00 6.99030335704959e-02 6.17549728655522e-04
3.24883928571429e+00 6.94719324144916e-02 6.15724263423262e-04
3.26973214285714e+00 6.90434899166635e-02 6.13891499175052e-04
3.29062500000000e+00 6.86176896794140e-02 6.12051695034458e-04
3.31151785714286e+00 6.81945154075837e-02 6.10205104343240e-04
3.33241071428571e+00 6.77739509065076e-02 6.08351975723003e-04
3.35330357142857e+00 6.73559800826363e-02 6.06492554036290e-04
3.37419642857143e+00 6.69405869391803e-02 6.04627079586287e-04
3.39508928571429e+00 6.65277555792524e-02 6.02755786867428e-04
3.41598214285714e+00 6.61174702051997e-02 6.00878907312609e-04
3.43687500000000e+00 6.57097151143982e-02 5.98996668057764e-04
3.45776785714286e+00 6.53044747022667e-02 5.97109291144728e-04
3.47866071428571e+00 6.49017334604594e-02 5.95216994506561e-04
3.49955357142857e+00 6.45014759774109e-02 5.93319992859546e-04
3.52044642857143e+00 6.41036869343158e-02 5.91418496944634e-04
3.54133928571429e+00 6.37083511079867e-02 5.89512712348141e-04
3.56223214285714e+00 6.33154533702176e-02 5.87602842068985e-04
3.58312500000000e+00 6.29249786838993e-02 5.85689085352766e-04
3.60401785714286e+00 6.25369121057624e-02 5.83771636936804e-04
3.62491071428571e+00 6.21512387846946e-02 5.81850687966606e-04
3.64580357142857e+00 6.17679439622187e-02 5.79926426825956e-04
3.66669642857143e+00 6.13870129687747e-02 5.77999038418336e-04
3.68758928571429e+00 6.10084312263241e-02 5.76068703053914e-04
3.70848214285714e+00 6.06321842477427e-02 5.74135598852105e-04
3.72937500000000e+00 6.02582576332262e-02 5.72199900641128e-04
3.75026785714286e+00 5.98866370727915e-02 5.70261779243621e-04
3.77116071428571e+00 5.95173083447066e-02 5.68321402330827e-04
3.79205357142857e+00 5.91502573159099e-02 5.66378935196323e-04
3.81294642857143e+00 5.87854699385674e-02 5.64434540075955e-04
3.83383928571429e+00 5.84229322524483e-02 5.62488375097423e-04
3.85473214285714e+00 5.80626303843465e-02 5.60540596531229e-04
3.87562500000000e+00 5.77045505447495e-02 5.58591357752302e-04
3.89651785714286e+00 5.73486790301217e-02 5.56640808564106e-04
3.91741071428571e+00 5.69950022214390e-02 5.54689095996216e-04
3.93830357142857e+00 5.66435065845553e-02 5.52736365026757e-04
3.95919642857143e+00 5.62941786670094e-02 5.50782757938841e-04
3.98008928571429e+00 5.59470051001964e-02 5.48828413329509e-04
4.00098214285714e+00 5.56019725988149e-02 5.46873468220769e-04
4.02187500000000e+00 5.52590679577759e-02 5.44918057079511e-04
4.04276785714286e+00 5.49182780542908e-02 5.42962311178312e-04
4.06366071428571e+00 5.45795898465010e-02 5.41006359341296e-04
4.08455357142857e+00 5.42429903737981e-02 5.39050328619680e-04
4.10544642857143e+00 5.39084667538585e-02 5.37094343682966e-04
4.12633928571429e+00 5.35760061846301e-02 5.35138525883667e-04
4.14723214285714e+00 5.32455959438049e-02 5.33182995238856e-04
4.16812500000000e+00 5.29172233859465e-02 5.31227869505194e-04
4.18901785714286e+00 5.25908759444017e-02 5.29273263574655e-04
4.20991071428571e+00 5.22665411300172e-02 5.27319290172592e-04
4.23080357142857e+00 5.19442065314197e-02 5.25366060490398e-04
4.25169642857143e+00 5.16238598122577e-02 5.23413683609730e-04
4.27258928571429e+00 5.13054887130219e-02 5.21462265619540e-04
4.29348214285714e+00 5.09890810505414e-02 5.19511911477905e-04
4.31437500000000e+00 5.06746247153118e-02 5.17562724138803e-04
4.33526785714286e+00 5.03621076732464e-02 5.15614803980740e-04
4.35616071428571e+00 5.00515179644740e-02 5.13668249460959e-04
4.37705357142857e+00 4.97428437035831e-02 5.11723157708599e-04
4.39794642857143e+00 4.94360730770535e-02 5.09779623980228e-04
4.41883928571429e+00 4.91311943449258e-02 5.07837740826047e-04
4.43973214285714e+00 4.88281958403212e-02 5.05897599840557e-04
4.46062500000000e+00 4.85270659669516e-02 5.03959290837989e-04
4.48151785714286e+00 4.82277932007270e-02 5.02022901312063e-04
4.50241071428571e+00 4.79303660886281e-02 5.00088517049820e-04
4.52330357142857e+00 4.76347732489174e-02 4.98156222688234e-04
4.54419642857143e+00 4.73410033687464e-02 4.96226101199215e-04
4.56508928571429e+00 4.70490452056877e-02 4.94298233102304e-04
4.58598214285714e+00 4.67588875872763e-02 4.92372698111862e-04
4.60687500000000e+00 4.64705194086885e-02 4.90449574358196e-04
4.62776785714286e+00 4.61839296342179e-02 4.88528937876734e-04
4.64866071428571e+00 4.58991072962167e-02 4.86610863184608e-04
4.66955357142857e+00 4.56160414952785e-02 4.84695423803359e-04
4.69044642857143e+00 4.53347213980059e-02 4.82782691771834e-04
4.71133928571429e+00 4.50551362384184e-02 4.80872736902539e-04
4.73223214285714e+00 4.47772753175144e-02 4.78965628332399e-04
4.75312500000000e+00 4.45011280011040e-02 4.77061433787086e-04
4.77401785714286e+00 4.42266837211673e-02 4.75160219097887e-04
4.79491071428571e+00 4.39539319748582e-02 4.73262048743545e-04
4.81580357142857e+00 4.36828623246626e-02 4.71366986341702e-04
4.83669642857143e+00 4.34134643963134e-02 4.69475094188180e-04
4.85758928571429e+00 4.31457278800854e-02 4.67586432554222e-04
4.87848214285714e+00 4.28796425303770e-02 4.65701061147496e-04
4.89937500000000e+00 4.26151981636856e-02 4.63819038416967e-04
4.92026785714286e+00 4.23523846598571e-02 4.61940421095873e-04
4.94116071428571e+00 4.20911919611493e-02 4.60065264711377e-04
4.96205357142857e+00 4.18316100723675e-02 4.58193624046927e-04
4.98294642857143e+00 4.15736290589153e-02 4.56325552706365e-04
5.00383928571429e+00 4.13172390479872e-02 4.54461102449782e-04
5.02473214285714e+00 4.10624302281684e-02 4.52600324570643e-04
5.04562500000000e+00 4.08091928475421e-02 4.50743269238707e-04
5.06651785714286e+00 4.05575172148396e-02 4.48889985067777e-04
5.08741071428571e+00 4.03073936985597e-02 4.47040519595326e-04
5.10830357142857e+00 4.00588127270830e-02 4.45194919717817e-04
5.12919642857143e+00 3.98117647868496e-02 4.43353231278262e-04
5.15008928571429e+00 3.95662404234572e-02 4.41515498438300e-04
5.17098214285714e+00 3.93222302412788e-02 4.39681764977033e-04
5.19187500000000e+00 3.90797249016914e-02 4.37852073669786e-04
5.21276785714286e+00 3.88387151241362e-02 4.36026465879035e-04
5.23366071428571e+00 3.85991916852886e-02 4.34204982006198e-04
5.25455357142857e+00 3.83611454191557e-02 4.32387661901779e-04
5.27544642857143e+00 3.81245672153691e-02 4.30574544474951e-04
5.29633928571429e+00 3.78894480201982e-02 4.28765667099853e-04
5.31723214285714e+00 3.76557788361840e-02 4.26961066841032e-04
5.33812500000000e+00 3.74235507204812e-02 4.25160779865924e-04
5.35901785714286e+00 3.71927547858350e-02 4.23364841057813e-04
5.37991071428571e+00 3.69633821997995e-02 4.21573284441576e-04
5.40080357142857e+00 3.67354241848189e-02 4.19786143570219e-04
5.42169642857143e+00 3.65088720166283e-02 4.18003451155417e-04
5.44258928571429e+00 3.62837170251884e-02 4.16225238505830e-04
5.46348214285714e+00 3.60599505943358e-02 4.14451536683960e-04
5.48437500000000e+00 3.58375641602283e-02 4.12682375950435e-04
5.50526785714286e+00 3.56165492122475e-02 4.10917785397562e-04
5.52616071428571e+00 3.53968972922608e-02 4.09157793350830e-04
5.54705357142857e+00 3.51785999946891e-02 4.07402427733411e-04
5.56794642857143e+00 3.49616489650070e-02 4.05651715716359e-04
5.58883928571429e+00 3.47460359006059e-02 4.03905683187292e-04
5.60973214285714e+00 3.45317525504597e-02 4.02164355842796e-04
5.63062500000000e+00 3.43187907136669e-02 4.00427758662651e-04
5.65151785714286e+00 3.41071422402834e-02 3.98695915562893e-04
5.67241071428571e+00 3.38967990306271e-02 3.96968849774585e-04
5.69330357142857e+00 3.36877530353322e-02 3.95246584187818e-04
5.71419642857143e+00 3.34799962539425e-02 3.93529141020321e-04
5.73508928571429e+00 3.32735207357088e-02 3.91816541314759e-04
5.75598214285714e+00 3.30683185792689e-02 3.90108805970818e-04
5.77687500000000e+00 3.28643819312796e-02 3.88405955247484e-04
5.79776785714286e+00 3.26617029871864e-02 3.86708008434535e-04
5.81866071428571e+00 3.24602739905664e-02 3.85014984210102e-04
5.83955357142857e+00 3.22600872331720e-02 3.83326900965379e-04
5.86044642857143e+00 3.20611350536104e-02 3.81643776490774e-04
5.88133928571429e+00 3.18634098380798e-02 3.79965627500049e-04
5.90223214285714e+00 3.16669040200645e-02 3.78292470605662e-04
5.92312500000000e+00 3.14716100790493e-02 3.76624321847693e-04
5.94401785714286e+00 3.12775205412319e-02 3.74961196382750e-04
5.96491071428571e+00 3.10846279789016e-02 3.73303108821459e-04
5.98580357142857e+00 3.08929250104736e-02 3.71650073535181e-04
6.00669642857143e+00 3.07024042992478e-02 3.70002104358723e-04
6.02758928571429e+00 3.05130585540908e-02 3.68359214139779e-04
6.04848214285714e+00 3.03248805291432e-02 3.66721415661050e-04
6.06937500000000e+00 3.01378630226123e-02 3.65088721194176e-04
6.09026785714286e+00 2.99519988774308e-02 3.63461142205043e-04
6.11116071428571e+00 2.97672809806696e-02 3.61838689672646e-04
6.13205357142857e+00 2.95837022635634e-02 3.60221374378757e-04
6.15294642857143e+00 2.94012557003444e-02 3.58609206626284e-04
6.17383928571429e+00 2.92199343088725e-02 3.57002195812635e-04
6.19473214285714e+00 2.90397311503564e-02 3.55400351301765e-04
6.21562500000000e+00 2.88606393282179e-02 3.53803682001705e-04
6.23651785714286e+00 2.86826519887016e-02 3.52212196085352e-04
6.25741071428571e+00 2.85057623203198e-02 3.50625901291760e-04
6.27830357142857e+00 2.83299635538703e-02 3.49044805199956e-04
6.29919642857143e+00 2.81552489613397e-02 3.47468914962071e-04
6.32008928571429e+00 2.79816118564867e-02 3.45898236899141e-04
6.34098214285714e+00 2.78090455945749e-02 3.44332777326129e-04
6.36187500000000e+00 2.76375435713053e-02 3.42772542151718e-04
6.38276785714286e+00 2.74670992233803e-02 3.41217536613690e-04
6.40366071428571e+00 2.72977060279787e-02 3.39667765563770e-04
6.42455357142857e+00 2.71293575027668e-02 3.38123233726471e-04
6.44544642857143e+00 2.69620472048662e-02 3.36583945446194e-04
6.46633928571429e+00 2.67957687313942e-02 3.35049904304275e-04
6.48723214285714e+00 2.66305157192083e-02 3.33521113899640e-04
6.50812500000000e+00 2.64662818439016e-02 3.31997577469708e-04
6.52901785714286e+00 2.63030608203246e-02 3.30479297639479e-04
6.54991071428571e+00 2.61408464020893e-02 3.28966276690954e-04
6.57080357142857e+00 2.59796323815736e-02 3.27458516807963e-04
6.59169642857143e+00 2.58194125889498e-02 3.25956019836333e-04
