Energy (eV)          EEDF (eV^-(3/2))     First Anisotropy
8.87500000000000e-01 3.13241827445719e-02 7.67274345873277e-05
2.66250000000000e+00 2.63497555875609e-02 1.17032059505221e-04
4.43750000000000e+00 2.21652907973956e-02 1.30840679385581e-04
6.21250000000000e+00 1.86453386446227e-02 1.31220683371144e-04
7.98750000000000e+00 1.56843714052923e-02 1.25547520186397e-04
9.76250000000000e+00 1.31936196530331e-02 1.16937078444577e-04
1.15375000000000e+01 1.10984109627858e-02 1.07031018057913e-04
1.33125000000000e+01 9.33593124086824e-03 9.67657467585099e-05
1.50875000000000e+01 7.85334156632649e-03 8.66878652490322e-05
1.68625000000000e+01 6.60619408671391e-03 7.71116977134280e-05
1.86375000000000e+01 5.55709947705075e-03 6.82074819392942e-05
2.04125000000000e+01 4.67460601255191e-03 6.00543819145559e-05
2.21875000000000e+01 3.93225664986363e-03 5.26738433282358e-05
2.39625000000000e+01 3.30779584822283e-03 4.60512010835133e-05
2.57375000000000e+01 2.78250235113714e-03 4.01499227221520e-05
2.75125000000000e+01 2.34062792546385e-03 3.49210757945276e-05
2.92875000000000e+01 1.96892523135596e-03 3.03096219878271e-05
3.10625000000000e+01 1.65625066867553e-03 2.62585676916452e-05
3.28375000000000e+01 1.39323029325952e-03 2.27116512773895e-05
3.46125000000000e+01 1.17197878724980e-03 1.96150261921315e-05
3.63875000000000e+01 9.85863058252963e-04 1.69182546614302e-05
3.81625000000000e+01 8.29303380062568e-04 1.45748303306351e-05
3.99375000000000e+01 6.97606113167425e-04 1.25423824294779e-05
4.17125000000000e+01 5.86822990027903e-04 1.07826685475716e-05
4.34875000000000e+01 4.93632746510410e-04 9.26143124856145e-06
4.52625000000000e+01 4.15241550805336e-04 7.94817124211460e-06
4.70375000000000e+01 3.49299244699895e-04 6.81587383179275e-06
4.88125000000000e+01 2.93828886129738e-04 5.84071393854583e-06
5.05875000000000e+01 2.47167480703884e-04 5.00175683958778e-06
5.23625000000000e+01 2.07916125341503e-04 4.28066593621473e-06
5.41375000000000e+01 1.74898069333051e-04 3.66142471858762e-06
5.59125000000000e+01 1.47123435501627e-04 3.13007716467100e-06
5.76875000000000e+01 1.23759543809390e-04 2.67448875927139e-06
5.94625000000000e+01 1.04105947714488e-04 2.28412890486307e-06
6.12375000000000e+01 8.75734348716099e-05 1.94987454215107e-06
6.30125000000000e+01 7.36663626197873e-05 1.66383417626751e-06
6.47875000000000e+01 6.19677986776018e-05 1.41919111986999e-06
6.65625000000000e+01 5.21270215656927e-05 1.21006454819132e-06
6.83375000000000e+01 4.38490060208049e-05 1.03138686276823e-06
7.01125000000000e+01 3.68855781754089e-05 8.78795843265108e-07
7.18875000000000e+01 3.10279753362863e-05 7.48540103665740e-07
7.36625000000000e+01 2.61005873051770e-05 6.37396440714849e-07
7.54375000000000e+01 2.19556916070664e-05 5.42597754915148e-07
7.72125000000000e+01 1.84690247889171e-05 4.61770327739801e-07
7.89875000000000e+01 1.55360570169353e-05 3.92879346098266e-07
8.07625000000000e+01 1.30688582852684e-05 3.34181671779503e-07
8.25375000000000e+01 1.09934622854596e-05 2.84184956471957e-07
8.43125000000000e+01 9.24764890580034e-06 2.41612300064740e-07
8.60875000000000e+01 7.77907888018694e-06 2.05371740140963e-07
8.78625000000000e+01 6.54372466348876e-06 1.74529943343529e-07
8.96375000000000e+01 5.50455049126871e-06 1.48289544496753e-07
9.14125000000000e+01 4.63040205221169e-06 1.25969647152974e-07
9.31875000000000e+01 3.89507248577976e-06 1.06989059931713e-07
9.49625000000000e+01 3.27651670382098e-06 9.08518970711383e-08
9.67375000000000e+01 2.75619048159221e-06 7.71352195195369e-08
9.85125000000000e+01 2.31849450422779e-06 6.54784351854102e-08
1.00287500000000e+02 1.95030670123684e-06 5.55742141667684e-08
1.02062500000000e+02 1.64058884847614e-06 4.71607074053951e-08
1.03837500000000e+02 1.38005564357511e-06 4.00148857462545e-08
1.05612500000000e+02 1.16089633373563e-06 3.39468412790374e-08
1.07387500000000e+02 9.76540550343018e-07 2.87949145154525e-08
1.09162500000000e+02 8.21461330139248e-07 2.44215297926386e-08
1.10937500000000e+02 6.91009417557840e-07 2.07096376337705e-08
1.12712500000000e+02 5.81273880625257e-07 1.75596769501590e-08
1.14487500000000e+02 4.88964861710967e-07 1.48869822102822e-08
1.16262500000000e+02 4.11314948008411e-07 1.26195712748147e-08
1.18037500000000e+02 3.45996204846242e-07 1.06962587191245e-08
1.19812500000000e+02 2.91050384498924e-07 9.06504732646625e-09
1.21587500000000e+02 2.44830218165589e-07 7.68175720358414e-09
1.23362500000000e+02 2.05950031058047e-07 6.50885779226603e-09
1.25137500000000e+02 1.73244200044470e-07 5.51447305362371e-09
1.26912500000000e+02 1.45732208414132e-07 4.67153439817392e-09
1.28687500000000e+02 1.22589250109432e-07 3.95705962128160e-09
1.30462500000000e+02 1.03121502143761e-07 3.35153926455240e-09
1.32237500000000e+02 8.67453238754046e-08 2.83841453245437e-09
1.34012500000000e+02 7.29697595343273e-08 2.40363321311486e-09
1.35787500000000e+02 6.13818194297763e-08 2.03527203761109e-09
1.37562500000000e+02 5.16340985711650e-08 1.72321561040845e-09
1.39337500000000e+02 4.34343615100381e-08 1.45888349565868e-09
1.41112500000000e+02 3.65367811579888e-08 1.23499828496824e-09
1.42887500000000e+02 3.07345689213884e-08 1.04538853220963e-09
1.44662500000000e+02 2.58537752052915e-08 8.84821345970181e-10
1.46437500000000e+02 2.17480744264023e-08 7.48860202646843e-10
1.48212500000000e+02 1.82943781904443e-08 6.33744202178039e-10
1.49987500000000e+02 1.53891451175418e-08 5.36285550405845e-10
1.51762500000000e+02 1.29452766846408e-08 4.53782531189044e-10
1.53537500000000e+02 1.08895060227149e-08 3.83945639724894e-10
1.55312500000000e+02 9.16020138522320e-09 3.24834896433901e-10
1.57087500000000e+02 7.70551843608102e-09 2.74806657074035e-10
1.58862500000000e+02 6.48184596296818e-09 2.32468487054473e-10
1.60637500000000e+02 5.45249841865476e-09 1.96640882691080e-10
1.62412500000000e+02 4.58661609289752e-09 1.66324804921064e-10
1.64187500000000e+02 3.85823994219823e-09 1.40674146500194e-10
1.65962500000000e+02 3.24553334093628e-09 1.18972385979061e-10
1.67737500000000e+02 2.73012742207204e-09 1.00612794239833e-10
1.69512500000000e+02 2.29657038081744e-09 8.50816550109128e-11
1.71287500000000e+02 1.93186423146691e-09 7.19440420700229e-11
1.73062500000000e+02 1.62507512941661e-09 6.08317649334650e-11
1.74837500000000e+02 1.36700557587483e-09 5.14331535315063e-11
1.76612500000000e+02 1.14991867800212e-09 4.34844022386435e-11
1.78387500000000e+02 9.67306197834571e-10 3.67622359842644e-11
1.80162500000000e+02 8.13693436126143e-10 3.10776971391735e-11
1.81937500000000e+02 6.84475101552075e-10 2.62708824143854e-11
1.83712500000000e+02 5.75777244652731e-10 2.22064849356320e-11
1.85487500000000e+02 4.84341117314796e-10 1.87700186636918e-11
1.87262500000000e+02 4.07425475911663e-10 1.58646210068504e-11
1.89037500000000e+02 3.42724399163404e-10 1.34083453191864e-11
1.90812500000000e+02 2.88298156906084e-10 1.13318684234909e-11
1.92587500000000e+02 2.42515057224790e-10 9.57654970301646e-12
1.94362500000000e+02 2.04002528534729e-10 8.09278798005505e-12
1.96137500000000e+02 1.71605970057306e-10 6.83863060337793e-12
1.97912500000000e+02 1.44354137033628e-10 5.77859612324696e-12
1.99687500000000e+02 1.21430022928484e-10 4.88267783096259e-12
2.01462500000000e+02 1.02146365676913e-10 4.12550044017230e-12
2.03237500000000e+02 8.59250436537153e-11 3.48560642565614e-12
2.05012500000000e+02 7.22797436596572e-11 2.94485212767749e-12
2.06787500000000e+02 6.08013813127677e-11 2.48789677439976e-12
2.08562500000000e+02 5.11458367498880e-11 2.10177015463075e-12
2.10337500000000e+02 4.30236379563449e-11 1.77550685895675e-12
2.12112500000000e+02 3.61912824312665e-11 1.49983685914451e-12
2.13887500000000e+02 3.04439370131538e-11 1.26692376439909e-12
2.15662500000000e+02 2.56092970073965e-11 1.07014342182328e-12
2.17437500000000e+02 2.15424205131446e-11 9.03896653830080e-13
2.19212500000000e+02 1.81213830833045e-11 7.63450878346883e-13
2.20987500000000e+02 1.52436224449106e-11 6.44806164733344e-13
2.22762500000000e+02 1.28228636950491e-11 5.44581961721486e-13
2.24537500000000e+02 1.07865327900918e-11 4.59921312286685e-13
2.26312500000000e+02 9.07358078497306e-12 3.88409860198854e-13
2.28087500000000e+02 7.63265359347521e-12 3.28007367667643e-13
2.29862500000000e+02 6.42055239916651e-12 2.76989814493634e-13
2.31637500000000e+02 5.40093856030396e-12 2.33900446222238e-13
2.33412500000000e+02 4.54324418191260e-12 1.97508390230493e-13
2.35187500000000e+02 3.82175569412902e-12 1.66773671459066e-13
2.36962500000000e+02 3.21484296260275e-12 1.40817639561207e-13
2.38737500000000e+02 2.70431081978196e-12 1.18897971599064e-13
2.40512500000000e+02 2.27485357607294e-12 1.00387543328429e-13
2.42287500000000e+02 1.91359615718620e-12 8.47565711771293e-14
2.44062500000000e+02 1.60970811102455e-12 7.15575192894499e-14
2.45837500000000e+02 1.35407891208786e-12 6.04123440611456e-14
2.47612500000000e+02 1.13904482906162e-12 5.10017146126971e-14
2.49387500000000e+02 9.58159167113464e-13 4.30559034930190e-14
2.51162500000000e+02 8.05998996790935e-13 3.63470891382109e-14
2.52937500000000e+02 6.78002575276791e-13 3.06828515559966e-14
2.54712500000000e+02 5.70332585911639e-13 2.59006764883427e-14
2.56487500000000e+02 4.79761095921890e-13 2.18633118720101e-14
2.58262500000000e+02 4.03572783400164e-13 1.84548445730941e-14
2.60037500000000e+02 3.39483532295150e-13 1.55773857969371e-14
2.61812500000000e+02 2.85571954898942e-13 1.31482708445093e-14
2.63587500000000e+02 2.40221788884599e-13 1.10976934872229e-14
2.65362500000000e+02 2.02073441964348e-13 9.36670757600249e-15
2.67137500000000e+02 1.69983231483364e-13 7.90553893564968e-15
2.68912500000000e+02 1.42989096957258e-13 6.67215941681426e-15
2.70687500000000e+02 1.20281757619446e-13 5.63108243447340e-15
2.72462500000000e+02 1.01180450285296e-13 4.75234562456336e-15
2.74237500000000e+02 8.51125201572550e-14 4.01065157760360e-15
2.76012500000000e+02 7.15962527058640e-14 3.38464211060015e-15
2.77787500000000e+02 6.02264319285932e-14 2.85628534373180e-15
2.79562500000000e+02 5.06621920249241e-14 2.41035806414140e-15
2.81337500000000e+02 4.26167982824121e-14 2.03400857675271e-15
2.83112500000000e+02 3.58490508059797e-14 1.71638753850491e-15
2.84887500000000e+02 3.01560533753212e-14 1.44833621292084e-15
2.86662500000000e+02 2.53671306416718e-14 1.22212322160722e-15
2.88437500000000e+02 2.13387113022642e-14 1.03122225471065e-15
2.90212500000000e+02 1.79500238506820e-14 8.70124372903003e-16
2.91987500000000e+02 1.50994758622497e-14 7.34179522433176e-16
2.93762500000000e+02 1.27016082658854e-14 6.19462720296639e-16
2.95537500000000e+02 1.06845332918708e-14 5.22661072423949e-16
2.97312500000000e+02 8.98777928553436e-15 4.40978384075087e-16
2.99087500000000e+02 7.56047777462969e-15 3.72054625337433e-16
3.00862500000000e+02 6.35983843891990e-15 3.13897940118825e-16
3.02637500000000e+02 5.34986626174485e-15 2.64827246436940e-16
3.04412500000000e+02 4.50028240393738e-15 2.23423779385418e-16
3.06187500000000e+02 3.78561644802371e-15 1.88490184569927e-16
3.07962500000000e+02 3.18444279830290e-15 1.59015986374783e-16
3.09737500000000e+02 2.67873834417566e-15 1.34148438328670e-16
3.11512500000000e+02 2.25334212954967e-15 1.13167917313014e-16
3.13287500000000e+02 1.89550082927789e-15 9.54671538144525e-17
3.15062500000000e+02 1.59448640607062e-15 8.05337005943161e-17
3.16837500000000e+02 1.34127448528342e-15 6.79351351847893e-17
3.18612500000000e+02 1.12827380529742e-15 5.73065701861602e-17
3.20387500000000e+02 9.49098632448322e-16 4.83401116813365e-17
3.22162500000000e+02 7.98377317532263e-16 4.07759621027435e-17
3.23937500000000e+02 6.71591254436582e-16 3.43949111876395e-17
3.25712500000000e+02 5.64939412895425e-16 2.90119985964579e-17
3.27487500000000e+02 4.75224384079238e-16 2.44711654900022e-17
3.29262500000000e+02 3.99756522679178e-16 2.06407408322954e-17
3.31037500000000e+02 3.36273311678179e-16 1.74096322233912e-17
3.32812500000000e+02 2.82871532374622e-16 1.46841113603576e-17
3.34587500000000e+02 2.37950206124429e-16 1.23851013574955e-17
3.36362500000000e+02 2.00162597202156e-16 1.04458876206820e-17
3.38137500000000e+02 1.68375837832903e-16 8.81018618100573e-18
3.39912500000000e+02 1.41636964958539e-16 7.43051370044132e-18
3.41687500000000e+02 1.19144350524778e-16 6.26681206348317e-18
3.43462500000000e+02 1.00223668772671e-16 5.28528781358839e-18
3.45237500000000e+02 8.43076800369577e-17 4.45743289322054e-18
3.47012500000000e+02 7.09192249720576e-17 3.75919837960239e-18
3.48787500000000e+02 5.96569193747536e-17 3.17029732557988e-18
3.50562500000000e+02 5.01831207361346e-17 2.67361654342754e-18
3.52337500000000e+02 4.22138057615359e-17 2.25472031634141e-18
3.54112500000000e+02 3.55100553877978e-17 2.06543180830680e-18
