Energy (eV)          EEDF (eV^-(3/2))     First Anisotropy
9.22727272727273e-02 7.79236247551536e-02 8.70023248905026e-05
2.76818181818182e-01 7.55149946510781e-02 1.41922320405855e-04
4.61363636363636e-01 7.31808156490306e-02 1.82791439594288e-04
6.45909090909091e-01 7.09187864426624e-02 2.11194481195865e-04
8.30454545454545e-01 6.87266768765300e-02 2.32785334659203e-04
1.01500000000000e+00 6.66023257212318e-02 2.49785327778981e-04
1.19954545454545e+00 6.45436385510589e-02 2.63385310009882e-04
1.38409090909091e+00 6.25485856962332e-02 2.74328388725660e-04
1.56863636363636e+00 6.06152001953775e-02 2.83122650913451e-04
1.75318181818182e+00 5.87415759157222e-02 2.90137443482524e-04
1.93772727272727e+00 5.69258656178401e-02 2.95653305849867e-04
2.12227272727273e+00 5.51662791829019e-02 2.99890446806234e-04
2.30681818181818e+00 5.34610818129747e-02 3.03026175717843e-04
2.49136363636364e+00 5.18085923273717e-02 3.05206168293999e-04
2.67590909090909e+00 5.02071815246782e-02 3.06552079198719e-04
2.86045454545455e+00 4.86552705497924e-02 3.07166871354075e-04
3.04500000000000e+00 4.71513293616450e-02 3.07138661609409e-04
3.22954545454545e+00 4.56938752024932e-02 3.06543568111363e-04
3.41409090909091e+00 4.42814711564235e-02 3.05447864901846e-04
3.59863636363636e+00 4.29127247139625e-02 3.03909644397586e-04
3.78318181818182e+00 4.15862864164358e-02 3.01980121399261e-04
3.96772727272727e+00 4.03008485095917e-02 2.99704671768281e-04
4.15227272727273e+00 3.90551436690181e-02 2.97123670162469e-04
4.33681818181818e+00 3.78479437397969e-02 2.94273175167407e-04
4.52136363636364e+00 3.66780585270576e-02 2.91185493012195e-04
4.70590909090909e+00 3.55443346302804e-02 2.87889648973413e-04
4.89045454545455e+00 3.44456542957880e-02 2.84411783005776e-04
5.07500000000000e+00 3.33809343244361e-02 2.80775485008995e-04
5.25954545454545e+00 3.23491249945896e-02 2.77002081195379e-04
5.44409090909091e+00 3.13492090357132e-02 2.73110880014801e-04
5.62863636363636e+00 3.03802006174304e-02 2.69119384940464e-04
5.81318181818182e+00 2.94411443851040e-02 2.65043479332816e-04
5.99772727272727e+00 2.85311145108655e-02 2.60897588150911e-04
6.18227272727273e+00 2.76492137874927e-02 2.56694819729181e-04
6.36681818181818e+00 2.67945727389051e-02 2.52447091432903e-04
6.55136363636364e+00 2.59663487634540e-02 2.48165239902433e-04
6.73590909090909e+00 2.51637253069787e-02 2.43859120024807e-04
6.92045454545454e+00 2.43859110527040e-02 2.39537692808589e-04
7.10500000000000e+00 2.36321391458528e-02 2.35209104031238e-04
7.28954545454545e+00 2.29016664330700e-02 2.30880754937774e-04
7.47409090909091e+00 2.21937727340247e-02 2.26559365788717e-04
7.65863636363636e+00 2.15077601273161e-02 2.22251033304753e-04
7.84318181818182e+00 2.08429522662336e-02 2.17961282550907e-04
8.02772727272727e+00 2.01986937082891e-02 2.13695114065949e-04
8.21227272727273e+00 1.95743492724717e-02 2.09457046547468e-04
8.39681818181818e+00 1.89693034104441e-02 2.05251156082198e-04
8.58136363636364e+00 1.83829595999013e-02 2.01081111283658e-04
8.76590909090909e+00 1.78147397585013e-02 1.96950205995944e-04
8.95045454545454e+00 1.72640836711988e-02 1.92861388957943e-04
9.13500000000000e+00 1.67304484405187e-02 1.88817290989775e-04
9.31954545454545e+00 1.62133079488366e-02 1.84820250000281e-04
9.50409090909091e+00 1.57121523420259e-02 1.80872333906531e-04
9.68863636363636e+00 1.52264875245466e-02 1.76975361772755e-04
9.87318181818182e+00 1.47558346744448e-02 1.73130923223905e-04
1.00577272727273e+01 1.42997297692436e-02 1.69340396393024e-04
1.02422727272727e+01 1.38577231303957e-02 1.65604964583832e-04
1.04268181818182e+01 1.34293789764459e-02 1.61925630918768e-04
1.06113636363636e+01 1.30142750021737e-02 1.58303233441224e-04
1.07959090909091e+01 1.26120019478582e-02 1.54738457555653e-04
1.09804545454545e+01 1.22221632116678e-02 1.51231848110111e-04
1.11650000000000e+01 1.18443744435564e-02 1.47783820803100e-04
1.13495454545455e+01 1.14782631806687e-02 1.44394672346357e-04
1.15340909090909e+01 1.11234684664909e-02 1.41064590276597e-04
1.17186363636364e+01 1.07796405079456e-02 1.37793661683952e-04
1.19031818181818e+01 1.04464403181915e-02 1.34581881667736e-04
1.20877272727273e+01 1.01235393941513e-02 1.31429160844750e-04
1.22722727272727e+01 9.81061938146146e-03 1.28335332889524e-04
1.24568181818182e+01 9.50737176884252e-03 1.25300160025546e-04
1.26413636363636e+01 9.21349758347778e-03 1.22323340770494e-04
1.28259090909091e+01 8.92870708910140e-03 1.19404514660040e-04
1.30104545454545e+01 8.65271950975478e-03 1.16543267707669e-04
1.31950000000000e+01 8.38526274399735e-03 1.13739137481057e-04
1.33795454545455e+01 8.12607310518875e-03 1.10991617561744e-04
1.35640909090909e+01 7.87489505336406e-03 1.08300161937934e-04
1.37486363636364e+01 7.63148095107031e-03 1.05664188849777e-04
1.39331818181818e+01 7.39559081179905e-03 1.03083084590556e-04
1.41177272727273e+01 7.16699207046020e-03 1.00556206820590e-04
1.43022727272727e+01 6.94545934733649e-03 9.80828880140940e-05
1.44868181818182e+01 6.73077423086885e-03 9.56624376727262e-05
1.46713636363636e+01 6.52272506204972e-03 9.32941461123476e-05
1.48559090909091e+01 6.32110672139873e-03 9.09772863576143e-05
1.50404545454545e+01 6.12572043246107e-03 8.87111166025940e-05
1.52250000000000e+01 5.93637356035966e-03 8.64948824919478e-05
1.54095454545455e+01 5.75287942710230e-03 8.43278190690358e-05
1.55940909090909e+01 5.57505712253751e-03 8.22091527410702e-05
1.57786363636364e+01 5.40273133076852e-03 8.01381029452703e-05
1.59631818181818e+01 5.23573215274206e-03 7.81138838381393e-05
1.61477272727273e+01 5.07389494310809e-03 7.61357057159519e-05
1.63322727272727e+01 4.91706014371947e-03 7.42027765682780e-05
1.65168181818182e+01 4.76507312940826e-03 7.23143028601691e-05
1.67013636363636e+01 4.61778405537249e-03 7.04694913960626e-05
1.68859090909091e+01 4.47504770674588e-03 6.86675499679011e-05
1.70704545454545e+01 4.33672335898529e-03 6.69076884141124e-05
1.72550000000000e+01 4.20267463572541e-03 6.51891195908331e-05
1.74395454545455e+01 4.07276937758103e-03 6.35110601540564e-05
1.76240909090909e+01 3.94687950873163e-03 6.18727313800888e-05
1.78086363636364e+01 3.82488091363498e-03 6.02733598151463e-05
1.79931818181818e+01 3.70665331180199e-03 5.87121779639663e-05
1.81777272727273e+01 3.59208014194794e-03 5.71884248238900e-05
1.83622727272727e+01 3.48104844445183e-03 5.57013465285169e-05
1.85468181818182e+01 3.37344875192818e-03 5.42501964979010e-05
1.87313636363636e+01 3.26917498119826e-03 5.28342363296578e-05
1.89159090909091e+01 3.16812432700270e-03 5.14527358964325e-05
1.91004545454545e+01 3.07019716288669e-03 5.01049737350853e-05
1.92850000000000e+01 2.97529694082860e-03 4.87902373924651e-05
1.94695454545455e+01 2.88333009811124e-03 4.75078236605827e-05
1.96540909090909e+01 2.79420596310375e-03 4.62570388507976e-05
1.98386363636364e+01 2.70783666775924e-03 4.50371989676597e-05
2.00231818181818e+01 2.62413705917093e-03 4.38476299208069e-05
2.02077272727273e+01 2.54302461735797e-03 4.26876676457756e-05
2.03922727272727e+01 2.46441937224043e-03 4.15566583090381e-05
2.05768181818182e+01 2.38824382603088e-03 4.04539581927036e-05
2.07613636363636e+01 2.31442287676290e-03 3.93789340866878e-05
2.09459090909091e+01 2.24288374316393e-03 3.83309631572389e-05
2.11304545454545e+01 2.17355589433000e-03 3.73094330206657e-05
2.13150000000000e+01 2.10637097881604e-03 3.63137417959903e-05
2.14995454545455e+01 2.04126275856417e-03 3.53432980917147e-05
2.16840909090909e+01 1.97816704233543e-03 3.43975210260702e-05
2.18686363636364e+01 1.91702162363522e-03 3.34758401873424e-05
2.20531818181818e+01 1.85776621821977e-03 3.25776956263551e-05
2.22377272727273e+01 1.80034240577788e-03 3.17025377944383e-05
2.24222727272727e+01 1.74469357126181e-03 3.08498275441322e-05
2.26068181818182e+01 1.69076484986406e-03 3.00190359198223e-05
2.27913636363636e+01 1.63850307288374e-03 2.92096442964354e-05
2.29759090909091e+01 1.58785671460920e-03 2.84211441699531e-05
2.31604545454545e+01 1.53877584244006e-03 2.76530370916841e-05
2.33450000000000e+01 1.49121206677299e-03 2.69048345929178e-05
2.35295454545455e+01 1.44511849414380e-03 2.61760580699021e-05
2.37140909090909e+01 1.40044968017837e-03 2.54662386956161e-05
2.38986363636364e+01 1.35716158557247e-03 2.47749172954079e-05
2.40831818181818e+01 1.31521153191994e-03 2.41016442481804e-05
2.42677272727273e+01 1.27455816035882e-03 2.34459793546618e-05
2.44522727272727e+01 1.23516139010039e-03 2.28074917516445e-05
2.46368181818182e+01 1.19698237942818e-03 2.21857596874401e-05
2.48213636363636e+01 1.15998348737642e-03 2.15803705365045e-05
2.50059090909091e+01 1.12412823616637e-03 2.09909205811890e-05
2.51904545454545e+01 1.08938127584130e-03 2.04170148940420e-05
2.53750000000000e+01 1.05570834883914e-03 1.98582672163461e-05
2.55595454545455e+01 1.02307625677048e-03 1.93142998126301e-05
2.57440909090909e+01 9.91452827156532e-04 1.87847433458700e-05
2.59286363636364e+01 9.60806882220640e-04 1.82692367307964e-05
2.61131818181818e+01 9.31108207658834e-04 1.77674270068477e-05
2.62977272727273e+01 9.02327523323097e-04 1.72789691911751e-05
2.64822727272727e+01 8.74436453900102e-04 1.68035261650096e-05
2.66668181818182e+01 8.47407501272114e-04 1.63407684678245e-05
2.68513636363636e+01 8.21214017388708e-04 1.58903742561671e-05
2.70359090909091e+01 7.95830177697962e-04 1.54520291060128e-05
2.72204545454545e+01 7.71230956077376e-04 1.50254258854233e-05
2.74050000000000e+01 7.47392099783755e-04 1.46102646263503e-05
2.75895454545455e+01 7.24290105904269e-04 1.42062523818683e-05
2.77740909090909e+01 7.01902197836434e-04 1.38131030990538e-05
2.79586363636364e+01 6.80206303167285e-04 1.34305374785882e-05
2.81431818181818e+01 6.59181031589860e-04 1.30582828491813e-05
2.83277272727273e+01 6.38805654124021e-04 1.26960730299032e-05
2.85122727272727e+01 6.19060082381559e-04 1.23436482165917e-05
2.86968181818182e+01 5.99924848981888e-04 1.20007548067303e-05
2.88813636363636e+01 5.81381088347438e-04 1.16671453379168e-05
2.90659090909091e+01 5.63410517909067e-04 1.13425783207942e-05
2.92504545454545e+01 5.45995420338713e-04 1.10268181211474e-05
2.94350000000000e+01 5.29118625833807e-04 1.07196348425012e-05
2.96195454545455e+01 5.12763495427853e-04 1.04208041998997e-05
2.98040909090909e+01 4.96913904356415e-04 1.01301074053622e-05
2.99886363636364e+01 4.81554226380322e-04 9.84733104531200e-06
3.01731818181818e+01 4.66669318167124e-04 9.57226696904739e-06
3.03577272727273e+01 4.52244504565549e-04 9.30471216990794e-06
3.05422727272727e+01 4.38265563940362e-04 9.04446868375303e-06
3.07268181818182e+01 4.24718714297108e-04 8.79134344623392e-06
3.09113636363636e+01 4.11590599686717e-04 8.54514822856223e-06
3.10959090909091e+01 3.98868276908959e-04 8.30569950187542e-06
3.12804545454545e+01 3.86539202921946e-04 8.07281833600457e-06
3.14650000000000e+01 3.74591222311836e-04 7.84633029928663e-06
3.16495454545455e+01 3.63012555466504e-04 7.62606535306829e-06
3.18340909090909e+01 3.51791786809956e-04 7.41185775484839e-06
3.20186363636364e+01 3.40917853693838e-04 7.20354595659501e-06
3.22031818181818e+01 3.30380035349846e-04 7.00097251122390e-06
3.23877272727273e+01 3.20167942455550e-04 6.80398397469286e-06
3.25722727272727e+01 3.10271506760939e-04 6.61243082051582e-06
3.27568181818182e+01 3.00680971258896e-04 6.42616732660066e-06
3.29413636363636e+01 2.91386880560649e-04 6.24505151642090e-06
3.31259090909091e+01 2.82380071488104e-04 6.06894505175151e-06
3.33104545454545e+01 2.73651664152893e-04 5.89771314949323e-06
3.34950000000000e+01 2.65193053092653e-04 5.73122449967408e-06
3.36795454545455e+01 2.56995898891704e-04 5.56935118028455e-06
3.38640909090909e+01 2.49052119858107e-04 5.41196857846397e-06
3.40486363636364e+01 2.41353884153113e-04 5.25895530881637e-06
3.42331818181818e+01 2.33893601975976e-04 5.11019313772125e-06
3.44177272727273e+01 2.26663918171311e-04 4.96556690504273e-06
3.46022727272727e+01 2.19657704890660e-04 4.82496445473358e-06
3.47868181818182e+01 2.12868054629591e-04 4.68827654680611e-06
3.49713636363636e+01 2.06288273414190e-04 4.55539680696835e-06
3.51559090909091e+01 1.99911874144414e-04 4.42622164333055e-06
3.53404545454545e+01 1.93732570273797e-04 4.30065017999028e-06
3.55250000000000e+01 1.87744269538833e-04 4.17858419173253e-06
3.57095454545455e+01 1.81941068022517e-04 4.05992803686795e-06
3.58940909090909e+01 1.76317244266198e-04 3.94458859471912e-06
3.60786363636364e+01 1.70867253693665e-04 3.83247520142440e-06
3.62631818181818e+01 1.65585723082127e-04 3.72349959012677e-06
3.64477272727273e+01 1.60467445324962e-04 3.61757582964376e-06
3.66322727272727e+01 1.55507374239902e-04 3.51462026950082e-06
3.68168181818182e+01 1.50700619637071e-04 3.41455147239437e-06
3.70013636363636e+01 1.46042442495477e-04 3.31729017280053e-06
3.71859090909091e+01 1.41528250252650e-04 3.22275921315339e-06
3.73704545454545e+01 1.37153592327229e-04 3.13088349185854e-06
3.75550000000000e+01 1.32914155682468e-04 3.04158991227905e-06
3.77395454545455e+01 1.28805760620814e-04 2.95480733064902e-06
3.79240909090909e+01 1.24824356617947e-04 2.87046650737671e-06
3.81086363636364e+01 1.20966018372830e-04 2.78850005738392e-06
3.82931818181818e+01 1.17226941895782e-04 2.70884240364157e-06
3.84777272727273e+01 1.13603440798489e-04 2.63142972984000e-06
3.86622727272727e+01 1.10091942620607e-04 2.55619993760768e-06
3.88468181818182e+01 1.06688985336563e-04 2.48309259523508e-06
3.90313636363636e+01 1.03391213940813e-04 2.41204890457113e-06
3.92159090909091e+01 1.00195377114549e-04 2.34301165261445e-06
3.94004545454545e+01 9.70983240540258e-05 2.27592517140956e-06
3.95850000000000e+01 9.40970013315257e-05 2.21073529875154e-06
3.97695454545455e+01 9.11884499163969e-05 2.14738933829224e-06
3.99540909090909e+01 8.83698022273983e-05 2.08583602211129e-06
4.01386363636364e+01 8.56382793347382e-05 2.02602547275325e-06
4.03231818181818e+01 8.29911881921282e-05 1.96790916758855e-06
4.05077272727273e+01 8.04259190088324e-05 1.91143990269909e-06
4.06922727272727e+01 7.79399426504672e-05 1.85657176001342e-06
4.08768181818182e+01 7.55308081649476e-05 1.80326006869261e-06
4.10613636363636e+01 7.31961403650689e-05 1.75146137916118e-06
4.12459090909091e+01 7.09336374695871e-05 1.70113342667944e-06
4.14304545454545e+01 6.87410688566365e-05 1.65223510074733e-06
4.16150000000000e+01 6.66162728425808e-05 1.60472641516012e-06
4.17995454545455e+01 6.45571545719512e-05 1.55856847774579e-06
4.19840909090909e+01 6.25616839316956e-05 1.51372346189112e-06
4.21686363636364e+01 6.06278935693460e-05 1.47015457778745e-06
4.23531818181818e+01 5.87538769344076e-05 1.42782604536227e-06
4.25377272727273e+01 5.69377864169666e-05 1.38670306696480e-06
4.27222727272727e+01 5.51778315084665e-05 1.34675180237205e-06
4.29068181818182e+01 5.34722770495358e-05 1.30793933989895e-06
4.30913636363636e+01 5.18194415186040e-05 1.27023367631641e-06
4.32759090909091e+01 5.02176953624741e-05 1.23360368961332e-06
4.34604545454545e+01 4.86654594050852e-05 1.19801911585593e-06
4.36450000000000e+01 4.71612032757740e-05 1.16345052656147e-06
4.38295454545455e+01 4.57034439147486e-05 1.12986930591620e-06
4.40140909090909e+01 4.42907440971474e-05 1.09724762928909e-06
4.41986363636364e+01 4.29217110293485e-05 1.06555844161175e-06
4.43831818181818e+01 4.15949949629848e-05 1.03477543697918e-06
4.45677272727273e+01 4.03092878765706e-05 1.00487303813629e-06
4.47522727272727e+01 3.90633221739879e-05 9.75826377621000e-07
4.49368181818182e+01 3.78558694436081e-05 9.47611276264258e-07
4.51213636363636e+01 3.66857392467338e-05 9.20204227831403e-07
4.53059090909091e+01 3.55517779360942e-05 8.93582378761084e-07
4.54904545454545e+01 3.44528675288325e-05 8.67723510785055e-07
4.56750000000000e+01 3.33879245942601e-05 8.42606023947244e-07
4.58595454545455e+01 3.23558991953491e-05 8.18208919559089e-07
4.60440909090909e+01 3.13557738442699e-05 7.94511784091921e-07
4.62286363636364e+01 3.03865625082266e-05 7.71494773017711e-07
4.64131818181818e+01 2.94473096286454e-05 7.49138595532612e-07
4.65977272727273e+01 2.85370891874428e-05 7.27424499239567e-07
4.67822727272727e+01 2.76550037859847e-05 7.06334256013029e-07
4.69668181818182e+01 2.68001837663284e-05 6.85850146069235e-07
4.71513636363636e+01 2.59717863535113e-05 6.65954946322038e-07
4.73359090909091e+01 2.51689948193405e-05 6.46631915376716e-07
4.75204545454545e+01 2.43910176842034e-05 6.27864780550436e-07
4.77050000000000e+01 2.36370879299549e-05 6.09637725199104e-07
4.78895454545455e+01 2.29064622502503e-05 5.91935376030079e-07
4.80740909090909e+01 2.21984203113964e-05 5.74742791091713e-07
4.82586363636364e+01 2.15122640482593e-05 5.58045447755075e-07
4.84431818181818e+01 2.08473169701552e-05 5.41829231333260e-07
4.86277272727273e+01 2.02029234995625e-05 5.26080423698436e-07
4.88122727272727e+01 1.95784483203077e-05 5.10785692742325e-07
4.89968181818182e+01 1.89732757552683e-05 4.95932080617281e-07
4.91813636363636e+01 1.83868091591623e-05 4.81506994970381e-07
4.93659090909091e+01 1.78184703267072e-05 4.67498197869782e-07
4.95504545454545e+01 1.72676989273323e-05 4.53893796157500e-07
4.97350000000000e+01 1.67339519481379e-05 4.40682232035089e-07
4.99195454545455e+01 1.62167031629762e-05 4.27852273660048e-07
5.01040909090909e+01 1.57154426093509e-05 4.15393006230608e-07
5.02886363636364e+01 1.52296760897774e-05 4.03293823084296e-07
5.04731818181818e+01 1.47589246805544e-05 3.91544417256423e-07
5.06577272727273e+01 1.43027242634416e-05 3.80134773054934e-07
5.08422727272727e+01 1.38606250643609e-05 3.69055158236940e-07
5.10268181818182e+01 1.34321912127240e-05 3.58296115356038e-07
5.12113636363636e+01 1.30170003115619e-05 3.47848455201531e-07
5.13959090909091e+01 1.26146430186305e-05 3.37703248652174e-07
5.15804545454545e+01 1.22247226460792e-05 3.27851819534401e-07
5.17650000000000e+01 1.18468547662213e-05 3.18285737656244e-07
5.19495454545455e+01 1.14806668355439e-05 3.08996811862856e-07
5.21340909090909e+01 1.11257978244967e-05 2.99977083444027e-07
5.23186363636364e+01 1.07818978643634e-05 2.91218819564452e-07
5.25031818181818e+01 1.04486278996056e-05 2.82714507025522e-07
5.26877272727273e+01 1.01256593562063e-05 2.74456846050740e-07
5.28722727272727e+01 9.81267381519407e-06 2.66438744500319e-07
5.30568181818182e+01 9.50936270059160e-06 2.58653311521583e-07
5.32413636363636e+01 9.21542697509194e-06 2.51093852662434e-07
5.34259090909091e+01 8.93057684356712e-06 2.43753863894739e-07
5.36104545454545e+01 8.65453146956450e-06 2.36627026345368e-07
5.37950000000000e+01 8.38701869629497e-06 2.29707201158969e-07
5.39795454545455e+01 8.12777478036845e-06 2.22988424385462e-07
5.41640909090909e+01 7.87654412977967e-06 2.16464902121056e-07
5.43486363636364e+01 7.63307905383480e-06 2.10131005674140e-07
5.45331818181818e+01 7.39713951709919e-06 2.03981266969906e-07
5.47177272727273e+01 7.16849290453071e-06 1.98010373979885e-07
5.49022727272727e+01 6.94691379041683e-06 1.92213166457553e-07
5.50868181818182e+01 6.73218371740755e-06 1.86584631289860e-07
5.52713636363636e+01 6.52409098107074e-06 1.81119898872706e-07
5.54559090909091e+01 6.32243042003379e-06 1.75814238736378e-07
5.56404545454545e+01 6.12700321521867e-06 1.70663055669737e-07
5.58250000000000e+01 5.93761669237006e-06 1.65661885942703e-07
5.60095454545455e+01 5.75408413349925e-06 1.60806393552591e-07
5.61940909090909e+01 5.57622459144157e-06 1.56092366652910e-07
5.63786363636364e+01 5.40386271276687e-06 1.51515714005727e-07
5.65631818181818e+01 5.23682856363343e-06 1.47072461605806e-07
5.67477272727273e+01 5.07495746346781e-06 1.42758749327929e-07
5.69322727272727e+01 4.91808982142688e-06 1.38570827792463e-07
5.71168181818182e+01 4.76607097993105e-06 1.34505054969378e-07
5.73013636363636e+01 4.61875106214115e-06 1.30557893499285e-07
5.74859090909091e+01 4.47598482341723e-06 1.26725907498091e-07
5.76704545454545e+01 4.33763150914849e-06 1.23005759713311e-07
5.78550000000000e+01 4.20355471498886e-06 1.19394208753376e-07
5.80395454545455e+01 4.07362225333306e-06 1.15888106338165e-07
5.82240909090909e+01 3.94770602206566e-06 1.12484394680770e-07
