Energy (eV)          EEDF (eV^-(3/2))     First Anisotropy
8.32142857142857e-03 2.53880652275229e-01 1.26903725847459e-04
2.49642857142857e-02 2.52319168031683e-01 2.09614376168525e-04
4.16071428571429e-02 2.50767287640733e-01 2.76874401001942e-04
5.82500000000000e-02 2.49224952038874e-01 3.28069687495363e-04
7.48928571428571e-02 2.47692102517810e-01 3.70847832544325e-04
9.15357142857143e-02 2.46168680736224e-01 4.08097225033139e-04
1.08178571428571e-01 2.44654628707122e-01 4.41311104131914e-04
1.24821428571429e-01 2.43149888803850e-01 4.71390306344468e-04
1.41464285714286e-01 2.41654403753207e-01 4.98931701549011e-04
1.58107142857143e-01 2.40168116633223e-01 5.24356736814977e-04
1.74750000000000e-01 2.38690970872113e-01 5.47977088814588e-04
1.91392857142857e-01 2.37222910238212e-01 5.70031535289287e-04
2.08035714285714e-01 2.35763878862340e-01 5.90708179631846e-04
2.24678571428571e-01 2.34313821210104e-01 6.10158597168838e-04
2.41321428571429e-01 2.32872682088734e-01 6.28507237444152e-04
2.57964285714286e-01 2.31440406644878e-01 6.45857905588507e-04
2.74607142857143e-01 2.30016940362689e-01 6.62298363373001e-04
2.91250000000000e-01 2.28602229061638e-01 6.77903680296813e-04
3.07892857142857e-01 2.27196218889826e-01 6.92738725547276e-04
3.24535714285714e-01 2.25798856336132e-01 7.06860060643028e-04
3.41178571428571e-01 2.24410088213588e-01 7.20317399386675e-04
3.57821428571429e-01 2.23029861662365e-01 7.33154747994244e-04
3.74464285714286e-01 2.21658124147721e-01 7.45411311288571e-04
3.91107142857143e-01 2.20294823458079e-01 7.57122219481529e-04
4.07750000000000e-01 2.18939907702993e-01 7.68319118158767e-04
4.24392857142857e-01 2.17593325307986e-01 7.79030649749434e-04
4.41035714285714e-01 2.16255025022332e-01 7.89282853439057e-04
4.57678571428571e-01 2.14924955907156e-01 7.99099498446125e-04
4.74321428571429e-01 2.13603067336887e-01 8.08502361552741e-04
4.90964285714286e-01 2.12289308997309e-01 8.17511463279102e-04
5.07607142857143e-01 2.10983630883687e-01 8.26145268330691e-04
5.24250000000000e-01 2.09685983298844e-01 8.34420857456910e-04
5.40892857142857e-01 2.08396316848879e-01 8.42354073780760e-04
5.57535714285714e-01 2.07114582448560e-01 8.49959651099662e-04
5.74178571428571e-01 2.05840731312062e-01 8.57251325437546e-04
5.90821428571429e-01 2.04574714953616e-01 8.64241930528300e-04
6.07464285714286e-01 2.03316485185653e-01 8.70943482922578e-04
6.24107142857143e-01 2.02065994116998e-01 8.77367256518334e-04
6.40750000000000e-01 2.00823194151027e-01 8.83523848715127e-04
6.57392857142857e-01 1.99588037981989e-01 8.89423237740228e-04
6.74035714285714e-01 1.98360478598898e-01 8.95074835197302e-04
6.90678571428571e-01 1.97140469277966e-01 9.00487533010408e-04
7.07321428571429e-01 1.95927963582778e-01 9.05669743799371e-04
7.23964285714286e-01 1.94722915362518e-01 9.10629438370484e-04
7.40607142857143e-01 1.93525278750229e-01 9.15374179140487e-04
7.57250000000000e-01 1.92335008161058e-01 9.19911150583271e-04
7.73892857142857e-01 1.91152058288998e-01 9.24247185610475e-04
7.90535714285714e-01 1.89976384109790e-01 9.28388790884481e-04
8.07178571428571e-01 1.88807940874521e-01 9.32342169867825e-04
8.23821428571429e-01 1.87646684109508e-01 9.36113242365589e-04
8.40464285714286e-01 1.86492569614595e-01 9.39707663479975e-04
8.57107142857143e-01 1.85345553461484e-01 9.43130840662490e-04
8.73750000000000e-01 1.84205591992059e-01 9.46387949595453e-04
8.90392857142857e-01 1.83072641815455e-01 9.49483947733534e-04
9.07035714285714e-01 1.81946659810249e-01 9.52423588009026e-04
9.23678571428571e-01 1.80827603118934e-01 9.55211431492453e-04
9.40321428571429e-01 1.79715429147594e-01 9.57851857775316e-04
9.56964285714286e-01 1.78610095564285e-01 9.60349075572655e-04
9.73607142857143e-01 1.77511560297426e-01 9.62707132282947e-04
9.90250000000000e-01 1.76419781534198e-01 9.64929923081535e-04
1.00689285714286e+00 1.75334717717880e-01 9.67021199365365e-04
1.02353571428571e+00 1.74256327545265e-01 9.68984572428506e-04
1.04017857142857e+00 1.73184569981869e-01 9.70823528454035e-04
1.05682142857143e+00 1.72119404223715e-01 9.72541431719936e-04
1.07346428571429e+00 1.71060789728188e-01 9.74141522649424e-04
1.09010714285714e+00 1.70008686211716e-01 9.75626937461185e-04
1.10675000000000e+00 1.68963053619098e-01 9.77000706815613e-04
1.12339285714286e+00 1.67923852151223e-01 9.78265756361250e-04
1.14003571428571e+00 1.66891042253760e-01 9.79424916080973e-04
1.15667857142857e+00 1.65864584624550e-01 9.80480928760652e-04
1.17332142857143e+00 1.64844440185290e-01 9.81436449966194e-04
1.18996428571429e+00 1.63830570106972e-01 9.82294045677107e-04
1.20660714285714e+00 1.62822935807766e-01 9.83056208358450e-04
1.22325000000000e+00 1.61821498926389e-01 9.83725354292436e-04
1.23989285714286e+00 1.60826221345903e-01 9.84303822752608e-04
1.25653571428571e+00 1.59837065183807e-01 9.84793883282163e-04
1.27317857142857e+00 1.58853992798320e-01 9.85197742286451e-04
1.28982142857143e+00 1.57876966763653e-01 9.85517541961709e-04
1.30646428571429e+00 1.56905949891974e-01 9.85755357165282e-04
1.32310714285714e+00 1.55940905231470e-01 9.85913209189643e-04
1.33975000000000e+00 1.54981796042983e-01 9.85993062486742e-04
1.35639285714286e+00 1.54028585820654e-01 9.85996823137282e-04
1.37303571428571e+00 1.53081238283147e-01 9.85926344779345e-04
1.38967857142857e+00 1.52139717379050e-01 9.85783433974348e-04
1.40632142857143e+00 1.51203987265077e-01 9.85569848596107e-04
1.42296428571429e+00 1.50274012325208e-01 9.85287294376820e-04
1.43960714285714e+00 1.49349757168893e-01 9.84937436988675e-04
1.45625000000000e+00 1.48431186610396e-01 9.84521898526651e-04
1.47289285714286e+00 1.47518265686842e-01 9.84042255626122e-04
1.48953571428571e+00 1.46610959650392e-01 9.83500044454684e-04
1.50617857142857e+00 1.45709233972900e-01 9.82896765226728e-04
1.52282142857143e+00 1.44813054326578e-01 9.82233880327617e-04
1.53946428571429e+00 1.43922386600781e-01 9.81512810767999e-04
1.55610714285714e+00 1.43037196900341e-01 9.80734946953178e-04
1.57275000000000e+00 1.42157451527181e-01 9.79901645118721e-04
1.58939285714286e+00 1.41283116996193e-01 9.79014225291251e-04
1.60603571428571e+00 1.40414160028219e-01 9.78073975595677e-04
1.62267857142857e+00 1.39550547554093e-01 9.77082156148106e-04
1.63932142857143e+00 1.38692246697372e-01 9.76039997068921e-04
1.65596428571429e+00 1.37839224789163e-01 9.74948694970571e-04
1.67260714285714e+00 1.36991449366556e-01 9.73809422668348e-04
1.68925000000000e+00 1.36148888156173e-01 9.72623325674307e-04
1.70589285714286e+00 1.35311509088216e-01 9.71391520111458e-04
1.72253571428571e+00 1.34479280290129e-01 9.70115096498438e-04
1.73917857142857e+00 1.33652170090130e-01 9.68795123168547e-04
1.75582142857143e+00 1.32830147001711e-01 9.67432644259758e-04
1.77246428571429e+00 1.32013179736790e-01 9.66028676304010e-04
1.78910714285714e+00 1.31201237204245e-01 9.64584217057343e-04
1.80575000000000e+00 1.30394288495113e-01 9.63100242108457e-04
1.82239285714286e+00 1.29592302895085e-01 9.61577702809838e-04
1.83903571428571e+00 1.28795249878758e-01 9.60017529648769e-04
1.85567857142857e+00 1.28003099112728e-01 9.58420635292244e-04
1.87232142857143e+00 1.27215820441616e-01 9.56787912605212e-04
1.88896428571429e+00 1.26433383899789e-01 9.55120231375987e-04
1.90560714285714e+00 1.25655759709982e-01 9.53418446397279e-04
1.92225000000000e+00 1.24882918269928e-01 9.51683394218253e-04
1.93889285714286e+00 1.24114830163516e-01 9.49915891128295e-04
1.95553571428571e+00 1.23351466155554e-01 9.48116736191658e-04
1.97217857142857e+00 1.22592797194496e-01 9.46286713988035e-04
1.98882142857143e+00 1.21838794399781e-01 9.44426592687840e-04
2.00546428571429e+00 1.21089429072331e-01 9.42537120930836e-04
2.02210714285714e+00 1.20344672693247e-01 9.40619035258000e-04
2.03875000000000e+00 1.19604496911686e-01 9.38673057020219e-04
2.05539285714286e+00 1.18868873554864e-01 9.36699890435031e-04
2.07203571428571e+00 1.18137774623271e-01 9.34700225340468e-04
2.08867857142857e+00 1.17411172293071e-01 9.32674739682234e-04
2.10532142857143e+00 1.16689038904604e-01 9.30624097662110e-04
2.12196428571429e+00 1.15971346971812e-01 9.28548946775846e-04
2.13860714285714e+00 1.15258069181012e-01 9.26449924674901e-04
2.15525000000000e+00 1.14549178379856e-01 9.24327656235470e-04
2.17189285714286e+00 1.13844647586335e-01 9.22182751698735e-04
2.18853571428571e+00 1.13144449984393e-01 9.20015809186040e-04
2.20517857142857e+00 1.12448558926043e-01 9.17827416970651e-04
2.22182142857143e+00 1.11756947920892e-01 9.15618151707557e-04
2.23846428571429e+00 1.11069590644635e-01 9.13388575630316e-04
2.25510714285714e+00 1.10386460937885e-01 9.11139242906616e-04
2.27175000000000e+00 1.09707532796110e-01 9.08870696866107e-04
2.28839285714286e+00 1.09032780377746e-01 9.06583468228756e-04
2.30503571428571e+00 1.08362178000167e-01 9.04278077413879e-04
2.32167857142857e+00 1.07695700141563e-01 9.01955036625811e-04
2.33832142857143e+00 1.07033321431363e-01 8.99614848168532e-04
2.35496428571429e+00 1.06375016657907e-01 8.97258001797659e-04
2.37160714285714e+00 1.05720760767344e-01 8.94884980622418e-04
2.38825000000000e+00 1.05070528854416e-01 8.92496258487842e-04
2.40489285714286e+00 1.04424296169803e-01 8.90092298292370e-04
2.42153571428571e+00 1.03782038116403e-01 8.87673554116170e-04
2.43817857142857e+00 1.03143730251003e-01 8.85240473144001e-04
2.45482142857143e+00 1.02509348275501e-01 8.82793494065203e-04
2.47146428571429e+00 1.01878868043857e-01 8.80333044575022e-04
2.48810714285714e+00 1.01252265561044e-01 8.77859546867257e-04
2.50475000000000e+00 1.00629516974598e-01 8.75373415164574e-04
2.52139285714286e+00 1.00010598581276e-01 8.72875054123968e-04
2.53803571428571e+00 9.93954868236210e-02 8.70364860805413e-04
2.55467857142857e+00 9.87841582914435e-02 8.67843226450857e-04
2.57132142857143e+00 9.81765897137633e-02 8.65310534967868e-04
2.58796428571429e+00 9.75727579651194e-02 8.62767160573321e-04
2.60460714285714e+00 9.69726400645736e-02 8.60213472914704e-04
2.62125000000000e+00 9.63762131679406e-02 8.57649834741404e-04
2.63789285714286e+00 9.57834545738404e-02 8.55076600395720e-04
2.65453571428571e+00 9.51943417205170e-02 8.52494117638741e-04
2.67117857142857e+00 9.46088521871577e-02 8.49902729301037e-04
2.68782142857143e+00 9.40269636864760e-02 8.47302771847314e-04
2.70446428571429e+00 9.34486540704535e-02 8.44694573155041e-04
2.72110714285714e+00 9.28739013293911e-02 8.42078457297478e-04
2.73775000000000e+00 9.23026835847523e-02 8.39454742348298e-04
2.75439285714286e+00 9.17349790946748e-02 8.36823738954809e-04
2.77103571428571e+00 9.11707662510183e-02 8.34185752035406e-04
2.78767857142857e+00 9.06100235805412e-02 8.31541082314883e-04
2.80432142857143e+00 9.00527297380612e-02 8.28890024967147e-04
2.82096428571429e+00 8.94988635116884e-02 8.26232867521195e-04
2.83760714285714e+00 8.89484038219233e-02 8.23569894334296e-04
2.85425000000000e+00 8.84013297150519e-02 8.20901384522547e-04
2.87089285714286e+00 8.78576203681734e-02 8.18227610612515e-04
2.88753571428571e+00 8.73172550864573e-02 8.15548840122842e-04
2.90417857142857e+00 8.67802133041926e-02 8.12865336995022e-04
2.92082142857143e+00 8.62464745784705e-02 8.10177360310324e-04
2.93746428571429e+00 8.57160185939628e-02 8.07485162315935e-04
2.95410714285714e+00 8.51888251620625e-02 8.04788992613573e-04
2.97075000000000e+00 8.46648742147789e-02 8.02089096208653e-04
2.98739285714286e+00 8.41441458093312e-02 7.99385712236585e-04
3.00403571428571e+00 8.36266201255958e-02 7.96679075438765e-04
3.02067857142857e+00 8.31122774670431e-02 7.93969417498254e-04
3.03732142857143e+00 8.26010982548922e-02 7.91256965827552e-04
3.05396428571429e+00 8.20930630324818e-02 7.88541941707576e-04
3.07060714285714e+00 8.15881524644507e-02 7.85824564214073e-04
3.08725000000000e+00 8.10863473310859e-02 7.83105048378456e-04
3.10389285714286e+00 8.05876285325269e-02 7.80383603984540e-04
3.12053571428571e+00 8.00919770863861e-02 7.77660436948355e-04
3.13717857142857e+00 7.95993741285849e-02 7.74935750567147e-04
3.15382142857143e+00 7.91098009079391e-02 7.72209744373651e-04
3.17046428571429e+00 7.86232387901607e-02 7.69482612381534e-04
3.18710714285714e+00 7.81396692570777e-02 7.66754546769738e-04
3.20375000000000e+00 7.76590739013935e-02 7.64025736147825e-04
3.22039285714286e+00 7.71814344305401e-02 7.61296364419653e-04
3.23703571428571e+00 7.67067326644572e-02 7.58566612074956e-04
3.25367857142857e+00 7.62349505363394e-02 7.55836657358489e-04
3.27032142857143e+00 7.57660700876118e-02 7.53106675187789e-04
3.28696428571429e+00 7.53000734716009e-02 7.50376835498215e-04
3.30360714285714e+00 7.48369429527901e-02 7.47647306703119e-04
3.32025000000000e+00 7.43766609019545e-02 7.44918254057875e-04
3.33689285714286e+00 7.39192097996969e-02 7.42189838586196e-04
3.35353571428571e+00 7.34645722343723e-02 7.39462218290589e-04
3.37017857142857e+00 7.30127309027561e-02 7.36735549248441e-04
3.38682142857143e+00 7.25636686053760e-02 7.34009984589339e-04
3.40346428571429e+00 7.21173682498826e-02 7.31285672933794e-04
3.42010714285714e+00 7.16738128503398e-02 7.28562761645504e-04
3.43675000000000e+00 7.12329855227024e-02 7.25841395287688e-04
3.45339285714286e+00 7.07948694880643e-02 7.23121714609062e-04
3.47003571428571e+00 7.03594480707175e-02 7.20403857679158e-04
3.48667857142857e+00 6.99267046987488e-02 7.17687960916912e-04
3.50332142857143e+00 6.94966228996984e-02 7.14974158124305e-04
3.51996428571429e+00 6.90691863036584e-02 7.12262579012913e-04
3.53660714285714e+00 6.86443786425953e-02 7.09553352263166e-04
3.55325000000000e+00 6.82221837461421e-02 7.06846604067321e-04
3.56989285714286e+00 6.78025855445858e-02 7.04142457171500e-04
3.58653571428571e+00 6.73855680670496e-02 7.01441031941643e-04
3.60317857142857e+00 6.69711154420260e-02 6.98742447329637e-04
3.61982142857143e+00 6.65592118933344e-02 6.96046819960143e-04
3.63646428571429e+00 6.61498417429731e-02 6.93354262739596e-04
3.65310714285714e+00 6.57429894104720e-02 6.90664887735620e-04
3.66975000000000e+00 6.53386394089730e-02 6.87978804801601e-04
3.68639285714286e+00 6.49367763479809e-02 6.85296120671486e-04
3.70303571428571e+00 6.45373849316588e-02 6.82616939961472e-04
3.71967857142857e+00 6.41404499593050e-02 6.79941366078178e-04
3.73632142857143e+00 6.37459563215847e-02 6.77269500355505e-04
3.75296428571429e+00 6.33538890031573e-02 6.74601440741148e-04
3.76960714285714e+00 6.29642330820589e-02 6.71937284508589e-04
3.78625000000000e+00 6.25769737260468e-02 6.69277126958233e-04
3.80289285714286e+00 6.21920961951348e-02 6.66621060561557e-04
3.81953571428571e+00 6.18095858399944e-02 6.63969175903463e-04
3.83617857142857e+00 6.14294281023801e-02 6.61321562536674e-04
3.85282142857143e+00 6.10516085116139e-02 6.58678308165559e-04
3.86946428571429e+00 6.06761126870077e-02 6.56039497405484e-04
3.88610714285714e+00 6.03029263372740e-02 6.53405214338592e-04
3.90275000000000e+00 5.99320352571136e-02 6.50775541286855e-04
3.91939285714286e+00 5.95634253295543e-02 6.48150558002833e-04
3.93603571428571e+00 5.91970825244501e-02 6.45530342556744e-04
3.95267857142857e+00 5.88329928988602e-02 6.42914972140697e-04
3.96932142857143e+00 5.84711425937661e-02 6.40304522296887e-04
3.98596428571429e+00 5.81115178363076e-02 6.37699065745552e-04
4.00260714285714e+00 5.77541049392195e-02 6.35098674794654e-04
4.01925000000000e+00 5.73988902976443e-02 6.32503420180327e-04
4.03589285714286e+00 5.70458603912911e-02 6.29913370301943e-04
4.05253571428571e+00 5.66950017830251e-02 6.27328592057311e-04
4.06917857142857e+00 5.63463011192061e-02 6.24749151600373e-04
4.08582142857143e+00 5.59997451266194e-02 6.22175113611371e-04
4.10246428571429e+00 5.56553206145416e-02 6.19606540188866e-04
4.11910714285714e+00 5.53130144742024e-02 6.17043493122968e-04
4.13575000000000e+00 5.49728136758042e-02 6.14486032799367e-04
4.15239285714286e+00 5.46347052705177e-02 6.11934217475757e-04
4.16903571428571e+00 5.42986763891548e-02 6.09388104068970e-04
4.18567857142857e+00 5.39647142424700e-02 6.06847748869180e-04
4.20232142857143e+00 5.36328061182900e-02 6.04313206849361e-04
4.21896428571429e+00 5.33029393834231e-02 6.01784530617887e-04
4.23560714285714e+00 5.29751014831447e-02 5.99261772563836e-04
4.25225000000000e+00 5.26492799384093e-02 5.96744983820891e-04
4.26889285714286e+00 5.23254623476949e-02 5.94234213582779e-04
4.28553571428571e+00 5.20036363857549e-02 5.91729509845424e-04
4.30217857142857e+00 5.16837898038853e-02 5.89230920080485e-04
4.31882142857143e+00 5.13659104272385e-02 5.86738490581873e-04
4.33546428571429e+00 5.10499861565893e-02 5.84252265475330e-04
4.35210714285714e+00 5.07360049678434e-02 5.81772288744125e-04
4.36875000000000e+00 5.04239549094263e-02 5.79298603248962e-04
4.38539285714286e+00 5.01138241039905e-02 5.76831250080135e-04
4.40203571428571e+00 4.98056007472399e-02 5.74370269257889e-04
4.41867857142857e+00 4.94992731081673e-02 5.71915700367834e-04
4.43532142857143e+00 4.91948295265376e-02 5.69467581942415e-04
4.45196428571429e+00 4.88922584145229e-02 5.67025950524072e-04
4.46860714285714e+00 4.85915482562329e-02 5.64590842578616e-04
4.48525000000000e+00 4.82926876052676e-02 5.62162293568061e-04
4.50189285714286e+00 4.79956650862991e-02 5.59740337337572e-04
4.51853571428571e+00 4.77004693939626e-02 5.57325006776288e-04
4.53517857142857e+00 4.74070892930678e-02 5.54916334417176e-04
4.55182142857143e+00 4.71155136162396e-02 5.52514351851604e-04
4.56846428571429e+00 4.68257312654320e-02 5.50119088842811e-04
4.58510714285714e+00 4.65377312114801e-02 5.47730575133964e-04
4.60175000000000e+00 4.62515024918048e-02 5.45348839570765e-04
4.61839285714286e+00 4.59670342118785e-02 5.42973909521079e-04
4.63503571428571e+00 4.56843155441799e-02 5.40605811498972e-04
4.65167857142857e+00 4.54033357283803e-02 5.38244571731193e-04
4.66832142857143e+00 4.51240840691311e-02 5.35890215602797e-04
4.68496428571429e+00 4.48465499374671e-02 5.33542766818055e-04
4.70160714285714e+00 4.45707227703775e-02 5.31202249109633e-04
4.71825000000000e+00 4.42965920686532e-02 5.28868685408202e-04
4.73489285714286e+00 4.40241473982448e-02 5.26542097292766e-04
4.75153571428571e+00 4.37533783892775e-02 5.24222505580104e-04
4.76817857142857e+00 4.34842747362147e-02 5.21909930860046e-04
4.78482142857143e+00 4.32168261957820e-02 5.19604392970485e-04
4.80146428571429e+00 4.29510225882679e-02 5.17305910202962e-04
4.81810714285714e+00 4.26868537971146e-02 5.15014500918831e-04
4.83475000000000e+00 4.24243097668960e-02 5.12730182763106e-04
4.85139285714286e+00 4.21633805045784e-02 5.10452972143859e-04
4.86803571428571e+00 4.19040560785897e-02 5.08182884789268e-04
4.88467857142857e+00 4.16463266189644e-02 5.05919936253548e-04
4.90132142857143e+00 4.13901823153927e-02 5.03664141419493e-04
4.91796428571429e+00 4.11356134184288e-02 5.01415513746351e-04
4.93460714285714e+00 4.08826102390984e-02 4.99174066798578e-04
4.95125000000000e+00 4.06311631470004e-02 4.96939813501339e-04
4.96789285714286e+00 4.03812625714758e-02 4.94712765647312e-04
4.98453571428571e+00 4.01328990007300e-02 4.92492934423231e-04
5.00117857142857e+00 3.98860629819590e-02 4.90280330888328e-04
5.01782142857143e+00 3.96407451195168e-02 4.88074965502956e-04
5.03446428571429e+00 3.93969360760371e-02 4.85876847416224e-04
5.05110714285714e+00 3.91546265720576e-02 4.83685985912569e-04
5.06775000000000e+00 3.89138073842363e-02 4.81502389706353e-04
5.08439285714286e+00 3.86744693464370e-02 4.79326066474757e-04
5.10103571428571e+00 3.84366033488993e-02 4.77157023355730e-04
5.11767857142857e+00 3.82002003383501e-02 4.74995267400307e-04
5.13432142857143e+00 3.79652513162793e-02 4.72840805126014e-04
5.15096428571429e+00 3.77317473399826e-02 4.70693641841926e-04
5.16760714285714e+00 3.74996795222021e-02 4.68553783017941e-04
5.18425000000000e+00 3.72690390294488e-02 4.66421233616412e-04
5.20089285714286e+00 3.70398170830109e-02 4.64295997649368e-04
5.21753571428571e+00 3.68120049581702e-02 4.62178078649616e-04
5.23417857142857e+00 3.65855939842977e-02 4.60067480098723e-04
5.25082142857143e+00 3.63605755432331e-02 4.57964205003701e-04
