Energy (eV)          EEDF (eV^-(3/2))     First Anisotropy
3.85869565217391e-02 3.40567186337139e-02 1.88241065834173e-05
1.15760869565217e-01 3.38022449637372e-02 3.10722787727628e-05
1.92934782608696e-01 3.35496727349950e-02 4.09880208639719e-05
2.70108695652174e-01 3.32989877398094e-02 4.85023023323466e-05
3.47282608695652e-01 3.30501758766650e-02 5.47537790854005e-05
4.24456521739130e-01 3.28032231494148e-02 6.01733375885971e-05
5.01630434782609e-01 3.25581156664925e-02 6.49841464795853e-05
5.78804347826087e-01 3.23148396401307e-02 6.93210793934800e-05
6.55978260869565e-01 3.20733813855850e-02 7.32736580503460e-05
7.33152173913043e-01 3.18337273203644e-02 7.69052044601190e-05
8.10326086956522e-01 3.15958639634672e-02 8.02626296035695e-05
8.87500000000000e-01 3.13597779346224e-02 8.33819351895728e-05
9.64673913043478e-01 3.11254559532852e-02 8.62915316666096e-05
1.04184782608696e+00 3.08928848386700e-02 8.90143515975642e-05
1.11902173913043e+00 3.06620515088149e-02 9.15692561429310e-05
1.19619565217391e+00 3.04329429768383e-02 9.39720039707409e-05
1.27336956521739e+00 3.02055463570320e-02 9.62359404362083e-05
1.35054347826087e+00 2.99798488577799e-02 9.83725000187439e-05
1.42771739130435e+00 2.97558377830755e-02 1.00391579710469e-04
1.50489130434783e+00 2.95335005303342e-02 1.02301822502343e-04
1.58206521739130e+00 2.93128245942036e-02 1.04110836751876e-04
1.65923913043478e+00 2.90937975611630e-02 1.05825368216503e-04
1.73641304347826e+00 2.88764071092212e-02 1.07451435211695e-04
1.81358695652174e+00 2.86606410110639e-02 1.08994438462504e-04
1.89076086956522e+00 2.84464871293687e-02 1.10459250303571e-04
1.96793478260870e+00 2.82339334164457e-02 1.11850286514202e-04
2.04510869565217e+00 2.80229679168751e-02 1.13171566941532e-04
2.12228260869565e+00 2.78135787633962e-02 1.14426766061640e-04
2.19945652173913e+00 2.76057541764787e-02 1.15619254253286e-04
2.27663043478261e+00 2.73994824665827e-02 1.16752133843938e-04
2.35380434782609e+00 2.71947520304951e-02 1.17828269688622e-04
2.43097826086957e+00 2.69915513517044e-02 1.18850314823675e-04
2.50815217391304e+00 2.67898689989587e-02 1.19820732589280e-04
2.58532608695652e+00 2.65896936280675e-02 1.20741816204024e-04
2.66250000000000e+00 2.63910139787527e-02 1.21615705916005e-04
2.73967391304348e+00 2.61938188741637e-02 1.22444402974256e-04
2.81684782608696e+00 2.59980972224416e-02 1.23229782856951e-04
2.89402173913043e+00 2.58038380138429e-02 1.23973606930742e-04
2.97119565217391e+00 2.56110303202458e-02 1.24677531805056e-04
3.04836956521739e+00 2.54196632965190e-02 1.25343118551807e-04
3.12554347826087e+00 2.52297261778808e-02 1.25971840823298e-04
3.20271739130435e+00 2.50412082799872e-02 1.26565091680389e-04
3.27989130434783e+00 2.48540989977642e-02 1.27124189736332e-04
3.35706521739130e+00 2.46683878065378e-02 1.27650385030838e-04
3.43423913043478e+00 2.44840642596809e-02 1.28144864425925e-04
3.51141304347826e+00 2.43011179881089e-02 1.28608755650609e-04
3.58858695652174e+00 2.41195387012772e-02 1.29043131767348e-04
3.66576086956522e+00 2.39393161849864e-02 1.29449015230598e-04
3.74293478260870e+00 2.37604403008862e-02 1.29827380791443e-04
3.82010869565217e+00 2.35829009873552e-02 1.30179158912532e-04
3.89728260869565e+00 2.34066882574536e-02 1.30505238891651e-04
3.97445652173913e+00 2.32317921984257e-02 1.30806470970965e-04
4.05163043478261e+00 2.30582029724847e-02 1.31083669002397e-04
4.12880434782609e+00 2.28859108148931e-02 1.31337612824030e-04
4.20597826086957e+00 2.27149060338765e-02 1.31569050114061e-04
4.28315217391304e+00 2.25451790096855e-02 1.31778698121271e-04
4.36032608695652e+00 2.23767201952527e-02 1.31967245551172e-04
4.43750000000000e+00 2.22095201144364e-02 1.32135354391403e-04
4.51467391304348e+00 2.20435693615375e-02 1.32283660937732e-04
4.59184782608696e+00 2.18788586018828e-02 1.32412777396744e-04
4.66902173913043e+00 2.17153785701670e-02 1.32523293377071e-04
4.74619565217391e+00 2.15531200699759e-02 1.32615776640738e-04
4.82336956521739e+00 2.13920739743068e-02 1.32690774426275e-04
4.90054347826087e+00 2.12322312240002e-02 1.32748814619195e-04
4.97771739130435e+00 2.10735828275881e-02 1.32790406562531e-04
5.05489130434783e+00 2.09161198604784e-02 1.32816041832354e-04
5.13206521739130e+00 2.07598334653925e-02 1.32826195210883e-04
5.20923913043478e+00 2.06047148509142e-02 1.32821325667406e-04
5.28641304347826e+00 2.04507552910284e-02 1.32801876708308e-04
5.36358695652174e+00 2.02979461255104e-02 1.32768277265529e-04
5.44076086956522e+00 2.01462787585448e-02 1.32720942533021e-04
5.51793478260870e+00 1.99957446582739e-02 1.32660274207107e-04
5.59510869565217e+00 1.98463353571435e-02 1.32586661250681e-04
5.67228260869565e+00 1.96980424505879e-02 1.32500480614613e-04
5.74945652173913e+00 1.95508575965858e-02 1.32402097393367e-04
5.82663043478261e+00 1.94047725159674e-02 1.32291865488388e-04
5.90380434782609e+00 1.92597789911619e-02 1.32170128182076e-04
5.98097826086957e+00 1.91158688660003e-02 1.32037218446817e-04
6.05815217391304e+00 1.89730340450235e-02 1.31893459251956e-04
6.13532608695652e+00 1.88312664937373e-02 1.31739164061643e-04
6.21250000000000e+00 1.86905582374403e-02 1.31574637363235e-04
6.28967391304348e+00 1.85509013607979e-02 1.31400174693716e-04
6.36684782608696e+00 1.84122880080682e-02 1.31216063132864e-04
6.44402173913043e+00 1.82747103819795e-02 1.31022581772332e-04
6.52119565217391e+00 1.81381607433138e-02 1.30820001704675e-04
6.59836956521739e+00 1.80026314111045e-02 1.30608586463566e-04
6.67554347826087e+00 1.78681147615627e-02 1.30388592395856e-04
6.75271739130435e+00 1.77346032278652e-02 1.30160268812559e-04
6.82989130434783e+00 1.76020892995361e-02 1.29923858145177e-04
6.90706521739130e+00 1.74705655226084e-02 1.29679596275924e-04
6.98423913043478e+00 1.73400244986138e-02 1.29427712902264e-04
7.06141304347826e+00 1.72104588841836e-02 1.29168431469158e-04
7.13858695652174e+00 1.70818613911890e-02 1.28901969514620e-04
7.21576086956522e+00 1.69542247857706e-02 1.28628539000266e-04
7.29293478260870e+00 1.68275418879485e-02 1.28348346226813e-04
7.37010869565217e+00 1.67018055717427e-02 1.28061592149047e-04
7.44728260869565e+00 1.65770087642408e-02 1.27768472677472e-04
7.52445652173913e+00 1.64531444452160e-02 1.27469178580755e-04
7.60163043478261e+00 1.63302056472293e-02 1.27163895773915e-04
7.67880434782609e+00 1.62081854547348e-02 1.26852805554776e-04
7.75597826086956e+00 1.60870770038597e-02 1.26536084658308e-04
7.83315217391304e+00 1.59668734818664e-02 1.26213905319129e-04
7.91032608695652e+00 1.58475681272308e-02 1.25886435485930e-04
7.98750000000000e+00 1.57291542287951e-02 1.25553839068781e-04
8.06467391304348e+00 1.56116251254029e-02 1.25216275823377e-04
8.14184782608696e+00 1.54949742059639e-02 1.24873901589179e-04
8.21902173913043e+00 1.53791949086375e-02 1.24526868518315e-04
8.29619565217391e+00 1.52642807204757e-02 1.24175324954615e-04
8.37336956521739e+00 1.51502251774750e-02 1.23819415654620e-04
8.45054347826087e+00 1.50370218637899e-02 1.23459281964685e-04
8.52771739130435e+00 1.49246644115147e-02 1.23095061839425e-04
8.60489130434783e+00 1.48131465001964e-02 1.22726889868519e-04
8.68206521739130e+00 1.47024618568689e-02 1.22354897439222e-04
8.75923913043478e+00 1.45926042553065e-02 1.21979212929747e-04
8.83641304347826e+00 1.44835675156836e-02 1.21599961582631e-04
8.91358695652174e+00 1.43753455045990e-02 1.21217265692341e-04
8.99076086956522e+00 1.42679321343547e-02 1.20831244786149e-04
9.06793478260870e+00 1.41613213626235e-02 1.20442015496112e-04
9.14510869565217e+00 1.40555071924637e-02 1.20049691735089e-04
9.22228260869565e+00 1.39504836716233e-02 1.19654384866505e-04
9.29945652173913e+00 1.38462448922140e-02 1.19256203575757e-04
9.37663043478261e+00 1.37427849907180e-02 1.18855254035563e-04
9.45380434782609e+00 1.36400981473152e-02 1.18451640035195e-04
9.53097826086957e+00 1.35381785856722e-02 1.18045462974757e-04
9.60815217391304e+00 1.34370205725116e-02 1.17636821867333e-04
9.68532608695652e+00 1.33366184176072e-02 1.17225813458857e-04
9.76250000000000e+00 1.32369664731434e-02 1.16812532375441e-04
9.83967391304348e+00 1.31380591334054e-02 1.16397070996580e-04
9.91684782608696e+00 1.30398908347671e-02 1.15979519599180e-04
9.99402173913044e+00 1.29424560550715e-02 1.15559966496818e-04
1.00711956521739e+01 1.28457493133282e-02 1.15138497886104e-04
1.01483695652174e+01 1.27497651697883e-02 1.14715198039608e-04
1.02255434782609e+01 1.26544982251541e-02 1.14290149409876e-04
1.03027173913043e+01 1.25599431204726e-02 1.13863432530275e-04
1.03798913043478e+01 1.24660945368332e-02 1.13435126384933e-04
1.04570652173913e+01 1.23729471941809e-02 1.13005307645287e-04
1.05342391304348e+01 1.22804958537032e-02 1.12574051252470e-04
1.06114130434783e+01 1.21887353148302e-02 1.12141431003866e-04
1.06885869565217e+01 1.20976604158511e-02 1.11707518768806e-04
1.07657608695652e+01 1.20072660336223e-02 1.11272384802597e-04
1.08429347826087e+01 1.19175470832823e-02 1.10836097783681e-04
1.09201086956522e+01 1.18284985179639e-02 1.10398725097720e-04
1.09972826086957e+01 1.17401153277091e-02 1.09960332125733e-04
1.10744565217391e+01 1.16523925416100e-02 1.09520982778817e-04
1.11516304347826e+01 1.15653252250874e-02 1.09080740037061e-04
1.12288043478261e+01 1.14789084804337e-02 1.08639665219000e-04
1.13059782608696e+01 1.13931374465369e-02 1.08197818269062e-04
1.13831521739130e+01 1.13080072986072e-02 1.07755257787740e-04
1.14603260869565e+01 1.12235132479070e-02 1.07312041061610e-04
1.15375000000000e+01 1.11396505414801e-02 1.06868224319061e-04
1.16146739130435e+01 1.10564144611708e-02 1.06423862074565e-04
1.16918478260870e+01 1.09738003255168e-02 1.05979007614540e-04
1.17690217391304e+01 1.08918034873110e-02 1.05533713487322e-04
1.18461956521739e+01 1.08104193340703e-02 1.05088030830759e-04
1.19233695652174e+01 1.07296432877759e-02 1.04642009631780e-04
1.20005434782609e+01 1.06494708046167e-02 1.04195698751002e-04
1.20777173913043e+01 1.05698973747334e-02 1.03749145947272e-04
1.21548913043478e+01 1.04909185219648e-02 1.03302398108907e-04
1.22320652173913e+01 1.04125298029575e-02 1.02855500649426e-04
1.23092391304348e+01 1.03347268088453e-02 1.02408497950299e-04
1.23864130434783e+01 1.02575051630573e-02 1.01961433807645e-04
1.24635869565217e+01 1.01808605217246e-02 1.01514350813001e-04
1.25407608695652e+01 1.01047885734354e-02 1.01067290588604e-04
1.26179347826087e+01 1.00292850389938e-02 1.00620293807676e-04
1.26951086956522e+01 9.95434567117810e-03 1.00173400407750e-04
1.27722826086957e+01 9.87996625392203e-03 9.97266490269762e-05
1.28494565217391e+01 9.80614260383114e-03 9.92800774135298e-05
1.29266304347826e+01 9.73287056818060e-03 9.88337228388478e-05
1.30038043478261e+01 9.66014602527504e-03 9.83876215203024e-05
1.30809782608696e+01 9.58796488421644e-03 9.79418088384993e-05
1.31581521739130e+01 9.51632308467402e-03 9.74963193541226e-05
1.32353260869565e+01 9.44521659665653e-03 9.70511868248509e-05
1.33125000000000e+01 9.37464142028508e-03 9.66064443994091e-05
1.33896739130435e+01 9.30459358504702e-03 9.61621240976694e-05
1.34668478260870e+01 9.23506915114728e-03 9.57182571852695e-05
1.35440217391304e+01 9.16606420770051e-03 9.52748745518637e-05
1.36211956521739e+01 9.09757487304378e-03 9.48320061788716e-05
1.36983695652174e+01 9.02959729451782e-03 9.43896813374885e-05
1.37755434782609e+01 8.96212764825087e-03 9.39479286028121e-05
1.38527173913043e+01 8.89516213894361e-03 9.35067758680609e-05
1.39298913043478e+01 8.82869699965539e-03 9.30662505215309e-05
1.40070652173913e+01 8.76272849112351e-03 9.26263789668020e-05
1.40842391304348e+01 8.69725290296966e-03 9.21871869661660e-05
1.41614130434783e+01 8.63226655206412e-03 9.17486999874617e-05
1.42385869565217e+01 8.56776578279775e-03 9.13109427130293e-05
1.43157608695652e+01 8.50374696687592e-03 9.08739392205638e-05
1.43929347826087e+01 8.44020650311531e-03 9.04377129950551e-05
1.44701086956522e+01 8.37714081724087e-03 9.00022870929987e-05
1.45472826086957e+01 8.31454636125612e-03 8.95676836942999e-05
1.46244565217391e+01 8.25241961453864e-03 8.91339244212265e-05
1.47016304347826e+01 8.19075708233767e-03 8.87010306606491e-05
1.47788043478261e+01 8.12955529601547e-03 8.82690231055712e-05
1.48559782608696e+01 8.06881081285204e-03 8.78379219230381e-05
1.49331521739130e+01 8.00852021585145e-03 8.74077467642110e-05
1.50103260869565e+01 7.94868011355009e-03 8.69785167745482e-05
1.50875000000000e+01 7.88928713982556e-03 8.65502507441295e-05
1.51646739130435e+01 7.83033795332026e-03 8.61229666936684e-05
1.52418478260870e+01 7.77182923842282e-03 8.56966821676893e-05
1.53190217391304e+01 7.71375770390395e-03 8.52714145308171e-05
1.53961956521739e+01 7.65612008312661e-03 8.48471805443092e-05
1.54733695652174e+01 7.59891313386207e-03 8.44239965199067e-05
1.55505434782609e+01 7.54213363810783e-03 8.40018783284743e-05
1.56277173913043e+01 7.48577840190666e-03 8.35808414087027e-05
1.57048913043478e+01 7.42984425516676e-03 8.31609009049497e-05
1.57820652173913e+01 7.37432805113329e-03 8.27420712845547e-05
1.58592391304348e+01 7.31922666726914e-03 8.23243666076562e-05
1.59364130434783e+01 7.26453700401410e-03 8.19078007999334e-05
1.60135869565217e+01 7.21025598496808e-03 8.14923872612266e-05
1.60907608695652e+01 7.15638055671772e-03 8.10781390067439e-05
1.61679347826087e+01 7.10290768866530e-03 8.06650686744780e-05
1.62451086956522e+01 7.04983437285787e-03 8.02531886535950e-05
1.63222826086957e+01 6.99715762349672e-03 7.98425107265663e-05
1.63994565217391e+01 6.94487447774022e-03 7.94330463205329e-05
1.64766304347826e+01 6.89298199455963e-03 7.90248067614180e-05
1.65538043478261e+01 6.84147725490171e-03 7.86178029080159e-05
1.66309782608696e+01 6.79035736152452e-03 7.82120452835576e-05
1.67081521739130e+01 6.73961943883438e-03 7.78075440820153e-05
1.67853260869565e+01 6.68926063272440e-03 7.74043091745114e-05
1.68625000000000e+01 6.63927811041379e-03 7.70023502273471e-05
1.69396739130435e+01 6.58966905999687e-03 7.66016763708534e-05
1.70168478260870e+01 6.54043069116560e-03 7.62022964311689e-05
1.70940217391304e+01 6.49156023416591e-03 7.58042191646147e-05
1.71711956521739e+01 6.44305493993951e-03 7.54074529191347e-05
1.72483695652174e+01 6.39491207996906e-03 7.50120057553349e-05
1.73255434782609e+01 6.34712894612498e-03 7.46178854519525e-05
1.74027173913043e+01 6.29970285051307e-03 7.42250995114025e-05
1.74798913043478e+01 6.25263112532325e-03 7.38336552684232e-05
1.75570652173913e+01 6.20591112241464e-03 7.34435595834739e-05
1.76342391304348e+01 6.15954021396644e-03 7.30548190566531e-05
1.77114130434783e+01 6.11351579152488e-03 7.26674402440558e-05
1.77885869565217e+01 6.06783526612670e-03 7.22814293443602e-05
1.78657608695652e+01 6.02249606815330e-03 7.18967923103033e-05
1.79429347826087e+01 5.97749564718668e-03 7.15135348534257e-05
1.80201086956522e+01 5.93283147186570e-03 7.11316625455137e-05
1.80972826086957e+01 5.88850102949979e-03 7.07511805315655e-05
1.81744565217391e+01 5.84450182666425e-03 7.03720937295009e-05
1.82516304347826e+01 5.80083138831837e-03 6.99944070321775e-05
1.83288043478261e+01 5.75748725791511e-03 6.96181250140111e-05
1.84059782608696e+01 5.71446699726282e-03 6.92432520350785e-05
1.84831521739130e+01 5.67176818638814e-03 6.88697922451858e-05
1.85603260869565e+01 5.62938842339998e-03 6.84977495880295e-05
1.86375000000000e+01 5.58732532435436e-03 6.81271278947240e-05
1.87146739130435e+01 5.54557652289821e-03 6.77579306177947e-05
1.87918478260870e+01 5.50413967080684e-03 6.73901610157917e-05
1.88690217391304e+01 5.46301243717680e-03 6.70238223400435e-05
1.89461956521739e+01 5.42219250852131e-03 6.66589175628023e-05
1.90233695652174e+01 5.38167758863996e-03 6.62954494732772e-05
1.91005434782609e+01 5.34146539848978e-03 6.59334206812002e-05
1.91777173913043e+01 5.30155367605697e-03 6.55728336204617e-05
1.92548913043478e+01 5.26194017622966e-03 6.52136906354321e-05
1.93320652173913e+01 5.22262267046921e-03 6.48559937343389e-05
1.94092391304348e+01 5.18359894729596e-03 6.44997447600233e-05
1.94864130434783e+01 5.14486681154969e-03 6.41449455627000e-05
1.95635869565217e+01 5.10642408447256e-03 6.37915977479367e-05
1.96407608695652e+01 5.06826860358638e-03 6.34397027653260e-05
1.97179347826087e+01 5.03039822257128e-03 6.30892619116061e-05
1.97951086956522e+01 4.99281081114482e-03 6.27402764114243e-05
1.98722826086957e+01 4.95550425475525e-03 6.23927471861932e-05
1.99494565217391e+01 4.91847645502696e-03 6.20466750137799e-05
2.00266304347826e+01 4.88172532907432e-03 6.17020606900928e-05
2.01038043478261e+01 4.84524880957514e-03 6.13589047928994e-05
2.01809782608696e+01 4.80904484465435e-03 6.10172077647860e-05
2.02581521739130e+01 4.77311139776859e-03 6.06769699158464e-05
2.03353260869565e+01 4.73744644759173e-03 6.03381914264179e-05
2.04125000000000e+01 4.70204798790113e-03 6.00008724217209e-05
2.04896739130435e+01 4.66691402729409e-03 5.96650127573939e-05
2.05668478260870e+01 4.63204258959117e-03 5.93306121673634e-05
2.06440217391304e+01 4.59743171320632e-03 5.89976704134911e-05
2.07211956521739e+01 4.56307945121058e-03 5.86661870664472e-05
2.07983695652174e+01 4.52898387122247e-03 5.83361615824113e-05
2.08755434782609e+01 4.49514305529945e-03 5.80075933054272e-05
2.09527173913043e+01 4.46155509982998e-03 5.76804814698250e-05
2.10298913043478e+01 4.42821811542641e-03 5.73548252692406e-05
2.11070652173913e+01 4.39513022666275e-03 5.70306236575345e-05
2.11842391304348e+01 4.36228957244009e-03 5.67078754858052e-05
2.12614130434783e+01 4.32969430540792e-03 5.63865796410599e-05
2.13385869565217e+01 4.29734259201924e-03 5.60667348428151e-05
2.14157608695652e+01 4.26523261242731e-03 5.57483397140573e-05
2.14929347826087e+01 4.23336256038353e-03 5.54313927833201e-05
2.15701086956522e+01 4.20173064313567e-03 5.51158925493609e-05
2.16472826086957e+01 4.17033508118268e-03 5.48018372943941e-05
2.17244565217391e+01 4.13917410861048e-03 5.44892252123876e-05
2.18016304347826e+01 4.10824597255394e-03 5.41780545389510e-05
2.18788043478261e+01 4.07754893324541e-03 5.38683233605371e-05
2.19559782608696e+01 4.04708126391690e-03 5.35600296809152e-05
2.20331521739130e+01 4.01684125070285e-03 5.32531714229628e-05
2.21103260869565e+01 3.98682719254390e-03 5.29477464304963e-05
2.21875000000000e+01 3.95703740109111e-03 5.26437525281504e-05
2.22646739130435e+01 3.92747020047882e-03 5.23411873478845e-05
2.23418478260870e+01 3.89812392762936e-03 5.20400484479750e-05
2.24190217391304e+01 3.86899693175801e-03 5.17403334334828e-05
2.24961956521739e+01 3.84008757441476e-03 5.14420397790249e-05
2.25733695652174e+01 3.81139422939218e-03 5.11451648903386e-05
2.26505434782609e+01 3.78291528263396e-03 5.08497061058614e-05
2.27277173913043e+01 3.75464913214417e-03 5.05556606983504e-05
2.28048913043478e+01 3.72659418789706e-03 5.02630259303469e-05
2.28820652173913e+01 3.69874887162659e-03 4.99717988929663e-05
2.29592391304348e+01 3.67111161710315e-03 4.96819766163019e-05
2.30364130434783e+01 3.64368086967760e-03 4.93935561811983e-05
2.31135869565217e+01 3.61645508631724e-03 4.91065345545777e-05
2.31907608695652e+01 3.58943273551892e-03 4.88209086464939e-05
2.32679347826087e+01 3.56261229722305e-03 4.85366753115196e-05
2.33451086956522e+01 3.53599226272801e-03 4.82538314007714e-05
2.34222826086957e+01 3.50957113449303e-03 4.79723736105581e-05
2.34994565217391e+01 3.48334742639285e-03 4.76922985858785e-05
2.35766304347826e+01 3.45731966329308e-03 4.74136030252121e-05
2.36538043478261e+01 3.43148638108162e-03 4.71362835259313e-05
2.37309782608696e+01 3.40584612658627e-03 4.68603366378074e-05
2.38081521739130e+01 3.38039745749300e-03 4.65857588642012e-05
2.38853260869565e+01 3.35513894226487e-03 4.63125466632863e-05
2.39625000000000e+01 3.33006916006148e-03 4.60406964962945e-05
2.40396739130435e+01 3.30518670055605e-03 4.57702046867764e-05
2.41168478260870e+01 3.28049016416696e-03 4.55010675167082e-05
2.41940217391304e+01 3.25597816166620e-03 4.52332813238126e-05
2.42711956521739e+01 3.23164931420616e-03 4.49668423578139e-05
2.43483695652174e+01 3.20750225324199e-03 4.47017468300659e-05
