Energy (eV)          EEDF (eV^-(3/2))     First Anisotropy
8.41304347826087e-03 9.44496988116212e-01 7.28405393791965e-04
2.52391304347826e-02 9.30415970734389e-01 1.19786533122826e-03
4.20652173913044e-02 9.16544880023574e-01 1.56828747924377e-03
5.88913043478261e-02 9.02880586218688e-01 1.84189520280682e-03
7.57173913043478e-02 8.89420006321211e-01 2.06371869071392e-03
9.25434782608696e-02 8.76160103243358e-01 2.25099398813727e-03
1.09369565217391e-01 8.63097885171233e-01 2.41274536215462e-03
1.26195652173913e-01 8.50230404956947e-01 2.55448421015180e-03
1.43021739130435e-01 8.37554759354211e-01 2.67990633471030e-03
1.59847826086957e-01 8.25068088399818e-01 2.79165218923719e-03
1.76673913043478e-01 8.12767574768323e-01 2.89169708782623e-03
1.93500000000000e-01 8.00650443136360e-01 2.98157143435523e-03
2.10326086956522e-01 7.88713959614170e-01 3.06249410599582e-03
2.27152173913043e-01 7.76955430949682e-01 3.13545774707464e-03
2.43978260869565e-01 7.65372204106579e-01 3.20128575198806e-03
2.60804347826087e-01 7.53961665601162e-01 3.26067173890363e-03
2.77630434782609e-01 7.42721240912714e-01 3.31420770071225e-03
2.94456521739130e-01 7.31648393902641e-01 3.36240460914788e-03
3.11282608695652e-01 7.20740626242270e-01 3.40570782645987e-03
3.28108695652174e-01 7.09995476849171e-01 3.44450885465930e-03
3.44934782608696e-01 6.99410521331883e-01 3.47915444374440e-03
3.61760869565217e-01 6.88983371442912e-01 3.50995375799734e-03
3.78586956521739e-01 6.78711674539886e-01 3.53718408948963e-03
3.95413043478261e-01 6.68593113054743e-01 3.56109546780457e-03
4.12239130434783e-01 6.58625403970760e-01 3.58191441937073e-03
4.29065217391304e-01 6.48806298307592e-01 3.59984706337781e-03
4.45891304347826e-01 6.39133580613766e-01 3.61508168416198e-03
4.62717391304348e-01 6.29605068466816e-01 3.62779088608046e-03
4.79543478260870e-01 6.20218611980875e-01 3.63813341226337e-03
4.96369565217391e-01 6.10972093321604e-01 3.64625569034152e-03
5.13195652173913e-01 6.01863426228349e-01 3.65229315459196e-03
5.30021739130435e-01 5.92890555543437e-01 3.65637138360073e-03
5.46847826086957e-01 5.84051456748468e-01 3.65860708463040e-03
5.63673913043478e-01 5.75344135507537e-01 3.65910894977081e-03
5.80500000000000e-01 5.66766627217257e-01 3.65797840274054e-03
5.97326086956522e-01 5.58316996577424e-01 3.65531026022375e-03
6.14152173913044e-01 5.49993337111794e-01 3.65119330810348e-03
6.30978260869565e-01 5.41793770781314e-01 3.64571081117957e-03
6.47804347826087e-01 5.33716447545642e-01 3.63894097341224e-03
6.64630434782609e-01 5.25759544945725e-01 3.63095734268896e-03
6.81456521739131e-01 5.17921267692607e-01 3.62182917440738e-03
6.98282608695652e-01 5.10199847262361e-01 3.61162175785201e-03
7.15108695652174e-01 5.02593541497067e-01 3.60039671006226e-03
7.31934782608696e-01 4.95100634211733e-01 3.58821224119209e-03
7.48760869565217e-01 4.87719434807081e-01 3.57512339478191e-03
7.65586956521739e-01 4.80448277888098e-01 3.56118226588160e-03
7.82413043478261e-01 4.73285522888285e-01 3.54643819955821e-03
7.99239130434783e-01 4.66229553699484e-01 3.53093797197272e-03
8.16065217391304e-01 4.59278778307270e-01 3.51472595593616e-03
8.32891304347826e-01 4.52431628431738e-01 3.49784427260020e-03
8.49717391304348e-01 4.45686559173653e-01 3.48033293072212e-03
8.66543478260870e-01 4.39042048665885e-01 3.46222995477795e-03
8.83369565217391e-01 4.32496597730030e-01 3.44357150303647e-03
9.00195652173913e-01 4.26048729538161e-01 3.42439197657725e-03
9.17021739130435e-01 4.19696989279612e-01 3.40472412011924e-03
9.33847826086957e-01 4.13439943832736e-01 3.38459911542964e-03
9.50673913043478e-01 4.07276181441557e-01 3.36404666799522e-03
9.67500000000000e-01 4.01204311397235e-01 3.34309508676802e-03
9.84326086956522e-01 3.95222963730237e-01 3.32177136153936e-03
1.00115217391304e+00 3.89330788883120e-01 3.30010123346298e-03
1.01797826086957e+00 3.83526457407550e-01 3.27810924641190e-03
1.03480434782609e+00 3.77808659747237e-01 3.25581883299434e-03
1.05163043478261e+00 3.72176105759883e-01 3.23325236050605e-03
1.06845652173913e+00 3.66627524592410e-01 3.21043116619745e-03
1.08528260869565e+00 3.61161664338254e-01 3.18737562392729e-03
1.10210869565217e+00 3.55777291803041e-01 3.16410520396783e-03
1.11893478260870e+00 3.50473192080088e-01 3.14063850333896e-03
1.13576086956522e+00 3.45248168424157e-01 3.11699326664269e-03
1.15258695652174e+00 3.40101041975670e-01 3.09318646597213e-03
1.16941304347826e+00 3.35030651361385e-01 3.06923431772307e-03
1.18623913043478e+00 3.30035852566901e-01 3.04515229802563e-03
1.20306521739130e+00 3.25115518673620e-01 3.02095521362255e-03
1.21989130434783e+00 3.20268539482584e-01 2.99665721421510e-03
1.23671739130435e+00 3.15493821386969e-01 2.97227180377023e-03
1.25354347826087e+00 3.10790287120699e-01 2.94781190381440e-03
1.27036956521739e+00 3.06156875404026e-01 2.92328986226122e-03
1.28719565217391e+00 3.01592540816634e-01 2.89871746673927e-03
1.30402173913043e+00 2.97096253523785e-01 2.87410598061696e-03
1.32084782608696e+00 2.92666999076990e-01 2.84946617508569e-03
1.33767391304348e+00 2.88303778085118e-01 2.82480834017859e-03
1.35450000000000e+00 2.84005606089904e-01 2.80014228952341e-03
1.37132608695652e+00 2.79771513340213e-01 2.77547741026119e-03
1.38815217391304e+00 2.75600544481329e-01 2.75082266634713e-03
1.40497826086957e+00 2.71491758432141e-01 2.72618660148398e-03
1.42180434782609e+00 2.67444228169535e-01 2.70157738445345e-03
1.43863043478261e+00 2.63457040434710e-01 2.67700281088342e-03
1.45545652173913e+00 2.59529295612473e-01 2.65247030898520e-03
1.47228260869565e+00 2.55660107499534e-01 2.62798696400263e-03
1.48910869565217e+00 2.51848603129679e-01 2.60355953982361e-03
1.50593478260870e+00 2.48093922500545e-01 2.57919448377703e-03
1.52276086956522e+00 2.44395218456657e-01 2.55489792665005e-03
1.53958695652174e+00 2.40751656495567e-01 2.53067571957788e-03
1.55641304347826e+00 2.37162414509194e-01 2.50653343332813e-03
1.57323913043478e+00 2.33626682669359e-01 2.48247635749671e-03
1.59006521739130e+00 2.30143663242683e-01 2.45850953437251e-03
1.60689130434783e+00 2.26712570345545e-01 2.43463775756394e-03
1.62371739130435e+00 2.23332629832413e-01 2.41086557057825e-03
1.64054347826087e+00 2.20003079118911e-01 2.38719729798717e-03
1.65736956521739e+00 2.16723166949675e-01 2.36363704351995e-03
1.67419565217391e+00 2.13492153289567e-01 2.34018869140730e-03
1.69102173913043e+00 2.10309309136233e-01 2.31685592218853e-03
1.70784782608696e+00 2.07173916373626e-01 2.29364222654683e-03
1.72467391304348e+00 2.04085267555431e-01 2.27055090642294e-03
1.74150000000000e+00 2.01042665800541e-01 2.24758507258863e-03
1.75832608695652e+00 1.98045424633994e-01 2.22474767065914e-03
1.77515217391304e+00 1.95092867781493e-01 2.20204147836934e-03
1.79197826086957e+00 1.92184329067881e-01 2.17946910289524e-03
1.80880434782609e+00 1.89319152265153e-01 2.15703300494977e-03
1.82563043478261e+00 1.86496690897467e-01 2.13473549586313e-03
1.84245652173913e+00 1.83716308142672e-01 2.11257873738111e-03
1.85928260869565e+00 1.80977376672671e-01 2.09056475340036e-03
1.87610869565217e+00 1.78279278525957e-01 2.06869544016346e-03
1.89293478260870e+00 1.75621404925466e-01 2.04697256604978e-03
1.90976086956522e+00 1.73003156184393e-01 2.02539776853001e-03
1.92658695652174e+00 1.70423941569459e-01 2.00397257453293e-03
1.94341304347826e+00 1.67883179127911e-01 1.98269839724226e-03
1.96023913043478e+00 1.65380295596309e-01 1.96157653297583e-03
1.97706521739130e+00 1.62914726269905e-01 1.94060818013917e-03
1.99389130434783e+00 1.60485914838277e-01 1.91979443599183e-03
2.01071739130435e+00 1.58093313297112e-01 1.89913629349825e-03
2.02754347826087e+00 1.55736381823346e-01 1.87863465898664e-03
2.04436956521739e+00 1.53414588619002e-01 1.85829034889864e-03
2.06119565217391e+00 1.51127409825925e-01 1.83810408870501e-03
2.07802173913044e+00 1.48874329395881e-01 1.81807652111646e-03
2.09484782608696e+00 1.46654838984496e-01 1.79820821315083e-03
2.11167391304348e+00 1.44468437805139e-01 1.77849965515793e-03
2.12850000000000e+00 1.42314632547665e-01 1.75895125766360e-03
2.14532608695652e+00 1.40192937266107e-01 1.73956336646408e-03
2.16215217391304e+00 1.38102873239736e-01 1.72033625941579e-03
2.17897826086957e+00 1.36043968894622e-01 1.70127014331708e-03
2.19580434782609e+00 1.34015759696308e-01 1.68236516801507e-03
2.21263043478261e+00 1.32017788017670e-01 1.66362142324694e-03
2.22945652173913e+00 1.30049603063264e-01 1.64503893728281e-03
2.24628260869565e+00 1.28110760758321e-01 1.62661768328328e-03
2.26310869565217e+00 1.26200823656804e-01 1.60835758473434e-03
2.27993478260870e+00 1.24319360817684e-01 1.59025851423074e-03
2.29676086956522e+00 1.22465947732993e-01 1.57232029047738e-03
2.31358695652174e+00 1.20640166231245e-01 1.55454269042154e-03
2.33041304347826e+00 1.18841604359717e-01 1.53692544623171e-03
2.34723913043478e+00 1.17069856315088e-01 1.51946824236613e-03
2.36406521739130e+00 1.15324522351168e-01 1.50217072693796e-03
2.38089130434783e+00 1.13605208666851e-01 1.48503250877669e-03
2.39771739130435e+00 1.11911527339316e-01 1.46805315457618e-03
2.41454347826087e+00 1.10243096235820e-01 1.45123219954813e-03
2.43136956521739e+00 1.08599538907064e-01 1.43456914456205e-03
2.44819565217391e+00 1.06980484522878e-01 1.41806345471767e-03
2.46502173913044e+00 1.05385567781603e-01 1.40171456397084e-03
2.48184782608696e+00 1.03814428833856e-01 1.38552187905466e-03
2.49867391304348e+00 1.02266713182595e-01 1.36948477819742e-03
2.51550000000000e+00 1.00742071622064e-01 1.35360260844771e-03
2.53232608695652e+00 9.92401601584307e-02 1.33787469489129e-03
2.54915217391304e+00 9.77606399146194e-02 1.32230033798160e-03
2.56597826086957e+00 9.63031770715691e-02 1.30687881094972e-03
2.58280434782609e+00 9.48674427923760e-02 1.29160936845870e-03
2.59963043478261e+00 9.34531131316735e-02 1.27649124402246e-03
2.61645652173913e+00 9.20598689791305e-02 1.26152364861842e-03
2.63328260869565e+00 9.06873959818672e-02 1.24670577434896e-03
2.65010869565217e+00 8.93353844785090e-02 1.23203679752534e-03
2.66693478260870e+00 8.80035294142128e-02 1.21751587741884e-03
2.68376086956522e+00 8.66915302871019e-02 1.20314215386221e-03
2.70058695652174e+00 8.53990910799984e-02 1.18891475476270e-03
2.71741304347826e+00 8.41259201794769e-02 1.17483279371489e-03
2.73423913043478e+00 8.28717303243615e-02 1.16089536768472e-03
2.75106521739130e+00 8.16362385404887e-02 1.14710156407378e-03
2.76789130434783e+00 8.04191660635837e-02 1.13345045842109e-03
2.78471739130435e+00 7.92202382897677e-02 1.11994111217251e-03
2.80154347826087e+00 7.80391847131936e-02 1.10657257932588e-03
2.81836956521739e+00 7.68757388525716e-02 1.09334390421567e-03
2.83519565217391e+00 7.57296382036141e-02 1.08025412024857e-03
2.85202173913044e+00 7.46006241755710e-02 1.06730225262586e-03
2.86884782608696e+00 7.34884420366712e-02 1.05448732061729e-03
2.88567391304348e+00 7.23928408451798e-02 1.04180833641953e-03
2.90250000000000e+00 7.13135734043623e-02 1.02926430310778e-03
2.91932608695652e+00 7.02503962063656e-02 1.01685422042486e-03
2.93615217391304e+00 6.92030693665115e-02 1.00457708275116e-03
2.95297826086957e+00 6.81713565800406e-02 9.92431877134387e-04
2.96980434782609e+00 6.71550250684740e-02 9.80417588741000e-04
2.98663043478261e+00 6.61538455169876e-02 9.68533198905149e-04
3.00345652173913e+00 6.51675920328780e-02 9.56777683972583e-04
3.02028260869565e+00 6.41960420911593e-02 9.45150017482728e-04
3.03710869565217e+00 6.32389764874294e-02 9.33649171979818e-04
3.05393478260870e+00 6.22961792790900e-02 9.22274117966887e-04
3.07076086956522e+00 6.13674377460428e-02 9.11023822105815e-04
3.08758695652174e+00 6.04525423424130e-02 8.99897251976889e-04
3.10441304347826e+00 5.95512866405133e-02 8.88893374297052e-04
3.12123913043478e+00 5.86634672931099e-02 8.78011153190216e-04
3.13806521739130e+00 5.77888839872861e-02 8.67249554673139e-04
3.15489130434783e+00 5.69273393910133e-02 8.56607544946503e-04
3.17171739130435e+00 5.60786391169396e-02 8.46084088735562e-04
3.18854347826087e+00 5.52425916782854e-02 8.35678153519286e-04
3.20536956521739e+00 5.44190084379047e-02 8.25388707889475e-04
3.22219565217391e+00 5.36077035735374e-02 8.15214720545017e-04
3.23902173913044e+00 5.28084940332498e-02 8.05155161935024e-04
3.25584782608696e+00 5.20211994964924e-02 7.95209005611216e-04
3.27267391304348e+00 5.12456423262680e-02 7.85375227315493e-04
3.28950000000000e+00 5.04816475362703e-02 7.75652803469078e-04
3.30632608695652e+00 4.97290427511927e-02 7.66040714873440e-04
3.32315217391304e+00 4.89876581611123e-02 7.56537945218350e-04
3.33997826086957e+00 4.82573264899646e-02 7.47143479632848e-04
3.35680434782609e+00 4.75378829576047e-02 7.37856308176844e-04
3.37363043478261e+00 4.68291652363042e-02 7.28675424410903e-04
3.39045652173913e+00 4.61310134205131e-02 7.19599824498409e-04
3.40728260869565e+00 4.54432699886308e-02 7.10628508532672e-04
3.42410869565217e+00 4.47657797693932e-02 7.01760481622110e-04
3.44093478260870e+00 4.40983899010139e-02 6.92994753074115e-04
3.45776086956522e+00 4.34409498026034e-02 6.84330335079373e-04
3.47458695652174e+00 4.27933111400215e-02 6.75766245771911e-04
3.49141304347826e+00 4.21553277869037e-02 6.67301507930381e-04
3.50823913043478e+00 4.15268557972502e-02 6.58935147716413e-04
3.52506521739130e+00 4.09077533727895e-02 6.50666197563359e-04
3.54189130434783e+00 4.02978808257999e-02 6.42493694932772e-04
3.55871739130435e+00 3.96971005528272e-02 6.34416681106219e-04
3.57554347826087e+00 3.91052770034863e-02 6.26434203912812e-04
3.59236956521739e+00 3.85222766449967e-02 6.18545316537318e-04
3.60919565217391e+00 3.79479679369849e-02 6.10749076754951e-04
3.62602173913044e+00 3.73822213001439e-02 6.03044547938536e-04
3.64284782608696e+00 3.68249090884881e-02 5.95430799874700e-04
3.65967391304348e+00 3.62759055560345e-02 5.87906908066728e-04
3.67650000000000e+00 3.57350868329950e-02 5.80471952639073e-04
3.69332608695652e+00 3.52023308976976e-02 5.73125020731548e-04
3.71015217391304e+00 3.46775175447966e-02 5.65865205419728e-04
3.72697826086957e+00 3.41605283624512e-02 5.58691604665730e-04
3.74380434782609e+00 3.36512467054855e-02 5.51603323580026e-04
3.76063043478261e+00 3.31495576650581e-02 5.44599473387723e-04
3.77745652173913e+00 3.26553480467880e-02 5.37679170753366e-04
3.79428260869565e+00 3.21685063438509e-02 5.30841538598208e-04
3.81110869565217e+00 3.16889227130458e-02 5.24085706757929e-04
3.82793478260870e+00 3.12164889462946e-02 5.17410811366439e-04
3.84476086956522e+00 3.07510984499827e-02 5.10815993906106e-04
3.86158695652174e+00 3.02926462208012e-02 5.04300403195302e-04
3.87841304347826e+00 2.98410288185506e-02 4.97863194452432e-04
3.89523913043478e+00 2.93961443463406e-02 4.91503528386200e-04
3.91206521739130e+00 2.89578924275003e-02 4.85220573074025e-04
3.92889130434783e+00 2.85261741796248e-02 4.79013503066642e-04
3.94571739130435e+00 2.81008921956024e-02 4.72881498517579e-04
3.96254347826087e+00 2.76819505215419e-02 4.66823746958723e-04
3.97936956521739e+00 2.72692546320065e-02 4.60839442442889e-04
3.99619565217391e+00 2.68627114118345e-02 4.54927784974345e-04
4.01302173913044e+00 2.64622291340696e-02 4.49087981131991e-04
4.02984782608696e+00 2.60677174402187e-02 4.43319244566047e-04
4.04667391304348e+00 2.56790873169744e-02 4.37620795477366e-04
4.06350000000000e+00 2.52962510790504e-02 4.31991859829798e-04
4.08032608695652e+00 2.49191223493153e-02 4.26431670912317e-04
4.09715217391304e+00 2.45476160365760e-02 4.20939468563862e-04
4.11397826086957e+00 2.41816483191330e-02 4.15514498419520e-04
4.13080434782609e+00 2.38211366257903e-02 4.10156013387689e-04
4.14763043478261e+00 2.34659996146522e-02 4.04863272908293e-04
4.16445652173913e+00 2.31161571573690e-02 3.99635542453558e-04
4.18128260869565e+00 2.27715303201832e-02 3.94472094035129e-04
4.19810869565217e+00 2.24320413469072e-02 3.89372206605068e-04
4.21493478260870e+00 2.20976136389921e-02 3.84335165598776e-04
4.23176086956522e+00 2.17681717406571e-02 3.79360262253711e-04
4.24858695652174e+00 2.14436413217963e-02 3.74446794909960e-04
4.26541304347826e+00 2.11239491589540e-02 3.69594068339718e-04
4.28223913043478e+00 2.08090231210796e-02 3.64801393095101e-04
4.29906521739130e+00 2.04987921531896e-02 3.60068086738411e-04
4.31589130434783e+00 2.01931862582073e-02 3.55393473200895e-04
4.33271739130435e+00 1.98921364833187e-02 3.50776882158923e-04
4.34954347826087e+00 1.95955749043546e-02 3.46217650197873e-04
4.36636956521739e+00 1.93034346084560e-02 3.41715120198393e-04
4.38319565217391e+00 1.90156496810064e-02 3.37268640917787e-04
4.40002173913043e+00 1.87321551900756e-02 3.32877567377791e-04
4.41684782608696e+00 1.84528871723860e-02 3.28541261167890e-04
4.43367391304348e+00 1.81777826170141e-02 3.24259090061442e-04
4.45050000000000e+00 1.79067794530586e-02 3.20030427451991e-04
4.46732608695652e+00 1.76398165355829e-02 3.15854653378924e-04
4.48415217391304e+00 1.73768336300566e-02 3.11731153973217e-04
4.50097826086957e+00 1.71177714005446e-02 3.07659320918129e-04
4.51780434782609e+00 1.68625713962704e-02 3.03638552419805e-04
4.53463043478261e+00 1.66111760367625e-02 2.99668252677077e-04
4.55145652173913e+00 1.63635286005444e-02 2.95747831515902e-04
4.56828260869565e+00 1.61195732117711e-02 2.91876704705390e-04
4.58510869565217e+00 1.58792548281317e-02 2.88054294202787e-04
4.60193478260870e+00 1.56425192268836e-02 2.84280027817876e-04
4.61876086956522e+00 1.54093129941816e-02 2.80553338726010e-04
4.63558695652174e+00 1.51795835129818e-02 2.76873666323959e-04
4.65241304347826e+00 1.49532789497089e-02 2.73240455751061e-04
4.66923913043478e+00 1.47303482440367e-02 2.69653157423186e-04
4.68606521739131e+00 1.45107410973269e-02 2.66111227842882e-04
4.70289130434783e+00 1.42944079598993e-02 2.62614129141528e-04
4.71971739130435e+00 1.40813000212464e-02 2.59161328633648e-04
4.73654347826087e+00 1.38713691989824e-02 2.55752299583839e-04
4.75336956521739e+00 1.36645681266885e-02 2.52386520768652e-04
4.77019565217391e+00 1.34608501445448e-02 2.49063476171224e-04
4.78702173913044e+00 1.32601692883584e-02 2.45782655223224e-04
4.80384782608696e+00 1.30624802795934e-02 2.42543552990096e-04
4.82067391304348e+00 1.28677385139405e-02 2.39345669890295e-04
4.83750000000000e+00 1.26759000524797e-02 2.36188511292859e-04
4.85432608695652e+00 1.24869216117324e-02 2.33071588194134e-04
4.87115217391304e+00 1.23007605527478e-02 2.29994416822383e-04
4.88797826086957e+00 1.21173748726414e-02 2.26956518252829e-04
4.90480434782609e+00 1.19367231950860e-02 2.23957419048424e-04
4.92163043478261e+00 1.17587647598911e-02 2.20996650881682e-04
4.93845652173913e+00 1.15834594149024e-02 2.18073750268660e-04
4.95528260869565e+00 1.14107676065731e-02 2.15188258766215e-04
4.97210869565217e+00 1.12406503713728e-02 2.12339723121496e-04
4.98893478260870e+00 1.10730693259868e-02 2.09527695027128e-04
5.00576086956522e+00 1.09079866596757e-02 2.06751730773809e-04
5.02258695652174e+00 1.07453651257157e-02 2.04011391815986e-04
5.03941304347826e+00 1.05851680320403e-02 2.01306244430492e-04
5.05623913043478e+00 1.04273592339256e-02 1.98635859384126e-04
5.07306521739130e+00 1.02719031258090e-02 1.95999812469406e-04
5.08989130434783e+00 1.01187646323519e-02 1.93397684178187e-04
5.10671739130435e+00 9.96790920143868e-03 1.90829059383801e-04
5.12354347826087e+00 9.81930279635476e-03 1.88293527848494e-04
5.14036956521739e+00 9.67291188725342e-03 1.85790683911158e-04
5.15719565217391e+00 9.52870344445332e-03 1.83320126265649e-04
5.17402173913044e+00 9.38664493069542e-03 1.80881458111792e-04
5.19084782608696e+00 9.24670429406413e-03 1.78474287268193e-04
5.20767391304348e+00 9.10884995996055e-03 1.76098225967949e-04
5.22450000000000e+00 8.97305082478136e-03 1.73752890571760e-04
5.24132608695652e+00 8.83927624887910e-03 1.71437902016132e-04
5.25815217391304e+00 8.70749604889667e-03 1.69152885531663e-04
5.27497826086957e+00 8.57768049171689e-03 1.66897470368642e-04
5.29180434782609e+00 8.44980028773323e-03 1.64671290221641e-04
5.30863043478261e+00 8.32382658352928e-03 1.62473982960083e-04
