Energy (eV)          EEDF (eV^-(3/2))     First Anisotropy
2.57608695652174e-02 6.24872311085511e-02 3.45264652025551e-05
7.72826086956522e-02 6.20200592402148e-02 5.69914791501493e-05
1.28804347826087e-01 6.15563800790477e-02 7.51782003139483e-05
1.80326086956522e-01 6.10961675119576e-02 8.89601453263737e-05
2.31847826086957e-01 6.06393956194149e-02 1.00425818821838e-04
2.83369565217391e-01 6.01860386807975e-02 1.10365550801856e-04
3.34891304347826e-01 5.97360711647347e-02 1.19188678793037e-04
3.86413043478261e-01 5.92894677308455e-02 1.27142590329722e-04
4.37934782608696e-01 5.88462032282409e-02 1.34391488623102e-04
4.89456521739130e-01 5.84062526940911e-02 1.41051521307925e-04
5.40978260869565e-01 5.79695913522270e-02 1.47208734769484e-04
5.92500000000000e-01 5.75361946117186e-02 1.52929165469972e-04
6.44021739130435e-01 5.71060380648006e-02 1.58264925783930e-04
6.95543478260870e-01 5.66790974876325e-02 1.63258080513352e-04
7.47065217391304e-01 5.62553488367139e-02 1.67943226123087e-04
7.98586956521739e-01 5.58347682483042e-02 1.72349268983693e-04
8.50108695652174e-01 5.54173320370736e-02 1.76500688951027e-04
9.01630434782609e-01 5.50030166947757e-02 1.80418460095628e-04
9.53152173913044e-01 5.45917988889223e-02 1.84120736440389e-04
1.00467391304348e+00 5.41836554614659e-02 1.87623372376718e-04
1.05619565217391e+00 5.37785634282486e-02 1.90940324694386e-04
1.10771739130435e+00 5.33764999750482e-02 1.94083966976039e-04
1.15923913043478e+00 5.29774424593968e-02 1.97065339155965e-04
1.21076086956522e+00 5.25813684081034e-02 1.99894348444163e-04
1.26228260869565e+00 5.21882555159718e-02 2.02579931985692e-04
1.31380434782609e+00 5.17980816445822e-02 2.05130190298963e-04
1.36532608695652e+00 5.14108248210247e-02 2.07552497622528e-04
1.41684782608696e+00 5.10264632366621e-02 2.09853593898175e-04
1.46836956521739e+00 5.06449752459021e-02 2.12039661676590e-04
1.51989130434783e+00 5.02663393674990e-02 2.14116392511708e-04
1.57141304347826e+00 4.98905342756731e-02 2.16089041847026e-04
1.62293478260870e+00 4.95175388066977e-02 2.17962475899577e-04
1.67445652173913e+00 4.91473319550705e-02 2.19741213723155e-04
1.72597826086957e+00 4.87798928723302e-02 2.21429462296330e-04
1.77750000000000e+00 4.84152008658835e-02 2.23031147347026e-04
1.82902173913043e+00 4.80532353978352e-02 2.24549940271386e-04
1.88054347826087e+00 4.76939760838372e-02 2.25989281741984e-04
1.93206521739130e+00 4.73374026919429e-02 2.27352402497730e-04
1.98358695652174e+00 4.69834951414647e-02 2.28642341718290e-04
2.03510869565217e+00 4.66322335018426e-02 2.29861963320786e-04
2.08663043478261e+00 4.62835979915226e-02 2.31013970194137e-04
2.13815217391304e+00 4.59375689784724e-02 2.32100917963886e-04
2.18967391304348e+00 4.55941269741271e-02 2.33125226039722e-04
2.24119565217391e+00 4.52532526373013e-02 2.34089187478026e-04
2.29271739130435e+00 4.49149267714091e-02 2.34994979194639e-04
2.34423913043478e+00 4.45791303233829e-02 2.35844670151673e-04
2.39576086956522e+00 4.42458443826009e-02 2.36640229022172e-04
2.44728260869565e+00 4.39150501798177e-02 2.37383531141950e-04
2.49880434782609e+00 4.35867290861158e-02 2.38076364832370e-04
2.55032608695652e+00 4.32608626118524e-02 2.38720437163660e-04
2.60184782608696e+00 4.29374324056178e-02 2.39317379215934e-04
2.65336956521739e+00 4.26164202532022e-02 2.39868750673719e-04
2.70489130434783e+00 4.22978080777513e-02 2.40376044904880e-04
2.75641304347826e+00 4.19815779351671e-02 2.40840692567828e-04
2.80793478260870e+00 4.16677120167170e-02 2.41264064891250e-04
2.85945652173913e+00 4.13561926468111e-02 2.41647477791861e-04
2.91097826086957e+00 4.10470022820066e-02 2.41992194819340e-04
2.96250000000000e+00 4.07401235100203e-02 2.42299430090579e-04
3.01402173913043e+00 4.04355390487466e-02 2.42570351006436e-04
3.06554347826087e+00 4.01332317452854e-02 2.42806080770804e-04
3.11706521739130e+00 3.98331845749778e-02 2.43007700730980e-04
3.16858695652174e+00 3.95353806404455e-02 2.43176252553764e-04
3.22010869565217e+00 3.92398031706394e-02 2.43312740251287e-04
3.27163043478261e+00 3.89464355198953e-02 2.43418131888653e-04
3.32315217391304e+00 3.86552611678745e-02 2.43493361895457e-04
3.37467391304348e+00 3.83662637159745e-02 2.43539332346143e-04
3.42619565217391e+00 3.80794268890897e-02 2.43556914130994e-04
3.47771739130435e+00 3.77947345337919e-02 2.43546948961034e-04
3.52923913043478e+00 3.75121706174199e-02 2.43510250534628e-04
3.58076086956522e+00 3.72317192271773e-02 2.43447605809501e-04
3.63228260869565e+00 3.69533645692343e-02 2.43359776197130e-04
3.68380434782609e+00 3.66770909678417e-02 2.43247498686873e-04
3.73532608695652e+00 3.64028828644464e-02 2.43111486905030e-04
3.78684782608696e+00 3.61307248168153e-02 2.42952432111950e-04
3.83836956521739e+00 3.58606014981655e-02 2.42771003988808e-04
3.88989130434783e+00 3.55924976969902e-02 2.42567851991460e-04
3.94141304347826e+00 3.53263983141172e-02 2.42343605877682e-04
3.99293478260870e+00 3.50622883639618e-02 2.42098876185706e-04
4.04445652173913e+00 3.48001529729757e-02 2.41834255461337e-04
4.09597826086957e+00 3.45399773788095e-02 2.41550318810059e-04
4.14750000000000e+00 3.42817469294807e-02 2.41247624571836e-04
4.19902173913044e+00 3.40254470825489e-02 2.40926714961091e-04
4.25054347826087e+00 3.37710634042968e-02 2.40588116674141e-04
4.30206521739130e+00 3.35185815689180e-02 2.40232341466822e-04
4.35358695652174e+00 3.32679873577096e-02 2.39859886703445e-04
4.40510869565217e+00 3.30192666582719e-02 2.39471235878879e-04
4.45663043478261e+00 3.27724054637130e-02 2.39066858984772e-04
4.50815217391304e+00 3.25273898724037e-02 2.38647213378311e-04
4.55967391304348e+00 3.22842060855514e-02 2.38212743968768e-04
4.61119565217391e+00 3.20428404080798e-02 2.37763883380259e-04
4.66271739130435e+00 3.18032792473008e-02 2.37301052766446e-04
4.71423913043478e+00 3.15655091121487e-02 2.36824662067455e-04
4.76576086956522e+00 3.13295166124209e-02 2.36335110384925e-04
4.81728260869565e+00 3.10952884580230e-02 2.35832786340056e-04
4.86880434782609e+00 3.08628114582215e-02 2.35318068416441e-04
4.92032608695652e+00 3.06320725209004e-02 2.34791325288533e-04
4.97184782608696e+00 3.04030586518242e-02 2.34252916135631e-04
5.02336956521739e+00 3.01757569539056e-02 2.33703190829359e-04
5.07489130434783e+00 2.99501546269232e-02 2.33142490564678e-04
5.12641304347826e+00 2.97262389654590e-02 2.32571147907051e-04
5.17793478260870e+00 2.95039973595354e-02 2.31989486825771e-04
5.22945652173913e+00 2.92834172934502e-02 2.31397823298625e-04
5.28097826086957e+00 2.90644863450721e-02 2.30796465439160e-04
5.33250000000000e+00 2.88471921851410e-02 2.30185713731836e-04
5.38402173913043e+00 2.86315225765735e-02 2.29565861257851e-04
5.43554347826087e+00 2.84174653737741e-02 2.28937193912238e-04
5.48706521739130e+00 2.82050085219514e-02 2.28299990613018e-04
5.53858695652174e+00 2.79941400564386e-02 2.27654523502371e-04
5.59010869565217e+00 2.77848481020203e-02 2.27001058140155e-04
5.64163043478261e+00 2.75771208722634e-02 2.26339853592471e-04
5.69315217391304e+00 2.73709466692150e-02 2.25671162906945e-04
5.74467391304348e+00 2.71663138816506e-02 2.24995233087891e-04
5.79619565217391e+00 2.69632109855217e-02 2.24312305063002e-04
5.84771739130435e+00 2.67616265429367e-02 2.23622614146322e-04
5.89923913043478e+00 2.65615492015168e-02 2.22926390092409e-04
5.95076086956522e+00 2.63629676937566e-02 2.22223857246433e-04
6.00228260869565e+00 2.61658708363896e-02 2.21515234688838e-04
6.05380434782609e+00 2.59702475297585e-02 2.20800736375247e-04
6.10532608695652e+00 2.57760867571904e-02 2.20080571271865e-04
6.15684782608696e+00 2.55833775843758e-02 2.19354943486046e-04
6.20836956521739e+00 2.53921091587532e-02 2.18624052306667e-04
6.25989130434783e+00 2.52022707092003e-02 2.17888092585620e-04
6.31141304347826e+00 2.50138515445134e-02 2.17147254682335e-04
6.36293478260870e+00 2.48268410537262e-02 2.16401724402434e-04
6.41445652173913e+00 2.46412287052027e-02 2.15651683373267e-04
6.46597826086957e+00 2.44570040460445e-02 2.14897309062297e-04
6.51750000000000e+00 2.42741567015018e-02 2.14138774880946e-04
6.56902173913044e+00 2.40926763743892e-02 2.13376250285158e-04
6.62054347826087e+00 2.39125528445058e-02 2.12609900872785e-04
6.67206521739130e+00 2.37337759680601e-02 2.11839888478155e-04
6.72358695652174e+00 2.35563356770982e-02 2.11066371263748e-04
6.77510869565217e+00 2.33802219789370e-02 2.10289503808981e-04
6.82663043478261e+00 2.32054249556016e-02 2.09509437121466e-04
6.87815217391304e+00 2.30319347635179e-02 2.08726318946741e-04
6.92967391304348e+00 2.28597416321987e-02 2.07940293698026e-04
6.98119565217391e+00 2.26888358644588e-02 2.07151502381775e-04
7.03271739130435e+00 2.25192078356115e-02 2.06360082905080e-04
7.08423913043478e+00 2.23508479929274e-02 2.05566170072521e-04
7.13576086956522e+00 2.21837468550954e-02 2.04769895658409e-04
7.18728260869565e+00 2.20178950116896e-02 2.03971388476809e-04
7.23880434782609e+00 2.18532831226388e-02 2.03170774449694e-04
7.29032608695652e+00 2.16899019177010e-02 2.02368176673290e-04
7.34184782608696e+00 2.15277421959411e-02 2.01563715482449e-04
7.39336956521739e+00 2.13667948252127e-02 2.00757508447043e-04
7.44489130434783e+00 2.12070507418575e-02 1.99949670632832e-04
7.49641304347826e+00 2.10485009495493e-02 1.99140314526862e-04
7.54793478260870e+00 2.08911365194375e-02 1.98329549959600e-04
7.59945652173913e+00 2.07349485894263e-02 1.97517484365245e-04
7.65097826086957e+00 2.05799283636751e-02 1.96704222767892e-04
7.70250000000000e+00 2.04260671121035e-02 1.95889867834777e-04
7.75402173913043e+00 2.02733561698997e-02 1.95074519928007e-04
7.80554347826087e+00 2.01217869370320e-02 1.94258277154992e-04
7.85706521739130e+00 1.99713508777655e-02 1.93441235417624e-04
7.90858695652174e+00 1.98220395201805e-02 1.92623488460167e-04
7.96010869565217e+00 1.96738444556957e-02 1.91805127915907e-04
8.01163043478261e+00 1.95267573385949e-02 1.90986243294376e-04
8.06315217391304e+00 1.93807698857368e-02 1.90166922201324e-04
8.11467391304348e+00 1.92358738755445e-02 1.89347250264377e-04
8.16619565217391e+00 1.90920611480903e-02 1.88527311056058e-04
8.21771739130435e+00 1.89493236044524e-02 1.87707186314223e-04
8.26923913043478e+00 1.88076532062589e-02 1.86886955922011e-04
8.32076086956522e+00 1.86670419752350e-02 1.86066697946959e-04
8.37228260869565e+00 1.85274819927533e-02 1.85246488679071e-04
8.42380434782609e+00 1.83889653993888e-02 1.84426402668006e-04
8.47532608695652e+00 1.82514843944753e-02 1.83606512759522e-04
8.52684782608696e+00 1.81150312356668e-02 1.82786890130846e-04
8.57836956521739e+00 1.79795982385012e-02 1.81967604273510e-04
8.62989130434783e+00 1.78451777761225e-02 1.81148723183361e-04
8.68141304347826e+00 1.77117622783832e-02 1.80330313288985e-04
8.73293478260870e+00 1.75793442318893e-02 1.79512439378016e-04
8.78445652173913e+00 1.74479161794191e-02 1.78695164788087e-04
8.83597826086956e+00 1.73174707195031e-02 1.77878551384126e-04
8.88750000000000e+00 1.71880005060071e-02 1.77062659588386e-04
8.93902173913044e+00 1.70594982477188e-02 1.76247548409733e-04
8.99054347826087e+00 1.69319567079369e-02 1.75433275472329e-04
9.04206521739130e+00 1.68053687040636e-02 1.74619897043651e-04
9.09358695652174e+00 1.66797271072006e-02 1.73807468061917e-04
9.14510869565217e+00 1.65550248417468e-02 1.72996042162844e-04
9.19663043478261e+00 1.64312548850004e-02 1.72185671660070e-04
9.24815217391304e+00 1.63084102668955e-02 1.71376407708702e-04
9.29967391304348e+00 1.61864840692103e-02 1.70568300238007e-04
9.35119565217391e+00 1.60654694255792e-02 1.69761397882382e-04
9.40271739130435e+00 1.59453595209717e-02 1.68955748146111e-04
9.45423913043478e+00 1.58261475913083e-02 1.68151397379526e-04
9.50576086956522e+00 1.57078269230794e-02 1.67348390801991e-04
9.55728260869565e+00 1.55903908529677e-02 1.66546772524215e-04
9.60880434782609e+00 1.54738327674726e-02 1.65746585570156e-04
9.66032608695652e+00 1.53581461025379e-02 1.64947871898576e-04
9.71184782608696e+00 1.52433243431821e-02 1.64150672423971e-04
9.76336956521739e+00 1.51293610231315e-02 1.63355026996289e-04
9.81489130434783e+00 1.50162497245707e-02 1.62560974544249e-04
9.86641304347826e+00 1.49039840774349e-02 1.61768553012566e-04
9.91793478260870e+00 1.47925577593999e-02 1.60977799297675e-04
9.96945652173913e+00 1.46819644954088e-02 1.60188749392412e-04
1.00209782608696e+01 1.45721980573188e-02 1.59401438246263e-04
1.00725000000000e+01 1.44632522638720e-02 1.58615900364242e-04
1.01240217391304e+01 1.43551209787384e-02 1.57832168741714e-04
1.01755434782609e+01 1.42477981134945e-02 1.57050275420408e-04
1.02270652173913e+01 1.41412776241564e-02 1.56270252702977e-04
1.02785869565217e+01 1.40355535109085e-02 1.55492130902459e-04
1.03301086956522e+01 1.39306198208469e-02 1.54715939875437e-04
1.03816304347826e+01 1.38264706435408e-02 1.53941708694392e-04
1.04331521739130e+01 1.37231001147576e-02 1.53169465257000e-04
1.04846739130435e+01 1.36205024130928e-02 1.52399237785961e-04
1.05361956521739e+01 1.35186717597081e-02 1.51631052648024e-04
1.05877173913043e+01 1.34176024209009e-02 1.50864935812741e-04
1.06392391304348e+01 1.33172887039245e-02 1.50100912539425e-04
1.06907608695652e+01 1.32177249604832e-02 1.49339007004691e-04
1.07422826086957e+01 1.31189055835553e-02 1.48579243729335e-04
1.07938043478261e+01 1.30208250071393e-02 1.47821645501390e-04
1.08453260869565e+01 1.29234777086639e-02 1.47066234764493e-04
1.08968478260870e+01 1.28268582050482e-02 1.46313033318906e-04
1.09483695652174e+01 1.27309610559825e-02 1.45562061965994e-04
1.09998913043478e+01 1.26357808609333e-02 1.44813341866621e-04
1.10514130434783e+01 1.25413122588963e-02 1.44066892562793e-04
1.11029347826087e+01 1.24475499306575e-02 1.43322733298917e-04
1.11544565217391e+01 1.23544885950789e-02 1.42580882736649e-04
1.12059782608696e+01 1.22621230121791e-02 1.41841358615423e-04
1.12575000000000e+01 1.21704479803089e-02 1.41104179046006e-04
1.13090217391304e+01 1.20794583359096e-02 1.40369360625578e-04
1.13605434782609e+01 1.19891489556377e-02 1.39636919395421e-04
1.14120652173913e+01 1.18995147536407e-02 1.38906871771619e-04
1.14635869565217e+01 1.18105506813214e-02 1.38179232718068e-04
1.15151086956522e+01 1.17222517293773e-02 1.37454016964895e-04
1.15666304347826e+01 1.16346129244231e-02 1.36731238744736e-04
1.16181521739130e+01 1.15476293317738e-02 1.36010911478903e-04
1.16696739130435e+01 1.14612960528716e-02 1.35293048970724e-04
1.17211956521739e+01 1.13756082250582e-02 1.34577663664155e-04
1.17727173913043e+01 1.12905610234908e-02 1.33864767804631e-04
1.18242391304348e+01 1.12061496579526e-02 1.33154373187053e-04
1.18757608695652e+01 1.11223693754707e-02 1.32446490856386e-04
1.19272826086957e+01 1.10392154578845e-02 1.31741132244453e-04
1.19788043478261e+01 1.09566832216262e-02 1.31038307509835e-04
1.20303260869565e+01 1.08747680195205e-02 1.30338026644148e-04
1.20818478260870e+01 1.07934652377728e-02 1.29640299231213e-04
1.21333695652174e+01 1.07127702984310e-02 1.28945134161133e-04
1.21848913043478e+01 1.06326786570892e-02 1.28252540713876e-04
1.22364130434783e+01 1.05531858026729e-02 1.27562526976308e-04
1.22879347826087e+01 1.04742872591331e-02 1.26875100896325e-04
1.23394565217391e+01 1.03959785825986e-02 1.26190270053037e-04
1.23909782608696e+01 1.03182553636945e-02 1.25508041383579e-04
1.24425000000000e+01 1.02411132253704e-02 1.24828422216199e-04
1.24940217391304e+01 1.01645478226918e-02 1.24151418760555e-04
1.25455434782609e+01 1.00885548444348e-02 1.23477036872082e-04
1.25970652173913e+01 1.00131300109890e-02 1.22805282795765e-04
1.26485869565217e+01 9.93826907415352e-03 1.22136161701667e-04
1.27001086956522e+01 9.86396781867028e-03 1.21469678659070e-04
1.27516304347826e+01 9.79022205962594e-03 1.20805838423664e-04
1.28031521739130e+01 9.71702764455236e-03 1.20144645184646e-04
1.28546739130435e+01 9.64438045144280e-03 1.19486103519702e-04
1.29061956521739e+01 9.57227638855458e-03 1.18830216997863e-04
1.29577173913043e+01 9.50071139585205e-03 1.18176989108579e-04
1.30092391304348e+01 9.42968144254889e-03 1.17526423058274e-04
1.30607608695652e+01 9.35918252908744e-03 1.16878521528934e-04
1.31122826086957e+01 9.28921068526051e-03 1.16233287588807e-04
1.31638043478261e+01 9.21976197002088e-03 1.15590723359226e-04
1.32153260869565e+01 9.15083247283991e-03 1.14950830900961e-04
1.32668478260870e+01 9.08241831138154e-03 1.14313612019706e-04
1.33183695652174e+01 9.01451563336804e-03 1.13679068035379e-04
1.33698913043478e+01 8.94712061480180e-03 1.13047200651065e-04
1.34214130434783e+01 8.88022945978053e-03 1.12418010680678e-04
1.34729347826087e+01 8.81383840177756e-03 1.11791498894382e-04
1.35244565217391e+01 8.74794370143937e-03 1.11167665832852e-04
1.35759782608696e+01 8.68254164834514e-03 1.10546511586755e-04
1.36275000000000e+01 8.61762855932238e-03 1.09928036625969e-04
1.36790217391304e+01 8.55320077826786e-03 1.09312240585101e-04
1.37305434782609e+01 8.48925467735442e-03 1.08699122876722e-04
1.37820652173913e+01 8.42578665540290e-03 1.08088683288741e-04
1.38335869565217e+01 8.36279313770653e-03 1.07480920805516e-04
1.38851086956522e+01 8.30027057719324e-03 1.06875834390450e-04
1.39366304347826e+01 8.23821545240992e-03 1.06273422813802e-04
1.39881521739130e+01 8.17662426912174e-03 1.05673684448289e-04
1.40396739130435e+01 8.11549355876875e-03 1.05076618036897e-04
1.40911956521739e+01 8.05481987829647e-03 1.04482221567267e-04
1.41427173913043e+01 7.99459981125161e-03 1.03890493018802e-04
1.41942391304348e+01 7.93482996587187e-03 1.03301430197963e-04
1.42457608695652e+01 7.87550697659557e-03 1.02715030542995e-04
1.42972826086957e+01 7.81662750259809e-03 1.02131291856806e-04
1.43488043478261e+01 7.75818822762834e-03 1.01550211232082e-04
1.44003260869565e+01 7.70018586104211e-03 1.00971785764604e-04
1.44518478260870e+01 7.64261713599131e-03 1.00396012395708e-04
1.45033695652174e+01 7.58547881084927e-03 9.98228877255943e-05
1.45548913043478e+01 7.52876766782282e-03 9.92524087131454e-05
1.46064130434783e+01 7.47248051279389e-03 9.86845716493526e-05
1.46579347826087e+01 7.41661417629478e-03 9.81193728382525e-05
1.47094565217391e+01 7.36116551179092e-03 9.75568084464081e-05
1.47609782608696e+01 7.30613139702706e-03 9.69968743243640e-05
1.48125000000000e+01 7.25150873271061e-03 9.64395666749942e-05
1.48640217391304e+01 7.19729444235835e-03 9.58848810729134e-05
1.49155434782609e+01 7.14348547321699e-03 9.53328129585476e-05
1.49670652173913e+01 7.09007879498912e-03 9.47833581198229e-05
1.50185869565217e+01 7.03707139968306e-03 9.42365117397824e-05
1.50701086956522e+01 6.98446030250027e-03 9.36922690278285e-05
1.51216304347826e+01 6.93224254025987e-03 9.31506250800294e-05
1.51731521739130e+01 6.88041517262522e-03 9.26115747134403e-05
1.52246739130435e+01 6.82897528089449e-03 9.20751130857956e-05
1.52761956521739e+01 6.77791996785581e-03 9.15412347855619e-05
1.53277173913043e+01 6.72724635862504e-03 9.10099344349790e-05
1.53792391304348e+01 6.67695159915063e-03 9.04812065563652e-05
1.54307608695652e+01 6.62703285737312e-03 8.99550454137657e-05
1.54822826086957e+01 6.57748732207656e-03 8.94314456048903e-05
1.55338043478261e+01 6.52831220274885e-03 8.89104011915855e-05
1.55853260869565e+01 6.47950473037286e-03 8.83919062759991e-05
1.56368478260870e+01 6.43106215600718e-03 8.78759548726889e-05
1.56883695652174e+01 6.38298175188229e-03 8.73625407571139e-05
1.57398913043478e+01 6.33526081030994e-03 8.68516580312564e-05
1.57914130434783e+01 6.28789664354799e-03 8.63433002926629e-05
1.58429347826087e+01 6.24088658454792e-03 8.58374611848368e-05
1.58944565217391e+01 6.19422798560726e-03 8.53341342749747e-05
1.59459782608696e+01 6.14791821940619e-03 8.48333129090111e-05
1.59975000000000e+01 6.10195467797153e-03 8.43349907521555e-05
1.60490217391304e+01 6.05633477254611e-03 8.38391609946646e-05
1.61005434782609e+01 6.01105593429523e-03 8.33458167512941e-05
1.61520652173913e+01 5.96611561330335e-03 8.28549514510512e-05
1.62035869565217e+01 5.92151127844611e-03 8.23665580654072e-05
1.62551086956522e+01 5.87724041807198e-03 8.18806296191437e-05
