Energy (eV)          EEDF (eV^-(3/2))     First Anisotropy
1.85000000000000e-02 2.13292816317245e+00 3.12875463751315e-03
5.55000000000000e-02 2.01334214055066e+00 5.03856887071303e-03
9.25000000000000e-02 1.90046089920259e+00 6.32105624569333e-03
1.29500000000000e-01 1.79390852486211e+00 7.11366930525065e-03
1.66500000000000e-01 1.69333017949658e+00 7.63737347883708e-03
2.03500000000000e-01 1.59839091963417e+00 7.98238447290595e-03
2.40500000000000e-01 1.50877458094352e+00 8.19850322323796e-03
2.77500000000000e-01 1.42418272535125e+00 8.31746688879795e-03
3.14500000000000e-01 1.34433364719104e+00 8.36127002747599e-03
3.51500000000000e-01 1.26896143507444e+00 8.34600649805845e-03
3.88500000000000e-01 1.19781508635956e+00 8.28390258612482e-03
4.25500000000000e-01 1.13065767126830e+00 8.18450052364260e-03
4.62500000000000e-01 1.06726554386886e+00 8.05539794222985e-03
4.99500000000000e-01 1.00742759729563e+00 7.90273586370677e-03
5.36500000000000e-01 9.50944560726443e-01 7.73153509111920e-03
5.73500000000000e-01 8.97628335775920e-01 7.54593647396824e-03
6.10500000000000e-01 8.47301370094941e-01 7.34937763171221e-03
6.47500000000000e-01 7.99796066090301e-01 7.14472618026853e-03
6.84500000000000e-01 7.54954222795420e-01 6.93438228294542e-03
7.21500000000000e-01 7.12626509033474e-01 6.72035900558531e-03
7.58500000000000e-01 6.72671966118469e-01 6.50434624914614e-03
7.95500000000000e-01 6.34957538438178e-01 6.28776229135295e-03
8.32500000000000e-01 5.99357630355693e-01 6.07179581675154e-03
8.69500000000000e-01 5.65753687953997e-01 5.85744053305113e-03
9.06500000000000e-01 5.34033804230701e-01 5.64552392989730e-03
9.43500000000000e-01 5.04092346428159e-01 5.43673135313034e-03
9.80500000000000e-01 4.75829604257921e-01 5.23162629179821e-03
1.01750000000000e+00 4.49151457848047e-01 5.03066757339219e-03
1.05450000000000e+00 4.23969064307472e-01 4.83422401289751e-03
1.09150000000000e+00 4.00198561863658e-01 4.64258694841204e-03
1.12850000000000e+00 3.77760790588223e-01 4.45598101005858e-03
1.16550000000000e+00 3.56581028780549e-01 4.27457340256600e-03
1.20250000000000e+00 3.36588744131452e-01 4.09848193016972e-03
1.23950000000000e+00 3.17717358838268e-01 3.92778195175641e-03
1.27650000000000e+00 2.99904027889125e-01 3.76251242181580e-03
1.31350000000000e+00 2.83089429778075e-01 3.60268114682332e-03
1.35050000000000e+00 2.67217568954103e-01 3.44826936572157e-03
1.38750000000000e+00 2.52235589346160e-01 3.29923574610947e-03
1.42450000000000e+00 2.38093598343199e-01 3.15551987376645e-03
1.46150000000000e+00 2.24744500643069e-01 3.01704530160321e-03
1.49850000000000e+00 2.12143841416914e-01 2.88372221455524e-03
1.53550000000000e+00 2.00249658266835e-01 2.75544975894259e-03
1.57250000000000e+00 1.89022341483758e-01 2.63211807811092e-03
1.60950000000000e+00 1.78424502140186e-01 2.51361009051116e-03
1.64650000000000e+00 1.68420847578532e-01 2.39980304158131e-03
1.68350000000000e+00 1.58978063880400e-01 2.29056985671331e-03
1.72050000000000e+00 1.50064704925415e-01 2.18578031910235e-03
1.75750000000000e+00 1.41651087670140e-01 2.08530209328469e-03
1.79450000000000e+00 1.33709193298361e-01 1.98900161259612e-03
1.83150000000000e+00 1.26212573913523e-01 1.89674484655955e-03
1.86850000000000e+00 1.19136264462615e-01 1.80839796228411e-03
1.90550000000000e+00 1.12456699598181e-01 1.72382789228396e-03
1.94250000000000e+00 1.06151635201588e-01 1.64290281966714e-03
1.97950000000000e+00 1.00200074306229e-01 1.56549259037058e-03
2.01650000000000e+00 9.45821971739504e-02 1.49146906100272e-03
2.05350000000000e+00 8.92792952918589e-02 1.42070638987639e-03
2.09050000000000e+00 8.42737090697046e-02 1.35308127795448e-03
2.12750000000000e+00 7.95487690303581e-02 1.28847316567308e-03
2.16450000000000e+00 7.50887402975372e-02 1.22676439093824e-03
2.20150000000000e+00 7.08787701959190e-02 1.16784031300150e-03
2.23850000000000e+00 6.69048387891342e-02 1.11158940639621e-03
2.27550000000000e+00 6.31537121909286e-02 1.05790332865299e-03
2.31250000000000e+00 5.96128984940083e-02 1.00667696510133e-03
2.34950000000000e+00 5.62706061698047e-02 9.57808453698732e-04
2.38650000000000e+00 5.31157048006232e-02 9.11199192503331e-04
2.42350000000000e+00 5.01376880134067e-02 8.66753832116976e-04
2.46050000000000e+00 4.73266384916767e-02 8.24380255167277e-04
2.49750000000000e+00 4.46731949491355e-02 7.83989544667447e-04
2.53450000000000e+00 4.21685209549469e-02 7.45495942887394e-04
2.57150000000000e+00 3.98042755068765e-02 7.08816802186254e-04
2.60850000000000e+00 3.75725852542965e-02 6.73872529092941e-04
2.64550000000000e+00 3.54660182785515e-02 6.40586522774887e-04
2.68250000000000e+00 3.34775593433702e-02 6.08885108904485e-04
2.71950000000000e+00 3.16005865329026e-02 5.78697469815720e-04
2.75650000000000e+00 2.98288491995826e-02 5.49955571738957e-04
2.79350000000000e+00 2.81564471483787e-02 5.22594089808303e-04
2.83050000000000e+00 2.65778109881133e-02 4.96550331452244e-04
2.86750000000000e+00 2.50876835844168e-02 4.71764158703550e-04
2.90450000000000e+00 2.36811025525505e-02 4.48177909897446e-04
2.94150000000000e+00 2.23533837317986e-02 4.25736321167261e-04
2.97850000000000e+00 2.11001055863939e-02 4.04386448093379e-04
3.01550000000000e+00 1.99170944810309e-02 3.84077587813501e-04
3.05250000000000e+00 1.88004107819305e-02 3.64761201859678e-04
3.08950000000000e+00 1.77463357371709e-02 3.46390839949500e-04
3.12650000000000e+00 1.67513590925938e-02 3.28922064924991e-04
3.16350000000000e+00 1.58121674020441e-02 3.12312379002543e-04
3.20050000000000e+00 1.49256329930154e-02 2.96521151470377e-04
3.23750000000000e+00 1.40888035509535e-02 2.81509547946174e-04
3.27450000000000e+00 1.32988922875329e-02 2.67240461286325e-04
3.31150000000000e+00 1.25532686601648e-02 2.53678444219503e-04
3.34850000000000e+00 1.18494496118299e-02 2.40789643760670e-04
3.38550000000000e+00 1.11850913020652e-02 2.28541737446995e-04
3.42250000000000e+00 1.05579813015648e-02 2.16903871424245e-04
3.45950000000000e+00 9.96603122440402e-03 2.05846600400901e-04
3.49650000000000e+00 9.40726977334915e-03 1.95341829477344e-04
3.53350000000000e+00 8.87983617509294e-03 1.85362757848777e-04
3.57050000000000e+00 8.38197398355429e-03 1.75883824373044e-04
3.60750000000000e+00 7.91202523060574e-03 1.66880654987988e-04
3.64450000000000e+00 7.46842490474981e-03 1.58330011957396e-04
3.68150000000000e+00 7.04969573935711e-03 1.50209744919777e-04
3.71850000000000e+00 6.65444329311023e-03 1.42498743710163e-04
3.75550000000000e+00 6.28135130627040e-03 1.35176892921693e-04
3.79250000000000e+00 5.92917731730250e-03 1.28225028170903e-04
3.82950000000000e+00 5.59674852526089e-03 1.21624894028314e-04
3.86650000000000e+00 5.28295788415732e-03 1.15359103574027e-04
3.90350000000000e+00 4.98676041630420e-03 1.09411099536566e-04
3.94050000000000e+00 4.70716973235631e-03 1.03765116972116e-04
3.97750000000000e+00 4.44325474646179e-03 9.84061474404699e-05
4.01450000000000e+00 4.19413657558350e-03 9.33199046335220e-05
4.05150000000000e+00 3.95898561266491e-03 8.84927914118342e-05
4.08850000000000e+00 3.73701876389354e-03 8.39118682047740e-05
4.12550000000000e+00 3.52749684086170e-03 7.95648227298387e-05
4.16250000000000e+00 3.32972209893987e-03 7.54399409870706e-05
4.19950000000000e+00 3.14303591366511e-03 7.15260794849066e-05
4.23650000000000e+00 2.96681658740646e-03 6.78126386543575e-05
4.27350000000000e+00 2.80047727900317e-03 6.42895374090665e-05
4.31050000000000e+00 2.64346404948104e-03 6.09471888095454e-05
4.34750000000000e+00 2.49525401733881e-03 5.77764767907030e-05
4.38450000000000e+00 2.35535361726133e-03 5.47687339126547e-05
4.42150000000000e+00 2.22329695646083e-03 5.19157200957402e-05
4.45850000000000e+00 2.09864426317246e-03 4.92096023016328e-05
4.49550000000000e+00 1.98098042213745e-03 4.66429351234289e-05
4.53250000000000e+00 1.86991359219673e-03 4.42086422486255e-05
4.56950000000000e+00 1.76507390139137e-03 4.18999987599290e-05
4.60650000000000e+00 1.66611221522431e-03 3.97106142398867e-05
4.64350000000000e+00 1.57269897398146e-03 3.76344166463816e-05
4.68050000000000e+00 1.48452309524023e-03 3.56656369270809e-05
4.71750000000000e+00 1.40129093791067e-03 3.37987943419770e-05
4.75450000000000e+00 1.32272532435934e-03 3.20286824641926e-05
4.79150000000000e+00 1.24856461735932e-03 3.03503558302515e-05
4.82850000000000e+00 1.17856184879251e-03 2.87591172120257e-05
4.86550000000000e+00 1.11248389720265e-03 2.72505054835680e-05
4.90250000000000e+00 1.05011071146007e-03 2.58202840570150e-05
4.93950000000000e+00 9.91234577952988e-04 2.44644298627041e-05
4.97650000000000e+00 9.35659428864900e-04 2.31791228495848e-05
5.01350000000000e+00 8.83200189234432e-04 2.19607359829203e-05
5.05050000000000e+00 8.33682160623389e-04 2.08058257171653e-05
5.08750000000000e+00 7.86940439340415e-04 1.97111229227770e-05
5.12450000000000e+00 7.42819367282876e-04 1.86735242465568e-05
5.16150000000000e+00 7.01172013568160e-04 1.76900838859432e-05
5.19850000000000e+00 6.61859685228164e-04 1.67580057584687e-05
5.23550000000000e+00 6.24751465337459e-04 1.58746360483650e-05
5.27250000000000e+00 5.89723777037045e-04 1.50374561130484e-05
5.30950000000000e+00 5.56659972001807e-04 1.42440757329323e-05
5.34650000000000e+00 5.25449941981205e-04 1.34922266887198e-05
5.38350000000000e+00 4.95989752119551e-04 1.27797566509924e-05
5.42050000000000e+00 4.68181294834766e-04 1.21046233675677e-05
5.45750000000000e+00 4.41931963102989e-04 1.14648891347195e-05
5.49450000000000e+00 4.17154342060996e-04 1.08587155389606e-05
5.53150000000000e+00 3.93765917899423e-04 1.02843584566665e-05
5.56850000000000e+00 3.71688803077359e-04 9.74016329937675e-06
5.60550000000000e+00 3.50849476943222e-04 9.22456049315129e-06
5.64250000000000e+00 3.31178540898130e-04 8.73606118087087e-06
5.67950000000000e+00 3.12610487286444e-04 8.27325313687094e-06
5.71650000000000e+00 2.95083481243816e-04 7.83479688377230e-06
5.75350000000000e+00 2.78539154776288e-04 7.41942200182986e-06
5.79050000000000e+00 2.62922412384664e-04 7.02592362156055e-06
5.82750000000000e+00 2.48181247586869e-04 6.65315909083100e-06
5.86450000000000e+00 2.34266569727274e-04 6.30004480798939e-06
5.90150000000000e+00 2.21132040496227e-04 5.96555321301277e-06
5.93850000000000e+00 2.08733919615386e-04 5.64870992901134e-06
5.97550000000000e+00 1.97030919174943e-04 5.34859104678541e-06
6.01250000000000e+00 1.85984066137670e-04 5.06432054547079e-06
6.04950000000000e+00 1.75556572551889e-04 4.79506784263263e-06
6.08650000000000e+00 1.65713713041163e-04 4.54004546747925e-06
6.12350000000000e+00 1.56422709162725e-04 4.29850685116409e-06
6.16050000000000e+00 1.47652620249530e-04 4.06974422842818e-06
6.19750000000000e+00 1.39374240372427e-04 3.85308664510773e-06
6.23450000000000e+00 1.31560001079310e-04 3.64789806629042e-06
6.27150000000000e+00 1.24183879587352e-04 3.45357558015225e-06
6.30850000000000e+00 1.17221312122588e-04 3.26954769274382e-06
6.34550000000000e+00 1.10649112118259e-04 3.09527270922095e-06
6.38250000000000e+00 1.04445392999485e-04 2.93023719723063e-06
6.41950000000000e+00 9.85894952971496e-05 2.77395452836939e-06
6.45650000000000e+00 9.30619178482541e-05 2.62596349382801e-06
6.49350000000000e+00 8.78442528536363e-05 2.48582699052408e-06
6.53050000000000e+00 8.29191245767815e-05 2.35313077420305e-06
6.56750000000000e+00 7.82701314795826e-05 2.22748227615936e-06
6.60450000000000e+00 7.38817916023509e-05 2.10850948039160e-06
6.64150000000000e+00 6.97394910061842e-05 1.99585985816160e-06
6.67850000000000e+00 6.58294351059956e-05 1.88919935707483e-06
6.71550000000000e+00 6.21386027321336e-05 1.78821144194075e-06
6.75250000000000e+00 5.86547027676113e-05 1.69259618480625e-06
6.78950000000000e+00 5.53661332165377e-05 1.60206940168333e-06
6.82650000000000e+00 5.22619425674440e-05 1.51636183361394e-06
6.86350000000000e+00 4.93317933228355e-05 1.43521836983183e-06
6.90050000000000e+00 4.65659275735181e-05 1.35839731089110e-06
6.93750000000000e+00 4.39551345030548e-05 1.28566966973703e-06
6.97450000000000e+00 4.14907197141368e-05 1.21681850879512e-06
7.01150000000000e+00 3.91644762747211e-05 1.15163831124961e-06
7.04850000000000e+00 3.69686573875114e-05 1.08993438477385e-06
7.08550000000000e+00 3.48959505917696e-05 1.03152229606134e-06
7.12250000000000e+00 3.29394534115430e-05 9.76227334588667e-07
7.15950000000000e+00 3.10926503692126e-05 9.23884004119956e-07
7.19650000000000e+00 2.93493912878141e-05 8.74335540537001e-07
7.23350000000000e+00 2.77038708098731e-05 8.27433454650147e-07
7.27050000000000e+00 2.61506090645500e-05 7.83037098712483e-07
7.30750000000000e+00 2.46844334187125e-05 7.41013255424136e-07
7.34450000000000e+00 2.33004612511627e-05 7.01235748274420e-07
7.38150000000000e+00 2.19940836926550e-05 6.63585072127633e-07
7.41850000000000e+00 2.07609502775562e-05 6.27948043013515e-07
7.45550000000000e+00 1.95969544560340e-05 5.94217466135837e-07
7.49250000000000e+00 1.84982199185286e-05 5.62291821162412e-07
7.52950000000000e+00 1.74610876869639e-05 5.32074963907322e-07
7.56650000000000e+00 1.64821039297112e-05 5.03475843561115e-07
7.60350000000000e+00 1.55580084597260e-05 4.76408234667624e-07
7.64050000000000e+00 1.46857238775552e-05 4.50790483086757e-07
7.67750000000000e+00 1.38623453230589e-05 4.26545265221198e-07
7.71450000000000e+00 1.30851308017187e-05 4.03599359821827e-07
7.75150000000000e+00 1.23514920533163e-05 3.81883431721471e-07
7.78850000000000e+00 1.16589859325745e-05 3.61331826879846e-07
7.82550000000000e+00 1.10053062730565e-05 3.41882378153991e-07
7.86250000000000e+00 1.03882762072286e-05 3.23476221238470e-07
7.89950000000000e+00 9.80584091711069e-06 3.06057620248023e-07
7.93650000000000e+00 9.25606079137303e-06 2.89573802442341e-07
7.97350000000000e+00 8.73710496609172e-06 2.73974801618298e-07
8.01050000000000e+00 8.24724522765164e-06 2.59213309719270e-07
8.04750000000000e+00 7.78485025749302e-06 2.45244536234370e-07
8.08450000000000e+00 7.34838019953553e-06 2.32026074982295e-07
8.12150000000000e+00 6.93638153218829e-06 2.19517777895373e-07
8.15850000000000e+00 6.54748222786892e-06 2.07681635439170e-07
8.19550000000000e+00 6.18038718391185e-06 1.96481663321778e-07
8.23250000000000e+00 5.83387390965005e-06 1.85883795164781e-07
8.26950000000000e+00 5.50678845530740e-06 1.75855780824758e-07
8.30650000000000e+00 5.19804156914421e-06 1.66367090070305e-07
8.34350000000000e+00 4.90660507005856e-06 1.57388821334761e-07
8.38050000000000e+00 4.63150842356344e-06 1.48893615279297e-07
8.41750000000000e+00 4.37183550973731e-06 1.40855572914792e-07
8.45450000000000e+00 4.12672157238456e-06 1.33250178043885e-07
8.49150000000000e+00 3.89535033924627e-06 1.26054223797024e-07
8.52850000000000e+00 3.67695130367085e-06 1.19245743048013e-07
8.56550000000000e+00 3.47079715869223e-06 1.12803942505707e-07
8.60250000000000e+00 3.27620137497051e-06 1.06709140289073e-07
8.63950000000000e+00 3.09251591452927e-06 1.00942706802830e-07
8.67650000000000e+00 2.91912907267578e-06 9.54870087404127e-08
8.71350000000000e+00 2.75546344091750e-06 9.03253560499805e-08
8.75050000000000e+00 2.60097398409084e-06 8.54419517077969e-08
8.78750000000000e+00 2.45514622529877e-06 8.08218441513594e-08
8.82450000000000e+00 2.31749453261286e-06 7.64508822323953e-08
8.86150000000000e+00 2.18756050183403e-06 7.23156725571150e-08
8.89850000000000e+00 2.06491142992645e-06 6.84035390880423e-08
8.93550000000000e+00 1.94913887404079e-06 6.47024848882983e-08
8.97250000000000e+00 1.83985729132815e-06 6.12011558954463e-08
9.00950000000000e+00 1.73670275501493e-06 5.78888066179023e-08
9.04650000000000e+00 1.63933174246313e-06 5.47552676525112e-08
9.08350000000000e+00 1.54741999117983e-06 5.17909149271984e-08
9.12050000000000e+00 1.46066141896647e-06 4.89866405776382e-08
9.15750000000000e+00 1.37876710461163e-06 4.63338253716505e-08
9.19450000000000e+00 1.30146432573281e-06 4.38243125995575e-08
9.23150000000000e+00 1.22849565056331e-06 4.14503833530237e-08
9.26850000000000e+00 1.15961808065941e-06 3.92047331189678e-08
9.30550000000000e+00 1.09460224167306e-06 3.70804496189880e-08
9.34250000000000e+00 1.03323161949525e-06 3.50709918283940e-08
9.37950000000000e+00 9.75301839226131e-07 3.31701701124064e-08
9.41650000000000e+00 9.20619984570888e-07 3.13721274203642e-08
9.45350000000000e+00 8.69003955394770e-07 2.96713214818918e-08
9.49050000000000e+00 8.20281861297795e-07 2.80625079519285e-08
9.52750000000000e+00 7.74291449189673e-07 2.65407244543204e-08
9.56450000000000e+00 7.30879562958656e-07 2.51012754763182e-08
9.60150000000000e+00 6.89901633434905e-07 2.37397180688409e-08
9.63850000000000e+00 6.51221196949892e-07 2.24518483097450e-08
9.67550000000000e+00 6.14709440888524e-07 2.12336884895898e-08
9.71250000000000e+00 5.80244774720620e-07 2.00814749815309e-08
9.74950000000000e+00 5.47712425083185e-07 1.89916467589981e-08
9.78650000000000e+00 5.17004053565057e-07 1.79608345267315e-08
9.82350000000000e+00 4.88017395921052e-07 1.69858504325704e-08
9.86050000000000e+00 4.60655921514155e-07 1.60636783291132e-08
9.89750000000000e+00 4.34828511851623e-07 1.51914645559959e-08
9.93450000000000e+00 4.10449157144476e-07 1.43665092150879e-08
9.97150000000000e+00 3.87436669879866e-07 1.35862579123675e-08
1.00085000000000e+01 3.65714414452466e-07 1.28482939416279e-08
1.00455000000000e+01 3.45210051954509e-07 1.21503308864824e-08
1.00825000000000e+01 3.25855299274576e-07 1.14902056183828e-08
1.01195000000000e+01 3.07585701702903e-07 1.08658716695448e-08
1.01565000000000e+01 2.90340418285931e-07 1.02753929607949e-08
1.01935000000000e+01 2.74062019215289e-07 9.71693786541349e-09
1.02305000000000e+01 2.58696294576500e-07 9.18877359105073e-09
1.02675000000000e+01 2.44192073820486e-07 8.68926086274408e-09
1.03045000000000e+01 2.30501055356695e-07 8.21684889096809e-09
1.03415000000000e+01 2.17577645700361e-07 7.77007060949927e-09
1.03785000000000e+01 2.05378807638231e-07 7.34753816868755e-09
1.04155000000000e+01 1.93863916907120e-07 6.94793867049180e-09
1.04525000000000e+01 1.82994626908013e-07 6.57003013236167e-09
1.04895000000000e+01 1.72734741005189e-07 6.21263766773558e-09
1.05265000000000e+01 1.63050091985095e-07 5.87464987157438e-09
1.05635000000000e+01 1.53908428273554e-07 5.55501539996704e-09
1.06005000000000e+01 1.45279306532382e-07 5.25273973342820e-09
1.06375000000000e+01 1.37133990277752e-07 4.96688211405983e-09
1.06745000000000e+01 1.29445354182683e-07 4.69655264727278e-09
1.07115000000000e+01 1.22187793744952e-07 4.44090955925986e-09
1.07485000000000e+01 1.15337140019631e-07 4.19915660188126e-09
1.07855000000000e+01 1.08870579132277e-07 3.97054059706788e-09
1.08225000000000e+01 1.02766576304734e-07 3.75434911326893e-09
1.08595000000000e+01 9.70048041405690e-08 3.54990826686871e-09
1.08965000000000e+01 9.15660749312773e-08 3.35658064187546e-09
1.09335000000000e+01 8.64322767578665e-08 3.17376332154195e-09
1.09705000000000e+01 8.15863131749970e-08 3.00088602591621e-09
1.10075000000000e+01 7.70120462768311e-08 2.83740934964150e-09
1.10445000000000e+01 7.26942429549857e-08 2.68282309462782e-09
1.10815000000000e+01 6.86185241696181e-08 2.53664469250450e-09
1.11185000000000e+01 6.47713170647103e-08 2.39841771203567e-09
1.11555000000000e+01 6.11398097680856e-08 2.26771044693796e-09
1.11925000000000e+01 5.77119087256345e-08 2.14411457978342e-09
1.12295000000000e+01 5.44761984276658e-08 2.02724391790182e-09
1.12665000000000e+01 5.14219033932635e-08 1.91673319741478e-09
1.13035000000000e+01 4.85388522860519e-08 1.81223695174161e-09
1.13405000000000e+01 4.58174440418674e-08 1.71342844111192e-09
1.13775000000000e+01 4.32486158955367e-08 1.61999863980636e-09
1.14145000000000e+01 4.08238132002842e-08 1.53165527802199e-09
1.14515000000000e+01 3.85349609392631e-08 1.44812193542487e-09
1.14885000000000e+01 3.63744368343375e-08 1.36913718361030e-09
1.15255000000000e+01 3.43350459625641e-08 1.29445377483978e-09
1.15625000000000e+01 3.24099967958407e-08 1.22383787456488e-09
1.15995000000000e+01 3.05928785839307e-08 1.15706833538160e-09
1.16365000000000e+01 2.88776400055442e-08 1.09393601018541e-09
1.16735000000000e+01 2.72585690163798e-08 1.03424310241647e-09
