Energy (eV)          EEDF (eV^-(3/2))     First Anisotropy
6.22500000000000e-01 5.33810925403676e-02 1.30726288836443e-04
1.86750000000000e+00 4.48980225420997e-02 1.99384329322868e-04
3.11250000000000e+00 3.77630417861250e-02 2.22880399677145e-04
4.35750000000000e+00 3.17619183250990e-02 2.23498336889251e-04
5.60250000000000e+00 2.67144649364799e-02 2.13807557805867e-04
6.84750000000000e+00 2.24691288963633e-02 1.99117791376050e-04
8.09250000000000e+00 1.88984415207948e-02 1.82226022931647e-04
9.33750000000000e+00 1.58951908443904e-02 1.64727196127571e-04
1.05825000000000e+01 1.33692025187146e-02 1.47551923470508e-04
1.18275000000000e+01 1.12446322750182e-02 1.31235020998983e-04
1.30725000000000e+01 9.45768865595268e-03 1.16065837703423e-04
1.43175000000000e+01 7.95471763995866e-03 1.02178614228631e-04
1.55625000000000e+01 6.69059164806008e-03 8.96093295095169e-05
1.68075000000000e+01 5.62735456205632e-03 7.83325194352639e-05
1.80525000000000e+01 4.73308206999569e-03 6.82855419260218e-05
1.92975000000000e+01 3.98092312013990e-03 5.93847010157751e-05
2.05425000000000e+01 3.34829370251735e-03 5.15359627121739e-05
2.17875000000000e+01 2.81619875088755e-03 4.46420181542941e-05
2.30325000000000e+01 2.36866180482849e-03 3.86068538066151e-05
2.42775000000000e+01 1.99224530721957e-03 3.33386112891609e-05
2.55225000000000e+01 1.67564713377299e-03 2.87512733848994e-05
2.67675000000000e+01 1.40936124017793e-03 2.47655482888062e-05
2.80125000000000e+01 1.18539223759086e-03 2.13092120736497e-05
2.92575000000000e+01 9.97015326434874e-04 1.83170917860768e-05
3.05025000000000e+01 8.38574380380865e-04 1.57308172800921e-05
3.17475000000000e+01 7.05312117864505e-04 1.34984315340511e-05
3.29925000000000e+01 5.93227261940168e-04 1.15739219317644e-05
3.42375000000000e+01 4.98954399613242e-04 9.91671553598945e-06
3.54825000000000e+01 4.19662933357437e-04 8.49116748469991e-06
3.67275000000000e+01 3.52972090777600e-04 7.26606172043925e-06
3.79725000000000e+01 2.96879440533755e-04 6.21413620709521e-06
3.92175000000000e+01 2.49700768175376e-04 5.31163980212429e-06
4.04625000000000e+01 2.10019506622870e-04 4.53792446426033e-06
4.17075000000000e+01 1.76644202917048e-04 3.87507407354195e-06
4.29525000000000e+01 1.48572744151001e-04 3.30756952130883e-06
4.41975000000000e+01 1.24962268447183e-04 2.82198867310960e-06
4.54425000000000e+01 1.05103857539274e-04 2.40673915664382e-06
4.66875000000000e+01 8.84012510888844e-05 2.05182156236906e-06
4.79325000000000e+01 7.43529436220725e-05 1.74862048022986e-06
4.91775000000000e+01 6.25371265357831e-05 1.48972076931294e-06
5.04225000000000e+01 5.25990230491904e-05 1.26874652242907e-06
5.16675000000000e+01 4.42402358244939e-05 1.08022031163545e-06
5.29125000000000e+01 3.72097874132847e-05 9.19440459854741e-07
5.41575000000000e+01 3.12965845126726e-05 7.82374261219610e-07
5.54025000000000e+01 2.63230797660824e-05 6.65565256853787e-07
5.66475000000000e+01 2.21399408005996e-05 5.66052855493308e-07
5.78925000000000e+01 1.86215664356135e-05 4.81302764376099e-07
5.91375000000000e+01 1.56623154343111e-05 4.09146861873509e-07
6.03825000000000e+01 1.31733345640951e-05 3.47731297507123e-07
6.16275000000000e+01 1.10798907265920e-05 2.95471746391448e-07
6.28725000000000e+01 9.31912705290447e-06 2.51014873566243e-07
6.41175000000000e+01 7.83817558956090e-06 2.13205179400216e-07
6.53625000000000e+01 6.59256990746150e-06 1.81056500835629e-07
6.66075000000000e+01 5.54490997147994e-06 1.53727535463311e-07
6.78525000000000e+01 4.66373918265458e-06 1.30500837133759e-07
6.90975000000000e+01 3.92259987550751e-06 1.10764803928002e-07
7.03425000000000e+01 3.29923891124921e-06 9.39982427375288e-08
7.15875000000000e+01 2.77493951434253e-06 7.97571503132709e-08
7.28325000000000e+01 2.33395929043039e-06 6.76633992715265e-08
7.40775000000000e+01 1.96305755178847e-06 5.73950599650556e-08
7.53225000000000e+01 1.65109775797466e-06 4.86781260541872e-08
7.65675000000000e+01 1.38871313472459e-06 4.12794436956813e-08
7.78125000000000e+01 1.16802543110606e-06 3.50006720936782e-08
7.90575000000000e+01 9.82408370452304e-07 2.96731272543674e-08
8.03025000000000e+01 8.26288692550833e-07 2.51533816242014e-08
8.15475000000000e+01 6.94978813263800e-07 2.13195102880263e-08
8.27925000000000e+01 5.84536077087666e-07 1.80678899274625e-08
8.40375000000000e+01 4.91644376628416e-07 1.53104701163461e-08
8.52825000000000e+01 4.13514584548205e-07 1.29724480445247e-08
8.65275000000000e+01 3.47800808394707e-07 1.09902876637511e-08
8.77725000000000e+01 2.92529953815716e-07 9.31003275818928e-09
8.90175000000000e+01 2.46042481253552e-07 7.88587074742027e-09
9.02625000000000e+01 2.06942577304548e-07 6.67891029734126e-09
9.15075000000000e+01 1.74056244609712e-07 5.65614118767905e-09
9.27525000000000e+01 1.46396051901158e-07 4.78954948856970e-09
9.39975000000000e+01 1.23131485803932e-07 4.05536504060155e-09
9.52425000000000e+01 1.03564014188855e-07 3.43342160607653e-09
9.64875000000000e+01 8.71061123390337e-08 2.90661294447156e-09
9.77325000000000e+01 7.32636221784928e-08 2.46043053155669e-09
9.89775000000000e+01 6.16209148885141e-08 2.08257074911527e-09
1.00222500000000e+02 5.18284114105974e-08 1.76260117214679e-09
1.01467500000000e+02 4.35920861318928e-08 1.49167711703841e-09
1.02712500000000e+02 3.66646385951512e-08 1.26230092545836e-09
1.03957500000000e+02 3.08380681586499e-08 1.06811757726735e-09
1.05202500000000e+02 2.59374286559395e-08 9.03741179538954e-10
1.06447500000000e+02 2.18155755354360e-08 7.64607691808669e-10
1.07692500000000e+02 1.83487477596716e-08 6.46849940478894e-10
1.08937500000000e+02 1.54328518081577e-08 5.47191565484295e-10
1.10182500000000e+02 1.29803362088847e-08 4.62857044919513e-10
1.11427500000000e+02 1.09175627544496e-08 3.91495371222941e-10
1.12672500000000e+02 9.18259547204643e-09 3.31115316699507e-10
1.13917500000000e+02 7.72334095985681e-09 2.80030536054392e-10
1.15162500000000e+02 6.49598425235957e-09 2.36813017227716e-10
1.16407500000000e+02 5.46367325050555e-09 2.00253616022080e-10
1.17652500000000e+02 4.59541221600818e-09 1.69328600649692e-10
1.18897500000000e+02 3.86513110627235e-09 1.43171294383073e-10
1.20142500000000e+02 3.25090280620161e-09 1.21048042227396e-10
1.21387500000000e+02 2.73428475381316e-09 1.02337844570074e-10
1.22632500000000e+02 2.29976519158705e-09 8.65151001942719e-11
1.23877500000000e+02 1.93429741692398e-09 7.31349855003254e-11
1.25122500000000e+02 1.62690804731103e-09 6.18210685041059e-11
1.26367500000000e+02 1.36836753812892e-09 5.22548170830267e-11
1.27612500000000e+02 1.15091306020631e-09 4.41667126428839e-11
1.28857500000000e+02 9.68015416358587e-10 3.73287242644519e-11
1.30102500000000e+02 8.14182998444659e-10 3.15479356334937e-11
1.31347500000000e+02 6.84796898638211e-10 2.66611486617052e-11
1.32592500000000e+02 5.75972224033595e-10 2.25303145194055e-11
1.33837500000000e+02 4.84441450476650e-10 1.90386655464062e-11
1.35082500000000e+02 4.07456313251369e-10 1.60874407998124e-11
1.36327500000000e+02 3.42705288833248e-10 1.35931143586154e-11
1.37572500000000e+02 2.88244190050932e-10 1.14850493783648e-11
1.38817500000000e+02 2.42437790735541e-10 9.70351265170747e-12
1.40062500000000e+02 2.03910727103794e-10 8.19799440212220e-12
1.41307500000000e+02 1.71506201660427e-10 6.92578649043373e-12
1.42552500000000e+02 1.44251249680526e-10 5.85077937731415e-12
1.43797500000000e+02 1.21327525377730e-10 4.94244425575244e-12
1.45042500000000e+02 1.02046730595991e-10 4.17497191155135e-12
1.46287500000000e+02 8.58299482570850e-11 3.52654422828971e-12
1.47532500000000e+02 7.21902600386036e-11 2.97871794549259e-12
1.48777500000000e+02 6.07181263681004e-11 2.51590340646061e-12
1.50022500000000e+02 5.10690897592162e-11 2.12492368139644e-12
1.51267500000000e+02 4.29534322752929e-11 1.79464169512923e-12
1.52512500000000e+02 3.61274765798077e-11 1.51564488877497e-12
1.53757500000000e+02 3.03862693826055e-11 1.27997855356562e-12
1.55002500000000e+02 2.55574275981492e-11 1.08092033732340e-12
1.56247500000000e+02 2.14959624431077e-11 9.12789577363146e-13
1.57492500000000e+02 1.80799260638014e-11 7.70786089939727e-13
1.58737500000000e+02 1.52067499809638e-11 6.50853872807311e-13
1.59982500000000e+02 1.27901654114907e-11 5.49565876977787e-13
1.61227500000000e+02 1.07576129980487e-11 4.64026595804439e-13
1.62472500000000e+02 9.04806417216606e-12 3.91789720551159e-13
1.63717500000000e+02 7.61018873596631e-12 3.30788535594294e-13
1.64962500000000e+02 6.40081364312031e-12 2.79277085165752e-13
1.66207500000000e+02 5.38362670301800e-12 2.35780447094985e-13
1.67452500000000e+02 4.52808628612400e-12 1.99052705823376e-13
1.68697500000000e+02 3.80850429378586e-12 1.68041434227426e-13
1.69942500000000e+02 3.20327485813024e-12 1.41857677576651e-13
1.71187500000000e+02 2.69422561331271e-12 1.19750588415416e-13
1.72432500000000e+02 2.26607205966311e-12 1.01085992652440e-13
1.73677500000000e+02 1.90595863769252e-12 8.53282783560327e-14
1.74922500000000e+02 1.60307273244206e-12 7.20250928093505e-14
1.76167500000000e+02 1.34832001842940e-12 6.07944129205446e-14
1.77412500000000e+02 1.13405139723637e-12 5.13136213439036e-14
1.78657500000000e+02 9.53833328879788e-13 4.33102775424433e-14
1.79902500000000e+02 8.02254661031265e-13 3.65543211111870e-14
1.81147500000000e+02 6.74764156021125e-13 3.08514853385405e-14
1.82392500000000e+02 5.67533837280076e-13 2.60377333570460e-14
1.83637500000000e+02 4.77344052116135e-13 2.19745582941995e-14
1.84882500000000e+02 4.01486799769799e-13 1.85450133993524e-14
1.86127500000000e+02 3.37684422116100e-13 1.56503588879476e-14
1.87372500000000e+02 2.84021215654578e-13 1.32072297964703e-14
1.88617500000000e+02 2.38885911397387e-13 1.11452439769721e-14
1.89862500000000e+02 2.00923295580719e-13 9.40498189874559e-15
1.91107500000000e+02 1.68993518583276e-13 7.93628052176197e-15
1.92352500000000e+02 1.42137870278376e-13 6.69679246210707e-15
1.93597500000000e+02 1.19549994204759e-13 5.65076923777465e-15
1.94842500000000e+02 1.00551676244809e-13 4.76803377847743e-15
1.96087500000000e+02 8.45724808511815e-14 4.02311278714017e-15
1.97332500000000e+02 7.11326233876955e-14 3.39450410690414e-15
1.98577500000000e+02 5.98285643165573e-14 2.86405810553891e-15
1.99822500000000e+02 5.03208926890163e-14 2.41645534880037e-15
2.01067500000000e+02 4.23241351342057e-14 2.03876558820447e-15
2.02312500000000e+02 3.55981843551338e-14 1.72007541527103e-15
2.03557500000000e+02 2.99410897674301e-14 1.45117389976862e-15
2.04802500000000e+02 2.51829938155826e-14 1.22428718984514e-15
2.06047500000000e+02 2.11810319010345e-14 1.03285445447380e-15
2.07292500000000e+02 1.78150427895128e-14 8.71338733368499e-16
2.08537500000000e+02 1.49839607000767e-14 7.35067260218211e-16
2.09782500000000e+02 1.26027807462585e-14 6.20096670313133e-16
2.11027500000000e+02 1.06000066149032e-14 5.23099217515488e-16
2.12272500000000e+02 8.91550384777981e-15 4.41266728454950e-16
2.13517500000000e+02 7.49869426949429e-15 3.72229531029546e-16
2.14762500000000e+02 6.30703734835461e-15 3.13988024323393e-16
2.16007500000000e+02 5.30475289216220e-15 2.64854920210296e-16
2.17252500000000e+02 4.46174672712927e-15 2.23406493586259e-16
2.18497500000000e+02 3.75270710280619e-15 1.88441437141485e-16
2.19742500000000e+02 3.15634469205136e-15 1.58946135257691e-16
2.20987500000000e+02 2.65475336660062e-15 1.34065356263087e-16
2.22232500000000e+02 2.23287255515079e-15 1.13077518185584e-16
2.23477500000000e+02 1.87803504094610e-15 9.53738147837071e-17
2.24722500000000e+02 1.57958662122713e-15 8.04405997788494e-17
2.25967500000000e+02 1.32856620859576e-15 6.78445210500387e-17
2.27212500000000e+02 1.11743676915374e-15 5.72199757758612e-17
2.28457500000000e+02 9.39859018675879e-16 4.82585243917608e-17
2.29702500000000e+02 7.90501081913885e-16 4.06999576950520e-17
2.30947500000000e+02 6.64878399940665e-16 3.43247590965816e-17
2.32192500000000e+02 5.59219078660055e-16 2.89477442566772e-17
2.33437500000000e+02 4.70350635492608e-16 2.44126943104161e-17
2.34682500000000e+02 3.95604743740842e-16 2.05878275599971e-17
2.35927500000000e+02 3.32737114528076e-16 1.73619787147725e-17
2.37172500000000e+02 2.79860110719496e-16 1.46413751886311e-17
2.38417500000000e+02 2.35386069519215e-16 1.23469172078673e-17
2.39662500000000e+02 1.97979631971341e-16 1.04118830368340e-17
2.40907500000000e+02 1.66517648030603e-16 8.77999291268362e-18
2.42152500000000e+02 1.40055453328944e-16 7.40377564819584e-18
2.43397500000000e+02 1.17798505078399e-16 6.24319061182006e-18
2.44642500000000e+02 9.90785254617282e-17 5.26446517881750e-18
2.45887500000000e+02 8.33334362022424e-17 4.43911397968510e-18
2.47132500000000e+02 7.00904818366084e-17 3.74311153161356e-18
2.48377500000000e+02 5.89520349570769e-17 3.42862466049670e-18
