Energy (eV)          EEDF (eV^-(3/2))     First Anisotropy
3.96428571428571e-03 2.18280512943584e+00 1.51558261970382e-03
1.18928571428571e-02 2.15598967624168e+00 2.49567525489093e-03
1.98214285714286e-02 2.12950364700119e+00 3.27612817496792e-03
2.77500000000000e-02 2.10334299498727e+00 3.85793812457633e-03
3.56785714285714e-02 2.07750372292348e+00 4.33407049163411e-03
4.36071428571429e-02 2.05198188268653e+00 4.73996287432247e-03
5.15357142857143e-02 2.02677357461818e+00 5.09409718742083e-03
5.94642857142857e-02 2.00187494707601e+00 5.40771868936417e-03
6.73928571428571e-02 1.97728219567155e+00 5.68834090966577e-03
7.53214285714286e-02 1.95299156272507e+00 5.94131312990086e-03
8.32500000000000e-02 1.92899933678952e+00 6.17062369964535e-03
9.11785714285714e-02 1.90530185197404e+00 6.37935273956816e-03
9.91071428571429e-02 1.88189548742362e+00 6.56994588358153e-03
1.07035714285714e-01 1.85877666665405e+00 6.74438906304581e-03
1.14964285714286e-01 1.83594185743468e+00 6.90432515005316e-03
1.22892857142857e-01 1.81338757070018e+00 7.05113460706007e-03
1.30821428571429e-01 1.79111036009857e+00 7.18599284405860e-03
1.38750000000000e-01 1.76910682195533e+00 7.30991223558351e-03
1.46678571428571e-01 1.74737359408924e+00 7.42377344692679e-03
1.54607142857143e-01 1.72590735592458e+00 7.52834928141885e-03
1.62535714285714e-01 1.70470482739307e+00 7.62432314337780e-03
1.70464285714286e-01 1.68376276899131e+00 7.71230352331195e-03
1.78392857142857e-01 1.66307798087058e+00 7.79283558194456e-03
1.86321428571429e-01 1.64264730239222e+00 7.86641038041886e-03
1.94250000000000e-01 1.62246761196157e+00 7.93347248802786e-03
2.02178571428571e-01 1.60253582612578e+00 7.99442619364722e-03
2.10107142857143e-01 1.58284889950904e+00 8.04964066158768e-03
2.18035714285714e-01 1.56340382395863e+00 8.09945424762114e-03
2.25964285714286e-01 1.54419762845735e+00 8.14417812208500e-03
2.33892857142857e-01 1.52522737839216e+00 8.18409938719025e-03
2.41821428571429e-01 1.50649017512989e+00 8.21948365785053e-03
2.49750000000000e-01 1.48798315579837e+00 8.25057735456674e-03
2.57678571428571e-01 1.46970349254927e+00 8.27760964838691e-03
2.65607142857143e-01 1.45164839241463e+00 8.30079415298523e-03
2.73535714285714e-01 1.43381509660212e+00 8.32033040439524e-03
2.81464285714286e-01 1.41620088034140e+00 8.33640514721996e-03
2.89392857142857e-01 1.39880305226785e+00 8.34919350251902e-03
2.97321428571429e-01 1.38161895402613e+00 8.35885993289011e-03
3.05250000000000e-01 1.36464596003116e+00 8.36555916215695e-03
3.13178571428571e-01 1.34788147684371e+00 8.36943696436115e-03
3.21107142857143e-01 1.33132294299008e+00 8.37063087166553e-03
3.29035714285714e-01 1.31496782836178e+00 8.36927081163193e-03
3.36964285714286e-01 1.29881363403119e+00 8.36547967133231e-03
3.44892857142857e-01 1.28285789171864e+00 8.35937383598748e-03
3.52821428571429e-01 1.26709816342520e+00 8.35106361944839e-03
3.60750000000000e-01 1.25153204118932e+00 8.34065370830543e-03
3.68678571428571e-01 1.23615714654655e+00 8.32824354012428e-03
3.76607142857143e-01 1.22097113033340e+00 8.31392765073134e-03
3.84535714285714e-01 1.20597167216601e+00 8.29779599366760e-03
3.92464285714286e-01 1.19115648024331e+00 8.27993422514428e-03
4.00392857142857e-01 1.17652329087896e+00 8.26042399090220e-03
4.08321428571429e-01 1.16206986816252e+00 8.23934314158173e-03
4.16250000000000e-01 1.14779400372013e+00 8.21676597717652e-03
4.24178571428571e-01 1.13369351624061e+00 8.19276345071458e-03
4.32107142857143e-01 1.11976625127494e+00 8.16740335887649e-03
4.40035714285714e-01 1.10601008077785e+00 8.14075052042723e-03
4.47964285714286e-01 1.09242290290845e+00 8.11286693537766e-03
4.55892857142857e-01 1.07900264161506e+00 8.08381195473666e-03
4.63821428571429e-01 1.06574724632313e+00 8.05364239686634e-03
4.71750000000000e-01 1.05265469170455e+00 8.02241269574377e-03
4.79678571428571e-01 1.03972297725808e+00 7.99017502038501e-03
4.87607142857143e-01 1.02695012711097e+00 7.95697938852585e-03
4.95535714285714e-01 1.01433418961247e+00 7.92287377464712e-03
5.03464285714286e-01 1.00187323713762e+00 7.88790420575270e-03
5.11392857142857e-01 9.89565365716449e-01 7.85211487017614e-03
5.19321428571429e-01 9.77408694746937e-01 7.81554818371418e-03
5.27250000000000e-01 9.65401366775348e-01 7.77824488645651e-03
5.35178571428572e-01 9.53541547122244e-01 7.74024411746150e-03
5.43107142857143e-01 9.41827423690151e-01 7.70158348698746e-03
5.51035714285714e-01 9.30257206600791e-01 7.66229914606588e-03
5.58964285714286e-01 9.18829128005446e-01 7.62242584750808e-03
5.66892857142857e-01 9.07541441752133e-01 7.58199702009310e-03
5.74821428571429e-01 8.96392423121817e-01 7.54104480732052e-03
5.82750000000000e-01 8.85380368620927e-01 7.49960013439171e-03
5.90678571428571e-01 8.74503595646390e-01 7.45769275729265e-03
5.98607142857143e-01 8.63760442301510e-01 7.41535131101421e-03
6.06535714285714e-01 8.53149267070731e-01 7.37260335658749e-03
6.14464285714286e-01 8.42668448638513e-01 7.32947542169996e-03
6.22392857142857e-01 8.32316385589473e-01 7.28599305378583e-03
6.30321428571429e-01 8.22091496166089e-01 7.24218084301690e-03
6.38250000000000e-01 8.11992218073869e-01 7.19806247077660e-03
6.46178571428571e-01 8.02017008180210e-01 7.15366074321172e-03
6.54107142857143e-01 7.92164342339678e-01 7.10899762471207e-03
6.62035714285714e-01 7.82432715101397e-01 7.06409427096071e-03
6.69964285714286e-01 7.72820639537455e-01 7.01897105693440e-03
6.77892857142857e-01 7.63326646971999e-01 6.97364761637694e-03
6.85821428571429e-01 7.53949286758739e-01 6.92814285533378e-03
6.93750000000000e-01 7.44687126098792e-01 6.88247498850905e-03
7.01678571428571e-01 7.35538749769143e-01 6.83666156293068e-03
7.09607142857143e-01 7.26502759957905e-01 6.79071948193862e-03
7.17535714285714e-01 7.17577776000329e-01 6.74466502914080e-03
7.25464285714286e-01 7.08762434217198e-01 6.69851388826015e-03
7.33392857142857e-01 7.00055387669546e-01 6.65228117338955e-03
7.41321428571429e-01 6.91455305954396e-01 6.60598143667761e-03
7.49250000000000e-01 6.82960875034989e-01 6.55962869638618e-03
7.57178571428571e-01 6.74570796995376e-01 6.51323645400637e-03
7.65107142857143e-01 6.66283789885816e-01 6.46681771188983e-03
7.73035714285714e-01 6.58098587484081e-01 6.42038499105716e-03
7.80964285714286e-01 6.50013939143933e-01 6.37395034558127e-03
7.88892857142857e-01 6.42028609572650e-01 6.32752538634713e-03
7.96821428571429e-01 6.34141378643541e-01 6.28112128504199e-03
8.04750000000000e-01 6.26351041238112e-01 6.23474879630914e-03
8.12678571428571e-01 6.18656407023847e-01 6.18841827037936e-03
8.20607142857143e-01 6.11056300309655e-01 6.14213966630296e-03
8.28535714285714e-01 6.03549559829649e-01 6.09592256546401e-03
8.36464285714286e-01 5.96135038601564e-01 6.04977618218889e-03
8.44392857142857e-01 5.88811603724684e-01 6.00370938277600e-03
8.52321428571429e-01 5.81578136207787e-01 5.95773068711945e-03
8.60250000000000e-01 5.74433530822677e-01 5.91184828652699e-03
8.68178571428571e-01 5.67376695902670e-01 5.86607005319569e-03
8.76107142857143e-01 5.60406553207801e-01 5.82040355031161e-03
8.84035714285714e-01 5.53522037728687e-01 5.77485604248106e-03
8.91964285714286e-01 5.46722097554577e-01 5.72943450366573e-03
8.99892857142857e-01 5.40005693689602e-01 5.68414563266771e-03
9.07821428571429e-01 5.33371799894889e-01 5.63899585323071e-03
9.15750000000000e-01 5.26819402552865e-01 5.59399132858797e-03
9.23678571428571e-01 5.20347500484272e-01 5.54913796866383e-03
9.31607142857143e-01 5.13955104822768e-01 5.50444143789057e-03
9.39535714285714e-01 5.07641238836780e-01 5.45990716337304e-03
9.47464285714286e-01 5.01404937806805e-01 5.41554034088930e-03
9.55392857142857e-01 4.95245248858151e-01 5.37134594765597e-03
9.63321428571429e-01 4.89161230816073e-01 5.32732874145485e-03
9.71250000000000e-01 4.83151954080208e-01 5.28349327265826e-03
9.79178571428571e-01 4.77216500458244e-01 5.23984388975871e-03
9.87107142857143e-01 4.71353963049467e-01 5.19638474548813e-03
9.95035714285714e-01 4.65563446082792e-01 5.15311980328284e-03
1.00296428571429e+00 4.59844064802860e-01 5.11005284072653e-03
1.01089285714286e+00 4.54194945322986e-01 5.06718746138570e-03
1.01882142857143e+00 4.48615224486562e-01 5.02452709668307e-03
1.02675000000000e+00 4.43104049740748e-01 4.98207502104716e-03
1.03467857142857e+00 4.37660578955870e-01 4.93983432552390e-03
1.04260714285714e+00 4.32283980449455e-01 4.89780794491798e-03
1.05053571428571e+00 4.26973432704701e-01 4.85599868525998e-03
1.05846428571429e+00 4.21728124297036e-01 4.81440919452341e-03
1.06639285714286e+00 4.16547253770056e-01 4.77304197868228e-03
1.07432142857143e+00 4.11430029513227e-01 4.73189940618452e-03
1.08225000000000e+00 4.06375669640846e-01 4.69098372200505e-03
1.09017857142857e+00 4.01383401828769e-01 4.65029702248346e-03
1.09810714285714e+00 3.96452463329280e-01 4.60984127909394e-03
1.10603571428571e+00 3.91582100720176e-01 4.56961836253331e-03
1.11396428571429e+00 3.86771569834945e-01 4.52963001612872e-03
1.12189285714286e+00 3.82020135649004e-01 4.48987786976443e-03
1.12982142857143e+00 3.77327072167515e-01 4.45036344347729e-03
1.13775000000000e+00 3.72691662314391e-01 4.41108815963526e-03
1.14567857142857e+00 3.68113197784509e-01 4.37205332005487e-03
1.15360714285714e+00 3.63590979051410e-01 4.33326012689869e-03
1.16153571428571e+00 3.59124315143201e-01 4.29470970387651e-03
1.16946428571429e+00 3.54712523576486e-01 4.25640307212475e-03
1.17739285714286e+00 3.50354930252038e-01 4.21834116234146e-03
1.18532142857143e+00 3.46050869351904e-01 4.18052481769156e-03
1.19325000000000e+00 3.41799683237617e-01 4.14295480440974e-03
1.20117857142857e+00 3.37600722316280e-01 4.10563179101754e-03
1.20910714285714e+00 3.33453345042696e-01 4.06855636675307e-03
1.21703571428571e+00 3.29356917718843e-01 4.03172906028824e-03
1.22496428571429e+00 3.25310814431596e-01 3.99515031786695e-03
1.23289285714286e+00 3.21314416957049e-01 3.95882051391922e-03
1.24082142857143e+00 3.17367114666138e-01 3.92273995341980e-03
1.24875000000000e+00 3.13468304431297e-01 3.88690888115482e-03
1.25667857142857e+00 3.09617390505001e-01 3.85132746285962e-03
1.26460714285714e+00 3.05813784517586e-01 3.81599580151753e-03
1.27253571428571e+00 3.02056905297536e-01 3.78091395392669e-03
1.28046428571429e+00 2.98346178812953e-01 3.74608191089378e-03
1.28839285714286e+00 2.94681038083805e-01 3.71149960654933e-03
1.29632142857143e+00 2.91060923095373e-01 3.67716692026776e-03
1.30425000000000e+00 2.87485280712646e-01 3.64308368479347e-03
1.31217857142857e+00 2.83953564570067e-01 3.60924966913077e-03
1.32010714285714e+00 2.80465235066076e-01 3.57566459299070e-03
1.32803571428571e+00 2.77019759201801e-01 3.54232814148783e-03
1.33596428571429e+00 2.73616610526188e-01 3.50923994720017e-03
1.34389285714286e+00 2.70255269055536e-01 3.47639959836710e-03
1.35182142857143e+00 2.66935221194104e-01 3.44380664045650e-03
1.35975000000000e+00 2.63655959655607e-01 3.41146058331051e-03
1.36767857142857e+00 2.60416983363064e-01 3.37936088562920e-03
1.37560714285714e+00 2.57217797440872e-01 3.34750696780186e-03
1.38353571428571e+00 2.54057913069823e-01 3.31589822496976e-03
1.39146428571429e+00 2.50936847435792e-01 3.28453401077753e-03
1.39939285714286e+00 2.47854123655929e-01 3.25341364460581e-03
1.40732142857143e+00 2.44809270705857e-01 3.22253641285152e-03
1.41525000000000e+00 2.41801823347668e-01 3.19190157522688e-03
1.42317857142857e+00 2.38831322038890e-01 3.16150835069060e-03
1.43110714285714e+00 2.35897312922746e-01 3.13135592886414e-03
1.43903571428571e+00 2.32999347697694e-01 3.10144348166154e-03
1.44696428571429e+00 2.30136983569514e-01 3.07177014857241e-03
1.45489285714286e+00 2.27309783183634e-01 3.04233504305623e-03
1.46282142857143e+00 2.24517314558346e-01 3.01313725358908e-03
1.47075000000000e+00 2.21759151018776e-01 2.98417584922810e-03
1.47867857142857e+00 2.19034871114088e-01 2.95544986685484e-03
1.48660714285714e+00 2.16344058606460e-01 2.92695832134860e-03
1.49453571428571e+00 2.13686302353547e-01 2.89870021595603e-03
1.50246428571429e+00 2.11061196263835e-01 2.87067452895959e-03
1.51039285714286e+00 2.08468339234571e-01 2.84288021934138e-03
1.51832142857143e+00 2.05907335090513e-01 2.81531622763835e-03
1.52625000000000e+00 2.03377792523380e-01 2.78798148086722e-03
1.53417857142857e+00 2.00879325016494e-01 2.76087488095694e-03
1.54210714285714e+00 1.98411550832900e-01 2.73399531382637e-03
1.55003571428571e+00 1.95974092909370e-01 2.70734165864293e-03
1.55796428571429e+00 1.93566578814850e-01 2.68091277574417e-03
1.56589285714286e+00 1.91188640693532e-01 2.65470751166258e-03
1.57382142857143e+00 1.88839915208686e-01 2.62872469982322e-03
1.58175000000000e+00 1.86520043487122e-01 2.60296316490943e-03
1.58967857142857e+00 1.84228671050586e-01 2.57742171237325e-03
1.59760714285714e+00 1.81965447803341e-01 2.55209913654527e-03
1.60553571428571e+00 1.79730027936496e-01 2.52699422891015e-03
1.61346428571429e+00 1.77522069889380e-01 2.50210576716173e-03
1.62139285714286e+00 1.75341236297329e-01 2.47743251966782e-03
1.62932142857143e+00 1.73187193940177e-01 2.45297324603754e-03
1.63725000000000e+00 1.71059613691320e-01 2.42872670099709e-03
1.64517857142857e+00 1.68958170455223e-01 2.40469162487591e-03
1.65310714285714e+00 1.66882543154741e-01 2.38086675085966e-03
1.66103571428571e+00 1.64832414644684e-01 2.35725081239552e-03
1.66896428571429e+00 1.62807471675950e-01 2.33384253327202e-03
1.67689285714286e+00 1.60807404847647e-01 2.31064063159089e-03
1.68482142857143e+00 1.58831908559841e-01 2.28764382022709e-03
1.69275000000000e+00 1.56880680966856e-01 2.26485081027384e-03
1.70067857142857e+00 1.54953423920316e-01 2.24226030241243e-03
1.70860714285714e+00 1.53049842956411e-01 2.21987099340537e-03
1.71653571428571e+00 1.51169647217752e-01 2.19768158272878e-03
1.72446428571429e+00 1.49312549420092e-01 2.17569076357928e-03
1.73239285714286e+00 1.47478265808424e-01 2.15389722641130e-03
1.74032142857143e+00 1.45666516113641e-01 2.13229965930831e-03
1.74825000000000e+00 1.43877023509707e-01 2.11089675104846e-03
1.75617857142857e+00 1.42109514561734e-01 2.08968718327422e-03
1.76410714285714e+00 1.40363719213354e-01 2.06866963631064e-03
1.77203571428571e+00 1.38639370716009e-01 2.04784279511085e-03
1.77996428571429e+00 1.36936205598115e-01 2.02720534110098e-03
1.78789285714286e+00 1.35253963624790e-01 2.00675595533405e-03
1.79582142857143e+00 1.33592387758110e-01 1.98649331878721e-03
1.80375000000000e+00 1.31951224117828e-01 1.96641611509286e-03
1.81167857142857e+00 1.30330221934032e-01 1.94652302343257e-03
1.81960714285714e+00 1.28729133534731e-01 1.92681272375458e-03
1.82753571428571e+00 1.27147714281852e-01 1.90728390210799e-03
1.83546428571429e+00 1.25585722542663e-01 1.88793524324565e-03
1.84339285714286e+00 1.24042919652852e-01 1.86876543343856e-03
1.85132142857143e+00 1.22519069880073e-01 1.84977316071223e-03
1.85925000000000e+00 1.21013940387919e-01 1.83095711728171e-03
1.86717857142857e+00 1.19527301192742e-01 1.81231599310153e-03
1.87510714285714e+00 1.18058925151553e-01 1.79384848054802e-03
1.88303571428571e+00 1.16608587904045e-01 1.77555327920807e-03
1.89096428571429e+00 1.15176067846147e-01 1.75742908916819e-03
1.89889285714286e+00 1.13761146096156e-01 1.73947461352833e-03
1.90682142857143e+00 1.12363606461308e-01 1.72168855858718e-03
1.91475000000000e+00 1.10983235404738e-01 1.70406963601546e-03
1.92267857142857e+00 1.09619822006075e-01 1.68661655699975e-03
1.93060714285714e+00 1.08273157949746e-01 1.66932803644751e-03
1.93853571428571e+00 1.06943037472409e-01 1.65220279728906e-03
1.94646428571429e+00 1.05629257338498e-01 1.63523956438752e-03
1.95439285714286e+00 1.04331616809162e-01 1.61843706678591e-03
1.96232142857143e+00 1.03049917611606e-01 1.60179403785025e-03
1.97025000000000e+00 1.01783963908789e-01 1.58530921721046e-03
1.97817857142857e+00 1.00533562263462e-01 1.56898134544234e-03
1.98610714285714e+00 9.92985216269058e-02 1.55280916784632e-03
1.99403571428571e+00 9.80786532912657e-02 1.53679143831477e-03
2.00196428571429e+00 9.68737708669372e-02 1.52092691380365e-03
2.00989285714286e+00 9.56836902540813e-02 1.50521435634259e-03
2.01782142857143e+00 9.45082296145054e-02 1.48965253314319e-03
2.02575000000000e+00 9.33472093438742e-02 1.47424021833350e-03
2.03367857142857e+00 9.22004520388802e-02 1.45897618812785e-03
2.04160714285714e+00 9.10677824864559e-02 1.44385922422428e-03
2.04953571428571e+00 8.99490276205224e-02 1.42888811728293e-03
2.05746428571429e+00 8.88440165010940e-02 1.41406166190664e-03
2.06539285714286e+00 8.77525802881550e-02 1.39937865844005e-03
2.07332142857143e+00 8.66745522158706e-02 1.38483791304914e-03
2.08125000000000e+00 8.56097675671010e-02 1.37043823927236e-03
2.08917857142857e+00 8.45580636434254e-02 1.35617845363232e-03
2.09710714285714e+00 8.35192797548489e-02 1.34205737869215e-03
2.10503571428571e+00 8.24932571805401e-02 1.32807384618575e-03
2.11296428571429e+00 8.14798391495310e-02 1.31422669245937e-03
2.12089285714286e+00 8.04788708167600e-02 1.30051476008289e-03
2.12882142857143e+00 7.94901992394195e-02 1.28693689790549e-03
2.13675000000000e+00 7.85136733535830e-02 1.27349196244365e-03
2.14467857142857e+00 7.75491439468280e-02 1.26017881389353e-03
2.15260714285714e+00 7.65964636484492e-02 1.24699631888184e-03
2.16053571428571e+00 7.56554868938016e-02 1.23394335328400e-03
2.16846428571429e+00 7.47260699064816e-02 1.22101879808365e-03
2.17639285714286e+00 7.38080706763557e-02 1.20822154081630e-03
2.18432142857143e+00 7.29013489378689e-02 1.19555047560544e-03
2.19225000000000e+00 7.20057661486088e-02 1.18300450440521e-03
2.20017857142857e+00 7.11211854642977e-02 1.17058253337617e-03
2.20810714285714e+00 7.02474717295147e-02 1.15828347536238e-03
2.21603571428571e+00 6.93844914453000e-02 1.14610625242978e-03
2.22396428571429e+00 6.85321127527096e-02 1.13404979210410e-03
2.23189285714286e+00 6.76902054126662e-02 1.12211302866536e-03
2.23982142857143e+00 6.68586407860642e-02 1.11029490316785e-03
2.24775000000000e+00 6.60372918141117e-02 1.09859436455321e-03
2.25567857142857e+00 6.52260329954814e-02 1.08701036635585e-03
2.26360714285714e+00 6.44247403775395e-02 1.07554186893423e-03
2.27153571428571e+00 6.36332915269003e-02 1.06418784175847e-03
2.27946428571429e+00 6.28515655142555e-02 1.05294725999132e-03
2.28739285714286e+00 6.20794428958942e-02 1.04181910564919e-03
2.29532142857143e+00 6.13168056954574e-02 1.03080236760927e-03
2.30325000000000e+00 6.05635373859097e-02 1.01989604260692e-03
2.31117857142857e+00 5.98195228686592e-02 1.00909913224007e-03
2.31910714285714e+00 5.90846484652841e-02 9.98410644980008e-04
2.32703571428571e+00 5.83588018907608e-02 9.87829598233612e-04
2.33496428571429e+00 5.76418722394711e-02 9.77355015235659e-04
2.34289285714286e+00 5.69337499682554e-02 9.66985926090582e-04
2.35082142857143e+00 5.62343268796786e-02 9.56721367769029e-04
2.35875000000000e+00 5.55434961054963e-02 9.46560385002053e-04
2.36667857142857e+00 5.48611520875719e-02 9.36502027556716e-04
2.37460714285714e+00 5.41871905700884e-02 9.26545352049102e-04
2.38253571428571e+00 5.35215085751973e-02 9.16689423803963e-04
2.39046428571429e+00 5.28640043901193e-02 9.06933314029259e-04
2.39839285714286e+00 5.22145775516004e-02 8.97276100751431e-04
2.40632142857143e+00 5.15731288305656e-02 8.87716868803421e-04
2.41425000000000e+00 5.09395602169557e-02 8.78254710626757e-04
2.42217857142857e+00 5.03137749022839e-02 8.68888723793283e-04
2.43010714285714e+00 4.96956772723171e-02 8.59618012640305e-04
2.43803571428571e+00 4.90851728849218e-02 8.50441689948341e-04
2.44596428571429e+00 4.84821684581731e-02 8.41358874371587e-04
2.45389285714286e+00 4.78865718560999e-02 8.32368691277961e-04
2.46182142857143e+00 4.72982920746105e-02 8.23470272730429e-04
2.46975000000000e+00 4.67172392275859e-02 8.14662758206529e-04
2.47767857142857e+00 4.61433245309335e-02 8.05945292343790e-04
2.48560714285714e+00 4.55764602957210e-02 7.97317026414916e-04
2.49353571428571e+00 4.50165599080139e-02 7.88777119841720e-04
2.50146428571429e+00 4.44635378179181e-02 7.80324737858167e-04
