Energy (eV)          EEDF (eV^-(3/2))     First Anisotropy
1.56666666666667e-02 2.73758886202037e+00 4.00071985669631e-03
4.70000000000000e-02 2.58407837294235e+00 6.44275982046906e-03
7.83333333333333e-02 2.43917599519597e+00 8.08258905170176e-03
1.09666666666667e-01 2.30239902865413e+00 9.09600344992651e-03
1.41000000000000e-01 2.17329184045877e+00 9.76555823725925e-03
1.72333333333333e-01 2.05142434642611e+00 1.02066163015762e-02
2.03666666666667e-01 1.93639058102875e+00 1.04828608062815e-02
2.35000000000000e-01 1.82780734230468e+00 1.06348759697311e-02
2.66333333333333e-01 1.72531291609857e+00 1.06907875446770e-02
2.97666666666667e-01 1.62856587223450e+00 1.06711756634803e-02
3.29000000000000e-01 1.53724392578523e+00 1.05916747251176e-02
3.60333333333333e-01 1.45104286377904e+00 1.04644867805941e-02
3.91666666666667e-01 1.36967553250783e+00 1.02993271518980e-02
4.23000000000000e-01 1.29287088015074e+00 1.01040484823890e-02
4.54333333333333e-01 1.22037305400083e+00 9.88507087090251e-03
4.85666666666667e-01 1.15194054863656e+00 9.64768914159602e-03
5.17000000000000e-01 1.08734540089129e+00 9.39629885222995e-03
5.48333333333333e-01 1.02637243055205e+00 9.13456663635063e-03
5.79666666666667e-01 9.68818523876364e-01 8.86556136133474e-03
6.11000000000000e-01 9.14491956617482e-01 8.59185689860900e-03
6.42333333333333e-01 8.63211755408795e-01 8.31561385965845e-03
6.73666666666667e-01 8.14807095138029e-01 8.03864551958485e-03
7.05000000000000e-01 7.69116729637140e-01 7.76247157438204e-03
7.36333333333333e-01 7.25988454576176e-01 7.48836239170252e-03
7.67666666666667e-01 6.85278600610370e-01 7.21737579656586e-03
7.99000000000000e-01 6.46851554601276e-01 6.95038786444468e-03
8.30333333333333e-01 6.10579307887633e-01 6.68811885086930e-03
8.61666666666667e-01 5.76341029989454e-01 6.43115518736643e-03
8.93000000000000e-01 5.44022665958399e-01 6.17996821983351e-03
9.24333333333333e-01 5.13516556455728e-01 5.93493022813327e-03
9.55666666666667e-01 4.84721079212855e-01 5.69632820235041e-03
9.87000000000000e-01 4.57540310402554e-01 5.46437572059688e-03
1.01833333333333e+00 4.31883705037483e-01 5.23922318857963e-03
1.04966666666667e+00 4.07665795714735e-01 5.02096675181074e-03
1.08100000000000e+00 3.84805907435856e-01 4.80965603910212e-03
1.11233333333333e+00 3.63227888883091e-01 4.60530083196486e-03
1.14366666666667e+00 3.42859859309712e-01 4.40787695117017e-03
1.17500000000000e+00 3.23633968486186e-01 4.21733139420868e-03
1.20633333333333e+00 3.05486170752996e-01 4.03358674214116e-03
1.23766666666667e+00 2.88356012109925e-01 3.85654508514601e-03
1.26900000000000e+00 2.72186428364078e-01 3.68609145224029e-03
1.30033333333333e+00 2.56923555094617e-01 3.52209674509984e-03
1.33166666666667e+00 2.42516548561181e-01 3.36442036255837e-03
1.36300000000000e+00 2.28917415969249e-01 3.21291249207783e-03
1.39433333333333e+00 2.16080855639927e-01 3.06741605779828e-03
1.42566666666667e+00 2.03964106368696e-01 2.92776846789915e-03
1.45700000000000e+00 1.92526804694399e-01 2.79380313514810e-03
1.48833333333333e+00 1.81730850473781e-01 2.66535075610881e-03
1.51966666666667e+00 1.71540280173061e-01 2.54224045992304e-03
1.55100000000000e+00 1.61921146842143e-01 2.42430080127906e-03
1.58233333333333e+00 1.52841407056269e-01 2.31136058200336e-03
1.61366666666667e+00 1.44270814339582e-01 2.20324958846208e-03
1.64500000000000e+00 1.36180818231096e-01 2.09979922149670e-03
1.67633333333333e+00 1.28544469197394e-01 2.00084300382354e-03
1.70766666666667e+00 1.21336328990546e-01 1.90621703402403e-03
1.73900000000000e+00 1.14532385767909e-01 1.81576036645368e-03
1.77033333333333e+00 1.08109974119503e-01 1.72931530319702e-03
1.80166666666667e+00 1.02047699670220e-01 1.64672765323952e-03
1.83300000000000e+00 9.63253676992759e-02 1.56784694084214e-03
1.86433333333333e+00 9.09239158798264e-02 1.49252655071419e-03
1.89566666666667e+00 8.58253508625248e-02 1.42062385424522e-03
1.92700000000000e+00 8.10126882470498e-02 1.35200030128583e-03
1.95833333333333e+00 7.64698960133321e-02 1.28652146658541e-03
1.98966666666667e+00 7.21818411829003e-02 1.22405708654181e-03
2.02100000000000e+00 6.81342393366904e-02 1.16448107301514e-03
2.05233333333333e+00 6.43136070384279e-02 1.10767149475529e-03
2.08366666666667e+00 6.07072169725183e-02 1.05351055526254e-03
2.11500000000000e+00 5.73030554897132e-02 1.00188455582716e-03
2.14633333333333e+00 5.40897825933024e-02 9.52683835615641e-04
2.17766666666667e+00 5.10566942066544e-02 9.05802712162467e-04
2.20900000000000e+00 4.81936864699129e-02 8.61139412743546e-04
2.24033333333333e+00 4.54912220868398e-02 8.18595989673658e-04
2.27166666666667e+00 4.29402985890791e-02 7.78078238505221e-04
2.30300000000000e+00 4.05324183101898e-02 7.39495611090497e-04
2.33433333333333e+00 3.82595600820648e-02 7.02761117579643e-04
2.36566666666667e+00 3.61141525429792e-02 6.67791232802917e-04
2.39700000000000e+00 3.40890488860686e-02 6.34505800266426e-04
2.42833333333333e+00 3.21775030549608e-02 6.02827928727165e-04
2.45966666666667e+00 3.03731472940741e-02 5.72683893944308e-04
2.49100000000000e+00 2.86699709122697e-02 5.44003039911746e-04
2.52233333333333e+00 2.70623002625014e-02 5.16717675306280e-04
2.55366666666667e+00 2.55447798601854e-02 4.90762975438622e-04
2.58500000000000e+00 2.41123545235231e-02 4.66076884921862e-04
2.61633333333333e+00 2.27602525356578e-02 4.42600017449486e-04
2.64766666666667e+00 2.14839697640641e-02 4.20275561094853e-04
2.67900000000000e+00 2.02792546405888e-02 3.99049185114033e-04
2.71033333333333e+00 1.91420940002183e-02 3.78868945204651e-04
2.74166666666667e+00 1.80686997245427e-02 3.59685194107060e-04
2.77300000000000e+00 1.70554961099599e-02 3.41450494175870e-04
2.80433333333333e+00 1.60991079575740e-02 3.24119529350595e-04
2.83566666666667e+00 1.51963493395802e-02 3.07649022168694e-04
2.86700000000000e+00 1.43442129758899e-02 2.91997652992284e-04
2.89833333333333e+00 1.35398602173133e-02 2.77125979280830e-04
2.92966666666667e+00 1.27806115974630e-02 2.62996359538641e-04
2.96100000000000e+00 1.20639378984447e-02 2.49572879564877e-04
2.99233333333333e+00 1.13874517263635e-02 2.36821279179685e-04
3.02366666666667e+00 1.07488995649610e-02 2.24708883226427e-04
3.05500000000000e+00 1.01461542618042e-02 2.13204534860762e-04
3.08633333333333e+00 9.57720794299258e-03 2.02278529588617e-04
3.11766666666667e+00 9.04016532984663e-03 1.91902553174866e-04
3.14900000000000e+00 8.53323741973280e-03 1.82049621754898e-04
3.18033333333333e+00 8.05473552708641e-03 1.72694022854471e-04
3.21166666666667e+00 7.60306566240198e-03 1.63811259884318e-04
3.24300000000000e+00 7.17672321774738e-03 1.55377998711253e-04
3.27433333333333e+00 6.77428795505890e-03 1.47372015216363e-04
3.30566666666667e+00 6.39441927858833e-03 1.39772145951509e-04
3.33700000000000e+00 6.03585176536350e-03 1.32558240721916e-04
3.36833333333333e+00 5.69739095017273e-03 1.25711116178309e-04
3.39966666666667e+00 5.37790934945906e-03 1.19212512156351e-04
3.43100000000000e+00 5.07634270238451e-03 1.13045049780623e-04
3.46233333333333e+00 4.79168642585821e-03 1.07192190562200e-04
3.49366666666667e+00 4.52299227043876e-03 1.01638197920931e-04
3.52500000000000e+00 4.26936515902044e-03 9.63681003084658e-05
3.55633333333333e+00 4.02996020539157e-03 9.13676552836672e-05
3.58766666666667e+00 3.80397990168926e-03 8.66233157195229e-05
3.61900000000000e+00 3.59067145969030e-03 8.21221974507528e-05
3.65033333333333e+00 3.38932430331794e-03 7.78520478168471e-05
3.68166666666667e+00 3.19926770315978e-03 7.38012160725243e-05
3.71300000000000e+00 3.01986854045384e-03 6.99586250863534e-05
3.74433333333333e+00 2.85052919820224e-03 6.63137438690514e-05
3.77566666666667e+00 2.69068557169192e-03 6.28565617330193e-05
3.80700000000000e+00 2.53980518797174e-03 5.95775635973797e-05
3.83833333333333e+00 2.39738543220818e-03 5.64677060529994e-05
3.86966666666667e+00 2.26295187444324e-03 5.35183948487863e-05
3.90100000000000e+00 2.13605668804350e-03 5.07214633919034e-05
3.93233333333333e+00 2.01627715800591e-03 4.80691519377612e-05
3.96366666666667e+00 1.90321427368645e-03 4.55540880155482e-05
3.99500000000000e+00 1.79649139868850e-03 4.31692677476427e-05
4.02633333333333e+00 1.69575301629821e-03 4.09080377903854e-05
4.05766666666667e+00 1.60066354590729e-03 3.87640783467755e-05
4.08900000000000e+00 1.51090622436526e-03 3.67313869645172e-05
4.12033333333333e+00 1.42618205084882e-03 3.48042628902883e-05
4.15166666666667e+00 1.34620879142199e-03 3.29772923523288e-05
4.18300000000000e+00 1.27072003823250e-03 3.12453345309553e-05
4.21433333333333e+00 1.19946432211191e-03 2.96035080243539e-05
4.24566666666667e+00 1.13220427536795e-03 2.80471781170453e-05
4.27700000000000e+00 1.06871584055062e-03 2.65719446493405e-05
4.30833333333333e+00 1.00878752411946e-03 2.51736303258197e-05
4.33966666666667e+00 9.52219692316403e-04 2.38482697168403e-05
4.37100000000000e+00 8.98823905722416e-04 2.25920987838612e-05
4.40233333333333e+00 8.48422291567032e-04 2.14015447924011e-05
4.43366666666667e+00 8.00846951527786e-04 2.02732168225819e-05
4.46500000000000e+00 7.55939402078947e-04 1.92038967352720e-05
4.49633333333333e+00 7.13550046583063e-04 1.81905304793245e-05
4.52766666666667e+00 6.73537677225690e-04 1.72302199134921e-05
4.55900000000000e+00 6.35769004337074e-04 1.63202150238663e-05
4.59033333333333e+00 6.00118212403743e-04 1.54579064405635e-05
4.62166666666667e+00 5.66466541175116e-04 1.46408183972030e-05
4.65300000000000e+00 5.34701889813063e-04 1.38666020331781e-05
4.68433333333333e+00 5.04718443483056e-04 1.31330289577644e-05
4.71566666666667e+00 4.76416321047735e-04 1.24379851947997e-05
4.74700000000000e+00 4.49701242148146e-04 1.17794654240009e-05
4.77833333333333e+00 4.24484213154620e-04 1.11555674508470e-05
4.80966666666667e+00 4.00681230862838e-04 1.05644870032592e-05
4.84100000000000e+00 3.78213002501812e-04 1.00045127846221e-05
4.87233333333333e+00 3.57004681608285e-04 9.47402172590463e-06
4.90366666666667e+00 3.36985618823234e-04 8.97147451816733e-06
4.93500000000000e+00 3.18089126412325e-04 8.49541136630944e-06
4.96633333333333e+00 3.00252256127623e-04 8.04444791591870e-06
4.99766666666667e+00 2.83415589617554e-04 7.61727142050179e-06
5.02900000000000e+00 2.67523040383240e-04 7.21263709943778e-06
5.06033333333333e+00 2.52521666952941e-04 6.82936464617433e-06
5.09166666666667e+00 2.38361496608555e-04 6.46633494235863e-06
5.12300000000000e+00 2.24995358826331e-04 6.12248693620951e-06
5.15433333333333e+00 2.12378728150466e-04 5.79681465108710e-06
5.18566666666667e+00 2.00469575940192e-04 5.48836437037010e-06
5.21700000000000e+00 1.89228230289514e-04 5.19623196363092e-06
5.24833333333333e+00 1.78617243878781e-04 4.91956032547686e-06
5.27966666666667e+00 1.68601269288214e-04 4.65753696524072e-06
5.31100000000000e+00 1.59146941187090e-04 4.40939171812049e-06
5.34233333333333e+00 1.50222765192607e-04 4.17439455368773e-06
5.37366666666667e+00 1.41799013003736e-04 3.95185351338811e-06
5.40500000000000e+00 1.33847623319507e-04 3.74111275234306e-06
5.43633333333333e+00 1.26342108365686e-04 3.54155066519911e-06
5.46766666666667e+00 1.19257465698328e-04 3.35257812221960e-06
5.49900000000000e+00 1.12570094873644e-04 3.17363679488056e-06
5.53033333333333e+00 1.06257718833899e-04 3.00419755393597e-06
5.56166666666667e+00 1.00299309730832e-04 2.84375896165289e-06
5.59300000000000e+00 9.46750188429730e-05 2.69184584079765e-06
5.62433333333333e+00 8.93661104586286e-05 2.54800790604420e-06
5.65566666666667e+00 8.43548994905606e-05 2.41181847578494e-06
5.68700000000000e+00 7.96246925347144e-05 2.28287324971186e-06
5.71833333333333e+00 7.51597322636671e-05 2.16078914011503e-06
5.74966666666667e+00 7.09451449582131e-05 2.04520317179799e-06
5.78100000000000e+00 6.69668909362833e-05 1.93577143831796e-06
5.81233333333333e+00 6.32117177860315e-05 1.83216810441222e-06
5.84366666666667e+00 5.96671162379265e-05 1.73408446695843e-06
5.87500000000000e+00 5.63212784742245e-05 1.64122806414223e-06
5.90633333333333e+00 5.31630587964783e-05 1.55332182430311e-06
5.93766666666667e+00 5.01819365123180e-05 1.47010326469324e-06
5.96900000000000e+00 4.73679808726574e-05 1.39132373147278e-06
6.00033333333333e+00 4.47118179917960e-05 1.31674767376671e-06
6.03166666666667e+00 4.22045996338205e-05 1.24615196026716e-06
6.06300000000000e+00 3.98379737238976e-05 1.17932523109106e-06
6.09433333333333e+00 3.76040565270096e-05 1.11606727885676e-06
6.12566666666667e+00 3.54954063961612e-05 1.05618846601327e-06
6.15700000000000e+00 3.35049989716175e-05 9.99509172296186e-07
6.18833333333333e+00 3.16262037823197e-05 9.45859267231967e-07
6.21966666666667e+00 2.98527621671598e-05 8.95077613522183e-07
6.25100000000000e+00 2.81787664168950e-05 8.47011596159843e-07
6.28233333333333e+00 2.65986400951823e-05 8.01516673005397e-07
6.31366666666667e+00 2.51071194695602e-05 7.58455951657767e-07
6.34500000000000e+00 2.36992359692529e-05 7.17699788294271e-07
6.37633333333333e+00 2.23702996345250e-05 6.79125404884839e-07
6.40766666666667e+00 2.11158834994578e-05 6.42616528790238e-07
6.43900000000000e+00 1.99318088385015e-05 6.08063051108536e-07
6.47033333333333e+00 1.88141312468479e-05 5.75360700745366e-07
6.50166666666667e+00 1.77591275057763e-05 5.44410737533318e-07
6.53300000000000e+00 1.67632831746136e-05 5.15119661344767e-07
6.56433333333333e+00 1.58232808838787e-05 4.87398934653305e-07
6.59566666666667e+00 1.49359892885617e-05 4.61164721301805e-07
6.62700000000000e+00 1.40984526326319e-05 4.36337638908727e-07
6.65833333333333e+00 1.33078809031946e-05 4.12842522771407e-07
6.68966666666667e+00 1.25616405397997e-05 3.90608203553973e-07
6.72100000000000e+00 1.18572456579139e-05 3.69567296601003e-07
6.75233333333333e+00 1.11923497682485e-05 3.49656001075173e-07
6.78366666666667e+00 1.05647379629538e-05 3.30813910816514e-07
6.81500000000000e+00 9.97231953432273e-06 3.12983835108516e-07
6.84633333333333e+00 9.41312101047892e-06 2.96111627834981e-07
6.87766666666667e+00 8.88527958368548e-06 2.80146026601788e-07
6.90900000000000e+00 8.38703690247509e-06 2.65038500298066e-07
6.94033333333333e+00 7.91673321443975e-06 2.50743103820929e-07
6.97166666666667e+00 7.47280183920290e-06 2.37216341269774e-07
7.00300000000000e+00 7.05376394743221e-06 2.24417036327663e-07
7.03433333333333e+00 6.65822363473738e-06 2.12306208756156e-07
7.06566666666667e+00 6.28486327324228e-06 2.00846958087144e-07
7.09700000000000e+00 5.93243912059237e-06 1.90004353433484e-07
7.12833333333333e+00 5.59977717694417e-06 1.79745328514930e-07
7.15966666666667e+00 5.28576927547206e-06 1.70038582798406e-07
7.19100000000000e+00 4.98936938942319e-06 1.60854487846127e-07
7.22233333333333e+00 4.70959014771237e-06 1.52164998111223e-07
7.25366666666667e+00 4.44549954689959e-06 1.43943566926835e-07
7.28500000000000e+00 4.19621784532154e-06 1.36165066926548e-07
7.31633333333333e+00 3.96091463259496e-06 1.28805714256256e-07
7.34766666666667e+00 3.73880606427331e-06 1.21842997196477e-07
7.37900000000000e+00 3.52915224972565e-06 1.15255608554281e-07
7.41033333333333e+00 3.33125478749473e-06 1.09023381286321e-07
7.44166666666667e+00 3.14445443954571e-06 1.03127227866629e-07
7.47300000000000e+00 2.96812893439981e-06 9.75490828603435e-08
7.50433333333333e+00 2.80169089429133e-06 9.22718482501430e-08
7.53566666666667e+00 2.64458587912891e-06 8.72793419416678e-08
7.56700000000000e+00 2.49629053886986e-06 8.25562489948341e-08
7.59833333333333e+00 2.35631087019259e-06 7.80880751995920e-08
7.62966666666667e+00 2.22418057139936e-06 7.38611033499009e-08
7.66100000000000e+00 2.09945948851151e-06 6.98623518349137e-08
7.69233333333333e+00 1.98173214907498e-06 6.60795352263257e-08
7.72366666666667e+00 1.87060637857594e-06 6.25010271554910e-08
7.75500000000000e+00 1.76571199356328e-06 5.91158251599094e-08
7.78633333333333e+00 1.66669956853204e-06 5.59135172288701e-08
7.81766666666667e+00 1.57323927228061e-06 5.28842502919348e-08
7.84900000000000e+00 1.48501976878994e-06 5.00187003808149e-08
7.88033333333333e+00 1.40174718013307e-06 4.73080442372088e-08
7.91166666666667e+00 1.32314410781078e-06 4.47439325688575e-08
7.94300000000000e+00 1.24894870836019e-06 4.23184647272142e-08
7.97433333333333e+00 1.17891382112830e-06 4.00241646153007e-08
8.00566666666667e+00 1.11280614518127e-06 3.78539579936260e-08
8.03700000000000e+00 1.05040546186510e-06 3.58011509935882e-08
8.06833333333333e+00 9.91503901235169e-07 3.38594096772361e-08
8.09966666666667e+00 9.35905249808438e-07 3.20227407827309e-08
8.13100000000000e+00 8.83424296714864e-07 3.02854734952250e-08
8.16233333333333e+00 8.33886216741175e-07 2.86422421075354e-08
8.19366666666667e+00 7.87125988126450e-07 2.70879696862704e-08
8.22500000000000e+00 7.42987842656883e-07 2.56178526086051e-08
8.25633333333333e+00 7.01324746785823e-07 2.42273458555419e-08
8.28766666666667e+00 6.61997911979718e-07 2.29121491576654e-08
8.31900000000000e+00 6.24876332232131e-07 2.16681938800050e-08
8.35033333333333e+00 5.89836347669079e-07 2.04916305499117e-08
8.38166666666667e+00 5.56761232733056e-07 1.93788171076429e-08
8.41300000000000e+00 5.25540807219111e-07 1.83263077842843e-08
8.44433333333333e+00 4.96071069252952e-07 1.73308425261209e-08
8.47566666666667e+00 4.68253848939526e-07 1.63893370316118e-08
8.50700000000000e+00 4.41996481233210e-07 1.54988733207478e-08
8.53833333333333e+00 4.17211497260646e-07 1.46566907687030e-08
8.56966666666667e+00 3.93816333027281e-07 1.38601776586959e-08
8.60100000000000e+00 3.71733054291804e-07 1.31068631865805e-08
8.63233333333333e+00 3.50888096958769e-07 1.23944098598533e-08
8.66366666666667e+00 3.31212022090787e-07 1.17206063366603e-08
8.69500000000000e+00 3.12639284520014e-07 1.10833606480433e-08
8.72633333333333e+00 2.95108014510032e-07 1.04806937551772e-08
8.75766666666667e+00 2.78559811712708e-07 9.91073347944067e-09
8.78900000000000e+00 2.62939550563777e-07 9.37170875757098e-09
8.82033333333333e+00 2.48195196653498e-07 8.86194418128873e-09
8.85166666666667e+00 2.34277633437322e-07 8.37985485280552e-09
8.88300000000000e+00 2.21140498567944e-07 7.92394151604826e-09
8.91433333333333e+00 2.08740029457162e-07 7.49278592940867e-09
8.94566666666667e+00 1.97034917533613e-07 7.08504650609629e-09
8.97700000000000e+00 1.85986170593297e-07 6.69945418830481e-09
9.00833333333333e+00 1.75556982912155e-07 6.33480852640854e-09
9.03966666666667e+00 1.65712612671855e-07 5.98997398483784e-09
9.07100000000000e+00 1.56420266192586e-07 5.66387644620689e-09
9.10233333333333e+00 1.47648988693582e-07 5.35549988946293e-09
9.13366666666667e+00 1.39369561204031e-07 5.06388326002866e-09
9.16500000000000e+00 1.31554403199489e-07 4.78811750802327e-09
9.19633333333333e+00 1.24177480727987e-07 4.52734277416309e-09
9.22766666666667e+00 1.17214219708596e-07 4.28074573826069e-09
9.25900000000000e+00 1.10641424045819e-07 4.04755711020362e-09
9.29033333333333e+00 1.04437198360707e-07 3.82704924623954e-09
9.32166666666667e+00 9.85808750720067e-08 3.61853390295234e-09
9.35300000000000e+00 9.30529455279718e-08 3.42136011200287e-09
9.38433333333333e+00 8.78349950207643e-08 3.23491216117694e-09
9.41566666666667e+00 8.29096414592258e-08 3.05860769202143e-09
9.44700000000000e+00 7.82604774487165e-08 2.89189589982757e-09
9.47833333333333e+00 7.38720156361483e-08 2.73425582379025e-09
9.50966666666667e+00 6.97296371317092e-08 2.58519473587761e-09
9.54100000000000e+00 6.58195427963104e-08 2.44424661642950e-09
9.57233333333333e+00 6.21287072750136e-08 2.31097070623811e-09
9.60366666666667e+00 5.86448356179545e-08 2.18495014219494e-09
9.63500000000000e+00 5.53563223116577e-08 2.06579066642365e-09
9.66633333333333e+00 5.22522126196798e-08 1.95311940027198e-09
9.69766666666667e+00 4.93221660993406e-08 1.84658368904351e-09
9.72900000000000e+00 4.65564221458542e-08 1.74585000898762e-09
9.76033333333333e+00 4.39457674785755e-08 1.65060292928478e-09
9.79166666666667e+00 4.14815054573393e-08 1.56054413390883e-09
9.82300000000000e+00 3.91554271040605e-08 1.47539149622977e-09
9.85433333333333e+00 3.69597837576292e-08 1.39487820024235e-09
9.88566666666667e+00 3.48872612679165e-08 1.31875191247277e-09
