Energy (eV)          EEDF (eV^-(3/2))     First Anisotropy
2.46875000000000e-02 6.24971374260337e-02 3.38101353336146e-05
7.40625000000000e-02 6.20492903206984e-02 5.58177555388421e-05
1.23437500000000e-01 6.16046524349465e-02 7.36529528163091e-05
1.72812500000000e-01 6.11632007717975e-02 8.71825400954107e-05
2.22187500000000e-01 6.07249124991388e-02 9.84498849106330e-05
2.71562500000000e-01 6.02897649484816e-02 1.08227883087753e-04
3.20937500000000e-01 5.98577356137805e-02 1.16916668490896e-04
3.70312500000000e-01 5.94288021502667e-02 1.24757964008661e-04
4.19687500000000e-01 5.90029423732922e-02 1.31912145863072e-04
4.69062500000000e-01 5.85801342571818e-02 1.38492607628754e-04
5.18437500000000e-01 5.81603559340939e-02 1.44583320727301e-04
5.67812500000000e-01 5.77435856928892e-02 1.50248702698805e-04
6.17187500000000e-01 5.73298019780082e-02 1.55539567767074e-04
6.66562500000000e-01 5.69189833883558e-02 1.60496916328489e-04
7.15937500000000e-01 5.65111086761947e-02 1.65154455839479e-04
7.65312500000000e-01 5.61061567460465e-02 1.69540338826732e-04
8.14687500000000e-01 5.57041066536004e-02 1.73678397477088e-04
8.64062500000000e-01 5.53049376046302e-02 1.77589043144678e-04
9.13437500000000e-01 5.49086289539185e-02 1.81289936172230e-04
9.62812500000000e-01 5.45151602041893e-02 1.84796494230248e-04
1.01218750000000e+00 5.41245110050475e-02 1.88122284587778e-04
1.06156250000000e+00 5.37366611519266e-02 1.91279331317733e-04
1.11093750000000e+00 5.33515905850437e-02 1.94278359072692e-04
1.16031250000000e+00 5.29692793883619e-02 1.97128988828661e-04
1.20968750000000e+00 5.25897077885601e-02 1.99839896748316e-04
1.25906250000000e+00 5.22128561540107e-02 2.02418944368501e-04
1.30843750000000e+00 5.18387049937639e-02 2.04873286235537e-04
1.35781250000000e+00 5.14672349565399e-02 2.07209459618672e-04
1.40718750000000e+00 5.10984268297277e-02 2.09433459844549e-04
1.45656250000000e+00 5.07322615383917e-02 2.11550803993250e-04
1.50593750000000e+00 5.03687201442850e-02 2.13566585097564e-04
1.55531250000000e+00 5.00077838448701e-02 2.15485518534387e-04
1.60468750000000e+00 4.96494339723459e-02 2.17311981951797e-04
1.65406250000000e+00 4.92936519926830e-02 2.19050049809370e-04
1.70343750000000e+00 4.89404195046644e-02 2.20703523402066e-04
1.75281250000000e+00 4.85897182389340e-02 2.22275957076007e-04
1.80218750000000e+00 4.82415300570519e-02 2.23770681216098e-04
1.85156250000000e+00 4.78958369505561e-02 2.25190822483323e-04
1.90093750000000e+00 4.75526210400310e-02 2.26539321697809e-04
1.95031250000000e+00 4.72118645741830e-02 2.27818949697585e-04
1.99968750000000e+00 4.68735499289219e-02 2.29032321449528e-04
2.04906250000000e+00 4.65376596064498e-02 2.30181908645044e-04
2.09843750000000e+00 4.62041762343560e-02 2.31270050977202e-04
2.14781250000000e+00 4.58730825647183e-02 2.32298966266326e-04
2.19718750000000e+00 4.55443614732112e-02 2.33270759576472e-04
2.24656250000000e+00 4.52179959582200e-02 2.34187431444742e-04
2.29593750000000e+00 4.48939691399616e-02 2.35050885328257e-04
2.34531250000000e+00 4.45722642596115e-02 2.35862934359067e-04
2.39468750000000e+00 4.42528646784369e-02 2.36625307485247e-04
2.44406250000000e+00 4.39357538769361e-02 2.37339655066065e-04
2.49343750000000e+00 4.36209154539844e-02 2.38007553980308e-04
2.54281250000000e+00 4.33083331259854e-02 2.38630512299511e-04
2.59218750000000e+00 4.29979907260293e-02 2.39209973571231e-04
2.64156250000000e+00 4.26898722030561e-02 2.39747320752105e-04
2.69093750000000e+00 4.23839616210262e-02 2.40243879825791e-04
2.74031250000000e+00 4.20802431580954e-02 2.40700923136613e-04
2.78968750000000e+00 4.17787011057973e-02 2.41119672466263e-04
2.83906250000000e+00 4.14793198682303e-02 2.41501301877914e-04
2.88843750000000e+00 4.11820839612513e-02 2.41846940349226e-04
2.93781250000000e+00 4.08869780116746e-02 2.42157674213496e-04
2.98718750000000e+00 4.05939867564771e-02 2.42434549426213e-04
3.03656250000000e+00 4.03030950420086e-02 2.42678573672281e-04
3.08593750000000e+00 4.00142878232083e-02 2.42890718327722e-04
3.13531250000000e+00 3.97275501628263e-02 2.43071920288261e-04
3.18468750000000e+00 3.94428672306516e-02 2.43223083675942e-04
3.23406250000000e+00 3.91602243027444e-02 2.43345081433713e-04
3.28343750000000e+00 3.88796067606751e-02 2.43438756817158e-04
3.33281250000000e+00 3.86010000907680e-02 2.43504924791603e-04
3.38218750000000e+00 3.83243898833508e-02 2.43544373341889e-04
3.43156250000000e+00 3.80497618320090e-02 2.43557864701661e-04
3.48093750000000e+00 3.77771017328463e-02 2.43546136508276e-04
3.53031250000000e+00 3.75063954837499e-02 2.43509902888907e-04
3.57968750000000e+00 3.72376290836609e-02 2.43449855482942e-04
3.62906250000000e+00 3.69707886318504e-02 2.43366664405266e-04
3.67843750000000e+00 3.67058603272007e-02 2.43260979154738e-04
3.72781250000000e+00 3.64428304674909e-02 2.43133429471664e-04
3.77718750000000e+00 3.61816854486888e-02 2.42984626147909e-04
3.82656250000000e+00 3.59224117642472e-02 2.42815161792846e-04
3.87593750000000e+00 3.56649960044050e-02 2.42625611558161e-04
3.92531250000000e+00 3.54094248554940e-02 2.42416533824236e-04
3.97468750000000e+00 3.51556850992501e-02 2.42188470850709e-04
4.02406250000000e+00 3.49037636121298e-02 2.41941949393493e-04
4.07343750000000e+00 3.46536473646314e-02 2.41677481290422e-04
4.12281250000000e+00 3.44053234206208e-02 2.41395564017555e-04
4.17218750000000e+00 3.41587789366631e-02 2.41096681217932e-04
4.22156250000000e+00 3.39140011613575e-02 2.40781303204458e-04
4.27093750000000e+00 3.36709774346787e-02 2.40449887438615e-04
4.32031250000000e+00 3.34296951873213e-02 2.40102878986351e-04
4.36968750000000e+00 3.31901419400501e-02 2.39740710952517e-04
4.41906250000000e+00 3.29523053030549e-02 2.39363804895176e-04
4.46843750000000e+00 3.27161729753090e-02 2.38972571220900e-04
4.51781250000000e+00 3.24817327439338e-02 2.38567409562205e-04
4.56718750000000e+00 3.22489724835665e-02 2.38148709138042e-04
4.61656250000000e+00 3.20178801557332e-02 2.37716849098387e-04
4.66593750000000e+00 3.17884438082264e-02 2.37272198853800e-04
4.71531250000000e+00 3.15606515744868e-02 2.36815118390739e-04
4.76468750000000e+00 3.13344916729892e-02 2.36345958573428e-04
4.81406250000000e+00 3.11099524066335e-02 2.35865061432965e-04
4.86343750000000e+00 3.08870221621398e-02 2.35372760444443e-04
4.91281250000000e+00 3.06656894094475e-02 2.34869380792616e-04
4.96218750000000e+00 3.04459427011190e-02 2.34355239626698e-04
5.01156250000000e+00 3.02277706717476e-02 2.33830646304942e-04
5.06093750000000e+00 3.00111620373701e-02 2.33295902629466e-04
5.11031250000000e+00 2.97961055948825e-02 2.32751303071766e-04
5.15968750000000e+00 2.95825902214610e-02 2.32197134989495e-04
5.20906250000000e+00 2.93706048739868e-02 2.31633678834847e-04
5.25843750000000e+00 2.91601385884746e-02 2.31061208354958e-04
5.30781250000000e+00 2.89511804795059e-02 2.30479990784767e-04
5.35718750000000e+00 2.87437197396656e-02 2.29890287032641e-04
5.40656250000000e+00 2.85377456389834e-02 2.29292351859131e-04
5.45593750000000e+00 2.83332475243788e-02 2.28686434049186e-04
5.50531250000000e+00 2.81302148191097e-02 2.28072776578101e-04
5.55468750000000e+00 2.79286370222261e-02 2.27451616771523e-04
5.60406250000000e+00 2.77285037080262e-02 2.26823186459726e-04
5.65343750000000e+00 2.75298045255178e-02 2.26187712126494e-04
5.70281250000000e+00 2.73325291978825e-02 2.25545415052795e-04
5.75218750000000e+00 2.71366675219446e-02 2.24896511455460e-04
5.80156250000000e+00 2.69422093676428e-02 2.24241212621164e-04
5.85093750000000e+00 2.67491446775069e-02 2.23579725035829e-04
5.90031250000000e+00 2.65574634661374e-02 2.22912250509663e-04
5.94968750000000e+00 2.63671558196887e-02 2.22238986298087e-04
5.99906250000000e+00 2.61782118953569e-02 2.21560125218636e-04
6.04843750000000e+00 2.59906219208703e-02 2.20875855764043e-04
6.09781250000000e+00 2.58043761939844e-02 2.20186362211668e-04
6.14718750000000e+00 2.56194650819794e-02 2.19491824729404e-04
6.19656250000000e+00 2.54358790211630e-02 2.18792419478207e-04
6.24593750000000e+00 2.52536085163746e-02 2.18088318711398e-04
6.29531250000000e+00 2.50726441404953e-02 2.17379690870844e-04
6.34468750000000e+00 2.48929765339595e-02 2.16666700680182e-04
6.39406250000000e+00 2.47145964042713e-02 2.15949509235136e-04
6.44343750000000e+00 2.45374945255237e-02 2.15228274091110e-04
6.49281250000000e+00 2.43616617379213e-02 2.14503149348126e-04
6.54218750000000e+00 2.41870889473070e-02 2.13774285733192e-04
6.59156250000000e+00 2.40137671246911e-02 2.13041830680237e-04
6.64093750000000e+00 2.38416873057847e-02 2.12305928407662e-04
6.69031250000000e+00 2.36708405905359e-02 2.11566719993660e-04
6.73968750000000e+00 2.35012181426696e-02 2.10824343449309e-04
6.78906250000000e+00 2.33328111892303e-02 2.10078933789550e-04
6.83843750000000e+00 2.31656110201285e-02 2.09330623102194e-04
6.88781250000000e+00 2.29996089876902e-02 2.08579540614895e-04
6.93718750000000e+00 2.28347965062095e-02 2.07825812760263e-04
6.98656250000000e+00 2.26711650515048e-02 2.07069563239167e-04
7.03593750000000e+00 2.25087061604777e-02 2.06310913082272e-04
7.08531250000000e+00 2.23474114306755e-02 2.05549980709868e-04
7.13468750000000e+00 2.21872725198561e-02 2.04786881990077e-04
7.18406250000000e+00 2.20282811455574e-02 2.04021730295476e-04
7.23343750000000e+00 2.18704290846682e-02 2.03254636558164e-04
7.28281250000000e+00 2.17137081730031e-02 2.02485709323393e-04
7.33218750000000e+00 2.15581103048804e-02 2.01715054801758e-04
7.38156250000000e+00 2.14036274327027e-02 2.00942776919988e-04
7.43093750000000e+00 2.12502515665408e-02 2.00168977370449e-04
7.48031250000000e+00 2.10979747737203e-02 1.99393755659311e-04
7.52968750000000e+00 2.09467891784115e-02 1.98617209153463e-04
7.57906250000000e+00 2.07966869612218e-02 1.97839433126258e-04
7.62843750000000e+00 2.06476603587917e-02 1.97060520802097e-04
7.67781250000000e+00 2.04997016633929e-02 1.96280563399834e-04
7.72718750000000e+00 2.03528032225295e-02 1.95499650175102e-04
7.77656250000000e+00 2.02069574385430e-02 1.94717868461604e-04
7.82593750000000e+00 2.00621567682184e-02 1.93935303711337e-04
7.87531250000000e+00 1.99183937223947e-02 1.93152039533846e-04
7.92468750000000e+00 1.97756608655772e-02 1.92368157734508e-04
7.97406250000000e+00 1.96339508155533e-02 1.91583738351879e-04
8.02343750000000e+00 1.94932562430102e-02 1.90798859694129e-04
8.07281250000000e+00 1.93535698711563e-02 1.90013598374593e-04
8.12218750000000e+00 1.92148844753444e-02 1.89228029346480e-04
8.17156250000000e+00 1.90771928826986e-02 1.88442225936741e-04
8.22093750000000e+00 1.89404879717427e-02 1.87656259879138e-04
8.27031250000000e+00 1.88047626720322e-02 1.86870201346541e-04
8.31968750000000e+00 1.86700099637886e-02 1.86084118982448e-04
8.36906250000000e+00 1.85362228775365e-02 1.85298079931799e-04
8.41843750000000e+00 1.84033944937426e-02 1.84512149871023e-04
8.46781250000000e+00 1.82715179424584e-02 1.83726393037440e-04
8.51718750000000e+00 1.81405864029645e-02 1.82940872257990e-04
8.56656250000000e+00 1.80105931034181e-02 1.82155648977252e-04
8.61593750000000e+00 1.78815313205025e-02 1.81370783284889e-04
8.66531250000000e+00 1.77533943790795e-02 1.80586333942431e-04
8.71468750000000e+00 1.76261756518443e-02 1.79802358409465e-04
8.76406250000000e+00 1.74998685589824e-02 1.79018912869259e-04
8.81343750000000e+00 1.73744665678296e-02 1.78236052253806e-04
8.86281250000000e+00 1.72499631925340e-02 1.77453830268272e-04
8.91218750000000e+00 1.71263519937204e-02 1.76672299414977e-04
8.96156250000000e+00 1.70036265781575e-02 1.75891511016815e-04
9.01093750000000e+00 1.68817805984273e-02 1.75111515240121e-04
9.06031250000000e+00 1.67608077525964e-02 1.74332361117133e-04
9.10968750000000e+00 1.66407017838903e-02 1.73554096567899e-04
9.15906250000000e+00 1.65214564803701e-02 1.72776768421732e-04
9.20843750000000e+00 1.64030656746107e-02 1.72000422438201e-04
9.25781250000000e+00 1.62855232433819e-02 1.71225103327668e-04
9.30718750000000e+00 1.61688231073322e-02 1.70450854771428e-04
9.35656250000000e+00 1.60529592306738e-02 1.69677719441381e-04
9.40593750000000e+00 1.59379256208706e-02 1.68905739019314e-04
9.45531250000000e+00 1.58237163283285e-02 1.68134954215759e-04
9.50468750000000e+00 1.57103254460872e-02 1.67365404788467e-04
9.55406250000000e+00 1.55977471095153e-02 1.66597129560519e-04
9.60343750000000e+00 1.54859754960064e-02 1.65830166438025e-04
9.65281250000000e+00 1.53750048246784e-02 1.65064552427480e-04
9.70218750000000e+00 1.52648293560741e-02 1.64300323652775e-04
9.75156250000000e+00 1.51554433918649e-02 1.63537515371854e-04
9.80093750000000e+00 1.50468412745554e-02 1.62776161992996e-04
9.85031250000000e+00 1.49390173871914e-02 1.62016297090818e-04
9.89968750000000e+00 1.48319661530689e-02 1.61257953421944e-04
9.94906250000000e+00 1.47256820354462e-02 1.60501162940318e-04
9.99843750000000e+00 1.46201595372569e-02 1.59745956812261e-04
1.00478125000000e+01 1.45153932008262e-02 1.58992365431222e-04
1.00971875000000e+01 1.44113776075882e-02 1.58240418432191e-04
1.01465625000000e+01 1.43081073778059e-02 1.57490144705872e-04
1.01959375000000e+01 1.42055771702928e-02 1.56741572412597e-04
1.02453125000000e+01 1.41037816821367e-02 1.55994728995877e-04
1.02946875000000e+01 1.40027156484255e-02 1.55249641195759e-04
1.03440625000000e+01 1.39023738419748e-02 1.54506335061922e-04
1.03934375000000e+01 1.38027510730575e-02 1.53764835966488e-04
1.04428125000000e+01 1.37038421891357e-02 1.53025168616607e-04
1.04921875000000e+01 1.36056420745938e-02 1.52287357066787e-04
1.05415625000000e+01 1.35081456504741e-02 1.51551424730987e-04
1.05909375000000e+01 1.34113478742141e-02 1.50817394394487e-04
1.06403125000000e+01 1.33152437393859e-02 1.50085288225511e-04
1.06896875000000e+01 1.32198282754368e-02 1.49355127786663e-04
1.07390625000000e+01 1.31250965474327e-02 1.48626934046115e-04
1.07884375000000e+01 1.30310436558025e-02 1.47900727388592e-04
1.08378125000000e+01 1.29376647360850e-02 1.47176527626144e-04
1.08871875000000e+01 1.28449549586770e-02 1.46454354008738e-04
1.09365625000000e+01 1.27529095285838e-02 1.45734225234630e-04
1.09859375000000e+01 1.26615236851711e-02 1.45016159460527e-04
1.10353125000000e+01 1.25707927019184e-02 1.44300174311597e-04
1.10846875000000e+01 1.24807118861754e-02 1.43586286891284e-04
1.11340625000000e+01 1.23912765789183e-02 1.42874513790918e-04
1.11834375000000e+01 1.23024821545097e-02 1.42164871099163e-04
1.12328125000000e+01 1.22143240204587e-02 1.41457374411294e-04
1.12821875000000e+01 1.21267976171839e-02 1.40752038838299e-04
1.13315625000000e+01 1.20398984177770e-02 1.40048879015799e-04
1.13809375000000e+01 1.19536219277692e-02 1.39347909112836e-04
1.14303125000000e+01 1.18679636848986e-02 1.38649142840477e-04
1.14796875000000e+01 1.17829192588791e-02 1.37952593460253e-04
1.15290625000000e+01 1.16984842511717e-02 1.37258273792483e-04
1.15784375000000e+01 1.16146542947568e-02 1.36566196224408e-04
1.16278125000000e+01 1.15314250539083e-02 1.35876372718202e-04
1.16771875000000e+01 1.14487922239693e-02 1.35188814818818e-04
1.17265625000000e+01 1.13667515311297e-02 1.34503533661701e-04
1.17759375000000e+01 1.12852987322051e-02 1.33820539980384e-04
1.18253125000000e+01 1.12044296144170e-02 1.33139844113916e-04
1.18746875000000e+01 1.11241399951754e-02 1.32461456014174e-04
1.19240625000000e+01 1.10444257218621e-02 1.31785385253034e-04
1.19734375000000e+01 1.09652826716162e-02 1.31111641029435e-04
1.20228125000000e+01 1.08867067511207e-02 1.30440232176299e-04
1.20721875000000e+01 1.08086938963906e-02 1.29771167167332e-04
1.21215625000000e+01 1.07312400725633e-02 1.29104454123699e-04
1.21709375000000e+01 1.06543412736894e-02 1.28440100820588e-04
1.22203125000000e+01 1.05779935225255e-02 1.27778114693679e-04
1.22696875000000e+01 1.05021928703289e-02 1.27118502845463e-04
1.23190625000000e+01 1.04269353966530e-02 1.26461272051459e-04
1.23684375000000e+01 1.03522172091447e-02 1.25806428766329e-04
1.24178125000000e+01 1.02780344433429e-02 1.25153979129915e-04
1.24671875000000e+01 1.02043832624790e-02 1.24503928973112e-04
1.25165625000000e+01 1.01312598572782e-02 1.23856283823671e-04
1.25659375000000e+01 1.00586604457622e-02 1.23211048911907e-04
1.26153125000000e+01 9.98658127305434e-03 1.22568229176307e-04
1.26646875000000e+01 9.91501861118469e-03 1.21927829269017e-04
1.27140625000000e+01 9.84396875889760e-03 1.21289853561235e-04
1.27634375000000e+01 9.77342804146017e-03 1.20654306148564e-04
1.28128125000000e+01 9.70339281047220e-03 1.20021190856221e-04
1.28621875000000e+01 9.63385944367751e-03 1.19390511244156e-04
1.29115625000000e+01 9.56482434477655e-03 1.18762270612106e-04
1.29609375000000e+01 9.49628394324047e-03 1.18136472004564e-04
1.30103125000000e+01 9.42823469412635e-03 1.17513118215633e-04
1.30596875000000e+01 9.36067307789397e-03 1.16892211793815e-04
1.31090625000000e+01 9.29359560022369e-03 1.16273755046737e-04
1.31584375000000e+01 9.22699879183575e-03 1.15657750045769e-04
1.32078125000000e+01 9.16087920831086e-03 1.15044198630572e-04
1.32571875000000e+01 9.09523342991200e-03 1.14433102413564e-04
1.33065625000000e+01 9.03005806140761e-03 1.13824462784314e-04
1.33559375000000e+01 8.96534973189594e-03 1.13218280913876e-04
1.34053125000000e+01 8.90110509463073e-03 1.12614557759020e-04
1.34546875000000e+01 8.83732082684811e-03 1.12013294066405e-04
1.35040625000000e+01 8.77399362959474e-03 1.11414490376704e-04
1.35534375000000e+01 8.71112022755720e-03 1.10818147028622e-04
1.36028125000000e+01 8.64869736889258e-03 1.10224264162870e-04
1.36521875000000e+01 8.58672182506026e-03 1.09632841726047e-04
1.37015625000000e+01 8.52519039065501e-03 1.09043879474495e-04
1.37509375000000e+01 8.46409988324111e-03 1.08457376978060e-04
1.38003125000000e+01 8.40344714318784e-03 1.07873333623804e-04
1.38496875000000e+01 8.34322903350598e-03 1.07291748619630e-04
1.38990625000000e+01 8.28344243968563e-03 1.06712620997872e-04
1.39484375000000e+01 8.22408426953510e-03 1.06135949618828e-04
1.39978125000000e+01 8.16515145302096e-03 1.05561733174218e-04
1.40471875000000e+01 8.10664094210931e-03 1.04989970190586e-04
1.40965625000000e+01 8.04854971060807e-03 1.04420659032646e-04
1.41459375000000e+01 7.99087475401051e-03 1.03853797906572e-04
1.41953125000000e+01 7.93361308933983e-03 1.03289384863237e-04
1.42446875000000e+01 7.87676175499490e-03 1.02727417801403e-04
1.42940625000000e+01 7.82031781059708e-03 1.02167894470839e-04
1.43434375000000e+01 7.76427833683812e-03 1.01610812475403e-04
1.43928125000000e+01 7.70864043532919e-03 1.01056169276068e-04
1.44421875000000e+01 7.65340122845098e-03 1.00503962193901e-04
1.44915625000000e+01 7.59855785920486e-03 9.99541884129837e-05
1.45409375000000e+01 7.54410749106510e-03 9.94068449832795e-05
1.45903125000000e+01 7.49004730783221e-03 9.88619288234854e-05
1.46396875000000e+01 7.43637451348721e-03 9.83194367237965e-05
1.46890625000000e+01 7.38308633204711e-03 9.77793653486464e-05
1.47384375000000e+01 7.33018000742124e-03 9.72417112394031e-05
1.47878125000000e+01 7.27765280326878e-03 9.67064708170006e-05
1.48371875000000e+01 7.22550200285719e-03 9.61736403845531e-05
1.48865625000000e+01 7.17372490892173e-03 9.56432161299069e-05
1.49359375000000e+01 7.12231884352593e-03 9.51151941281577e-05
1.49853125000000e+01 7.07128114792309e-03 9.45895703441228e-05
1.50346875000000e+01 7.02060918241879e-03 9.40663406347783e-05
1.50840625000000e+01 6.97030032623433e-03 9.35455007516434e-05
1.51334375000000e+01 6.92035197737122e-03 9.30270463431405e-05
1.51828125000000e+01 6.87076155247657e-03 9.25109729569044e-05
1.52321875000000e+01 6.82152648670950e-03 9.19972760420555e-05
1.52815625000000e+01 6.77264423360848e-03 9.14859509514422e-05
1.53309375000000e+01 6.72411226495961e-03 9.09769929438367e-05
1.53803125000000e+01 6.67592807066588e-03 9.04703971861085e-05
1.54296875000000e+01 6.62808915861734e-03 8.99661587553339e-05
1.54790625000000e+01 6.58059305456219e-03 8.94642726409041e-05
1.55284375000000e+01 6.53343730197886e-03 8.89647337465704e-05
1.55778125000000e+01 6.48661946194889e-03 8.84675368924755e-05
