Energy (eV)          EEDF (eV^-(3/2))     First Anisotropy
3.12096774193548e-03 9.49039013745661e-01 4.47884354475634e-04
9.36290322580645e-03 9.43765563579020e-01 7.40017370613374e-04
1.56048387096774e-02 9.38521415956583e-01 9.78054544588753e-04
2.18467741935484e-02 9.33306408080324e-01 1.15959356786265e-03
2.80887096774194e-02 9.28120378050772e-01 1.31158022305885e-03
3.43306451612903e-02 9.22963164821712e-01 1.44418283275498e-03
4.05725806451613e-02 9.17834608270042e-01 1.56265394872358e-03
4.68145161290323e-02 9.12734549161725e-01 1.67015980786641e-03
5.30564516129032e-02 9.07662829147743e-01 1.76879663114354e-03
5.92983870967742e-02 9.02619290758862e-01 1.86004339782179e-03
6.55403225806452e-02 8.97603777408732e-01 1.94499302063487e-03
7.17822580645161e-02 8.92616133364369e-01 2.02448214329610e-03
7.80241935483871e-02 8.87656203766817e-01 2.09916934219045e-03
8.42661290322581e-02 8.82723834617497e-01 2.16958488931250e-03
9.05080645161290e-02 8.77818872773557e-01 2.23616382650817e-03
9.67500000000000e-02 8.72941165943119e-01 2.29926874952527e-03
1.02991935483871e-01 8.68090562685286e-01 2.35920598031789e-03
1.09233870967742e-01 8.63266912399320e-01 2.41623734433208e-03
1.15475806451613e-01 8.58470065287904e-01 2.47058891622242e-03
1.21717741935484e-01 8.53699872458035e-01 2.52245767707089e-03
1.27959677419355e-01 8.48956185762365e-01 2.57201662848558e-03
1.34201612903226e-01 8.44238857953925e-01 2.61941880024423e-03
1.40443548387097e-01 8.39547742530809e-01 2.66480042884257e-03
1.46685483870968e-01 8.34882693874598e-01 2.70828350526984e-03
1.52927419354839e-01 8.30243567109948e-01 2.74997784317572e-03
1.59169354838710e-01 8.25630218229505e-01 2.78998277016220e-03
1.65411290322581e-01 8.21042503965975e-01 2.82838852686979e-03
1.71653225806452e-01 8.16480281905651e-01 2.86527743017639e-03
1.77895161290323e-01 8.11943410371082e-01 2.90072485091809e-03
1.84137096774194e-01 8.07431748524892e-01 2.93480003807421e-03
1.90379032258065e-01 8.02945156261548e-01 2.96756682111271e-03
1.96620967741935e-01 7.98483494302812e-01 2.99908420542388e-03
2.02862903225806e-01 7.94046624119075e-01 3.02940690326112e-03
2.09104838709677e-01 7.89634407930687e-01 3.05858575738936e-03
2.15346774193548e-01 7.85246708765245e-01 3.08666814267318e-03
2.21588709677419e-01 7.80883390371174e-01 3.11369830066147e-03
2.27830645161290e-01 7.76544317292959e-01 3.13971763479739e-03
2.34072580645161e-01 7.72229354790031e-01 3.16476497123735e-03
2.40314516129032e-01 7.67938368907073e-01 3.18887678795829e-03
2.46556451612903e-01 7.63671226397669e-01 3.21208741884593e-03
2.52798387096774e-01 7.59427794790179e-01 3.23442923402526e-03
2.59040322580645e-01 7.55207942315684e-01 3.25593280172286e-03
2.65282258064516e-01 7.51011537969867e-01 3.27662703200960e-03
2.71524193548387e-01 7.46838451444854e-01 3.29653930673707e-03
2.77766129032258e-01 7.42688553187464e-01 3.31569559542732e-03
2.84008064516129e-01 7.38561714334605e-01 3.33412056072987e-03
2.90250000000000e-01 7.34457806768216e-01 3.35183765282293e-03
2.96491935483871e-01 7.30376703053916e-01 3.36886919586204e-03
3.02733870967742e-01 7.26318276492918e-01 3.38523646559984e-03
3.08975806451613e-01 7.22282401063662e-01 3.40095976089963e-03
3.15217741935484e-01 7.18268951470959e-01 3.41605846810797e-03
3.21459677419355e-01 7.14277803090365e-01 3.43055112070918e-03
3.27701612903226e-01 7.10308832014777e-01 3.44445545313184e-03
3.33943548387097e-01 7.06361915001344e-01 3.45778845089596e-03
3.40185483870968e-01 7.02436929515706e-01 3.47056639591233e-03
3.46427419354839e-01 6.98533753681254e-01 3.48280490893938e-03
3.52669354838710e-01 6.94652266321193e-01 3.49451898797694e-03
3.58911290322581e-01 6.90792346909985e-01 3.50572304444806e-03
3.65153225806452e-01 6.86953875613385e-01 3.51643093594169e-03
3.71395161290323e-01 6.83136733241922e-01 3.52665599723791e-03
3.77637096774194e-01 6.79340801289052e-01 3.53641106839008e-03
3.83879032258065e-01 6.75565961886537e-01 3.54570852148133e-03
3.90120967741935e-01 6.71812097840844e-01 3.55456028269883e-03
3.96362903225806e-01 6.68079092599556e-01 3.56297786411026e-03
4.02604838709677e-01 6.64366830249061e-01 3.57097237183514e-03
4.08846774193548e-01 6.60675195537946e-01 3.57855453455812e-03
4.15088709677419e-01 6.57004073837458e-01 3.58573472018199e-03
4.21330645161290e-01 6.53353351173188e-01 3.59252295291555e-03
4.27572580645161e-01 6.49722914186986e-01 3.59892892984687e-03
4.33814516129032e-01 6.46112650167313e-01 3.60496203591906e-03
4.40056451612903e-01 6.42522447012522e-01 3.61063135853358e-03
4.46298387096774e-01 6.38952193259961e-01 3.61594570072430e-03
4.52540322580645e-01 6.35401778050552e-01 3.62091359407917e-03
4.58782258064516e-01 6.31871091156703e-01 3.62554331037448e-03
4.65024193548387e-01 6.28360022948117e-01 3.62984287305114e-03
4.71266129032258e-01 6.24868464418591e-01 3.63382006752367e-03
4.77508064516129e-01 6.21396307152979e-01 3.63748245141115e-03
4.83750000000000e-01 6.17943443352940e-01 3.64083736370302e-03
4.89991935483871e-01 6.14509765805001e-01 3.64389193391034e-03
4.96233870967742e-01 6.11095167905310e-01 3.64665309024103e-03
5.02475806451613e-01 6.07699543628742e-01 3.64912756781268e-03
5.08717741935484e-01 6.04322787552703e-01 3.65132191596617e-03
5.14959677419355e-01 6.00964794827233e-01 3.65324250565764e-03
5.21201612903226e-01 5.97625461197918e-01 3.65489553601993e-03
5.27443548387097e-01 5.94304682976935e-01 3.65628704103804e-03
5.33685483870968e-01 5.91002357065106e-01 3.65742289544953e-03
5.39927419354839e-01 5.87718380923857e-01 3.65830882078940e-03
5.46169354838710e-01 5.84452652596457e-01 3.65895039071149e-03
5.52411290322581e-01 5.81205070680832e-01 3.65935303647530e-03
5.58653225806452e-01 5.77975534350046e-01 3.65952205175663e-03
5.64895161290323e-01 5.74763943325924e-01 3.65946259764297e-03
5.71137096774194e-01 5.71570197898809e-01 3.65917970699106e-03
5.77379032258065e-01 5.68394198901964e-01 3.65867828898519e-03
5.83620967741936e-01 5.65235847730634e-01 3.65796313161958e-03
5.89862903225806e-01 5.62095046322415e-01 3.65703891177463e-03
5.96104838709677e-01 5.58971697154750e-01 3.65591018998948e-03
6.02346774193548e-01 5.55865703257252e-01 3.65458142002201e-03
6.08588709677419e-01 5.52776968188246e-01 3.65305695097506e-03
6.14830645161290e-01 5.49705396051906e-01 3.65134103043731e-03
6.21072580645161e-01 5.46650891475456e-01 3.64943780784672e-03
6.27314516129032e-01 5.43613359625729e-01 3.64735133736235e-03
6.33556451612903e-01 5.40592706186995e-01 3.64508558096411e-03
6.39798387096774e-01 5.37588837376975e-01 3.64264441108347e-03
6.46040322580645e-01 5.34601659925267e-01 3.64003161346526e-03
6.52282258064516e-01 5.31631081088836e-01 3.63725088958133e-03
6.58524193548387e-01 5.28677008631020e-01 3.63430585927851e-03
6.64766129032258e-01 5.25739350836514e-01 3.63120006299544e-03
6.71008064516129e-01 5.22818016490936e-01 3.62793696421705e-03
6.77250000000000e-01 5.19912914895327e-01 3.62451995151601e-03
6.83491935483871e-01 5.17023955846251e-01 3.62095234083031e-03
6.89733870967742e-01 5.14151049649834e-01 3.61723737734483e-03
6.95975806451613e-01 5.11294107102380e-01 3.61337823761061e-03
7.02217741935484e-01 5.08453039503964e-01 3.60937803128087e-03
7.08459677419355e-01 5.05627758639546e-01 3.60523980308425e-03
7.14701612903226e-01 5.02818176792141e-01 3.60096653443028e-03
7.20943548387097e-01 5.00024206724405e-01 3.59656114525116e-03
7.27185483870968e-01 4.97245761691399e-01 3.59202649548635e-03
7.33427419354839e-01 4.94482755422639e-01 3.58736538680340e-03
7.39669354838710e-01 4.91735102134464e-01 3.58258056397460e-03
7.45911290322581e-01 4.89002716512531e-01 3.57767471648667e-03
7.52153225806452e-01 4.86285513723805e-01 3.57265047981828e-03
7.58395161290323e-01 4.83583409399487e-01 3.56751043694778e-03
7.64637096774194e-01 4.80896319646636e-01 3.56225711953988e-03
7.70879032258065e-01 4.78224161031512e-01 3.55689300936126e-03
7.77120967741936e-01 4.75566850590854e-01 3.55142053830773e-03
7.83362903225806e-01 4.72924305818918e-01 3.54584209404341e-03
7.89604838709677e-01 4.70296444665200e-01 3.54016001458557e-03
7.95846774193548e-01 4.67683185541637e-01 3.53437659375101e-03
8.02088709677419e-01 4.65084447307087e-01 3.52849408125270e-03
8.08330645161290e-01 4.62500149277628e-01 3.52251468362617e-03
8.14572580645161e-01 4.59930211211400e-01 3.51644056537127e-03
8.20814516129032e-01 4.57374553318605e-01 3.51027384981673e-03
8.27056451612903e-01 4.54833096246696e-01 3.50401662019723e-03
8.33298387096774e-01 4.52305761090091e-01 3.49767092046144e-03
8.39540322580645e-01 4.49792469375702e-01 3.49123875628967e-03
8.45782258064516e-01 4.47293143072364e-01 3.48472209584808e-03
8.52024193548387e-01 4.44807704576696e-01 3.47812287075225e-03
8.58266129032258e-01 4.42336076722264e-01 3.47144297677278e-03
8.64508064516129e-01 4.39878182765757e-01 3.46468427474623e-03
8.70750000000000e-01 4.37433946395886e-01 3.45784859123773e-03
8.76991935483871e-01 4.35003291719877e-01 3.45093771940290e-03
8.83233870967742e-01 4.32586143272113e-01 3.44395341960883e-03
8.89475806451613e-01 4.30182426000928e-01 3.43689742025343e-03
8.95717741935484e-01 4.27792065277008e-01 3.42977141834601e-03
9.01959677419355e-01 4.25414986880470e-01 3.42257708028491e-03
9.08201612903226e-01 4.23051117009035e-01 3.41531604240397e-03
9.14443548387097e-01 4.20700382265387e-01 3.40798991171141e-03
9.20685483870968e-01 4.18362709665118e-01 3.40060026640224e-03
9.26927419354839e-01 4.16038026624359e-01 3.39314865656121e-03
9.33169354838710e-01 4.13726260967510e-01 3.38563660464513e-03
9.39411290322581e-01 4.11427340915136e-01 3.37806560615169e-03
9.45653225806452e-01 4.09141195091480e-01 3.37043713007294e-03
9.51895161290323e-01 4.06867752512625e-01 3.36275261953279e-03
9.58137096774194e-01 4.04606942593797e-01 3.35501349221418e-03
9.64379032258065e-01 4.02358695137777e-01 3.34722114096646e-03
9.70620967741936e-01 4.00122940342008e-01 3.33937693339732e-03
9.76862903225806e-01 3.97899608789475e-01 3.33148221569819e-03
9.83104838709677e-01 3.95688631446710e-01 3.32353830817136e-03
9.89346774193548e-01 3.93489939668239e-01 3.31554650894650e-03
9.95588709677419e-01 3.91303465185677e-01 3.30750809368295e-03
1.00183064516129e+00 3.89129140114277e-01 3.29942431360274e-03
1.00807258064516e+00 3.86966896948515e-01 3.29129640682459e-03
1.01431451612903e+00 3.84816668539233e-01 3.28312557789017e-03
1.02055645161290e+00 3.82678388145642e-01 3.27491301880898e-03
1.02679838709677e+00 3.80551989356700e-01 3.26665989923593e-03
1.03304032258065e+00 3.78437406170980e-01 3.25836736832240e-03
1.03928225806452e+00 3.76334572913705e-01 3.25003656336456e-03
1.04552419354839e+00 3.74243424295108e-01 3.24166857981130e-03
1.05176612903226e+00 3.72163895407662e-01 3.23326451654438e-03
1.05800806451613e+00 3.70095921665540e-01 3.22482544669193e-03
1.06425000000000e+00 3.68039438880281e-01 3.21635242470018e-03
1.07049193548387e+00 3.65994383182081e-01 3.20784648755194e-03
1.07673387096774e+00 3.63960691093586e-01 3.19930865422134e-03
1.08297580645161e+00 3.61938299453071e-01 3.19073992685847e-03
1.08921774193548e+00 3.59927145486418e-01 3.18214129024831e-03
1.09545967741936e+00 3.57927166732124e-01 3.17351371978119e-03
1.10170161290323e+00 3.55938301093887e-01 3.16485815360335e-03
1.10794354838710e+00 3.53960486838015e-01 3.15617553455844e-03
1.11418548387097e+00 3.51993662538649e-01 3.14746678307872e-03
1.12042741935484e+00 3.50037767146034e-01 3.13873280371577e-03
1.12666935483871e+00 3.48092739915276e-01 3.12997448622142e-03
1.13291129032258e+00 3.46158520472978e-01 3.12119270501562e-03
1.13915322580645e+00 3.44235048747660e-01 3.11238832023986e-03
1.14539516129032e+00 3.42322265034794e-01 3.10356217723029e-03
1.15163709677419e+00 3.40420109928841e-01 3.09471510754391e-03
1.15787903225806e+00 3.38528524386740e-01 3.08584792843675e-03
1.16412096774194e+00 3.36647449661505e-01 3.07696145008440e-03
1.17036290322581e+00 3.34776827348608e-01 3.06805645015145e-03
1.17660483870968e+00 3.32916599383604e-01 3.05913371200115e-03
1.18284677419355e+00 3.31066707993540e-01 3.05019399993998e-03
1.18908870967742e+00 3.29227095757273e-01 3.04123806514164e-03
1.19533064516129e+00 3.27397705542300e-01 3.03226664659128e-03
1.20157258064516e+00 3.25578480563656e-01 3.02328047057774e-03
1.20781451612903e+00 3.23769364322181e-01 3.01428025161335e-03
1.21405645161290e+00 3.21970300662049e-01 3.00526669193197e-03
1.22029838709677e+00 3.20181233710415e-01 2.99624048238662e-03
1.22654032258065e+00 3.18402107933625e-01 2.98720230195499e-03
1.23278225806452e+00 3.16632868078201e-01 2.97815282429449e-03
1.23902419354839e+00 3.14873459211915e-01 2.96909269449227e-03
1.24526612903226e+00 3.13123826721575e-01 2.96002256394481e-03
1.25150806451613e+00 3.11383916269804e-01 2.95094306771003e-03
1.25775000000000e+00 3.09653673848497e-01 2.94185482990264e-03
1.26399193548387e+00 3.07933045722617e-01 2.93275846452465e-03
1.27023387096774e+00 3.06221978482444e-01 2.92365457498464e-03
1.27647580645161e+00 3.04520418988606e-01 2.91454375490818e-03
1.28271774193548e+00 3.02828314423140e-01 2.90542658766413e-03
1.28895967741936e+00 3.01145612235729e-01 2.89630365244688e-03
1.29520161290323e+00 2.99472260181002e-01 2.88717550261796e-03
1.30144354838710e+00 2.97808206316459e-01 2.87804269815563e-03
1.30768548387097e+00 2.96153398963048e-01 2.86890578455309e-03
1.31392741935484e+00 2.94507786753780e-01 2.85976529783248e-03
1.32016935483871e+00 2.92871318582465e-01 2.85062176529567e-03
1.32641129032258e+00 2.91243943651248e-01 2.84147570506677e-03
1.33265322580645e+00 2.89625611420449e-01 2.83232762682720e-03
1.33889516129032e+00 2.88016271655047e-01 2.82317803136565e-03
1.34513709677419e+00 2.86415874375585e-01 2.81402741129532e-03
1.35137903225806e+00 2.84824369903642e-01 2.80487625060993e-03
1.35762096774194e+00 2.83241708813776e-01 2.79572503023374e-03
1.36386290322581e+00 2.81667841966734e-01 2.78657420816739e-03
1.37010483870968e+00 2.80102720507528e-01 2.77742424919737e-03
1.37634677419355e+00 2.78546295830164e-01 2.76827560555095e-03
1.38258870967742e+00 2.76998519620968e-01 2.75912872147659e-03
1.38883064516129e+00 2.75459343812729e-01 2.74998403391237e-03
1.39507258064516e+00 2.73928720627090e-01 2.74084197205835e-03
1.40131451612903e+00 2.72406602529651e-01 2.73170295803103e-03
1.40755645161290e+00 2.70892942271442e-01 2.72256740644242e-03
1.41379838709677e+00 2.69387692844966e-01 2.71343572503990e-03
1.42004032258065e+00 2.67890807524777e-01 2.70430831429252e-03
1.42628225806452e+00 2.66402239824435e-01 2.69518557246067e-03
1.43252419354839e+00 2.64921943526141e-01 2.68606787737917e-03
1.43876612903226e+00 2.63449872678951e-01 2.67695561369641e-03
1.44500806451613e+00 2.61985981567134e-01 2.66784915511419e-03
1.45125000000000e+00 2.60530224748891e-01 2.65874886858237e-03
1.45749193548387e+00 2.59082557015230e-01 2.64965511489661e-03
1.46373387096774e+00 2.57642933427859e-01 2.64056824830017e-03
1.46997580645161e+00 2.56211309278901e-01 2.63148861706913e-03
1.47621774193548e+00 2.54787640127994e-01 2.62241656312009e-03
1.48245967741936e+00 2.53371881762824e-01 2.61335242673433e-03
1.48870161290323e+00 2.51963990226211e-01 2.60429652954454e-03
1.49494354838710e+00 2.50563921814418e-01 2.59524919995412e-03
1.50118548387097e+00 2.49171633048132e-01 2.58621075654772e-03
1.50742741935484e+00 2.47787080707873e-01 2.57718151200478e-03
1.51366935483871e+00 2.46410221796267e-01 2.56816177364593e-03
1.51991129032258e+00 2.45041013572723e-01 2.55915184305722e-03
1.52615322580645e+00 2.43679413516465e-01 2.55015201662650e-03
1.53239516129032e+00 2.42325379360486e-01 2.54116258517349e-03
1.53863709677419e+00 2.40978869055322e-01 2.53218383447511e-03
1.54487903225806e+00 2.39639840802305e-01 2.52321604490053e-03
1.55112096774194e+00 2.38308253018058e-01 2.51425949574324e-03
1.55736290322581e+00 2.36984064358766e-01 2.50531444957621e-03
1.56360483870968e+00 2.35667233718607e-01 2.49638117560789e-03
1.56984677419355e+00 2.34357720203614e-01 2.48745993442808e-03
1.57608870967742e+00 2.33055483163440e-01 2.47855098159809e-03
1.58233064516129e+00 2.31760482157394e-01 2.46965456814310e-03
1.58857258064516e+00 2.30472676985558e-01 2.46077094020370e-03
1.59481451612903e+00 2.29192027655492e-01 2.45190033951874e-03
1.60105645161290e+00 2.27918494412718e-01 2.44304300308186e-03
1.60729838709677e+00 2.26652037708077e-01 2.43419916361462e-03
1.61354032258065e+00 2.25392618227595e-01 2.42536904922919e-03
1.61978225806452e+00 2.24140196860479e-01 2.41655288740227e-03
1.62602419354839e+00 2.22894734720910e-01 2.40775089057810e-03
1.63226612903226e+00 2.21656193146582e-01 2.39896327765285e-03
1.63850806451613e+00 2.20424533675113e-01 2.39019025993009e-03
1.64475000000000e+00 2.19199718072602e-01 2.38143204442191e-03
1.65099193548387e+00 2.17981708302985e-01 2.37268883429369e-03
1.65723387096774e+00 2.16770466556020e-01 2.36396082854047e-03
1.66347580645161e+00 2.15565955217237e-01 2.35524822242331e-03
1.66971774193548e+00 2.14368136895358e-01 2.34655120715031e-03
1.67595967741936e+00 2.13176974392830e-01 2.33786997359053e-03
1.68220161290323e+00 2.11992430725830e-01 2.32920469880061e-03
1.68844354838710e+00 2.10814469122879e-01 2.32055556612015e-03
1.69468548387097e+00 2.09643053003112e-01 2.31192275202705e-03
1.70092741935484e+00 2.08478146002511e-01 2.30330642922472e-03
1.70716935483871e+00 2.07319711945670e-01 2.29470676705208e-03
1.71341129032258e+00 2.06167714871512e-01 2.28612393117893e-03
1.71965322580645e+00 2.05022119005598e-01 2.27755808400870e-03
1.72589516129032e+00 2.03882888785331e-01 2.26900938437842e-03
1.73213709677419e+00 2.02749988832790e-01 2.26047798795403e-03
1.73837903225806e+00 2.01623383979442e-01 2.25196404693457e-03
1.74462096774194e+00 2.00503039239491e-01 2.24346771346863e-03
1.75086290322581e+00 1.99388919827895e-01 2.23498912723508e-03
1.75710483870968e+00 1.98280991159082e-01 2.22652843395698e-03
1.76334677419355e+00 1.97179218827271e-01 2.21808577328519e-03
1.76958870967742e+00 1.96083568630128e-01 2.20966128164015e-03
1.77583064516129e+00 1.94994006543221e-01 2.20125509258353e-03
1.78207258064516e+00 1.93910498743210e-01 2.19286733653624e-03
1.78831451612903e+00 1.92833011582782e-01 2.18449814114422e-03
1.79455645161290e+00 1.91761511613393e-01 2.17614763100012e-03
1.80079838709677e+00 1.90695965560667e-01 2.16781592800223e-03
1.80704032258065e+00 1.89636340346705e-01 2.15950315108100e-03
1.81328225806452e+00 1.88582603065935e-01 2.15120941934291e-03
1.81952419354839e+00 1.87534721001376e-01 2.14293484061563e-03
1.82576612903226e+00 1.86492661623437e-01 2.13467952852024e-03
1.83200806451613e+00 1.85456392572073e-01 2.12644359129132e-03
1.83825000000000e+00 1.84425881678152e-01 2.11822713439659e-03
1.84449193548387e+00 1.83401096940299e-01 2.11003026087498e-03
1.85073387096774e+00 1.82382006545850e-01 2.10185307107533e-03
1.85697580645161e+00 1.81368578848123e-01 2.09369566298886e-03
1.86321774193548e+00 1.80360782386972e-01 2.08555813199133e-03
1.86945967741936e+00 1.79358585866476e-01 2.07744057378707e-03
1.87570161290323e+00 1.78361958169917e-01 2.06934307367149e-03
1.88194354838710e+00 1.77370868358644e-01 2.06126572252835e-03
1.88818548387097e+00 1.76385285655574e-01 2.05320860634864e-03
1.89442741935484e+00 1.75405179464888e-01 2.04517180868566e-03
1.90066935483871e+00 1.74430519350626e-01 2.03715541096831e-03
1.90691129032258e+00 1.73461275056006e-01 2.02915949225505e-03
1.91315322580645e+00 1.72497416482407e-01 2.02118412954226e-03
1.91939516129032e+00 1.71538913708328e-01 2.01322939752210e-03
1.92563709677419e+00 1.70585736968748e-01 2.00529536888473e-03
1.93187903225806e+00 1.69637856673731e-01 1.99738211408014e-03
1.93812096774194e+00 1.68695243388159e-01 1.98948970403339e-03
1.94436290322581e+00 1.67757867845284e-01 1.98161820022609e-03
1.95060483870968e+00 1.66825700945664e-01 1.97376766946750e-03
1.95684677419355e+00 1.65898713742167e-01 1.96593817421386e-03
1.96308870967742e+00 1.64976877457809e-01 1.95812977483319e-03
1.96933064516129e+00 1.64060163466295e-01 1.95034252989136e-03
