Energy (eV)          EEDF (eV^-(3/2))     First Anisotropy
3.11250000000000e-01 5.57564152560998e-02 1.00545218590115e-04
9.33750000000000e-01 5.11428513244107e-02 1.59696579658244e-04
1.55625000000000e+00 4.69110366865735e-02 1.94682452458727e-04
2.17875000000000e+00 4.30293835017106e-02 2.12901913235489e-04
2.80125000000000e+00 3.94689176644696e-02 2.22115394091588e-04
3.42375000000000e+00 3.62030625315082e-02 2.25588008599708e-04
4.04625000000000e+00 3.32074405435284e-02 2.25147266566134e-04
4.66875000000000e+00 3.04596912620927e-02 2.21958573974335e-04
5.29125000000000e+00 2.79393044629818e-02 2.16821244477499e-04
5.91375000000000e+00 2.56274670402409e-02 2.10308603896226e-04
6.53625000000000e+00 2.35069225781485e-02 2.02843942699278e-04
7.15875000000000e+00 2.15618425429014e-02 1.94745745791073e-04
7.78125000000000e+00 1.97777081325415e-02 1.86256542365978e-04
8.40375000000000e+00 1.81412019032100e-02 1.77562291736679e-04
9.02625000000000e+00 1.66401083627854e-02 1.68805947813687e-04
9.64875000000000e+00 1.52632227898993e-02 1.60097258981939e-04
1.02712500000000e+01 1.40002675977228e-02 1.51520031950408e-04
1.08937500000000e+01 1.28418156182296e-02 1.43137628493863e-04
1.15162500000000e+01 1.17792197343021e-02 1.34997195599856e-04
1.21387500000000e+01 1.08045483344278e-02 1.27132965915184e-04
1.27612500000000e+01 9.91052610819671e-03 1.19568861887921e-04
1.33837500000000e+01 9.09047974067395e-03 1.12320569393275e-04
1.40062500000000e+01 8.33828810029136e-03 1.05397201204350e-04
1.46287500000000e+01 7.64833654844117e-03 9.88026393741047e-05
1.52512500000000e+01 7.01547502972187e-03 9.25366235521656e-05
1.58737500000000e+01 6.43497963000622e-03 8.65956364232087e-05
1.64962500000000e+01 5.90251731538651e-03 8.09736258712516e-05
1.71187500000000e+01 5.41411358879529e-03 7.56625948668019e-05
1.77412500000000e+01 4.96612282287873e-03 7.06530835844649e-05
1.83637500000000e+01 4.55520104767596e-03 6.59345633021191e-05
1.89862500000000e+01 4.17828098998165e-03 6.14957578023713e-05
1.96087500000000e+01 3.83254917807613e-03 5.73249050052972e-05
2.02312500000000e+01 3.51542494092445e-03 5.34099692023533e-05
2.08537500000000e+01 3.22454114508644e-03 4.97388123848897e-05
2.14762500000000e+01 2.95772652555087e-03 4.62993316564495e-05
2.20987500000000e+01 2.71298947860463e-03 4.30795685036597e-05
2.27212500000000e+01 2.48850319576067e-03 4.00677947138978e-05
2.33437500000000e+01 2.28259202777893e-03 3.72525789217611e-05
2.39662500000000e+01 2.09371897699625e-03 3.46228371042680e-05
2.45887500000000e+01 1.92047422460322e-03 3.21678697984377e-05
2.52112500000000e+01 1.76156460723140e-03 2.98773883623205e-05
2.58337500000000e+01 1.61580396430024e-03 2.77415322242276e-05
2.64562500000000e+01 1.48210428407263e-03 2.57508787509868e-05
2.70787500000000e+01 1.35946758232998e-03 2.38964471034268e-05
2.77012500000000e+01 1.24697845304626e-03 2.21696972270433e-05
2.83237500000000e+01 1.14379723545641e-03 2.05625249406892e-05
2.89462500000000e+01 1.04915374651562e-03 1.90672539302665e-05
2.95687500000000e+01 9.62341531966133e-04 1.76766253229661e-05
3.01912500000000e+01 8.82712593099567e-04 1.63837854066234e-05
3.08137500000000e+01 8.09672549853104e-04 1.51822719649832e-05
3.14362500000000e+01 7.42676204135315e-04 1.40659996203516e-05
3.20587500000000e+01 6.81223470264502e-04 1.30292445080238e-05
3.26812500000000e+01 6.24855642142883e-04 1.20666285501097e-05
3.33037500000000e+01 5.73151969303399e-04 1.11731035483594e-05
3.39262500000000e+01 5.25726516271493e-04 1.03439352749933e-05
3.45487500000000e+01 4.82225281798960e-04 9.57468770623862e-06
3.51712500000000e+01 4.42323556466759e-04 8.86120751433134e-06
3.57937500000000e+01 4.05723498932951e-04 8.19960890935248e-06
3.64162500000000e+01 3.72151912733969e-04 7.58625890175710e-06
3.70387500000000e+01 3.41358207044447e-04 7.01776303924427e-06
3.76612500000000e+01 3.13112526173947e-04 6.49095165721983e-06
3.82837500000000e+01 2.87204033838465e-04 6.00286667010147e-06
3.89062500000000e+01 2.63439339399859e-04 5.55074892075240e-06
3.95287500000000e+01 2.41641054326096e-04 5.13202609710132e-06
4.01512500000000e+01 2.21646468097158e-04 4.74430121825408e-06
4.07737500000000e+01 2.03306333673114e-04 4.38534168690177e-06
4.13962500000000e+01 1.86483753458617e-04 4.05306890039376e-06
4.20187500000000e+01 1.71053157448253e-04 3.74554840930751e-06
4.26412500000000e+01 1.56899365925246e-04 3.46098060957180e-06
4.32637500000000e+01 1.43916729717143e-04 3.19769195206625e-06
4.38862500000000e+01 1.32008341591039e-04 2.95412665202664e-06
4.45087500000000e+01 1.21085312901885e-04 2.72883887944369e-06
4.51312500000000e+01 1.11066110094537e-04 2.52048541087927e-06
4.57537500000000e+01 1.01875946106918e-04 2.32781872267393e-06
4.63762500000000e+01 9.34462221315350e-05 2.14968050532815e-06
4.69987500000000e+01 8.57140155684231e-05 1.98499557886156e-06
4.76212500000000e+01 7.86216103474187e-05 1.83276618914832e-06
4.82437500000000e+01 7.21160661139126e-05 1.69206666556031e-06
4.88662500000000e+01 6.61488230623219e-05 1.56203842069347e-06
4.94887500000000e+01 6.06753394676115e-05 1.44188527348246e-06
5.01112500000000e+01 5.56547592092665e-05 1.33086907760476e-06
5.07337500000000e+01 5.10496068059883e-05 1.22830563771859e-06
5.13562500000000e+01 4.68255076847426e-05 1.13356089675762e-06
5.19787500000000e+01 4.29509315961409e-05 1.04604737820451e-06
5.26012500000000e+01 3.93969572609133e-05 9.65220867976875e-07
5.32237500000000e+01 3.61370564907069e-05 8.90577321274237e-07
5.38462500000000e+01 3.31468961718052e-05 8.21649980445617e-07
5.44687500000000e+01 3.04041566337032e-05 7.58006690640234e-07
5.50912500000000e+01 2.78883650467722e-05 6.99247400692826e-07
5.57137500000000e+01 2.55807426054328e-05 6.45001837367481e-07
5.63362500000000e+01 2.34640643561550e-05 5.94927341736654e-07
5.69587500000000e+01 2.15225306239880e-05 5.48706857103195e-07
5.75812500000000e+01 1.97416490779012e-05 5.06047058481215e-07
5.82037500000000e+01 1.81081265546265e-05 4.66676614235558e-07
5.88262500000000e+01 1.66097698335355e-05 4.30344571038686e-07
5.94487500000000e+01 1.52353946218992e-05 3.96818853837833e-07
6.00712500000000e+01 1.39747420711601e-05 3.65884873034174e-07
6.06937500000000e+01 1.28184022010654e-05 3.37344231559705e-07
6.13162500000000e+01 1.17577436600687e-05 3.11013524996940e-07
6.19387500000000e+01 1.07848492977070e-05 2.86723228321840e-07
6.25612500000000e+01 9.89245706804016e-06 2.64316663262276e-07
6.31837500000000e+01 9.07390582303494e-06 2.43649040653491e-07
6.38062500000000e+01 8.32308559127457e-06 2.24586572539222e-07
6.44287500000000e+01 7.63439197085609e-06 2.07005649113192e-07
6.50512500000000e+01 7.00268429604683e-06 1.90792075921476e-07
6.56737500000000e+01 6.42324726544031e-06 1.75840367052607e-07
6.62962500000000e+01 5.89175574519010e-06 1.62053090330110e-07
6.69187500000000e+01 5.40424248459958e-06 1.49340260792363e-07
6.75412500000000e+01 4.95706850308484e-06 1.37618778998049e-07
6.81637500000000e+01 4.54689592746808e-06 1.26811910932986e-07
6.87862500000000e+01 4.17066307684874e-06 1.16848806516449e-07
6.94087500000000e+01 3.82556160907677e-06 1.07664053913271e-07
7.00312500000000e+01 3.50901555824065e-06 9.91972670526081e-08
7.06537500000000e+01 3.21866210669824e-06 9.13927039361731e-08
7.12762500000000e+01 2.95233394812571e-06 8.41989134886637e-08
7.18987500000000e+01 2.70804310993577e-06 7.75684088617696e-08
7.25212500000000e+01 2.48396611430976e-06 7.14573652511453e-08
7.31437500000000e+01 2.27843036707989e-06 6.58253404238199e-08
7.37662500000000e+01 2.08990167286333e-06 6.06350162822149e-08
7.43887500000000e+01 1.91697278325636e-06 5.58519599108667e-08
7.50112500000000e+01 1.75835289260805e-06 5.14444026636617e-08
7.56337500000000e+01 1.61285800296604e-06 4.73830359534011e-08
7.62562500000000e+01 1.47940208627475e-06 4.36408225023039e-08
7.68787500000000e+01 1.35698897785745e-06 4.01928219021218e-08
7.75012500000000e+01 1.24470494067197e-06 3.70160294162986e-08
7.81237500000000e+01 1.14171184483707e-06 3.40892270344745e-08
7.87462500000000e+01 1.04724091151881e-06 3.13928458620271e-08
7.93687500000000e+01 9.60586974478883e-07 2.89088389945861e-08
7.99912500000000e+01 8.81103216451185e-07 2.66205640899330e-08
8.06137500000000e+01 8.08196341056767e-07 2.45126749077139e-08
8.12362500000000e+01 7.41322144218655e-07 2.25710211412481e-08
8.18587500000000e+01 6.79981452019892e-07 2.07825559157113e-08
8.24812500000000e+01 6.23716394683473e-07 1.91352503733564e-08
8.31037500000000e+01 5.72106988861762e-07 1.76180148094689e-08
8.37262500000000e+01 5.24768002724341e-07 1.62206258626707e-08
8.43487500000000e+01 4.81346080444115e-07 1.49336593001972e-08
8.49712500000000e+01 4.41517104617792e-07 1.37484279730846e-08
8.55937500000000e+01 4.04983776932843e-07 1.26569245480149e-08
8.62162500000000e+01 3.71473399022154e-07 1.16517686520374e-08
8.68387500000000e+01 3.40735836941822e-07 1.07261580936994e-08
8.74612500000000e+01 3.12541654078223e-07 9.87382384941903e-09
8.80837500000000e+01 2.86680398547659e-07 9.08898852736326e-09
8.87062500000000e+01 2.62959032305100e-07 8.36632804280172e-09
8.93287500000000e+01 2.41200490236304e-07 7.70093625899428e-09
8.99512500000000e+01 2.21242358477850e-07 7.08829236627545e-09
9.05737500000000e+01 2.02935662099554e-07 6.52423078921547e-09
9.11962500000000e+01 1.86143753100099e-07 6.00491342767346e-09
9.18187500000000e+01 1.70741290415445e-07 5.52680405230291e-09
9.24412500000000e+01 1.56613304326439e-07 5.08664468871261e-09
9.30637500000000e+01 1.43654338282002e-07 4.68143383710682e-09
9.36862500000000e+01 1.31767661732145e-07 4.30840638590234e-09
9.43087500000000e+01 1.20864548095116e-07 3.96501508861593e-09
9.49312500000000e+01 1.10863612469135e-07 3.64891348329998e-09
9.55537500000000e+01 1.01690204145174e-07 3.35794014303514e-09
9.61762500000000e+01 9.32758493862549e-08 3.09010415452288e-09
9.67987500000000e+01 8.55577403139692e-08 2.84357172971041e-09
9.74212500000000e+01 7.84782660870766e-08 2.61665386267217e-09
9.80437500000000e+01 7.19845828727249e-08 2.40779495071128e-09
9.86662500000000e+01 6.60282194003966e-08 2.21556230487238e-09
9.92887500000000e+01 6.05647151542893e-08 2.03863648081150e-09
9.99112500000000e+01 5.55532885034632e-08 1.87580236628551e-09
1.00533750000000e+02 5.09565322925563e-08 1.72594096643532e-09
1.01156250000000e+02 4.67401346208418e-08 1.58802183257403e-09
1.01778750000000e+02 4.28726227254193e-08 1.46109608438219e-09
1.02401250000000e+02 3.93251280567886e-08 1.34428997928250e-09
1.03023750000000e+02 3.60711707932418e-08 1.23679898634075e-09
1.03646250000000e+02 3.30864621856104e-08 1.13788232534026e-09
1.04268750000000e+02 3.03487232569931e-08 1.04685793472457e-09
1.04891250000000e+02 2.78375185041731e-08 9.63097834916826e-10
1.05513750000000e+02 2.55341033594096e-08 8.86023856121670e-10
1.06136250000000e+02 2.34212842740014e-08 8.15103702113211e-10
1.06758750000000e+02 2.14832903792346e-08 7.49847323726027e-10
1.07381250000000e+02 1.97056557667434e-08 6.89803577808662e-10
1.08003750000000e+02 1.80751115095817e-08 6.34557149284529e-10
1.08626250000000e+02 1.65794866180089e-08 5.83725715704832e-10
1.09248750000000e+02 1.52076171906890e-08 5.36957335283525e-10
1.09871250000000e+02 1.39492630831723e-08 4.93928040885736e-10
1.10493750000000e+02 1.27950314716422e-08 4.54339623807810e-10
1.11116250000000e+02 1.17363067413798e-08 4.17917592448089e-10
1.11738750000000e+02 1.07651861766056e-08 3.84409292130827e-10
1.12361250000000e+02 9.87442097166555e-09 3.53582173418751e-10
1.12983750000000e+02 9.05736212324502e-09 3.25222197239568e-10
1.13606250000000e+02 8.30791079973130e-09 2.99132366064755e-10
1.14228750000000e+02 7.62047281726254e-09 2.75131371220996e-10
1.14851250000000e+02 6.98991688265543e-09 2.53052347191228e-10
1.15473750000000e+02 6.41153629152145e-09 2.32741724478442e-10
1.16096250000000e+02 5.88101379567192e-09 2.14058173265767e-10
1.16718750000000e+02 5.39438937756931e-09 1.96871630715400e-10
1.17341250000000e+02 4.94803069128116e-09 1.81062405310392e-10
1.17963750000000e+02 4.53860594929695e-09 1.66520352161062e-10
1.18586250000000e+02 4.16305905282494e-09 1.53144113675074e-10
1.19208750000000e+02 3.81858677993235e-09 1.40840420430295e-10
1.19831250000000e+02 3.50261786125264e-09 1.29523447495164e-10
1.20453750000000e+02 3.21279378707307e-09 1.19114221815285e-10
1.21076250000000e+02 2.94695120253965e-09 1.09540076629607e-10
1.21698750000000e+02 2.70310575957061e-09 1.00734149197317e-10
1.22321250000000e+02 2.47943730494312e-09 9.26349184093597e-11
1.22943750000000e+02 2.27427629399160e-09 8.51857791284199e-11
1.23566250000000e+02 2.08609132850440e-09 7.83346503499443e-11
1.24188750000000e+02 1.91347772579708e-09 7.20336145059847e-11
1.24811250000000e+02 1.75514703363758e-09 6.62385854449066e-11
1.25433750000000e+02 1.60991741275878e-09 6.09090028146586e-11
1.26056250000000e+02 1.47670481516998e-09 5.60075507566683e-11
1.26678750000000e+02 1.35451489241886e-09 5.14998989827080e-11
1.27301250000000e+02 1.24243557340421e-09 4.73544644593504e-11
1.27923750000000e+02 1.13963025633749e-09 4.35421920649439e-11
1.28546250000000e+02 1.04533156403541e-09 4.00363527132970e-11
1.29168750000000e+02 9.58835615930782e-10 3.68123575573529e-11
1.29791250000000e+02 8.79496774045771e-10 3.38475869958457e-11
1.30413750000000e+02 8.06722823709499e-10 3.11212333069888e-11
1.31036250000000e+02 7.39970553047144e-10 2.86141558263544e-11
1.31658750000000e+02 6.78741698244144e-10 2.63087476718543e-11
1.32281250000000e+02 6.22579224319475e-10 2.41888130977278e-11
1.32903750000000e+02 5.71063913646304e-10 2.22394546322014e-11
1.33526250000000e+02 5.23811236755451e-10 2.04469692204996e-11
1.34148750000000e+02 4.80468482064189e-10 1.87987526566067e-11
1.34771250000000e+02 4.40712123105602e-10 1.72832116440277e-11
1.35393750000000e+02 4.04245403606514e-10 1.58896828781462e-11
1.36016250000000e+02 3.70796122388121e-10 1.46083585909912e-11
1.36638750000000e+02 3.40114601554992e-10 1.34302180436240e-11
1.37261250000000e+02 3.11971822806249e-10 1.23469644922441e-11
1.37883750000000e+02 2.86157717957655e-10 1.13509671917610e-11
1.38506250000000e+02 2.62479600914434e-10 1.04352080352508e-11
1.39128750000000e+02 2.40760729390481e-10 9.59323245963578e-12
1.39751250000000e+02 2.20838985638098e-10 8.81910427732280e-12
1.40373750000000e+02 2.02565666340735e-10 8.10736412059863e-12
1.40996250000000e+02 1.85804372636039e-10 7.45299121049758e-12
1.41618750000000e+02 1.70429991983935e-10 6.85136818480093e-12
1.42241250000000e+02 1.56327764280022e-10 6.29824874094821e-12
1.42863750000000e+02 1.43392425243404e-10 5.78972786908634e-12
1.43486250000000e+02 1.31527420684879e-10 5.32221446838506e-12
1.44108750000000e+02 1.20644185790511e-10 4.89240615622695e-12
1.44731250000000e+02 1.10661484040861e-10 4.49726609505212e-12
1.45353750000000e+02 1.01504800831346e-10 4.13400167560350e-12
1.45976250000000e+02 9.31057872674723e-11 3.80004490817474e-12
1.46598750000000e+02 8.54017499832266e-11 3.49303438529637e-12
1.47221250000000e+02 7.83351831744363e-11 3.21079869018904e-12
1.47843750000000e+02 7.18533393540263e-11 2.95134113533893e-12
1.48466250000000e+02 6.59078356251258e-11 2.71282572477884e-12
1.49088750000000e+02 6.04542925331026e-11 2.49356424215302e-12
1.49711250000000e+02 5.54520028007819e-11 2.29200437446135e-12
1.50333750000000e+02 5.08636274741649e-11 2.10671878857402e-12
1.50956250000000e+02 4.66549172105673e-11 1.93639508423017e-12
1.51578750000000e+02 4.27944566287665e-11 1.77982655332840e-12
1.52201250000000e+02 3.92534298128940e-11 1.63590368092633e-12
1.52823750000000e+02 3.60054052197041e-11 1.50360632852805e-12
1.53446250000000e+02 3.30261383836899e-11 1.38199654498858e-12
1.54068750000000e+02 3.02933909473606e-11 1.27021195473621e-12
1.54691250000000e+02 2.77867646658574e-11 1.16745967703598e-12
1.55313750000000e+02 2.54875491468548e-11 1.07301073371966e-12
1.55936250000000e+02 2.33785821892228e-11 9.86194906213861e-13
1.56558750000000e+02 2.14441216779642e-11 9.06396005832277e-13
1.57181250000000e+02 1.96697280792039e-11 8.33047524182392e-13
1.57803750000000e+02 1.80421566581296e-11 7.65628633190765e-13
1.58426250000000e+02 1.65492586153568e-11 7.03660506692882e-13
1.59048750000000e+02 1.51798904037647e-11 6.46702937780346e-13
1.59671250000000e+02 1.39238305489094e-11 5.94351228165424e-13
1.60293750000000e+02 1.27717033521311e-11 5.46233327724896e-13
1.60916250000000e+02 1.17149089068462e-11 5.02007204135167e-13
1.61538750000000e+02 1.07455589056415e-11 4.61358424120532e-13
1.62161250000000e+02 9.85641775900902e-12 4.23997929317742e-13
1.62783750000000e+02 9.04084858621029e-12 3.89659991122767e-13
1.63406250000000e+02 8.29276367512639e-12 3.58100330139317e-13
1.64028750000000e+02 7.60657904130684e-12 3.29094387002064e-13
1.64651250000000e+02 6.97717274702954e-12 3.02435732408561e-13
1.65273750000000e+02 6.39984666924966e-12 2.77934605169958e-13
1.65896250000000e+02 5.87029143105900e-12 2.55416567988483e-13
1.66518750000000e+02 5.38455423489154e-12 2.34721271495779e-13
1.67141250000000e+02 4.93900935736984e-12 2.15701317845949e-13
1.67763750000000e+02 4.53033108555517e-12 1.98221215856170e-13
1.68386250000000e+02 4.15546889258719e-12 1.82156420330682e-13
1.69008750000000e+02 3.81162466741518e-12 1.67392448795394e-13
1.69631250000000e+02 3.49623182865470e-12 1.53824069414324e-13
1.70253750000000e+02 3.20693616666815e-12 1.41354554359538e-13
1.70876250000000e+02 2.94157827086698e-12 1.29894993366464e-13
1.71498750000000e+02 2.69817741106669e-12 1.19363662629844e-13
1.72121250000000e+02 2.47491675257882e-12 1.09685444584948e-13
1.72743750000000e+02 2.27012979468009e-12 1.00791294476835e-13
1.73366250000000e+02 2.08228793123019e-12 9.26177499498447e-14
1.73988750000000e+02 1.90998904058607e-12 8.51064801924652e-14
1.74611250000000e+02 1.75194701964377e-12 7.82038714513707e-14
1.75233750000000e+02 1.60698218388566e-12 7.18606459847007e-14
1.75856250000000e+02 1.47401246177582e-12 6.60315117603377e-14
1.76478750000000e+02 1.35204531777497e-12 6.06748404217116e-14
1.77101250000000e+02 1.24017034368550e-12 5.57523712430094e-14
1.77723750000000e+02 1.13755246302550e-12 5.12289389790107e-14
1.78346250000000e+02 1.04342569770685e-12 4.70722236833680e-14
1.78968750000000e+02 9.57087450489406e-13 4.32525207242106e-14
1.79591250000000e+02 8.77893260533505e-13 3.97425293685475e-14
1.80213750000000e+02 8.05251992904152e-13 3.65171584380706e-14
1.80836250000000e+02 7.38621426119674e-13 3.35533476595494e-14
1.81458750000000e+02 6.77504204808593e-13 3.08299034438991e-14
1.82081250000000e+02 6.21444127263853e-13 2.83273479299778e-14
1.82703750000000e+02 5.70022740183344e-13 2.60277802229392e-14
1.83326250000000e+02 5.22856215178571e-13 2.39147488431931e-14
1.83948750000000e+02 4.79592483736578e-13 2.19731344813174e-14
1.84571250000000e+02 4.39908609249418e-13 2.01890422271749e-14
1.85193750000000e+02 4.03508376495013e-13 1.85497025085275e-14
1.85816250000000e+02 3.70120080576387e-13 1.70433800360887e-14
1.86438750000000e+02 3.39494498815105e-13 1.56592901086363e-14
1.87061250000000e+02 3.11403030460360e-13 1.43875216839272e-14
1.87683750000000e+02 2.85635990327810e-13 1.32189666690771e-14
1.88306250000000e+02 2.62001043631251e-13 1.21452549281350e-14
1.88928750000000e+02 2.40321770324127e-13 1.11586945450905e-14
1.89551250000000e+02 2.20436348234583e-13 1.02522169178063e-14
1.90173750000000e+02 2.02196345164490e-13 9.41932629261753e-15
1.90796250000000e+02 1.85465610936225e-13 8.65405338082693e-15
1.91418750000000e+02 1.70119261117031e-13 7.95091272727945e-15
1.92041250000000e+02 1.56042744835085e-13 7.30486352781647e-15
1.92663750000000e+02 1.43130989729122e-13 6.71127361688426e-15
1.93286250000000e+02 1.31287617649185e-13 6.16588636907083e-15
1.93908750000000e+02 1.20424225254215e-13 5.66479027903152e-15
1.94531250000000e+02 1.10459724136582e-13 5.20439100328198e-15
1.95153750000000e+02 1.01319735547999e-13 4.78138566482105e-15
1.95776250000000e+02 9.29360352088428e-14 4.39273923762067e-15
1.96398750000000e+02 8.52460440567136e-14 4.03566284279751e-15
