Energy (eV)          EEDF (eV^-(3/2))     First Anisotropy
1.38333333333333e-01 5.71360790954206e-02 7.03047062591387e-05
4.15000000000000e-01 5.49854364181731e-02 1.14292368589937e-04
6.91666666666667e-01 5.29157454667029e-02 1.46182564289213e-04
9.68333333333333e-01 5.09239591544654e-02 1.67724104229059e-04
1.24500000000000e+00 4.90071450893153e-02 1.83586915330360e-04
1.52166666666667e+00 4.71624812802828e-02 1.95625842298003e-04
1.79833333333333e+00 4.53872519258298e-02 2.04844374888582e-04
2.07500000000000e+00 4.36788434642407e-02 2.11873401343207e-04
2.35166666666667e+00 4.20347407182253e-02 2.17146830324245e-04
2.62833333333333e+00 4.04525231672370e-02 2.20981466487825e-04
2.90500000000000e+00 3.89298614087746e-02 2.23618640730581e-04
3.18166666666667e+00 3.74645137257800e-02 2.25248074998079e-04
3.45833333333333e+00 3.60543227707904e-02 2.26022562629985e-04
3.73500000000000e+00 3.46972124054805e-02 2.26067508912536e-04
4.01166666666667e+00 3.33911846423387e-02 2.25487411324395e-04
4.28833333333333e+00 3.21343166924790e-02 2.24370420414123e-04
4.56500000000000e+00 3.09247581456579e-02 2.22791648761091e-04
4.84166666666667e+00 2.97607282449229e-02 2.20815635052300e-04
5.11833333333333e+00 2.86405132571593e-02 2.18498217863366e-04
5.39500000000000e+00 2.75624639579424e-02 2.15887988706648e-04
5.67166666666667e+00 2.65249932027327e-02 2.13027438765523e-04
5.94833333333333e+00 2.55265735843856e-02 2.09953875684173e-04
6.22500000000000e+00 2.45657351903785e-02 2.06700166789342e-04
6.50166666666667e+00 2.36410634382100e-02 2.03295349459303e-04
6.77833333333333e+00 2.27511969882964e-02 1.99765136254045e-04
7.05500000000000e+00 2.18948257443373e-02 1.96132337446473e-04
7.33166666666667e+00 2.10706889241417e-02 1.92417218125659e-04
7.60833333333333e+00 2.02775731999203e-02 1.88637801136216e-04
7.88500000000000e+00 1.95143109155802e-02 1.84810126346573e-04
8.16166666666667e+00 1.87797783673525e-02 1.80948474502078e-04
8.43833333333333e+00 1.80728941466152e-02 1.77065560601566e-04
8.71500000000000e+00 1.73926175506740e-02 1.73172702250779e-04
8.99166666666667e+00 1.67379470503638e-02 1.69279967405186e-04
9.26833333333333e+00 1.61079188132890e-02 1.65396303728507e-04
9.54500000000000e+00 1.55016052871475e-02 1.61529652681699e-04
9.82166666666667e+00 1.49181138339672e-02 1.57687050916592e-04
1.00983333333333e+01 1.43565854140830e-02 1.53874720055431e-04
1.03750000000000e+01 1.38161933217299e-02 1.50098146041082e-04
1.06516666666667e+01 1.32961419755928e-02 1.46362151761669e-04
1.09283333333333e+01 1.27956657305926e-02 1.42670960563481e-04
1.12050000000000e+01 1.23140277661289e-02 1.39028252525400e-04
1.14816666666667e+01 1.18505190001165e-02 1.35437218145104e-04
1.17583333333333e+01 1.14044570325646e-02 1.31900603947284e-04
1.20350000000000e+01 1.09751851536756e-02 1.28420753641866e-04
1.23116666666667e+01 1.05620713760461e-02 1.24999647882960e-04
1.25883333333333e+01 1.01645074938755e-02 1.21638937884851e-04
1.28650000000000e+01 9.78190819812546e-03 1.18339975894605e-04
1.31416666666667e+01 9.41371021401513e-03 1.15103845048258e-04
1.34183333333333e+01 9.05937146311437e-03 1.11931384445135e-04
1.36950000000000e+01 8.71837027409927e-03 1.08823211953794e-04
1.39716666666667e+01 8.39020461407661e-03 1.05779746869859e-04
1.42483333333333e+01 8.07439134224597e-03 1.02801228781888e-04
1.45250000000000e+01 7.77046550598944e-03 9.98877347715973e-05
1.48016666666667e+01 7.47797965581142e-03 9.70391967439313e-05
1.50783333333333e+01 7.19650318051515e-03 9.42554157053518e-05
1.53550000000000e+01 6.92562167944904e-03 9.15360748017282e-05
1.56316666666667e+01 6.66493635196148e-03 8.88807526465653e-05
1.59083333333333e+01 6.41406340515342e-03 8.62889341638222e-05
1.61850000000000e+01 6.17263349407831e-03 8.37600204964768e-05
1.64616666666667e+01 5.94029117760338e-03 8.12933392925563e-05
1.67383333333333e+01 5.71669439078864e-03 7.88881529474431e-05
1.70150000000000e+01 5.50151394571207e-03 7.65436661361646e-05
1.72916666666667e+01 5.29443304651197e-03 7.42590337641637e-05
1.75683333333333e+01 5.09514681932009e-03 7.20333672242749e-05
1.78450000000000e+01 4.90336186716719e-03 6.98657401103370e-05
1.81216666666667e+01 4.71879583776818e-03 6.77551943613670e-05
1.83983333333333e+01 4.54117700471539e-03 6.57007449928377e-05
1.86750000000000e+01 4.37024387062174e-03 6.37013844099804e-05
1.89516666666667e+01 4.20574478191077e-03 6.17560871457885e-05
1.92283333333333e+01 4.04743755566846e-03 5.98638134140818e-05
1.95050000000000e+01 3.89508912580829e-03 5.80235123399267e-05
1.97816666666667e+01 3.74847519975336e-03 5.62341255980567e-05
2.00583333333333e+01 3.60737992595944e-03 5.44945900530486e-05
2.03350000000000e+01 3.47159557844789e-03 5.28038401499546e-05
2.06116666666667e+01 3.34092225082304e-03 5.11608106900329e-05
2.08883333333333e+01 3.21516756002635e-03 4.95644387623123e-05
2.11650000000000e+01 3.09414636508415e-03 4.80136654820689e-05
2.14416666666667e+01 2.97768049439964e-03 4.65074380883065e-05
2.17183333333333e+01 2.86559848178401e-03 4.50447113250602e-05
2.19950000000000e+01 2.75773531571425e-03 4.36244486734685e-05
2.22716666666667e+01 2.65393219628055e-03 4.22456239155230e-05
2.25483333333333e+01 2.55403629997334e-03 4.09072220885439e-05
2.28250000000000e+01 2.45790055614596e-03 3.96082403246506e-05
2.31016666666667e+01 2.36538343039235e-03 3.83476889946089e-05
2.33783333333333e+01 2.27634871495372e-03 3.71245923321175e-05
2.36550000000000e+01 2.19066532943819e-03 3.59379889698857e-05
2.39316666666667e+01 2.10820712775432e-03 3.47869327536142e-05
2.42083333333333e+01 2.02885271134406e-03 3.36704931120002e-05
2.44850000000000e+01 1.95248525153002e-03 3.25877553595678e-05
2.47616666666667e+01 1.87899231744317e-03 3.15378212522206e-05
2.50383333333333e+01 1.80826570959373e-03 3.05198091627293e-05
2.53150000000000e+01 1.74020130150133e-03 2.95328542055744e-05
2.55916666666667e+01 1.67469888633364e-03 2.85761085908942e-05
2.58683333333333e+01 1.61166202859875e-03 2.76487416525648e-05
2.61450000000000e+01 1.55099792296705e-03 2.67499398386357e-05
2.64216666666667e+01 1.49261725758609e-03 2.58789069089362e-05
2.66983333333333e+01 1.43643408191976e-03 2.50348638529009e-05
2.69750000000000e+01 1.38236568089719e-03 2.42170487799609e-05
2.72516666666667e+01 1.33033245309041e-03 2.34247169968966e-05
2.75283333333333e+01 1.28025779294111e-03 2.26571408446837e-05
2.78050000000000e+01 1.23206797857390e-03 2.19136095159143e-05
2.80816666666667e+01 1.18569206322042e-03 2.11934290406615e-05
2.83583333333333e+01 1.14106177026654e-03 2.04959220653769e-05
2.86350000000000e+01 1.09811139324721e-03 1.98204276186246e-05
2.89116666666667e+01 1.05677769907674e-03 1.91663010283681e-05
2.91883333333333e+01 1.01699983451988e-03 1.85329136609840e-05
2.94650000000000e+01 9.78719237046540e-04 1.79196526519838e-05
2.97416666666667e+01 9.41879548584261e-04 1.73259207729400e-05
3.00183333333333e+01 9.06426532169177e-04 1.67511361447234e-05
3.02950000000000e+01 8.72307992481877e-04 1.61947319462148e-05
3.05716666666667e+01 8.39473698977935e-04 1.56561562453136e-05
3.08483333333333e+01 8.07875311610218e-04 1.51348716973522e-05
3.11250000000000e+01 7.77466309995060e-04 1.46303552418703e-05
3.14016666666667e+01 7.48201924901109e-04 1.41420979091145e-05
3.16783333333333e+01 7.20039072055236e-04 1.36696045120632e-05
3.19550000000000e+01 6.92936289002174e-04 1.32123933390024e-05
3.22316666666667e+01 6.66853674042818e-04 1.27699959444777e-05
3.25083333333333e+01 6.41752827243633e-04 1.23419568413589e-05
3.27850000000000e+01 6.17596794154529e-04 1.19278331950878e-05
3.30616666666667e+01 5.94350011386565e-04 1.15271946060799e-05
3.33383333333333e+01 5.71978254040665e-04 1.11396228066561e-05
3.36150000000000e+01 5.50448585539084e-04 1.07647113613502e-05
3.38916666666667e+01 5.29729309120583e-04 1.04020654461719e-05
3.41683333333333e+01 5.09789920989657e-04 1.00513015539625e-05
3.44450000000000e+01 4.90601065597766e-04 9.71204720396871e-06
3.47216666666667e+01 4.72134492412536e-04 9.38394072210611e-06
3.49983333333333e+01 4.54363014164825e-04 9.06663095728561e-06
3.52750000000000e+01 4.37260466987923e-04 8.75977700252734e-06
3.55516666666667e+01 4.20801671887309e-04 8.46304797934024e-06
3.58283333333333e+01 4.04962397530689e-04 8.17612276677013e-06
3.61050000000000e+01 3.89719324717597e-04 7.89868973558917e-06
3.63816666666667e+01 3.75050012038600e-04 7.63044653908971e-06
3.66583333333333e+01 3.60932862713861e-04 7.37109985597769e-06
3.69350000000000e+01 3.47347092922842e-04 7.12036513859508e-06
3.72116666666667e+01 3.34272701197413e-04 6.87796641177327e-06
3.74883333333333e+01 3.21690438868350e-04 6.64363603020723e-06
3.77650000000000e+01 3.09581781835877e-04 6.41711444121677e-06
3.80416666666667e+01 2.97928903290685e-04 6.19814999278626e-06
3.83183333333333e+01 2.86714647375723e-04 5.98649870567611e-06
3.85950000000000e+01 2.75922504023852e-04 5.78192405088191e-06
3.88716666666667e+01 2.65536584644919e-04 5.58419676757730e-06
3.91483333333333e+01 2.55541598652950e-04 5.39309464992956e-06
3.94250000000000e+01 2.45922831037757e-04 5.20840233915042e-06
3.97016666666667e+01 2.36666120695563e-04 5.02991115173735e-06
3.99783333333333e+01 2.27757839509793e-04 4.85741888074230e-06
4.02550000000000e+01 2.19184872359657e-04 4.69072960210907e-06
4.05316666666667e+01 2.10934597806878e-04 4.52965351335843e-06
4.08083333333333e+01 2.02994869452231e-04 4.37400674889731e-06
4.10850000000000e+01 1.95353998116356e-04 4.22361120019197e-06
4.13616666666667e+01 1.88000734626418e-04 4.07829436485097e-06
4.16383333333333e+01 1.80924253200766e-04 3.93788917544584e-06
4.19150000000000e+01 1.74114135565996e-04 3.80223383296611e-06
4.21916666666667e+01 1.67560355615218e-04 3.67117166610823e-06
4.24683333333333e+01 1.61253264600159e-04 3.54455097299971e-06
4.27450000000000e+01 1.55183576974132e-04 3.42222486731174e-06
4.30216666666667e+01 1.49342356718395e-04 3.30405114745482e-06
4.32983333333333e+01 1.43721004145061e-04 3.18989215054678e-06
4.35750000000000e+01 1.38311243278455e-04 3.07961461051516e-06
4.38516666666667e+01 1.33105109668192e-04 2.97308953682294e-06
4.41283333333333e+01 1.28094938627647e-04 2.87019207999212e-06
4.44050000000000e+01 1.23273353986554e-04 2.77080140100501e-06
4.46816666666667e+01 1.18633257229156e-04 2.67480055913002e-06
4.49583333333333e+01 1.14167817012047e-04 2.58207638830086e-06
4.52350000000000e+01 1.09870459139032e-04 2.49251937711913e-06
4.55116666666667e+01 1.05734856880273e-04 2.40602356531574e-06
4.57883333333333e+01 1.01754921630317e-04 2.32248643028778e-06
4.60650000000000e+01 9.79247939724127e-05 2.24180877700999e-06
4.63416666666667e+01 9.42388350502466e-05 2.16389464264807e-06
4.66183333333333e+01 9.06916182421136e-05 2.08865119256749e-06
4.68950000000000e+01 8.72779211963161e-05 2.01598861947569e-06
4.71716666666667e+01 8.39927181410381e-05 1.94582005569628e-06
4.74483333333333e+01 8.08311724641225e-05 1.87806147798323e-06
4.77250000000000e+01 7.77886296140313e-05 1.81263161523719e-06
4.80016666666667e+01 7.48606102458553e-05 1.74945186795104e-06
4.82783333333333e+01 7.20428036081818e-05 1.68844622118800e-06
4.85550000000000e+01 6.93310612155635e-05 1.62954116024149e-06
4.88316666666667e+01 6.67213907397503e-05 1.57266559677088e-06
4.91083333333333e+01 6.42099501158518e-05 1.51775078933064e-06
4.93850000000000e+01 6.17930419024783e-05 1.46473026637266e-06
4.96616666666667e+01 5.94671078371682e-05 1.41353975860460e-06
4.99383333333333e+01 5.72287235836001e-05 1.36411712648848e-06
5.02150000000000e+01 5.50745937046794e-05 1.31640229001576e-06
5.04916666666667e+01 5.30015468099438e-05 1.27033716683795e-06
5.07683333333333e+01 5.10065308740926e-05 1.22586560618553e-06
5.10450000000000e+01 4.90866087564118e-05 1.18293332487850e-06
5.13216666666667e+01 4.72389538757913e-05 1.14148785079913e-06
5.15983333333333e+01 4.54608460384280e-05 1.10147846271477e-06
5.18750000000000e+01 4.37496674442160e-05 1.06285613201995e-06
5.21516666666667e+01 4.21028988320111e-05 1.02557347114227e-06
5.24283333333333e+01 4.05181157611209e-05 9.89584678786025e-07
5.27050000000000e+01 3.89929850517424e-05 9.54845486934259e-07
5.29816666666667e+01 3.75252613493419e-05 9.21313113801716e-07
5.32583333333333e+01 3.61127838105756e-05 8.88946214048364e-07
5.35350000000000e+01 3.47534729306020e-05 8.57704830602027e-07
5.38116666666667e+01 3.34453274810096e-05 8.27550351795140e-07
5.40883333333333e+01 3.21864215561761e-05 7.98445466128882e-07
5.43650000000000e+01 3.09749017454131e-05 7.70354118508048e-07
5.46416666666667e+01 2.98089844038248e-05 7.43241471221302e-07
5.49183333333333e+01 2.86869530199028e-05 7.17073862866976e-07
5.51950000000000e+01 2.76071556950257e-05 6.91818768621705e-07
5.54716666666667e+01 2.65680027110518e-05 6.67444764746515e-07
5.57483333333333e+01 2.55679641842075e-05 6.43921491314367e-07
5.60250000000000e+01 2.46055678185404e-05 6.21219616162560e-07
5.63016666666667e+01 2.36793967379812e-05 5.99310802628926e-07
5.65783333333333e+01 2.27880873953876e-05 5.78167675748803e-07
5.68550000000000e+01 2.19303275701770e-05 5.57763789568207e-07
5.71316666666667e+01 2.11048544361023e-05 5.38073597835715e-07
5.74083333333333e+01 2.03104526976997e-05 5.19072423362572e-07
5.76850000000000e+01 1.95459528055628e-05 5.00736428399123e-07
5.79616666666667e+01 1.88102292342032e-05 4.83042588028192e-07
5.82383333333333e+01 1.81021988211699e-05 4.65968662406581e-07
5.85150000000000e+01 1.74208191763094e-05 4.49493169931196e-07
5.87916666666667e+01 1.67650871468707e-05 4.33595363099075e-07
5.90683333333333e+01 1.61340373372515e-05 4.18255203371471e-07
5.93450000000000e+01 1.55267406911623e-05 4.03453336878498e-07
5.96216666666667e+01 1.49423031236162e-05 3.89171072529236e-07
5.98983333333333e+01 1.43798642016574e-05 3.75390359260997e-07
6.01750000000000e+01 1.38385958806369e-05 3.62093764052240e-07
6.04516666666667e+01 1.33177012849413e-05 3.49264452083352e-07
6.07283333333333e+01 1.28164135321963e-05 3.36886166153673e-07
6.10050000000000e+01 1.23339946069032e-05 3.24943206791842e-07
6.12816666666667e+01 1.18697342737352e-05 3.13420414283974e-07
6.15583333333333e+01 1.14229490296113e-05 3.02303150059519e-07
6.18350000000000e+01 1.09929810997642e-05 2.91577278706211e-07
6.21116666666667e+01 1.05791974691904e-05 2.81229151697448e-07
6.23883333333333e+01 1.01809889486875e-05 2.71245590565209e-07
6.26650000000000e+01 9.79776928004628e-06 2.61613870643446e-07
6.29416666666667e+01 9.42897427280870e-06 2.52321706340496e-07
6.32183333333333e+01 9.07406097187358e-06 2.43357235933100e-07
6.34950000000000e+01 8.73250685995248e-06 2.34709006877480e-07
6.37716666666667e+01 8.40380908818531e-06 2.26365962485655e-07
6.40483333333333e+01 8.08748373426875e-06 2.18317428189216e-07
6.43250000000000e+01 7.78306509160388e-06 2.10553098271496e-07
6.46016666666667e+01 7.49010498356456e-06 2.03063023818747e-07
6.48783333333333e+01 7.20817210230370e-06 1.95837600315771e-07
6.51550000000000e+01 6.93685137517000e-06 1.88867555665635e-07
6.54316666666667e+01 6.67574335353367e-06 1.82143939297844e-07
6.57083333333333e+01 6.42446362349656e-06 1.75658110970242e-07
6.59850000000000e+01 6.18264224117927e-06 1.69401729954759e-07
6.62616666666667e+01 5.94992318799788e-06 1.63366745194985e-07
6.65383333333333e+01 5.72596384545811e-06 1.57545385200132e-07
6.68150000000000e+01 5.51043449182698e-06 1.51930148286232e-07
6.70916666666667e+01 5.30301781663550e-06 1.46513793685062e-07
6.73683333333333e+01 5.10340845258755e-06 1.41289332426310e-07
6.76450000000000e+01 4.91131252694393e-06 1.36250018533745e-07
6.79216666666667e+01 4.72644722881146e-06 1.31389340996150e-07
6.81983333333333e+01 4.54854039195534e-06 1.26701015543350e-07
6.84750000000000e+01 4.37733009494847e-06 1.22178976706077e-07
6.87516666666667e+01 4.21256427550772e-06 1.17817370567604e-07
6.90283333333333e+01 4.05400035867390e-06 1.13610547347967e-07
6.93050000000000e+01 3.90140490042578e-06 1.09553054244676e-07
6.95816666666667e+01 3.75455324394817e-06 1.05639628891086e-07
6.98583333333333e+01 3.61322918824584e-06 1.01865192671092e-07
7.01350000000000e+01 3.47722467049756e-06 9.82248442655235e-08
7.04116666666667e+01 3.34633945969710e-06 9.47138537500138e-08
7.06883333333333e+01 3.22038086130369e-06 9.13276565697003e-08
7.09650000000000e+01 3.09916343412531e-06 8.80618477231288e-08
7.12416666666667e+01 2.98250871726898e-06 8.49121764385689e-08
7.15183333333333e+01 2.87024496690895e-06 8.18745407448236e-08
7.17950000000000e+01 2.76220690394590e-06 7.89449822308908e-08
7.20716666666667e+01 2.65823547064488e-06 7.61196812452784e-08
7.23483333333333e+01 2.55817759602855e-06 7.33949520050473e-08
7.26250000000000e+01 2.46188597096680e-06 7.07672378752857e-08
7.29016666666667e+01 2.36921883127472e-06 6.82331070411282e-08
7.31783333333333e+01 2.28003974861774e-06 6.57892481026253e-08
7.34550000000000e+01 2.19421743005023e-06 6.34324658233740e-08
7.37316666666667e+01 2.11162552469629e-06 6.11596772296322e-08
7.40083333333333e+01 2.03214243739271e-06 5.89679076435825e-08
7.42850000000000e+01 1.95565115001874e-06 5.68542868552774e-08
7.45616666666667e+01 1.88203904919572e-06 5.48160456075152e-08
7.48383333333333e+01 1.81119776019517e-06 5.28505120245821e-08
7.51150000000000e+01 1.74302298769090e-06 5.09551081660419e-08
7.53916666666667e+01 1.67741436219237e-06 4.91273468599271e-08
7.56683333333333e+01 1.61427529201393e-06 4.73648284881502e-08
7.59450000000000e+01 1.55351282133821e-06 4.56652378846408e-08
7.62216666666667e+01 1.49503749334621e-06 4.40263414829463e-08
7.64983333333333e+01 1.43876321828371e-06 4.24459844232270e-08
7.67750000000000e+01 1.38460714695415e-06 4.09220877608439e-08
7.70516666666667e+01 1.33248954872999e-06 3.94526458976818e-08
7.73283333333333e+01 1.28233369396590e-06 3.80357239790218e-08
7.76050000000000e+01 1.23406574124382e-06 3.66694553819543e-08
7.78816666666667e+01 1.18761462864764e-06 3.53520394026597e-08
7.81583333333333e+01 1.14291196896305e-06 3.40817389145179e-08
7.84350000000000e+01 1.09989194917978e-06 3.28568781086782e-08
7.87116666666667e+01 1.05849123358767e-06 3.16758404121913e-08
7.89883333333333e+01 1.01864887037253e-06 3.05370663814906e-08
7.92650000000000e+01 9.80306202043311e-07 2.94390516701374e-08
7.95416666666667e+01 9.43406779064158e-07 2.83803451551054e-08
7.98183333333333e+01 9.07896276607089e-07 2.73595470422806e-08
8.00950000000000e+01 8.73722414716489e-07 2.63753070388346e-08
8.03716666666667e+01 8.40834881331585e-07 2.54263226671464e-08
8.06483333333333e+01 8.09185258091508e-07 2.45113375612470e-08
8.09250000000000e+01 7.78726949178561e-07 2.36291398234692e-08
8.12016666666667e+01 7.49415112710167e-07 2.27785605074768e-08
8.14783333333333e+01 7.21206594611899e-07 2.19584720866395e-08
8.17550000000000e+01 6.94059865196113e-07 2.11677869765973e-08
8.20316666666667e+01 6.67934958013375e-07 2.04054561706623e-08
8.23083333333333e+01 6.42793410916135e-07 1.96704678629714e-08
8.25850000000000e+01 6.18598209531835e-07 1.89618461204067e-08
8.28616666666667e+01 5.95313732762782e-07 1.82786496552614e-08
8.31383333333333e+01 5.72905700258531e-07 1.76199705877029e-08
8.34150000000000e+01 5.51341122034001e-07 1.69849332521168e-08
8.36916666666667e+01 5.30588249894927e-07 1.63726930933994e-08
8.39683333333333e+01 5.10616530622063e-07 1.57824355547882e-08
8.42450000000000e+01 4.91396561066295e-07 1.52133750051679e-08
8.45216666666667e+01 4.72900044855411e-07 1.46647537466867e-08
8.47983333333333e+01 4.55099750669011e-07 1.41358410153842e-08
8.50750000000000e+01 4.37969472215224e-07 1.36259320173285e-08
8.53516666666667e+01 4.21483989644583e-07 1.31343470364556e-08
8.56283333333333e+01 4.05619032362066e-07 1.26604305366715e-08
8.59050000000000e+01 3.90351243354759e-07 1.22035502958871e-08
8.61816666666667e+01 3.75658144801044e-07 1.17630966040728e-08
8.64583333333333e+01 3.61518104926401e-07 1.13384814566299e-08
8.67350000000000e+01 3.47910306209032e-07 1.09291377764771e-08
8.70116666666667e+01 3.34814714728220e-07 1.05345186932942e-08
8.72883333333333e+01 3.22212050624181e-07 1.01540968189741e-08
