Energy (eV)          EEDF (eV^-(3/2))     First Anisotropy
7.63333333333333e-04 2.32010723668948e+01 1.42404528934421e-02
2.29000000000000e-03 2.29357247396686e+01 2.34594320687571e-02
3.81666666666667e-03 2.26734118594720e+01 3.08221552466954e-02
5.34333333333333e-03 2.24140990171743e+01 3.63270452804714e-02
6.87000000000000e-03 2.21577519017605e+01 4.08454312701618e-02
8.39666666666667e-03 2.19043365949538e+01 4.47090202763165e-02
9.92333333333333e-03 2.16538195657492e+01 4.80905935686112e-02
1.14500000000000e-02 2.14061676663087e+01 5.10951525763918e-02
1.29766666666667e-02 2.11613481303950e+01 5.37927717934625e-02
1.45033333333333e-02 2.09193285629646e+01 5.62332839702214e-02
1.60300000000000e-02 2.06800769411814e+01 5.84538021605550e-02
1.75566666666667e-02 2.04435616096706e+01 6.04829571943564e-02
1.90833333333333e-02 2.02097512726821e+01 6.23434583878294e-02
2.06100000000000e-02 1.99786149935697e+01 6.40537279918315e-02
2.21366666666667e-02 1.97501221904145e+01 6.56289914053675e-02
2.36633333333333e-02 1.95242426292564e+01 6.70820301902438e-02
2.51900000000000e-02 1.93009464228038e+01 6.84237181850709e-02
2.67166666666667e-02 1.90802040262966e+01 6.96634133951560e-02
2.82433333333333e-02 1.88619862314540e+01 7.08092501745757e-02
2.97700000000000e-02 1.86462641647482e+01 7.18683614747009e-02
3.12966666666667e-02 1.84330092834562e+01 7.28470510899883e-02
3.28233333333333e-02 1.82221933701357e+01 7.37509285809376e-02
3.43500000000000e-02 1.80137885306374e+01 7.45850165862747e-02
3.58766666666667e-02 1.78077671903203e+01 7.53538375036394e-02
3.74033333333333e-02 1.76041020889418e+01 7.60614837425700e-02
3.89300000000000e-02 1.74027662785121e+01 7.67116754305510e-02
4.04566666666667e-02 1.72037331196561e+01 7.73078085171172e-02
4.19833333333333e-02 1.70069762768438e+01 7.78529947219864e-02
4.35100000000000e-02 1.68124697161522e+01 7.83500951590247e-02
4.50366666666667e-02 1.66201877017618e+01 7.88017490901186e-02
4.65633333333333e-02 1.64301047914772e+01 7.92103982264171e-02
4.80900000000000e-02 1.62421958344370e+01 7.95783075775055e-02
4.96166666666667e-02 1.60564359677390e+01 7.99075836737588e-02
5.11433333333333e-02 1.58728006122115e+01 8.02001901595818e-02
5.26700000000000e-02 1.56912654701021e+01 8.04579613793035e-02
5.41966666666667e-02 1.55118065218238e+01 8.06826144851669e-02
5.57233333333333e-02 1.53344000219485e+01 8.08757598854217e-02
5.72500000000000e-02 1.51590224968958e+01 8.10389104635255e-02
5.87766666666667e-02 1.49856507417938e+01 8.11734899449162e-02
6.03033333333333e-02 1.48142618166731e+01 8.12808401527313e-02
6.18300000000000e-02 1.46448330441697e+01 8.13622274783537e-02
6.33566666666667e-02 1.44773420064959e+01 8.14188488570520e-02
6.48833333333333e-02 1.43117665418163e+01 8.14518369605835e-02
6.64100000000000e-02 1.41480847419761e+01 8.14622648697159e-02
6.79366666666667e-02 1.39862749495769e+01 8.14511504643021e-02
6.94633333333333e-02 1.38263157545208e+01 8.14194602357766e-02
7.09900000000000e-02 1.36681859917704e+01 8.13681127444032e-02
7.25166666666667e-02 1.35118647385272e+01 8.12979819242622e-02
7.40433333333333e-02 1.33573313109296e+01 8.12098999448315e-02
7.55700000000000e-02 1.32045652618514e+01 8.11046598233634e-02
7.70966666666667e-02 1.30535463781787e+01 8.09830179666754e-02
7.86233333333333e-02 1.29042546776502e+01 8.08456963605376e-02
8.01500000000000e-02 1.27566704067002e+01 8.06933845801032e-02
8.16766666666667e-02 1.26107740378282e+01 8.05267417818773e-02
8.32033333333333e-02 1.24665462665740e+01 8.03463984071362e-02
8.47300000000000e-02 1.23239680094067e+01 8.01529577541735e-02
8.62566666666667e-02 1.21830204011850e+01 7.99469975656541e-02
8.77833333333333e-02 1.20436847922576e+01 7.97290713736746e-02
8.93100000000000e-02 1.19059427464010e+01 7.94997097469090e-02
9.08366666666667e-02 1.17697760383671e+01 7.92594215745078e-02
9.23633333333333e-02 1.16351666511017e+01 7.90086951422053e-02
9.38900000000000e-02 1.15020967737324e+01 7.87479991341344e-02
9.54166666666667e-02 1.13705487991999e+01 7.84777836852464e-02
9.69433333333333e-02 1.12405053215890e+01 7.81984812523460e-02
9.84700000000000e-02 1.11119491341664e+01 7.79105074279507e-02
9.99966666666667e-02 1.09848632270939e+01 7.76142618133866e-02
1.01523333333333e-01 1.08592307848645e+01 7.73101287653917e-02
1.03050000000000e-01 1.07350351840972e+01 7.69984778940205e-02
1.04576666666667e-01 1.06122599927921e+01 7.66796650980040e-02
1.06103333333333e-01 1.04908889649600e+01 7.63540330234967e-02
1.07630000000000e-01 1.03709060413764e+01 7.60219112760281e-02
1.09156666666667e-01 1.02522953473696e+01 7.56836176400111e-02
1.10683333333333e-01 1.01350411880488e+01 7.53394582739322e-02
1.12210000000000e-01 1.00191280489129e+01 7.49897278838447e-02
1.13736666666667e-01 9.90454059371862e+00 7.46347108201080e-02
1.15263333333333e-01 9.79126365997585e+00 7.42746812097006e-02
1.16790000000000e-01 9.67928225943022e+00 7.39099030717851e-02
1.18316666666667e-01 9.56858157600739e+00 7.35406313107255e-02
1.19843333333333e-01 9.45914696155540e+00 7.31671117995128e-02
1.21370000000000e-01 9.35096393621646e+00 7.27895814502244e-02
1.22896666666667e-01 9.24401818644464e+00 7.24082691184284e-02
1.24423333333333e-01 9.13829556097660e+00 7.20233956484702e-02
1.25950000000000e-01 9.03378207110649e+00 7.16351739087035e-02
1.27476666666667e-01 8.93046388877421e+00 7.12438096194212e-02
1.29003333333333e-01 8.82832734274780e+00 7.08495013683382e-02
1.30530000000000e-01 8.72735891881372e+00 7.04524406182531e-02
1.32056666666667e-01 8.62754525793271e+00 7.00528124683945e-02
1.33583333333333e-01 8.52887315261918e+00 6.96507956465819e-02
1.35110000000000e-01 8.43132954705730e+00 6.92465624953376e-02
1.36636666666667e-01 8.33490153532186e+00 6.88402796747625e-02
1.38163333333333e-01 8.23957635794131e+00 6.84321081364827e-02
1.39690000000000e-01 8.14534140194883e+00 6.80222030929353e-02
1.41216666666667e-01 8.05218419916580e+00 6.76107146685158e-02
1.42743333333333e-01 7.96009242293622e+00 6.71977878593658e-02
1.44270000000000e-01 7.86905388812105e+00 6.67835624895743e-02
1.45796666666667e-01 7.77905654944176e+00 6.63681738162503e-02
1.47323333333333e-01 7.69008849837524e+00 6.59517524783478e-02
1.48850000000000e-01 7.60213796309842e+00 6.55344244427868e-02
1.50376666666667e-01 7.51519330688983e+00 6.51163115682297e-02
1.51903333333333e-01 7.42924302517474e+00 6.46975315455095e-02
1.53430000000000e-01 7.34427574542653e+00 6.42781978360527e-02
1.54956666666667e-01 7.26028022562407e+00 6.38584201984432e-02
1.56483333333333e-01 7.17724535143782e+00 6.34383046225178e-02
1.58010000000000e-01 7.09516013609366e+00 6.30179532619976e-02
1.59536666666667e-01 7.01401371888384e+00 6.25974649273515e-02
1.61063333333333e-01 6.93379536248589e+00 6.21769350152115e-02
1.62590000000000e-01 6.85449445279353e+00 6.17564554367663e-02
1.64116666666667e-01 6.77610049747954e+00 6.13361150799574e-02
1.65643333333333e-01 6.69860312343938e+00 6.09159997355418e-02
1.67170000000000e-01 6.62199207659391e+00 6.04961920224925e-02
1.68696666666667e-01 6.54625722050203e+00 6.00767718221810e-02
1.70223333333333e-01 6.47138853392204e+00 5.96578162021738e-02
1.71750000000000e-01 6.39737611058990e+00 5.92393993396364e-02
1.73276666666667e-01 6.32421015788002e+00 5.88215929298362e-02
1.74803333333333e-01 6.25188099447754e+00 5.84044661085283e-02
1.76330000000000e-01 6.18037905013580e+00 5.79880853741826e-02
1.77856666666667e-01 6.10969486438334e+00 5.75725149728630e-02
1.79383333333333e-01 6.03981908430121e+00 5.71578168199104e-02
1.80910000000000e-01 5.97074246426246e+00 5.67440504216440e-02
1.82436666666667e-01 5.90245586468398e+00 5.63312732384387e-02
1.83963333333333e-01 5.83495024990287e+00 5.59195406062742e-02
1.85490000000000e-01 5.76821668790095e+00 5.55089056584416e-02
1.87016666666667e-01 5.70224634909966e+00 5.50994196684476e-02
1.88543333333333e-01 5.63703050433030e+00 5.46911319718829e-02
1.90070000000000e-01 5.57256052454591e+00 5.42840898885609e-02
1.91596666666667e-01 5.50882787965784e+00 5.38783390467062e-02
1.93123333333333e-01 5.44582413659478e+00 5.34739233055114e-02
1.94650000000000e-01 5.38354095900438e+00 5.30708846780535e-02
1.96176666666667e-01 5.32197010612975e+00 5.26692636380756e-02
1.97703333333333e-01 5.26110343095298e+00 5.22690990435212e-02
1.99230000000000e-01 5.20093287988817e+00 5.18704280605037e-02
2.00756666666667e-01 5.14145049169668e+00 5.14732864538717e-02
2.02283333333333e-01 5.08264839571062e+00 5.10777085119486e-02
2.03810000000000e-01 5.02451881151923e+00 5.06837269717710e-02
2.05336666666667e-01 4.96705404792138e+00 5.02913732945153e-02
2.06863333333333e-01 4.91024650122508e+00 4.99006775916283e-02
2.08390000000000e-01 4.85408865492866e+00 4.95116685514967e-02
2.09916666666667e-01 4.79857307870932e+00 4.91243737007148e-02
2.11443333333333e-01 4.74369242679484e+00 4.87388193317545e-02
2.12970000000000e-01 4.68943943764093e+00 4.83550304311908e-02
2.14496666666667e-01 4.63580693295459e+00 4.79730309277103e-02
2.16023333333333e-01 4.58278781613442e+00 4.75928436214192e-02
2.17550000000000e-01 4.53037507194546e+00 4.72144901137299e-02
2.19076666666667e-01 4.47856176557606e+00 4.68379910429261e-02
2.20603333333333e-01 4.42734104114350e+00 4.64633660151881e-02
2.22130000000000e-01 4.37670612136741e+00 4.60906335362108e-02
2.23656666666667e-01 4.32665030665901e+00 4.57198112350882e-02
2.25183333333333e-01 4.27716697368884e+00 4.53509157971043e-02
2.26710000000000e-01 4.22824957505980e+00 4.49839628971309e-02
2.28236666666667e-01 4.17989163842754e+00 4.46189674125254e-02
2.29763333333333e-01 4.13208676512747e+00 4.42559433577275e-02
2.31290000000000e-01 4.08482862984818e+00 4.38949038194701e-02
2.32816666666667e-01 4.03811097978193e+00 4.35358611593209e-02
2.34343333333333e-01 3.99192763330822e+00 4.31788269501154e-02
2.35870000000000e-01 3.94627247966821e+00 4.28238119129907e-02
2.37396666666667e-01 3.90113947814444e+00 4.24708261101722e-02
2.38923333333333e-01 3.85652265679816e+00 4.21198788832453e-02
2.40450000000000e-01 3.81241611214556e+00 4.17709787920160e-02
2.41976666666667e-01 3.76881400836564e+00 4.14241337980934e-02
2.43503333333333e-01 3.72571057608882e+00 4.10793512049933e-02
2.45030000000000e-01 3.68310011207566e+00 4.07366375988255e-02
2.46556666666667e-01 3.64097697845176e+00 4.03959990231839e-02
2.48083333333333e-01 3.59933560154544e+00 4.00574409210671e-02
2.49610000000000e-01 3.55817047156940e+00 3.97209680773770e-02
2.51136666666667e-01 3.51747614188173e+00 3.93865847855918e-02
2.52663333333333e-01 3.47724722787049e+00 3.90542947914870e-02
2.54190000000000e-01 3.43747840663863e+00 3.87241012374252e-02
2.55716666666667e-01 3.39816441629040e+00 3.83960068212529e-02
2.57243333333333e-01 3.35930005486053e+00 3.80700137417965e-02
2.58770000000000e-01 3.32088018000302e+00 3.77461236449213e-02
2.60296666666667e-01 3.28289970830186e+00 3.74243377750620e-02
2.61823333333333e-01 3.24535361424301e+00 3.71046569224692e-02
2.63350000000000e-01 3.20823692990726e+00 3.67870813709980e-02
2.64876666666667e-01 3.17154474430453e+00 3.64716110426687e-02
2.66403333333333e-01 3.13527220238667e+00 3.61582454466253e-02
2.67930000000000e-01 3.09941450474476e+00 3.58469836286216e-02
2.69456666666667e-01 3.06396690696615e+00 3.55378243089759e-02
2.70983333333333e-01 3.02892471868631e+00 3.52307658332029e-02
2.72510000000000e-01 2.99428330329078e+00 3.49258061231584e-02
2.74036666666667e-01 2.96003807729422e+00 3.46229428087332e-02
2.75563333333333e-01 2.92618450942956e+00 3.43221731801173e-02
2.77090000000000e-01 2.89271812035490e+00 3.40234941405712e-02
2.78616666666667e-01 2.85963448205366e+00 3.37269023321659e-02
2.80143333333333e-01 2.82692921695964e+00 3.34323940896454e-02
2.81670000000000e-01 2.79459799766881e+00 3.31399653947857e-02
2.83196666666667e-01 2.76263654636006e+00 3.28496119964801e-02
2.84723333333333e-01 2.73104063395441e+00 3.25613293661626e-02
2.86250000000000e-01 2.69980607983205e+00 3.22751126537046e-02
2.87776666666667e-01 2.66892875127285e+00 3.19909568021332e-02
2.89303333333333e-01 2.63840456264831e+00 3.17088565045710e-02
2.90830000000000e-01 2.60822947514397e+00 3.14288061616324e-02
2.92356666666667e-01 2.57839949621897e+00 3.11507999910398e-02
2.93883333333333e-01 2.54891067882942e+00 3.08748319860352e-02
2.95410000000000e-01 2.51975912115621e+00 3.06008958742343e-02
2.96936666666667e-01 2.49094096608299e+00 3.03289852223910e-02
2.98463333333333e-01 2.46245240044966e+00 3.00590933962376e-02
2.99990000000000e-01 2.43428965478561e+00 2.97912135207576e-02
3.01516666666667e-01 2.40644900280555e+00 2.95253385803320e-02
3.03043333333333e-01 2.37892676069177e+00 2.92614613799689e-02
3.04570000000000e-01 2.35171928683293e+00 2.89995745069483e-02
3.06096666666667e-01 2.32482298133713e+00 2.87396704265749e-02
3.07623333333333e-01 2.29823428534173e+00 2.84817414447530e-02
3.09150000000000e-01 2.27194968075772e+00 2.82257796709640e-02
3.10676666666667e-01 2.24596568979942e+00 2.79717771098378e-02
3.12203333333333e-01 2.22027887432075e+00 2.77197256250291e-02
3.13730000000000e-01 2.19488583556521e+00 2.74696169034871e-02
3.15256666666667e-01 2.16978321371158e+00 2.72214425430416e-02
3.16783333333333e-01 2.14496768723561e+00 2.69751940175437e-02
3.18310000000000e-01 2.12043597266559e+00 2.67308626423849e-02
3.19836666666667e-01 2.09618482414351e+00 2.64884396582865e-02
3.21363333333333e-01 2.07221103281111e+00 2.62479161976625e-02
3.22890000000000e-01 2.04851142657105e+00 2.60092832513502e-02
3.24416666666667e-01 2.02508286966297e+00 2.57725317487812e-02
3.25943333333333e-01 2.00192226207297e+00 2.55376525255281e-02
3.27470000000000e-01 1.97902653930025e+00 2.53046362912021e-02
3.28996666666667e-01 1.95639267194774e+00 2.50734737061785e-02
3.30523333333333e-01 1.93401766515383e+00 2.48441553502875e-02
3.32050000000000e-01 1.91189855836466e+00 2.46166716918413e-02
3.33576666666667e-01 1.89003242493865e+00 2.43910131610722e-02
3.35103333333333e-01 1.86841637159971e+00 2.41671701199293e-02
3.36630000000000e-01 1.84704753821510e+00 2.39451328322010e-02
3.38156666666667e-01 1.82592309741329e+00 2.37248915338144e-02
3.39683333333333e-01 1.80504025405797e+00 2.35064364037009e-02
3.41210000000000e-01 1.78439624503120e+00 2.32897575349762e-02
3.42736666666667e-01 1.76398833886438e+00 2.30748450022458e-02
3.44263333333333e-01 1.74381383523206e+00 2.28616888335055e-02
3.45790000000000e-01 1.72387006474038e+00 2.26502789823422e-02
3.47316666666667e-01 1.70415438857074e+00 2.24406053923829e-02
3.48843333333333e-01 1.68466419799250e+00 2.22326579701926e-02
3.50370000000000e-01 1.66539691415684e+00 2.20264265584613e-02
3.51896666666667e-01 1.64634998775249e+00 2.18219009977253e-02
3.53423333333333e-01 1.62752089853676e+00 2.16190711002307e-02
3.54950000000000e-01 1.60890715513459e+00 2.14179266240726e-02
3.56476666666667e-01 1.59050629470602e+00 2.12184573323119e-02
3.58003333333333e-01 1.57231588249476e+00 2.10206529677691e-02
3.59530000000000e-01 1.55433351163246e+00 2.08245032280851e-02
3.61056666666667e-01 1.53655680281742e+00 2.06299978223500e-02
3.62583333333333e-01 1.51898340388006e+00 2.04371264467932e-02
3.64110000000000e-01 1.50161098959225e+00 2.02458787607360e-02
3.65636666666667e-01 1.48443726135702e+00 2.00562444408414e-02
3.67163333333333e-01 1.46745994679014e+00 1.98682131576724e-02
3.68690000000000e-01 1.45067679953452e+00 1.96817745525027e-02
3.70216666666667e-01 1.43408559896042e+00 1.94969182892953e-02
3.71743333333333e-01 1.41768414976268e+00 1.93136340320981e-02
3.73270000000000e-01 1.40147028177994e+00 1.91319114226819e-02
3.74796666666667e-01 1.38544184970512e+00 1.89517401303496e-02
3.76323333333333e-01 1.36959673269758e+00 1.87731098301389e-02
3.77850000000000e-01 1.35393283420716e+00 1.85960101812575e-02
3.79376666666667e-01 1.33844808169455e+00 1.84204308748196e-02
3.80903333333333e-01 1.32314042625778e+00 1.82463616128279e-02
3.82430000000000e-01 1.30800784246104e+00 1.80737920873797e-02
3.83956666666667e-01 1.29304832806452e+00 1.79027120264197e-02
3.85483333333333e-01 1.27825990366479e+00 1.77331111734725e-02
3.87010000000000e-01 1.26364061252819e+00 1.75649792675939e-02
3.88536666666667e-01 1.24918852032994e+00 1.73983060872265e-02
3.90063333333333e-01 1.23490171480770e+00 1.72330814306578e-02
3.91590000000000e-01 1.22077830559965e+00 1.70692950966882e-02
3.93116666666667e-01 1.20681642399235e+00 1.69069369266723e-02
3.94643333333333e-01 1.19301422258717e+00 1.67459967856773e-02
3.96170000000000e-01 1.17936987514279e+00 1.65864645438437e-02
3.97696666666667e-01 1.16588157633165e+00 1.64283301166898e-02
3.99223333333333e-01 1.15254754141864e+00 1.62715834469455e-02
4.00750000000000e-01 1.13936600610798e+00 1.61162144865797e-02
4.02276666666667e-01 1.12633522630796e+00 1.59622132354466e-02
4.03803333333333e-01 1.11345347782146e+00 1.58095697237687e-02
4.05330000000000e-01 1.10071905619707e+00 1.56582739948068e-02
4.06856666666667e-01 1.08813027650187e+00 1.55083161419198e-02
4.08383333333333e-01 1.07568547302326e+00 1.53596862916753e-02
4.09910000000000e-01 1.06338299912430e+00 1.52123745871381e-02
4.11436666666667e-01 1.05122122702421e+00 1.50663712234115e-02
4.12963333333333e-01 1.03919854751113e+00 1.49216664313533e-02
4.14490000000000e-01 1.02731336980155e+00 1.47782504614628e-02
4.16016666666667e-01 1.01556412132825e+00 1.46361136179660e-02
4.17543333333333e-01 1.00394924746362e+00 1.44952462431146e-02
4.19070000000000e-01 9.92467211383025e-01 1.43556387016519e-02
4.20596666666667e-01 9.81116493860023e-01 1.42172814135046e-02
4.22123333333333e-01 9.69895592999728e-01 1.40801648386452e-02
4.23650000000000e-01 9.58803024106145e-01 1.39442794621119e-02
4.25176666666667e-01 9.47837319484290e-01 1.38096158253687e-02
4.26703333333333e-01 9.36997028183329e-01 1.36761645117109e-02
4.28230000000000e-01 9.26280715867702e-01 1.35439161318204e-02
4.29756666666667e-01 9.15686964625978e-01 1.34128613538496e-02
4.31283333333333e-01 9.05214372723350e-01 1.32829908893482e-02
4.32810000000000e-01 8.94861554476486e-01 1.31542954793374e-02
4.34336666666667e-01 8.84627140068874e-01 1.30267659231721e-02
4.35863333333333e-01 8.74509775312335e-01 1.29003930649708e-02
4.37390000000000e-01 8.64508121525489e-01 1.27751677801879e-02
4.38916666666667e-01 8.54620855355394e-01 1.26510810033054e-02
4.40443333333333e-01 8.44846668547714e-01 1.25281237147491e-02
4.41970000000000e-01 8.35184267828737e-01 1.24062869279415e-02
4.43496666666667e-01 8.25632374733067e-01 1.22855617158721e-02
4.45023333333333e-01 8.16189725382142e-01 1.21659391984816e-02
4.46550000000000e-01 8.06855070369699e-01 1.20474105301789e-02
4.48076666666667e-01 7.97627174595327e-01 1.19299669253366e-02
4.49603333333333e-01 7.88504817051017e-01 1.18135996461283e-02
4.51130000000000e-01 7.79486790709984e-01 1.16982999904906e-02
4.52656666666667e-01 7.70571902365887e-01 1.15840593165900e-02
4.54183333333333e-01 7.61758972427100e-01 1.14708690310959e-02
4.55710000000000e-01 7.53046834808822e-01 1.13587205775725e-02
4.57236666666667e-01 7.44434336777750e-01 1.12476054599611e-02
4.58763333333333e-01 7.35920338753806e-01 1.11375152312706e-02
4.60290000000000e-01 7.27503714205430e-01 1.10284414823874e-02
4.61816666666667e-01 7.19183349499537e-01 1.09203758646100e-02
4.63343333333333e-01 7.10958143710406e-01 1.08133100787462e-02
4.64870000000000e-01 7.02827008518084e-01 1.07072358643212e-02
4.66396666666667e-01 6.94788868063445e-01 1.06021450212090e-02
4.67923333333333e-01 6.86842658763972e-01 1.04980293991182e-02
4.69450000000000e-01 6.78987329215195e-01 1.03948808871857e-02
4.70976666666667e-01 6.71221840050670e-01 1.02926914347409e-02
4.72503333333333e-01 6.63545163764410e-01 1.01914530411668e-02
4.74030000000000e-01 6.55956284615264e-01 1.00911577458665e-02
4.75556666666667e-01 6.48454198491657e-01 9.99179764819498e-03
4.77083333333333e-01 6.41037912740420e-01 9.89336489768279e-03
4.78610000000000e-01 6.33706446074032e-01 9.79585168436041e-03
4.80136666666667e-01 6.26458828439961e-01 9.69925025789387e-03
4.81663333333333e-01 6.19294100855650e-01 9.60355291815614e-03
