Energy (eV)          EEDF (eV^-(3/2))     First Anisotropy
4.47058823529412e-02 1.20869269452834e-01 1.09045900769390e-04
1.34117647058824e-01 1.18439606684833e-01 1.78857256357926e-04
2.23529411764706e-01 1.16058783970725e-01 2.32931768691945e-04
3.12941176470588e-01 1.13725819541450e-01 2.72127509070218e-04
4.02352941176471e-01 1.11439751371042e-01 3.03293084159393e-04
4.91764705882353e-01 1.09199636771620e-01 3.29071919651001e-04
5.81176470588235e-01 1.07004552008947e-01 3.50858868776543e-04
6.70588235294118e-01 1.04853591907704e-01 3.69512106648314e-04
7.60000000000000e-01 1.02745869492827e-01 3.85611116136056e-04
8.49411764705882e-01 1.00680515621553e-01 3.99572617416984e-04
9.38823529411765e-01 9.86566786167413e-02 4.11710257776266e-04
1.02823529411765e+00 9.66735239240354e-02 4.22268407030165e-04
1.11764705882353e+00 9.47302337592709e-02 4.31442687943056e-04
1.20705882352941e+00 9.28260067973422e-02 4.39393152054509e-04
1.29647058823529e+00 9.09600577896345e-02 4.46253107439141e-04
1.38588235294118e+00 8.91316173042691e-02 4.52135253698387e-04
1.47529411764706e+00 8.73399313468699e-02 4.57136073661872e-04
1.56470588235294e+00 8.55842611064370e-02 4.61339056891829e-04
1.65411764705882e+00 8.38638826089763e-02 4.64817123391495e-04
1.74352941176471e+00 8.21780864247404e-02 4.67634470880160e-04
1.83294117647059e+00 8.05261774043009e-02 4.69848018438131e-04
1.92235294117647e+00 7.89074743534193e-02 4.71508543773224e-04
2.01176470588235e+00 7.73213097881733e-02 4.72661593407424e-04
2.10117647058824e+00 7.57670296259211e-02 4.73348220342109e-04
2.19058823529412e+00 7.42439929473380e-02 4.73605587435832e-04
2.28000000000000e+00 7.27515717022366e-02 4.73467466716200e-04
2.36941176470588e+00 7.12891504787599e-02 4.72964655404512e-04
2.45882352941176e+00 6.98561262230092e-02 4.72125326241221e-04
2.54823529411765e+00 6.84519080155125e-02 4.70975323901785e-04
2.63764705882353e+00 6.70759168037532e-02 4.69538418328087e-04
2.72705882352941e+00 6.57275851859413e-02 4.67836521877641e-04
2.81647058823529e+00 6.44063571556480e-02 4.65889877294947e-04
2.90588235294118e+00 6.31116878928406e-02 4.63717220628556e-04
2.99529411764706e+00 6.18430435199150e-02 4.61335923836335e-04
3.08470588235294e+00 6.05999008999088e-02 4.58762119212291e-04
3.17411764705882e+00 5.93817474071329e-02 4.56010811095156e-04
3.26352941176471e+00 5.81880807170057e-02 4.53095971079094e-04
3.35294117647059e+00 5.70184086098183e-02 4.50030626059547e-04
3.44235294117647e+00 5.58722487532191e-02 4.46826935218298e-04
3.53176470588235e+00 5.47491285172225e-02 4.43496259017644e-04
3.62117647058824e+00 5.36485847660126e-02 4.40049221409975e-04
3.71058823529412e+00 5.25701636796950e-02 4.36495765625662e-04
3.80000000000000e+00 5.15134205549663e-02 4.32845204811307e-04
3.88941176470588e+00 5.04779196334172e-02 4.29106267671679e-04
3.97882352941176e+00 4.94632339106436e-02 4.25287140150135e-04
4.06823529411765e+00 4.84689449709061e-02 4.21395503163617e-04
4.15764705882353e+00 4.74946428042865e-02 4.17438567253385e-04
4.24705882352941e+00 4.65399256475062e-02 4.13423104077600e-04
4.33647058823529e+00 4.56043998087560e-02 4.09355475476989e-04
4.42588235294118e+00 4.46876795144768e-02 4.05241659981046e-04
4.51529411764706e+00 4.37893867415125e-02 4.01087277386075e-04
4.60470588235294e+00 4.29091510696575e-02 3.96897611031680e-04
4.69411764705882e+00 4.20466095226293e-02 3.92677629555032e-04
4.78352941176471e+00 4.12014064188398e-02 3.88432004872441e-04
4.87294117647059e+00 4.03731932300020e-02 3.84165130878587e-04
4.96235294117647e+00 3.95616284303851e-02 3.79881139872664e-04
5.05176470588235e+00 3.87663773627503e-02 3.75583917886710e-04
5.14117647058824e+00 3.79871120938279e-02 3.71277119091613e-04
5.23058823529412e+00 3.72235112853786e-02 3.66964179078777e-04
5.32000000000000e+00 3.64752600556212e-02 3.62648327384824e-04
5.40941176470588e+00 3.57420498552367e-02 3.58332599056340e-04
5.49882352941176e+00 3.50235783344907e-02 3.54019845590151e-04
5.58823529411765e+00 3.43195492240017e-02 3.49712745048156e-04
5.67764705882353e+00 3.36296722073143e-02 3.45413811654562e-04
5.76705882352941e+00 3.29536628062581e-02 3.41125404678499e-04
5.85647058823529e+00 3.22912422587395e-02 3.36849736885991e-04
5.94588235294118e+00 3.16421374085235e-02 3.32588882369333e-04
6.03529411764706e+00 3.10060805880225e-02 3.28344784016963e-04
6.12470588235294e+00 3.03828095123370e-02 3.24119260312680e-04
6.21411764705882e+00 2.97720671678062e-02 3.19914012462143e-04
6.30352941176471e+00 2.91736017062295e-02 3.15730629788368e-04
6.39294117647059e+00 2.85871663438509e-02 3.11570596083715e-04
6.48235294117647e+00 2.80125192558196e-02 3.07435295028287e-04
6.57176470588235e+00 2.74494234801226e-02 3.03326015350524e-04
6.66117647058824e+00 2.68976468163365e-02 2.99243955790217e-04
6.75058823529412e+00 2.63569617332971e-02 2.95190229706744e-04
6.84000000000000e+00 2.58271452719636e-02 2.91165869520519e-04
6.92941176470588e+00 2.53079789566829e-02 2.87171830837144e-04
7.01882352941177e+00 2.47992487019966e-02 2.83208996430675e-04
7.10823529411765e+00 2.43007447273635e-02 2.79278179941947e-04
7.19764705882353e+00 2.38122614677458e-02 2.75380129457940e-04
7.28705882352941e+00 2.33335974916581e-02 2.71515530834353e-04
7.37647058823529e+00 2.28645554153768e-02 2.67685010917689e-04
7.46588235294118e+00 2.24049418241892e-02 2.63889140535250e-04
7.55529411764706e+00 2.19545671900758e-02 2.60128437400307e-04
7.64470588235294e+00 2.15132457960375e-02 2.56403368727485e-04
7.73411764705882e+00 2.10807956576618e-02 2.52714354175076e-04
7.82352941176471e+00 2.06570384481833e-02 2.49061767802998e-04
7.91294117647059e+00 2.02417994265678e-02 2.45445940738142e-04
8.00235294117647e+00 1.98349073633016e-02 2.41867163341225e-04
8.09176470588235e+00 1.94361944718717e-02 2.38325687297037e-04
8.18117647058824e+00 1.90454963375515e-02 2.34821727657418e-04
8.27058823529412e+00 1.86626518515665e-02 2.31355464732941e-04
8.36000000000000e+00 1.82875031427539e-02 2.27927045945090e-04
8.44941176470588e+00 1.79198955143110e-02 2.24536587539784e-04
8.53882352941176e+00 1.75596773782100e-02 2.21184176268076e-04
8.62823529411765e+00 1.72067001944302e-02 2.17869870939509e-04
8.71764705882353e+00 1.68608184080153e-02 2.14593703948392e-04
8.80705882352941e+00 1.65218893906926e-02 2.11355682682905e-04
8.89647058823529e+00 1.61897733804664e-02 2.08155790912077e-04
8.98588235294118e+00 1.58643334255307e-02 2.04993990064761e-04
9.07529411764706e+00 1.55454353262948e-02 2.01870220490748e-04
9.16470588235294e+00 1.52329475815018e-02 1.98784402570839e-04
9.25411764705882e+00 1.49267413329148e-02 1.95736438070438e-04
9.34352941176471e+00 1.46266903122378e-02 1.92726210887920e-04
9.43294117647059e+00 1.43326707900076e-02 1.89753588288798e-04
9.52235294117647e+00 1.40445615232954e-02 1.86818421844075e-04
9.61176470588235e+00 1.37622437069513e-02 1.83920548344405e-04
9.70117647058824e+00 1.34856009234082e-02 1.81059790706572e-04
9.79058823529412e+00 1.32145190958467e-02 1.78235958804329e-04
9.88000000000000e+00 1.29488864400163e-02 1.75448850293746e-04
9.96941176470588e+00 1.26885934192452e-02 1.72698251164633e-04
1.00588235294118e+01 1.24335326994432e-02 1.69983937271319e-04
1.01482352941176e+01 1.21835991011178e-02 1.67305674234623e-04
1.02376470588235e+01 1.19386895610912e-02 1.64663217434014e-04
1.03270588235294e+01 1.16987030902195e-02 1.62056314669602e-04
1.04164705882353e+01 1.14635407247466e-02 1.59484705642839e-04
1.05058823529412e+01 1.12331054925897e-02 1.56948121370055e-04
1.05952941176471e+01 1.10073023730733e-02 1.54446287034480e-04
1.06847058823529e+01 1.07860382513155e-02 1.51978921382795e-04
1.07741176470588e+01 1.05692218863416e-02 1.49545736141819e-04
1.08635294117647e+01 1.03567638732095e-02 1.47146438635958e-04
1.09529411764706e+01 1.01485766002326e-02 1.44780731192304e-04
1.10423529411765e+01 9.94457421883527e-03 1.42448310565726e-04
1.11317647058824e+01 9.74467260791914e-03 1.40148870342892e-04
1.12211764705882e+01 9.54878933374557e-03 1.37882100357798e-04
1.13105882352941e+01 9.35684362144391e-03 1.35647686129230e-04
1.14000000000000e+01 9.16875632148557e-03 1.33445311070026e-04
1.14894117647059e+01 8.98444987205573e-03 1.31274655645202e-04
1.15788235294118e+01 8.80384827367093e-03 1.29135397911247e-04
1.16682352941176e+01 8.62687705143949e-03 1.27027214190104e-04
1.17576470588235e+01 8.45346322910602e-03 1.24949778226674e-04
1.18470588235294e+01 8.28353529877226e-03 1.22902763100805e-04
1.19364705882353e+01 8.11702318709182e-03 1.20885840688481e-04
1.20258823529412e+01 7.95385823075005e-03 1.18898681143186e-04
1.21152941176471e+01 7.79397314798154e-03 1.16940954655955e-04
1.22047058823529e+01 7.63730200684791e-03 1.15012330934670e-04
1.22941176470588e+01 7.48378020207797e-03 1.13112478701395e-04
1.23835294117647e+01 7.33334442827488e-03 1.11241067313539e-04
1.24729411764706e+01 7.18593265014484e-03 1.09397766261298e-04
1.25623529411765e+01 7.04148408062887e-03 1.07582244682475e-04
1.26517647058824e+01 6.89993915569460e-03 1.05794172856428e-04
1.27411764705882e+01 6.76123950639619e-03 1.04033221719391e-04
1.28305882352941e+01 6.62532793822812e-03 1.02299062397754e-04
1.29200000000000e+01 6.49214840740787e-03 1.00591367585246e-04
1.30094117647059e+01 6.36164599465187e-03 9.89098108964441e-05
1.30988235294118e+01 6.23376688665026e-03 9.72540671423104e-05
1.31882352941176e+01 6.10845834987535e-03 9.56238126967247e-05
1.32776470588235e+01 5.98566871181081e-03 9.40187248576687e-05
1.33670588235294e+01 5.86534733952948e-03 9.24384830450368e-05
1.34564705882353e+01 5.74744461610626e-03 9.08827683686202e-05
1.35458823529412e+01 5.63191192290202e-03 8.93512632119385e-05
1.36352941176471e+01 5.51870161941136e-03 8.78436523376435e-05
1.37247058823529e+01 5.40776702111691e-03 8.63596224742092e-05
1.38141176470588e+01 5.29906238277077e-03 8.48988619168879e-05
1.39035294117647e+01 5.19254287943681e-03 8.34610615482643e-05
1.39929411764706e+01 5.08816458569627e-03 8.20459144429660e-05
1.40823529411765e+01 4.98588445987426e-03 8.06531154859495e-05
1.41717647058824e+01 4.88566032620288e-03 7.92823623150258e-05
1.42611764705882e+01 4.78745085529625e-03 7.79333549427881e-05
1.43505882352941e+01 4.69121554926955e-03 7.66057953922050e-05
1.44400000000000e+01 4.59691472495691e-03 7.52993885672523e-05
1.45294117647059e+01 4.50450949557696e-03 7.40138417710716e-05
1.46188235294118e+01 4.41396175730695e-03 7.27488648433489e-05
1.47082352941176e+01 4.32523417103435e-03 7.15041703593116e-05
1.47976470588235e+01 4.23829014884587e-03 7.02794731570539e-05
1.48870588235294e+01 4.15309383886856e-03 6.90744910973237e-05
1.49764705882353e+01 4.06961010876514e-03 6.78889447317883e-05
1.50658823529412e+01 3.98780453299043e-03 6.67225569831541e-05
1.51552941176471e+01 3.90764337853054e-03 6.55750538475311e-05
1.52447058823529e+01 3.82909358940070e-03 6.44461640786523e-05
1.53341176470588e+01 3.75212277462659e-03 6.33356188828321e-05
1.54235294117647e+01 3.67669919482830e-03 6.22431525684421e-05
1.55129411764706e+01 3.60279174765875e-03 6.11685022453094e-05
1.56023529411765e+01 3.53036995647061e-03 6.01114075342831e-05
1.56917647058824e+01 3.45940395769343e-03 5.90716111679450e-05
1.57811764705882e+01 3.38986448715589e-03 5.80488587043716e-05
1.58705882352941e+01 3.32172286939969e-03 5.70428982509801e-05
1.59600000000000e+01 3.25495100580304e-03 5.60534810201984e-05
1.60494117647059e+01 3.18952136173236e-03 5.50803609757978e-05
1.61388235294118e+01 3.12540695685914e-03 5.41232948972015e-05
1.62282352941176e+01 3.06258135240912e-03 5.31820424856502e-05
1.63176470588235e+01 3.00101864146928e-03 5.22563660189041e-05
1.64070588235294e+01 2.94069343825963e-03 5.13460308373118e-05
1.64964705882353e+01 2.88158086656003e-03 5.04508050947740e-05
1.65858823529412e+01 2.82365655057199e-03 4.95704595183823e-05
1.66752941176471e+01 2.76689660482572e-03 4.87047678582788e-05
1.67647058823529e+01 2.71127762330677e-03 4.78535066512714e-05
1.68541176470588e+01 2.65677667084137e-03 4.70164549923421e-05
1.69435294117647e+01 2.60337127360113e-03 4.61933949510903e-05
1.70329411764706e+01 2.55103940888657e-03 4.53841113473212e-05
1.71223529411765e+01 2.49975949700713e-03 4.45883915340840e-05
1.72117647058824e+01 2.44951039234722e-03 4.38060257832486e-05
1.73011764705882e+01 2.40027137376714e-03 4.30368070723792e-05
1.73905882352941e+01 2.35202213694961e-03 4.22805308789228e-05
1.74800000000000e+01 2.30474278599404e-03 4.15369955372286e-05
1.75694117647059e+01 2.25841382439711e-03 4.08060019812089e-05
1.76588235294118e+01 2.21301614809320e-03 4.00873537703192e-05
1.77482352941176e+01 2.16853103652558e-03 3.93808571440788e-05
1.78376470588235e+01 2.12494014570914e-03 3.86863207716624e-05
1.79270588235294e+01 2.08222550063707e-03 3.80035560647224e-05
1.80164705882353e+01 2.04036948715285e-03 3.73323769928879e-05
1.81058823529412e+01 1.99935484541221e-03 3.66725999055390e-05
1.81952941176471e+01 1.95916466273938e-03 3.60240438215662e-05
1.82847058823529e+01 1.91978236598877e-03 3.53865302545496e-05
1.83741176470588e+01 1.88119171538362e-03 3.47598830436673e-05
1.84635294117647e+01 1.84337679779501e-03 3.41439286221400e-05
1.85529411764706e+01 1.80632201956355e-03 3.35384958515468e-05
1.86423529411765e+01 1.77001210069349e-03 3.29434158615432e-05
1.87317647058824e+01 1.73443206852910e-03 3.23585222985876e-05
1.88211764705882e+01 1.69956725100869e-03 3.17836511688548e-05
1.89105882352941e+01 1.66540327119388e-03 3.12186406864222e-05
1.90000000000000e+01 1.63192604131980e-03 3.06633315037294e-05
1.90894117647059e+01 1.59912175645523e-03 3.01175665253133e-05
1.91788235294118e+01 1.56697688951326e-03 2.95811909142806e-05
1.92682352941176e+01 1.53547818498844e-03 2.90540521182998e-05
1.93576470588235e+01 1.50461265400060e-03 2.85359996888120e-05
1.94470588235294e+01 1.47436756892012e-03 2.80268854832027e-05
1.95364705882353e+01 1.44473045765235e-03 2.75265635292539e-05
1.96258823529412e+01 1.41568909896801e-03 2.70348898941002e-05
1.97152941176471e+01 1.38723151744646e-03 2.65517228716024e-05
1.98047058823529e+01 1.35934597810365e-03 2.60769228540594e-05
1.98941176470588e+01 1.33202098199252e-03 2.56103522080451e-05
1.99835294117647e+01 1.30524526144557e-03 2.51518754480932e-05
2.00729411764706e+01 1.27900777502542e-03 2.47013591152500e-05
2.01623529411765e+01 1.25329770338001e-03 2.42586716595182e-05
2.02517647058824e+01 1.22810444476642e-03 2.38236836008624e-05
2.03411764705882e+01 1.20341761030475e-03 2.33962674142004e-05
2.04305882352941e+01 1.17922702007346e-03 2.29762974181672e-05
2.05200000000000e+01 1.15552269889779e-03 2.25636499243678e-05
2.06094117647059e+01 1.13229487188861e-03 2.21582031030139e-05
2.06988235294118e+01 1.10953396087264e-03 2.17598369800721e-05
2.07882352941176e+01 1.08723057999369e-03 2.13684334478068e-05
2.08776470588235e+01 1.06537553217677e-03 2.09838761346268e-05
2.09670588235294e+01 1.04395980532339e-03 2.06060505361271e-05
2.10564705882353e+01 1.02297456828866e-03 2.02348439160609e-05
2.11458823529412e+01 1.00241116755042e-03 1.98701452105343e-05
2.12352941176471e+01 9.82261123629719e-04 1.95118451495022e-05
2.13247058823529e+01 9.62516127309052e-04 1.91598361631182e-05
2.14141176470588e+01 9.43168036494809e-04 1.88140122910461e-05
2.15035294117647e+01 9.24208872849502e-04 1.84742692951205e-05
2.15929411764706e+01 9.05630818236666e-04 1.81405045707617e-05
2.16823529411765e+01 8.87426211765546e-04 1.78126170611809e-05
2.17717647058824e+01 8.69587546622405e-04 1.74905073618533e-05
2.18611764705882e+01 8.52107466728528e-04 1.71740776366961e-05
2.19505882352941e+01 8.34978763956627e-04 1.68632315369451e-05
2.20400000000000e+01 8.18194375149445e-04 1.65578742980308e-05
2.21294117647059e+01 8.01747378978039e-04 1.62579126428705e-05
2.22188235294118e+01 7.85630993391521e-04 1.59632547751386e-05
2.23082352941176e+01 7.69838572524295e-04 1.56738103817491e-05
2.23976470588235e+01 7.54363604176140e-04 1.53894905393366e-05
2.24870588235294e+01 7.39199707118862e-04 1.51102077993547e-05
2.25764705882353e+01 7.24340628262492e-04 1.48358761160133e-05
2.26658823529412e+01 7.09780240281894e-04 1.45664107765183e-05
2.27552941176471e+01 6.95512539082758e-04 1.43017284799893e-05
2.28447058823529e+01 6.81531641137394e-04 1.40417472693511e-05
2.29341176470588e+01 6.67831781249395e-04 1.37863864653450e-05
2.30235294117647e+01 6.54407310169542e-04 1.35355667397212e-05
2.31129411764706e+01 6.41252692090981e-04 1.32892100508528e-05
2.32023529411765e+01 6.28362502544045e-04 1.30472395813448e-05
2.32917647058824e+01 6.15731426153068e-04 1.28095798059213e-05
2.33811764705882e+01 6.03354254281464e-04 1.25761564305381e-05
2.34705882352941e+01 5.91225883049136e-04 1.23468963334205e-05
2.35600000000000e+01 5.79341311221889e-04 1.21217276280233e-05
2.36494117647059e+01 5.67695637997385e-04 1.19005795935386e-05
2.37388235294118e+01 5.56284061185459e-04 1.16833826671026e-05
2.38282352941176e+01 5.45101875031708e-04 1.14700684423562e-05
2.39176470588235e+01 5.34144468423182e-04 1.12605696023374e-05
2.40070588235294e+01 5.23407322981692e-04 1.10548199748032e-05
2.40964705882353e+01 5.12886011066371e-04 1.08527544799437e-05
2.41858823529412e+01 5.02576194083917e-04 1.06543090797358e-05
2.42752941176471e+01 4.92473620694688e-04 1.04594208292539e-05
2.43647058823529e+01 4.82574124934631e-04 1.02680278272733e-05
2.44541176470588e+01 4.72873624624012e-04 1.00800691683868e-05
2.45435294117647e+01 4.63368119679626e-04 9.89548499059810e-06
2.46329411764706e+01 4.54053690348921e-04 9.71421642864592e-06
2.47223529411765e+01 4.44926495711555e-04 9.53620556875262e-06
2.48117647058824e+01 4.35982772091366e-04 9.36139549276931e-06
2.49011764705882e+01 4.27218831396016e-04 9.18973023405761e-06
2.49905882352941e+01 4.18631059705974e-04 9.02115473474240e-06
2.50800000000000e+01 4.10215915780346e-04 8.85561488665545e-06
2.51694117647059e+01 4.01969929495717e-04 8.69305748145605e-06
2.52588235294118e+01 3.93889700549016e-04 8.53343020314633e-06
2.53482352941176e+01 3.85971896924863e-04 8.37668162497760e-06
2.54376470588235e+01 3.78213253618826e-04 8.22276116134087e-06
2.55270588235294e+01 3.70610571287584e-04 8.07161910374540e-06
2.56164705882353e+01 3.63160714840267e-04 7.92320658296543e-06
2.57058823529412e+01 3.55860612236243e-04 7.77747553235465e-06
2.57952941176471e+01 3.48707253215113e-04 7.63437872121569e-06
2.58847058823529e+01 3.41697687972136e-04 7.49386971905031e-06
2.59741176470588e+01 3.34829026026197e-04 7.35590286088999e-06
2.60635294117647e+01 3.28098435024923e-04 7.22043327824703e-06
2.61529411764706e+01 3.21503139499142e-04 7.08741686534560e-06
2.62423529411765e+01 3.15040419796992e-04 6.95681024636984e-06
2.63317647058824e+01 3.08707610959663e-04 6.82857080417117e-06
2.64211764705882e+01 3.02502101550191e-04 6.70265664836224e-06
2.65105882352941e+01 2.96421332649851e-04 6.57902658438666e-06
2.66000000000000e+01 2.90462796800349e-04 6.45764014014306e-06
2.66894117647059e+01 2.84624036902505e-04 6.33845753021404e-06
2.67788235294118e+01 2.78902645292365e-04 6.22143964927795e-06
2.68682352941176e+01 2.73296262661237e-04 6.10654806856037e-06
2.69576470588235e+01 2.67802577147744e-04 5.99374500136939e-06
2.70470588235294e+01 2.62419323382196e-04 5.88299332648809e-06
2.71364705882353e+01 2.57144281492722e-04 5.77425656081719e-06
2.72258823529412e+01 2.51975276250397e-04 5.66749883284970e-06
2.73152941176471e+01 2.46910176170129e-04 5.56268490436447e-06
2.74047058823529e+01 2.41946892576050e-04 5.45978014459643e-06
2.74941176470588e+01 2.37083378796622e-04 5.35875050517702e-06
2.75835294117647e+01 2.32317629318700e-04 5.25956254025294e-06
2.76729411764706e+01 2.27647678908634e-04 5.16218338209440e-06
2.77623529411765e+01 2.23071601854463e-04 5.06658071742857e-06
2.78517647058824e+01 2.18587511169976e-04 4.97272280609758e-06
2.79411764705882e+01 2.14193557768216e-04 4.88057845801899e-06
2.80305882352941e+01 2.09887929748010e-04 4.79011701084114e-06
2.81200000000000e+01 2.05668851645077e-04 4.70130834724456e-06
2.82094117647059e+01 2.01534583654798e-04 4.61412286930538e-06
