Energy (eV)          EEDF (eV^-(3/2))     First Anisotropy
7.02127659574468e-03 4.25532559167953e-01 2.31536393005375e-04
2.10638297872340e-02 4.22417169990684e-01 3.82217778546032e-04
3.51063829787234e-02 4.19324589055982e-01 5.04267236595873e-04
4.91489361702128e-02 4.16254649381582e-01 5.96804627255013e-04
6.31914893617021e-02 4.13207185206938e-01 6.73829391985692e-04
7.72340425531915e-02 4.10182031985357e-01 7.40637974952659e-04
9.12765957446808e-02 4.07179026378454e-01 7.99972979546352e-04
1.05319148936170e-01 4.04198006236052e-01 8.53491578122717e-04
1.19361702127660e-01 4.01238810585147e-01 9.02293484375742e-04
1.33404255319149e-01 3.98301279666252e-01 9.47156409496740e-04
1.47446808510638e-01 3.95385254867072e-01 9.88656393623733e-04
1.61489361702128e-01 3.92490578736695e-01 1.02723542757022e-03
1.75531914893617e-01 3.89617094977394e-01 1.06324223613878e-03
1.89574468085106e-01 3.86764648436107e-01 1.09695825259324e-03
2.03617021276596e-01 3.83933085081843e-01 1.12861489405561e-03
2.17659574468085e-01 3.81122252040480e-01 1.15840547855751e-03
2.31702127659574e-01 3.78331997541709e-01 1.18649369166667e-03
2.45744680851064e-01 3.75562170926401e-01 1.21301974938863e-03
2.59787234042553e-01 3.72812622638638e-01 1.23810499356746e-03
2.73829787234043e-01 3.70083204207500e-01 1.26185537433741e-03
2.87872340425532e-01 3.67373768269701e-01 1.28436414260174e-03
3.01914893617021e-01 3.64684168530092e-01 1.30571395927065e-03
3.15957446808511e-01 3.62014259764524e-01 1.32597856377550e-03
3.30000000000000e-01 3.59363897812200e-01 1.34522411896335e-03
3.44042553191489e-01 3.56732939560131e-01 1.36351029802239e-03
3.58085106382979e-01 3.54121242958807e-01 1.38089117966033e-03
3.72127659574468e-01 3.51528666990580e-01 1.39741598860328e-03
3.86170212765957e-01 3.48955071670167e-01 1.41312970817013e-03
4.00212765957447e-01 3.46400318037220e-01 1.42807359913279e-03
4.14255319148936e-01 3.43864268142650e-01 1.44228563432049e-03
4.28297872340426e-01 3.41346785059845e-01 1.45580087237962e-03
4.42340425531915e-01 3.38847732858227e-01 1.46865177795674e-03
4.56382978723404e-01 3.36366976602362e-01 1.48086849314656e-03
4.70425531914894e-01 3.33904382344730e-01 1.49247907628362e-03
4.84468085106383e-01 3.31459817113455e-01 1.50350970581527e-03
4.98510638297872e-01 3.29033148920456e-01 1.51398486188329e-03
5.12553191489362e-01 3.26624246738697e-01 1.52392748573772e-03
5.26595744680851e-01 3.24232980500400e-01 1.53335911637560e-03
5.40638297872340e-01 3.21859221090039e-01 1.54230001417089e-03
5.54680851063830e-01 3.19502840337388e-01 1.55076927048800e-03
5.68723404255319e-01 3.17163711006508e-01 1.55878490262408e-03
5.82765957446808e-01 3.14841706801273e-01 1.56636394171410e-03
5.96808510638298e-01 3.12536702345954e-01 1.57352251157909e-03
6.10851063829787e-01 3.10248573182706e-01 1.58027589624575e-03
6.24893617021277e-01 3.07977195764886e-01 1.58663860390722e-03
6.38936170212766e-01 3.05722447446862e-01 1.59262442166887e-03
6.52978723404255e-01 3.03484206488021e-01 1.59824646797639e-03
6.67021276595745e-01 3.01262352035415e-01 1.60351724029427e-03
6.81063829787234e-01 2.99056764120860e-01 1.60844865545049e-03
6.95106382978723e-01 2.96867323654500e-01 1.61305208929858e-03
7.09148936170213e-01 2.94693912415323e-01 1.61733841018474e-03
7.23191489361702e-01 2.92536413054001e-01 1.62131801221862e-03
7.37234042553191e-01 2.90394709077202e-01 1.62500084586949e-03
7.51276595744681e-01 2.88268684844449e-01 1.62839644330594e-03
7.65319148936170e-01 2.86158225561900e-01 1.63151394437454e-03
7.79361702127660e-01 2.84063217273475e-01 1.63436211800543e-03
7.93404255319149e-01 2.81983546862796e-01 1.63694938442501e-03
8.07446808510638e-01 2.79919102038878e-01 1.63928383577105e-03
8.21489361702128e-01 2.77869771332833e-01 1.64137325263860e-03
8.35531914893617e-01 2.75835444091856e-01 1.64322512141562e-03
8.49574468085106e-01 2.73816010473255e-01 1.64484665035164e-03
8.63617021276596e-01 2.71811361436224e-01 1.64624478267622e-03
8.77659574468085e-01 2.69821388742908e-01 1.64742621104800e-03
8.91702127659574e-01 2.67845984945517e-01 1.64839739108984e-03
9.05744680851064e-01 2.65885043382903e-01 1.64916455171506e-03
9.19787234042553e-01 2.63938458174806e-01 1.64973370702215e-03
9.33829787234043e-01 2.62006124214093e-01 1.65011066528303e-03
9.47872340425532e-01 2.60087937167273e-01 1.65030103943902e-03
9.61914893617021e-01 2.58183793462601e-01 1.65031025700183e-03
9.75957446808511e-01 2.56293590286590e-01 1.65014356720027e-03
9.90000000000000e-01 2.54417225578474e-01 1.64980604978409e-03
1.00404255319149e+00 2.52554598022858e-01 1.64930262131290e-03
1.01808510638298e+00 2.50705607049806e-01 1.64863804186457e-03
1.03212765957447e+00 2.48870152829014e-01 1.64781692863413e-03
1.04617021276596e+00 2.47048136238411e-01 1.64684374942052e-03
1.06021276595745e+00 2.45239458916479e-01 1.64572283436856e-03
1.07425531914894e+00 2.43444023204074e-01 1.64445839416391e-03
1.08829787234043e+00 2.41661732140930e-01 1.64305450245089e-03
1.10234042553191e+00 2.39892489509451e-01 1.64151511230997e-03
1.11638297872340e+00 2.38136199779795e-01 1.63984407193380e-03
1.13042553191489e+00 2.36392768106307e-01 1.63804510715812e-03
1.14446808510638e+00 2.34662100368631e-01 1.63612183672532e-03
1.15851063829787e+00 2.32944103119796e-01 1.63407778348397e-03
1.17255319148936e+00 2.31238683596989e-01 1.63191637063828e-03
1.18659574468085e+00 2.29545749702546e-01 1.62964091907723e-03
1.20063829787234e+00 2.27865210041442e-01 1.62725465759229e-03
1.21468085106383e+00 2.26196973873379e-01 1.62476073609517e-03
1.22872340425532e+00 2.24540951109173e-01 1.62216220890982e-03
1.24276595744681e+00 2.22897052346029e-01 1.61946204772159e-03
1.25680851063830e+00 2.21265188822067e-01 1.61666315397107e-03
1.27085106382979e+00 2.19645272412754e-01 1.61376834247303e-03
1.28489361702128e+00 2.18037215664125e-01 1.61078035360716e-03
1.29893617021277e+00 2.16440931749582e-01 1.60770186498095e-03
1.31297872340426e+00 2.14856334466371e-01 1.60453547540614e-03
1.32702127659574e+00 2.13283338266902e-01 1.60128371641247e-03
1.34106382978723e+00 2.11721858217666e-01 1.59794906325642e-03
1.35510638297872e+00 2.10171809995754e-01 1.59453391927735e-03
1.36914893617021e+00 2.08633109918410e-01 1.59104062679456e-03
1.38319148936170e+00 2.07105674903954e-01 1.58747147753622e-03
1.39723404255319e+00 2.05589422468299e-01 1.58382869738800e-03
1.41127659574468e+00 2.04084270752894e-01 1.58011445672186e-03
1.42531914893617e+00 2.02590138487507e-01 1.57633088030655e-03
1.43936170212766e+00 2.01106944986759e-01 1.57248003245363e-03
1.45340425531915e+00 1.99634610176556e-01 1.56856392682908e-03
1.46744680851064e+00 1.98173054558621e-01 1.56458453589071e-03
1.48148936170213e+00 1.96722199207038e-01 1.56054377643349e-03
1.49553191489362e+00 1.95281965793288e-01 1.55644351892780e-03
1.50957446808511e+00 1.93852276552413e-01 1.55228559406290e-03
1.52361702127660e+00 1.92433054288782e-01 1.54807178854877e-03
1.53765957446809e+00 1.91024222362944e-01 1.54380384170116e-03
1.55170212765957e+00 1.89625704714731e-01 1.53948345155907e-03
1.56574468085106e+00 1.88237425831618e-01 1.53511228329860e-03
1.57978723404255e+00 1.86859310745358e-01 1.53069195579940e-03
1.59382978723404e+00 1.85491285053900e-01 1.52622404999149e-03
1.60787234042553e+00 1.84133274891121e-01 1.52171011689847e-03
1.62191489361702e+00 1.82785206923530e-01 1.51715166458634e-03
1.63595744680851e+00 1.81447008371054e-01 1.51255016615972e-03
1.65000000000000e+00 1.80118606978077e-01 1.50790706746072e-03
1.66404255319149e+00 1.78799931010204e-01 1.50322377439320e-03
1.67808510638298e+00 1.77490909273990e-01 1.49850166058992e-03
1.69212765957447e+00 1.76191471089215e-01 1.49374207479347e-03
1.70617021276596e+00 1.74901546285702e-01 1.48894632854876e-03
1.72021276595745e+00 1.73621065222049e-01 1.48411570355682e-03
1.73425531914894e+00 1.72349958759091e-01 1.47925145876310e-03
1.74829787234043e+00 1.71088158256745e-01 1.47435481840967e-03
1.76234042553191e+00 1.69835595591829e-01 1.46942697909200e-03
1.77638297872340e+00 1.68592203132630e-01 1.46446911657497e-03
1.79042553191489e+00 1.67357913735789e-01 1.45948237419481e-03
1.80446808510638e+00 1.66132660763253e-01 1.45446786963743e-03
1.81851063829787e+00 1.64916378057894e-01 1.44942669959082e-03
1.83255319148936e+00 1.63708999946934e-01 1.44435993612872e-03
1.84659574468085e+00 1.62510461232030e-01 1.43926862367913e-03
1.86063829787234e+00 1.61320697205035e-01 1.43415378340964e-03
1.87468085106383e+00 1.60139643625041e-01 1.42901641942935e-03
1.88872340425532e+00 1.58967236715365e-01 1.42385750803476e-03
1.90276595744681e+00 1.57803413178559e-01 1.41867800387730e-03
1.91680851063830e+00 1.56648110174364e-01 1.41347884593396e-03
1.93085106382979e+00 1.55501265316750e-01 1.40826094706878e-03
1.94489361702128e+00 1.54362816688224e-01 1.40302519997957e-03
1.95893617021277e+00 1.53232702818633e-01 1.39777248294904e-03
1.97297872340426e+00 1.52110862682276e-01 1.39250364971324e-03
1.98702127659574e+00 1.50997235711531e-01 1.38721953519796e-03
2.00106382978723e+00 1.49891761776482e-01 1.38192096106220e-03
2.01510638297872e+00 1.48794381182089e-01 1.37660872586531e-03
2.02914893617021e+00 1.47705034681174e-01 1.37128361060034e-03
2.04319148936170e+00 1.46623663454841e-01 1.36594638404365e-03
2.05723404255319e+00 1.45550209109690e-01 1.36059779321175e-03
2.07127659574468e+00 1.44484613690206e-01 1.35523856869812e-03
2.08531914893617e+00 1.43426819659927e-01 1.34986942984084e-03
2.09936170212766e+00 1.42376769898707e-01 1.34449107545970e-03
2.11340425531915e+00 1.41334407714536e-01 1.33910418900582e-03
2.12744680851064e+00 1.40299676825429e-01 1.33370944355583e-03
2.14148936170213e+00 1.39272521356724e-01 1.32830749282057e-03
2.15553191489362e+00 1.38252885852376e-01 1.32289897611623e-03
2.16957446808511e+00 1.37240715257523e-01 1.31748452173947e-03
2.18361702127660e+00 1.36235954920368e-01 1.31206474406358e-03
2.19765957446808e+00 1.35238550584775e-01 1.30664024106187e-03
2.21170212765957e+00 1.34248448400823e-01 1.30121159750300e-03
2.22574468085106e+00 1.33265594908291e-01 1.29577938954342e-03
2.23978723404255e+00 1.32289937034074e-01 1.29034417637802e-03
2.25382978723404e+00 1.31321422102264e-01 1.28490650481469e-03
2.26787234042553e+00 1.30359997818235e-01 1.27946691371328e-03
2.28191489361702e+00 1.29405612266116e-01 1.27402592587900e-03
2.29595744680851e+00 1.28458213918418e-01 1.26858405248927e-03
2.31000000000000e+00 1.27517751620697e-01 1.26314179738555e-03
2.32404255319149e+00 1.26584174589081e-01 1.25769964920226e-03
2.33808510638298e+00 1.25657432419463e-01 1.25225808565080e-03
2.35212765957447e+00 1.24737475072727e-01 1.24681757767201e-03
2.36617021276596e+00 1.23824252872309e-01 1.24137858179341e-03
2.38021276595745e+00 1.22917716512998e-01 1.23594154427405e-03
2.39425531914894e+00 1.22017817046687e-01 1.23050690512527e-03
2.40829787234043e+00 1.21124505879974e-01 1.22507509068903e-03
2.42234042553191e+00 1.20237734782591e-01 1.21964651764805e-03
2.43638297872340e+00 1.19357455873647e-01 1.21422159692111e-03
2.45042553191489e+00 1.18483621619289e-01 1.20880072645522e-03
2.46446808510638e+00 1.17616184840752e-01 1.20338429510638e-03
2.47851063829787e+00 1.16755098701098e-01 1.19797268525758e-03
2.49255319148936e+00 1.15900316706293e-01 1.19256627045396e-03
2.50659574468085e+00 1.15051792699371e-01 1.18716541336715e-03
2.52063829787234e+00 1.14209480867990e-01 1.18177046827873e-03
2.53468085106383e+00 1.13373335731827e-01 1.17638178468489e-03
2.54872340425532e+00 1.12543312140332e-01 1.17099970059025e-03
2.56276595744681e+00 1.11719365279960e-01 1.16562454609717e-03
2.57680851063830e+00 1.10901450661997e-01 1.16025664689699e-03
2.59085106382979e+00 1.10089524120365e-01 1.15489631775521e-03
2.60489361702128e+00 1.09283541818540e-01 1.14954386599162e-03
2.61893617021277e+00 1.08483460237799e-01 1.14419959486248e-03
2.63297872340426e+00 1.07689236175066e-01 1.13886379723114e-03
2.64702127659574e+00 1.06900826749541e-01 1.13353675894288e-03
2.66106382978723e+00 1.06118189391342e-01 1.12821876210235e-03
2.67510638297872e+00 1.05341281839396e-01 1.12291007892420e-03
2.68914893617021e+00 1.04570062147792e-01 1.11761097500495e-03
2.70319148936170e+00 1.03804488674801e-01 1.11232171250112e-03
2.71723404255319e+00 1.03044520080815e-01 1.10704254415458e-03
2.73127659574468e+00 1.02290115334426e-01 1.10177371646328e-03
2.74531914893617e+00 1.01541233701826e-01 1.09651547276518e-03
2.75936170212766e+00 1.00797834744775e-01 1.09126804743228e-03
2.77340425531915e+00 1.00059878326436e-01 1.08603166894448e-03
2.78744680851064e+00 9.93273246011221e-02 1.08080656288228e-03
2.80148936170213e+00 9.86001340123090e-02 1.07559294628435e-03
2.81553191489362e+00 9.78782672982262e-02 1.07039103062783e-03
2.82957446808511e+00 9.71616854819467e-02 1.06520102383161e-03
2.84361702127660e+00 9.64503498719000e-02 1.06002312838448e-03
2.85765957446809e+00 9.57442220573564e-02 1.05485753972224e-03
2.87170212765957e+00 9.50432639136902e-02 1.04970444813101e-03
2.88574468085106e+00 9.43474375929248e-02 1.04456404152691e-03
2.89978723404255e+00 9.36567055218363e-02 1.03943650019584e-03
2.91382978723404e+00 9.29710304069983e-02 1.03432199956239e-03
2.92787234042553e+00 9.22903752256360e-02 1.02922071288658e-03
2.94191489361702e+00 9.16147032237688e-02 1.02413280615034e-03
2.95595744680851e+00 9.09439779210491e-02 1.01905844074595e-03
2.97000000000000e+00 9.02781631019112e-02 1.01399777609259e-03
2.98404255319149e+00 8.96172228137547e-02 1.00895096466529e-03
2.99808510638298e+00 8.89611213715844e-02 1.00391815460533e-03
3.01212765957447e+00 8.83098233494449e-02 9.98899492259663e-04
3.02617021276596e+00 8.76632935786415e-02 9.93895117348229e-04
3.04021276595745e+00 8.70214971521914e-02 9.88905165497705e-04
3.05425531914894e+00 8.63843994165343e-02 9.83929770707646e-04
3.06829787234043e+00 8.57519659697880e-02 9.78969060652068e-04
3.08234042553191e+00 8.51241626660202e-02 9.74023159138201e-04
3.09638297872340e+00 8.45009556072253e-02 9.69092188502296e-04
3.11042553191489e+00 8.38823111416133e-02 9.64176265041319e-04
3.12446808510638e+00 8.32681958677106e-02 9.59275501399276e-04
3.13851063829787e+00 8.26585766265928e-02 9.54390008167074e-04
3.15255319148936e+00 8.20534205020975e-02 9.49519892357539e-04
3.16659574468085e+00 8.14526948171840e-02 9.44665256076824e-04
3.18063829787234e+00 8.08563671377995e-02 9.39826198045646e-04
3.19468085106383e+00 8.02644052654543e-02 9.35002815831582e-04
3.20872340425532e+00 7.96767772355908e-02 9.30195201582870e-04
3.22276595744681e+00 7.90934513212944e-02 9.25403444250968e-04
3.23680851063830e+00 7.85143960261006e-02 9.20627631758193e-04
3.25085106382979e+00 7.79395800823995e-02 9.15867846848474e-04
3.26489361702128e+00 7.73689724549978e-02 9.11124169247231e-04
3.27893617021277e+00 7.68025423341502e-02 9.06396677766636e-04
3.29297872340426e+00 7.62402591339975e-02 9.01685446269828e-04
3.30702127659574e+00 7.56820924959874e-02 8.96990545770159e-04
3.32106382978723e+00 7.51280122821210e-02 8.92312046475781e-04
3.33510638297872e+00 7.45779885734250e-02 8.87650013864511e-04
3.34914893617021e+00 7.40319916732354e-02 8.83004510723504e-04
3.36319148936170e+00 7.34899921006546e-02 8.78375599136068e-04
3.37723404255319e+00 7.29519605890536e-02 8.73763336663750e-04
3.39127659574468e+00 7.24178680892266e-02 8.69167778327507e-04
3.40531914893617e+00 7.18876857630503e-02 8.64588978539399e-04
3.41936170212766e+00 7.13613849820159e-02 8.60026987388406e-04
3.43340425531915e+00 7.08389373302605e-02 8.55481852565173e-04
3.44744680851064e+00 7.03203145984203e-02 8.50953621240012e-04
3.46148936170213e+00 6.98054887821932e-02 8.46442336449577e-04
3.47553191489362e+00 6.92944320852507e-02 8.41948038966861e-04
3.48957446808511e+00 6.87871169132803e-02 8.37470768552737e-04
3.50361702127660e+00 6.82835158739915e-02 8.33010562743284e-04
3.51765957446809e+00 6.77836017742417e-02 8.28567455789324e-04
3.53170212765957e+00 6.72873476227854e-02 8.24141479847319e-04
3.54574468085106e+00 6.67947266245676e-02 8.19732666732543e-04
3.55978723404255e+00 6.63057121793554e-02 8.15341044539779e-04
3.57382978723404e+00 6.58202778843790e-02 8.10966639389068e-04
3.58787234042553e+00 6.53383975287976e-02 8.06609477129727e-04
3.60191489361702e+00 6.48600450923597e-02 8.02269580051867e-04
3.61595744680851e+00 6.43851947479418e-02 7.97946968584319e-04
3.63000000000000e+00 6.39138208561790e-02 7.93641662950862e-04
3.64404255319149e+00 6.34458979641557e-02 7.89353679970188e-04
3.65808510638298e+00 6.29814008078439e-02 7.85083034707096e-04
3.67212765957447e+00 6.25203043068956e-02 7.80829742082681e-04
3.68617021276596e+00 6.20625835633601e-02 7.76593813760393e-04
3.70021276595745e+00 6.16082138640285e-02 7.72375259751274e-04
3.71425531914894e+00 6.11571706753814e-02 7.68174089980161e-04
3.72829787234043e+00 6.07094296423327e-02 7.63990311255072e-04
3.74234042553192e+00 6.02649665904833e-02 7.59823928827758e-04
3.75638297872340e+00 5.98237575212202e-02 7.55674947917388e-04
3.77042553191489e+00 5.93857786104849e-02 7.51543370761018e-04
3.78446808510638e+00 5.89510062109414e-02 7.47429198130616e-04
3.79851063829787e+00 5.85194168472200e-02 7.43332430347005e-04
3.81255319148936e+00 5.80909872158182e-02 7.39253066286685e-04
3.82659574468085e+00 5.76656941827505e-02 7.35191102510719e-04
3.84063829787234e+00 5.72435147855972e-02 7.31146534229835e-04
3.85468085106383e+00 5.68244262289433e-02 7.27119356729408e-04
3.86872340425532e+00 5.64084058832062e-02 7.23109562607677e-04
3.88276595744681e+00 5.59954312866059e-02 7.19117143193918e-04
3.89680851063830e+00 5.55854801407369e-02 7.15142089934255e-04
3.91085106382979e+00 5.51785303094218e-02 7.11184391703140e-04
3.92489361702128e+00 5.47745598206052e-02 7.07244036183385e-04
3.93893617021277e+00 5.43735468620546e-02 7.03321011213804e-04
3.95297872340426e+00 5.39754697802398e-02 6.99415302171967e-04
3.96702127659574e+00 5.35803070821526e-02 6.95526893317251e-04
3.98106382978723e+00 5.31880374311340e-02 6.91655769101387e-04
3.99510638297872e+00 5.27986396457769e-02 6.87801911620719e-04
4.00914893617021e+00 5.24120927016763e-02 6.83965301922849e-04
4.02319148936170e+00 5.20283757273780e-02 6.80145921281726e-04
4.03723404255319e+00 5.16474680033034e-02 6.76343748717327e-04
4.05127659574468e+00 5.12693489634343e-02 6.72558762266414e-04
4.06531914893617e+00 5.08939981913781e-02 6.68790940223810e-04
4.07936170212766e+00 5.05213954193156e-02 6.65040258727519e-04
4.09340425531915e+00 5.01515205296212e-02 6.61306692994620e-04
4.10744680851064e+00 4.97843535510423e-02 6.57590218529541e-04
4.12148936170213e+00 4.94198746576689e-02 6.53890808772821e-04
4.13553191489362e+00 4.90580641704921e-02 6.50208436303332e-04
4.14957446808511e+00 4.86989025536939e-02 6.46543073641380e-04
4.16361702127660e+00 4.83423704144812e-02 6.42894692454368e-04
4.17765957446808e+00 4.79884485012066e-02 6.39263262858216e-04
4.19170212765957e+00 4.76371177048424e-02 6.35648754182103e-04
4.20574468085106e+00 4.72883590554174e-02 6.32051136099600e-04
4.21978723404255e+00 4.69421537210369e-02 6.28470376424475e-04
4.23382978723404e+00 4.65984830093005e-02 6.24906442236710e-04
4.24787234042553e+00 4.62573283638404e-02 6.21359300983138e-04
4.26191489361702e+00 4.59186713633623e-02 6.17828918330938e-04
4.27595744680851e+00 4.55824937230099e-02 6.14315259263812e-04
4.29000000000000e+00 4.52487772910006e-02 6.10818289153020e-04
4.30404255319149e+00 4.49175040476881e-02 6.07337971666927e-04
4.31808510638298e+00 4.45886561068743e-02 6.03874269838104e-04
4.33212765957447e+00 4.42622157125412e-02 6.00427147105713e-04
4.34617021276596e+00 4.39381652379329e-02 5.96996565279738e-04
4.36021276595745e+00 4.36164871868178e-02 5.93582485579554e-04
4.37425531914894e+00 4.32971641903136e-02 5.90184869648674e-04
4.38829787234043e+00 4.29801790059883e-02 5.86803677572059e-04
4.40234042553192e+00 4.26655145190746e-02 5.83438868886811e-04
4.41638297872340e+00 4.23531537393852e-02 5.80090403570350e-04
4.43042553191489e+00 4.20430798004321e-02 5.76758240109272e-04
