Energy (eV)          EEDF (eV^-(3/2))     First Anisotropy
4.01754385964912e-04 2.32653025598781e+01 1.03878490515009e-02
1.20526315789474e-03 2.31248789166692e+01 1.71592106918192e-02
2.00877192982456e-03 2.29853028363354e+01 2.26677894511985e-02
2.81228070175439e-03 2.28465692024509e+01 2.68622628970337e-02
3.61578947368421e-03 2.27086729308274e+01 3.03684313321271e-02
4.41929824561404e-03 2.25716089672684e+01 3.34226114231747e-02
5.22280701754386e-03 2.24353722881224e+01 3.61469549051522e-02
6.02631578947368e-03 2.22999579000893e+01 3.86151417939957e-02
6.82982456140351e-03 2.21653608398462e+01 4.08759830260432e-02
7.63333333333333e-03 2.20315761743913e+01 4.29639385750985e-02
8.43684210526316e-03 2.18985990002997e+01 4.49044890698992e-02
9.24035087719298e-03 2.17664244437434e+01 4.67171525722401e-02
1.00438596491228e-02 2.16350476603151e+01 4.84173026269579e-02
1.08473684210526e-02 2.15044638351342e+01 5.00173254592205e-02
1.16508771929825e-02 2.13746681815277e+01 5.15273891913224e-02
1.24543859649123e-02 2.12456559423051e+01 5.29559738857288e-02
1.32578947368421e-02 2.11174223889996e+01 5.43102479071140e-02
1.40614035087719e-02 2.09899628224535e+01 5.55963420989184e-02
1.48649122807018e-02 2.08632725702942e+01 5.68195535856098e-02
1.56684210526316e-02 2.07373469891403e+01 5.79845002704258e-02
1.64719298245614e-02 2.06121814642796e+01 5.90952404860660e-02
1.72754385964912e-02 2.04877714075642e+01 6.01553661832604e-02
1.80789473684211e-02 2.03641122591844e+01 6.11680768632364e-02
1.88824561403509e-02 2.02411994868548e+01 6.21362391156868e-02
1.96859649122807e-02 2.01190285861643e+01 6.30624349094756e-02
2.04894736842105e-02 1.99975950788382e+01 6.39490009608140e-02
2.12929824561404e-02 1.98768945141564e+01 6.47980611998991e-02
2.20964912280702e-02 1.97569224687154e+01 6.56115542279008e-02
2.29000000000000e-02 1.96376745449042e+01 6.63912559708511e-02
2.37035087719298e-02 1.95191463721094e+01 6.71387988507878e-02
2.45070175438597e-02 1.94013336060975e+01 6.78556882633840e-02
2.53105263157895e-02 1.92842319292390e+01 6.85433166704875e-02
2.61140350877193e-02 1.91678370491916e+01 6.92029755664130e-02
2.69175438596491e-02 1.90521446999068e+01 6.98358657727004e-02
2.77210526315789e-02 1.89371506414275e+01 7.04431067340659e-02
2.85245614035088e-02 1.88228506587021e+01 7.10257442939935e-02
2.93280701754386e-02 1.87092405624651e+01 7.15847575361146e-02
3.01315789473684e-02 1.85963161887350e+01 7.21210649543063e-02
3.09350877192982e-02 1.84840733989622e+01 7.26355298982785e-02
3.17385964912281e-02 1.83725080789753e+01 7.31289652645050e-02
3.25421052631579e-02 1.82616161397360e+01 7.36021376249486e-02
3.33456140350877e-02 1.81513935171568e+01 7.40557712182662e-02
3.41491228070175e-02 1.80418361711373e+01 7.44905512247684e-02
3.49526315789474e-02 1.79329400862356e+01 7.49071267311553e-02
3.57561403508772e-02 1.78247012712446e+01 7.53061135307655e-02
3.65596491228070e-02 1.77171157592887e+01 7.56880966462838e-02
3.73631578947368e-02 1.76101796069507e+01 7.60536324915093e-02
3.81666666666667e-02 1.75038888948578e+01 7.64032508242751e-02
3.89701754385965e-02 1.73982397272944e+01 7.67374566463326e-02
3.97736842105263e-02 1.72932282322746e+01 7.70567319296558e-02
4.05771929824561e-02 1.71888505607470e+01 7.73615370782181e-02
4.13807017543860e-02 1.70851028871104e+01 7.76523122305844e-02
4.21842105263158e-02 1.69819814090541e+01 7.79294787107270e-02
4.29877192982456e-02 1.68794823468164e+01 7.81934401098912e-02
4.37912280701754e-02 1.67776019436502e+01 7.84445833038444e-02
4.45947368421053e-02 1.66763364654837e+01 7.86832795020180e-02
4.53982456140351e-02 1.65756822009639e+01 7.89098852116694e-02
4.62017543859649e-02 1.64756354607742e+01 7.91247430269087e-02
4.70052631578947e-02 1.63761925780485e+01 7.93281823286032e-02
4.78087719298246e-02 1.62773499082213e+01 7.95205201647978e-02
4.86122807017544e-02 1.61791038283872e+01 7.97020618424180e-02
4.94157894736842e-02 1.60814507376774e+01 7.98731014980707e-02
5.02192982456140e-02 1.59843870569566e+01 8.00339227305462e-02
5.10228070175439e-02 1.58879092288469e+01 8.01847991866525e-02
5.18263157894737e-02 1.57920137171319e+01 8.03259950156457e-02
5.26298245614035e-02 1.56966970070939e+01 8.04577652666751e-02
5.34333333333333e-02 1.56019556053736e+01 8.05803564704950e-02
5.42368421052632e-02 1.55077860394075e+01 8.06940069791988e-02
5.50403508771930e-02 1.54141848577372e+01 8.07989473041801e-02
5.58438596491228e-02 1.53211486297359e+01 8.08954005252437e-02
5.66473684210526e-02 1.52286739456160e+01 8.09835826714872e-02
5.74508771929825e-02 1.51367574159042e+01 8.10637029955460e-02
5.82543859649123e-02 1.50453956717185e+01 8.11359642282628e-02
5.90578947368421e-02 1.49545853645112e+01 8.12005629065090e-02
5.98614035087719e-02 1.48643231660684e+01 8.12576896790132e-02
6.06649122807018e-02 1.47746057680172e+01 8.13075295147167e-02
6.14684210526316e-02 1.46854298820773e+01 8.13502618767949e-02
6.22719298245614e-02 1.45967922399313e+01 8.13860610696527e-02
6.30754385964912e-02 1.45086895927565e+01 8.14150963886048e-02
6.38789473684211e-02 1.44211187114556e+01 8.14375322789199e-02
6.46824561403509e-02 1.43340763864217e+01 8.14535285669800e-02
6.54859649122807e-02 1.42475594275272e+01 8.14632406764247e-02
6.62894736842105e-02 1.41615646636841e+01 8.14668197598418e-02
6.70929824561404e-02 1.40760889430519e+01 8.14644128029710e-02
6.78964912280702e-02 1.39911291329158e+01 8.14561628912327e-02
6.87000000000000e-02 1.39066821192654e+01 8.14422092991274e-02
6.95035087719298e-02 1.38227448069880e+01 8.14226875913913e-02
7.03070175438597e-02 1.37393141196523e+01 8.13977297932682e-02
7.11105263157895e-02 1.36563869994902e+01 8.13674645498769e-02
7.19140350877193e-02 1.35739604069992e+01 8.13320172106403e-02
7.27175438596491e-02 1.34920313211181e+01 8.12915098907345e-02
7.35210526315790e-02 1.34105967391096e+01 8.12460616839877e-02
7.43245614035088e-02 1.33296536761802e+01 8.11957887149756e-02
7.51280701754386e-02 1.32491991656424e+01 8.11408042038277e-02
7.59315789473684e-02 1.31692302587147e+01 8.10812185963210e-02
7.67350877192983e-02 1.30897440244979e+01 8.10171396856614e-02
7.75385964912281e-02 1.30107375496139e+01 8.09486726667686e-02
7.83421052631579e-02 1.29322079383541e+01 8.08759201707416e-02
7.91456140350877e-02 1.28541523125672e+01 8.07989824403206e-02
7.99491228070175e-02 1.27765678113136e+01 8.07179573582243e-02
8.07526315789474e-02 1.26994515910022e+01 8.06329404884050e-02
8.15561403508772e-02 1.26228008252048e+01 8.05440251786046e-02
8.23596491228070e-02 1.25466127046280e+01 8.04513026562655e-02
8.31631578947368e-02 1.24708844367840e+01 8.03548620630452e-02
8.39666666666667e-02 1.23956132461153e+01 8.02547904862079e-02
8.47701754385965e-02 1.23207963738171e+01 8.01511730493482e-02
8.55736842105263e-02 1.22464310778063e+01 8.00440929972083e-02
8.63771929824561e-02 1.21725146324091e+01 7.99336317218392e-02
8.71807017543860e-02 1.20990443284738e+01 7.98198687724271e-02
8.79842105263158e-02 1.20260174732680e+01 7.97028819913754e-02
8.87877192982456e-02 1.19534313901771e+01 7.95827475208690e-02
8.95912280701754e-02 1.18812834188093e+01 7.94595398217834e-02
9.03947368421053e-02 1.18095709148306e+01 7.93333317480948e-02
9.11982456140351e-02 1.17382912499306e+01 7.92041946163163e-02
9.20017543859649e-02 1.16674418115358e+01 7.90721982210668e-02
9.28052631578947e-02 1.15970200029050e+01 7.89374108358419e-02
9.36087719298246e-02 1.15270232430311e+01 7.87998993313794e-02
9.44122807017544e-02 1.14574489663639e+01 7.86597291742539e-02
9.52157894736842e-02 1.13882946228989e+01 7.85169644372577e-02
9.60192982456140e-02 1.13195576780231e+01 7.83716678616595e-02
9.68228070175439e-02 1.12512356124788e+01 7.82239009152008e-02
9.76263157894737e-02 1.11833259220992e+01 7.80737238003674e-02
9.84298245614035e-02 1.11158261178894e+01 7.79211954491726e-02
9.92333333333333e-02 1.10487337259324e+01 7.77663736275574e-02
1.00036842105263e-01 1.09820462871334e+01 7.76093148707950e-02
1.00840350877193e-01 1.09157613575584e+01 7.74500746855969e-02
1.01643859649123e-01 1.08498765073903e+01 7.72887074510430e-02
1.02447368421053e-01 1.07843893218517e+01 7.71252663156266e-02
1.03250877192982e-01 1.07192974007387e+01 7.69598034485061e-02
1.04054385964912e-01 1.06545983583355e+01 7.67923698700660e-02
1.04857894736842e-01 1.05902898238211e+01 7.66230158116247e-02
1.05661403508772e-01 1.05263694396884e+01 7.64517905154353e-02
1.06464912280702e-01 1.04628348631596e+01 7.62787420306986e-02
1.07268421052632e-01 1.03996837655973e+01 7.61039174705262e-02
1.08071929824561e-01 1.03369138328880e+01 7.59273632408704e-02
1.08875438596491e-01 1.02745227639439e+01 7.57491248469296e-02
1.09678947368421e-01 1.02125082720391e+01 7.55692466956528e-02
1.10482456140351e-01 1.01508680842491e+01 7.53877724430485e-02
1.11285964912281e-01 1.00895999413691e+01 7.52047448019727e-02
1.12089473684211e-01 1.00287015982687e+01 7.50202058678723e-02
1.12892982456140e-01 9.96817082248682e+00 7.48341969319666e-02
1.13696491228070e-01 9.90800539547929e+00 7.46467582906419e-02
1.14500000000000e-01 9.84820311209304e+00 7.44579294776229e-02
1.15303508771930e-01 9.78876178090082e+00 7.42677494708830e-02
1.16107017543860e-01 9.72967922286620e+00 7.40762565119473e-02
1.16910526315789e-01 9.67095327252477e+00 7.38834879216135e-02
1.17714035087719e-01 9.61258177748196e+00 7.36894803218055e-02
1.18517543859649e-01 9.55456259872958e+00 7.34942698332872e-02
1.19321052631579e-01 9.49689360937687e+00 7.32978919010451e-02
1.20124561403509e-01 9.43957269576904e+00 7.31003811160753e-02
1.20928070175439e-01 9.38259775700795e+00 7.29017715180980e-02
1.21731578947368e-01 9.32596670487665e+00 7.27020964222178e-02
1.22535087719298e-01 9.26967746413282e+00 7.25013887031337e-02
1.23338596491228e-01 9.21372797131465e+00 7.22996806268936e-02
1.24142105263158e-01 9.15811617578890e+00 7.20970036792889e-02
1.24945614035088e-01 9.10284003929949e+00 7.18933887677544e-02
1.25749122807018e-01 9.04789753624521e+00 7.16888664013688e-02
1.26552631578947e-01 8.99328665254296e+00 7.14834665282956e-02
1.27356140350877e-01 8.93900538662174e+00 7.12772183699834e-02
1.28159649122807e-01 8.88505174899103e+00 7.10701506978667e-02
1.28963157894737e-01 8.83142376216897e+00 7.08622916722706e-02
1.29766666666667e-01 8.77811946094072e+00 7.06536691022653e-02
1.30570175438597e-01 8.72513689128665e+00 7.04443102892999e-02
1.31373684210526e-01 8.67247411131542e+00 7.02342418675751e-02
1.32177192982456e-01 8.62012919085682e+00 7.00234899884454e-02
1.32980701754386e-01 8.56810021170619e+00 6.98120804849172e-02
1.33784210526316e-01 8.51638526660267e+00 6.96000387204905e-02
1.34587719298246e-01 8.46498246011546e+00 6.93873894349624e-02
1.35391228070175e-01 8.41388990825396e+00 6.91741569214202e-02
1.36194736842105e-01 8.36310573869958e+00 6.89603651841110e-02
1.36998245614035e-01 8.31262808983087e+00 6.87460377924337e-02
1.37801754385965e-01 8.26245511156600e+00 6.85311977319897e-02
1.38605263157895e-01 8.21258496498915e+00 6.83158676484731e-02
1.39408771929825e-01 8.16301582228432e+00 6.81000697028905e-02
1.40212280701754e-01 8.11374586695108e+00 6.78838258009373e-02
1.41015789473684e-01 8.06477329288341e+00 6.76671574524832e-02
1.41819298245614e-01 8.01609630516232e+00 6.74500856282362e-02
1.42622807017544e-01 7.96771311970260e+00 6.72326309221008e-02
1.43426315789474e-01 7.91962196345768e+00 6.70148136960729e-02
1.44229824561404e-01 7.87182107353971e+00 6.67966539445159e-02
1.45033333333333e-01 7.82430869797383e+00 6.65781711556678e-02
1.45836842105263e-01 7.77708309535941e+00 6.63593844677388e-02
1.46640350877193e-01 7.73014253506452e+00 6.61403128082368e-02
1.47443859649123e-01 7.68348529638503e+00 6.59209747628523e-02
1.48247368421053e-01 7.63710966926268e+00 6.57013884415765e-02
1.49050877192982e-01 7.59101395396032e+00 6.54815716948426e-02
1.49854385964912e-01 7.54519646100028e+00 6.52615419834071e-02
1.50657894736842e-01 7.49965551134585e+00 6.50413165816290e-02
1.51461403508772e-01 7.45438943560496e+00 6.48209124513056e-02
1.52264912280702e-01 7.40939657470735e+00 6.46003461129273e-02
1.53068421052632e-01 7.36467527959642e+00 6.43796337893396e-02
1.53871929824561e-01 7.32022391140174e+00 6.41587915340196e-02
1.54675438596491e-01 7.27604084067719e+00 6.39378351091827e-02
1.55478947368421e-01 7.23212444804639e+00 6.37167798613585e-02
1.56282456140351e-01 7.18847312390677e+00 6.34956409206685e-02
1.57085964912281e-01 7.14508526837126e+00 6.32744330799836e-02
1.57889473684211e-01 7.10195929142948e+00 6.30531709824384e-02
1.58692982456140e-01 7.05909361222553e+00 6.28318690041649e-02
1.59496491228070e-01 7.01648665966713e+00 6.26105411345887e-02
1.60300000000000e-01 6.97413687214487e+00 6.23892011088794e-02
1.61103508771930e-01 6.93204269768539e+00 6.21678625262927e-02
1.61907017543860e-01 6.89020259325975e+00 6.19465387368169e-02
1.62710526315789e-01 6.84861502536465e+00 6.17252427254446e-02
1.63514035087719e-01 6.80727846975253e+00 6.15039872398133e-02
1.64317543859649e-01 6.76619141157726e+00 6.12827849042426e-02
1.65121052631579e-01 6.72535234473156e+00 6.10616481101682e-02
1.65924561403509e-01 6.68475977240177e+00 6.08405889042528e-02
1.66728070175439e-01 6.64441220680831e+00 6.06196191659916e-02
1.67531578947368e-01 6.60430816915172e+00 6.03987504990044e-02
1.68335087719298e-01 6.56444618974903e+00 6.01779943982316e-02
1.69138596491228e-01 6.52482480740454e+00 5.99573621444928e-02
1.69942105263158e-01 6.48544256993437e+00 5.97368646968425e-02
1.70745614035088e-01 6.44629803391966e+00 5.95165128105134e-02
1.71549122807018e-01 6.40738976483642e+00 5.92963171423546e-02
1.72352631578947e-01 6.36871633645217e+00 5.90762881488854e-02
1.73156140350877e-01 6.33027633132708e+00 5.88564359821995e-02
1.73959649122807e-01 6.29206834057640e+00 5.86367706543320e-02
1.74763157894737e-01 6.25409096381930e+00 5.84173019361735e-02
1.75566666666667e-01 6.21634280930055e+00 5.81980395122098e-02
1.76370175438597e-01 6.17882249331711e+00 5.79789928824574e-02
1.77173684210526e-01 6.14152864069226e+00 5.77601712622679e-02
1.77977192982456e-01 6.10445988454961e+00 5.75415836914773e-02
1.78780701754386e-01 6.06761486642896e+00 5.73232391319948e-02
1.79584210526316e-01 6.03099223573597e+00 5.71051463729309e-02
1.80387719298246e-01 5.99459065019553e+00 5.68873139337029e-02
1.81191228070175e-01 5.95840877563410e+00 5.66697501693528e-02
1.81994736842105e-01 5.92244528609006e+00 5.64524633647547e-02
1.82798245614035e-01 5.88669886328547e+00 5.62354616428576e-02
1.83601754385965e-01 5.85116819705962e+00 5.60187528709377e-02
1.84405263157895e-01 5.81585198515941e+00 5.58023448076989e-02
1.85208771929825e-01 5.78074893319200e+00 5.55862450122212e-02
1.86012280701754e-01 5.74585775472829e+00 5.53704609825339e-02
1.86815789473684e-01 5.71117717080020e+00 5.51550000672741e-02
1.87619298245614e-01 5.67670591031149e+00 5.49398693754599e-02
1.88422807017544e-01 5.64244270983800e+00 5.47250758741149e-02
1.89226315789474e-01 5.60838631372621e+00 5.45106264756125e-02
1.90029824561404e-01 5.57453547361039e+00 5.42965279522174e-02
1.90833333333333e-01 5.54088894880574e+00 5.40827868487790e-02
1.91636842105263e-01 5.50744550611580e+00 5.38694095770219e-02
1.92440350877193e-01 5.47420391992653e+00 5.36564024999099e-02
1.93243859649123e-01 5.44116297174218e+00 5.34437718489706e-02
1.94047368421053e-01 5.40832145056176e+00 5.32315236397689e-02
1.94850877192982e-01 5.37567815269340e+00 5.30196638038757e-02
1.95654385964912e-01 5.34323188171056e+00 5.28081981067525e-02
1.96457894736842e-01 5.31098144854020e+00 5.25971322720655e-02
1.97261403508772e-01 5.27892567102074e+00 5.23864719020701e-02
1.98064912280702e-01 5.24706337425909e+00 5.21762223962531e-02
1.98868421052632e-01 5.21539339045348e+00 5.19663890388519e-02
1.99671929824561e-01 5.18391455897767e+00 5.17569770772029e-02
2.00475438596491e-01 5.15262572595583e+00 5.15479916446691e-02
2.01278947368421e-01 5.12152574460460e+00 5.13394376818955e-02
2.02082456140351e-01 5.09061347506217e+00 5.11313200593886e-02
2.02885964912281e-01 5.05988778434679e+00 5.09236435010189e-02
2.03689473684211e-01 5.02934754643587e+00 5.07164126995286e-02
2.04492982456140e-01 4.99899164186065e+00 5.05096322423426e-02
2.05296491228070e-01 4.96881895803089e+00 5.03033065357191e-02
2.06100000000000e-01 4.93882838907174e+00 5.00974398860546e-02
2.06903508771930e-01 4.90901883589913e+00 4.98920365726853e-02
2.07707017543860e-01 4.87938920582986e+00 4.96871007760506e-02
2.08510526315789e-01 4.84993841289282e+00 4.94826365042632e-02
2.09314035087719e-01 4.82066537767148e+00 4.92786476717130e-02
2.10117543859649e-01 4.79156902737589e+00 4.90751381694716e-02
2.10921052631579e-01 4.76264829546746e+00 4.88721117957377e-02
2.11724561403509e-01 4.73390212195731e+00 4.86695721847244e-02
2.12528070175439e-01 4.70532945325424e+00 4.84675229169288e-02
2.13331578947368e-01 4.67692924212639e+00 4.82659674500432e-02
2.14135087719298e-01 4.64870044776887e+00 4.80649092229010e-02
2.14938596491228e-01 4.62064203544566e+00 4.78643515884653e-02
2.15742105263158e-01 4.59275297677310e+00 4.76642977453401e-02
2.16545614035088e-01 4.56503224957464e+00 4.74647508108893e-02
2.17349122807018e-01 4.53747883794536e+00 4.72657138867121e-02
2.18152631578947e-01 4.51009173190721e+00 4.70671899937644e-02
2.18956140350877e-01 4.48286992768101e+00 4.68691820060313e-02
2.19759649122807e-01 4.45581242754602e+00 4.66716927531329e-02
2.20563157894737e-01 4.42891823980359e+00 4.64747249559114e-02
2.21366666666667e-01 4.40218637883796e+00 4.62782813231451e-02
2.22170175438597e-01 4.37561586478701e+00 4.60823644890629e-02
2.22973684210526e-01 4.34920572380078e+00 4.58869769494336e-02
2.23777192982456e-01 4.32295498790731e+00 4.56921211295990e-02
2.24580701754386e-01 4.29686269507058e+00 4.54977994454376e-02
2.25384210526316e-01 4.27092788887340e+00 4.53040142428178e-02
2.26187719298246e-01 4.24514961876552e+00 4.51107677356863e-02
2.26991228070175e-01 4.21952693993393e+00 4.49180620719150e-02
2.27794736842105e-01 4.19405891335831e+00 4.47258993922894e-02
2.28598245614035e-01 4.16874460550538e+00 4.45342817718500e-02
2.29401754385965e-01 4.14358308856714e+00 4.43432111599300e-02
2.30205263157895e-01 4.11857344033549e+00 4.41526894726583e-02
2.31008771929825e-01 4.09371474416866e+00 4.39627185346929e-02
2.31812280701754e-01 4.06900608904329e+00 4.37733001664721e-02
2.32615789473684e-01 4.04444656926242e+00 4.35844361276838e-02
2.33419298245614e-01 4.02003528468210e+00 4.33961280594675e-02
2.34222807017544e-01 3.99577134059146e+00 4.32083775457391e-02
2.35026315789474e-01 3.97165384776247e+00 4.30211861681620e-02
2.35829824561404e-01 3.94768192216844e+00 4.28345554513821e-02
2.36633333333333e-01 3.92385468520169e+00 4.26484868070222e-02
2.37436842105263e-01 3.90017126355753e+00 4.24629815930448e-02
2.38240350877193e-01 3.87663078928186e+00 4.22780411669771e-02
2.39043859649123e-01 3.85323239949975e+00 4.20936668328482e-02
2.39847368421053e-01 3.82997523662448e+00 4.19098597868856e-02
2.40650877192982e-01 3.80685844824546e+00 4.17266212010585e-02
2.41454385964912e-01 3.78388118709707e+00 4.15439521703226e-02
2.42257894736842e-01 3.76104261110345e+00 4.13618537913897e-02
2.43061403508772e-01 3.73834188311897e+00 4.11803271115768e-02
2.43864912280702e-01 3.71577817112723e+00 4.09993730764804e-02
2.44668421052632e-01 3.69335064813367e+00 4.08189925853285e-02
2.45471929824561e-01 3.67105849220837e+00 4.06391865406093e-02
2.46275438596491e-01 3.64890088623567e+00 4.04599557984839e-02
2.47078947368421e-01 3.62687701810545e+00 4.02813011180805e-02
2.47882456140351e-01 3.60498608060923e+00 4.01032232393846e-02
2.48685964912281e-01 3.58322727141069e+00 3.99257228339784e-02
2.49489473684211e-01 3.56159979308601e+00 3.97488005785170e-02
2.50292982456140e-01 3.54010285288429e+00 3.95724571069320e-02
2.51096491228070e-01 3.51873566290977e+00 3.93966929615371e-02
2.51900000000000e-01 3.49749744002226e+00 3.92215086446553e-02
2.52703508771930e-01 3.47638740587564e+00 3.90469046649181e-02
2.53507017543860e-01 3.45540478668674e+00 3.88728814909312e-02
