Energy (eV)          EEDF (eV^-(3/2))     First Anisotropy
1.46296296296296e-02 3.24096414317251e-01 2.32307318723891e-04
4.38888888888889e-02 3.19976805117462e-01 3.82453128032478e-04
7.31481481481481e-02 3.15909560530608e-01 5.01838052696995e-04
1.02407407407407e-01 3.11894014934279e-01 5.90704831857194e-04
1.31666666666667e-01 3.07929511184110e-01 6.63321075599264e-04
1.60925925925926e-01 3.04015400487448e-01 7.25129087067924e-04
1.90185185185185e-01 3.00151042271591e-01 7.78968997053440e-04
2.19444444444444e-01 2.96335804154735e-01 8.26569923052839e-04
2.48703703703704e-01 2.92569061765985e-01 8.69087859516535e-04
2.77962962962963e-01 2.88850198671527e-01 9.07346293141777e-04
3.07222222222222e-01 2.85178606261838e-01 9.41959543974318e-04
3.36481481481481e-01 2.81553683689754e-01 9.73402292650280e-04
3.65740740740741e-01 2.77974837731271e-01 1.00205163309911e-03
3.95000000000000e-01 2.74441482703100e-01 1.02821393110631e-03
4.24259259259259e-01 2.70953040358642e-01 1.05214274592890e-03
4.53518518518519e-01 2.67508939818896e-01 1.07405122582330e-03
4.82777777777778e-01 2.64108617452028e-01 1.09412094041423e-03
5.12037037037037e-01 2.60751516790693e-01 1.11250833336589e-03
5.41296296296296e-01 2.57437088434852e-01 1.12934954261538e-03
5.70555555555556e-01 2.54164789980684e-01 1.14476407179488e-03
5.99814814814815e-01 2.50934085912161e-01 1.15885763258653e-03
6.29074074074074e-01 2.47744447520331e-01 1.17172437588063e-03
6.58333333333333e-01 2.44595352811999e-01 1.18344866824939e-03
6.87592592592593e-01 2.41486286438910e-01 1.19410652464108e-03
7.16851851851852e-01 2.38416739598262e-01 1.20376677517395e-03
7.46111111111111e-01 2.35386209954760e-01 1.21249202282453e-03
7.75370370370370e-01 2.32394201554530e-01 1.22033943811416e-03
8.04629629629630e-01 2.29440224755678e-01 1.22736142513683e-03
8.33888888888889e-01 2.26523796136062e-01 1.23360618326588e-03
8.63148148148148e-01 2.23644438415082e-01 1.23911818055038e-03
8.92407407407407e-01 2.20801680385752e-01 1.24393856108432e-03
9.21666666666667e-01 2.17995056827081e-01 1.24810549469610e-03
9.50925925925926e-01 2.15224108431516e-01 1.25165447758999e-03
9.80185185185185e-01 2.12488381727056e-01 1.25461859353672e-03
1.00944444444444e+00 2.09787429011515e-01 1.25702874176412e-03
1.03870370370370e+00 2.07120808280558e-01 1.25891384156578e-03
1.06796296296296e+00 2.04488083125351e-01 1.26030100456661e-03
1.09722222222222e+00 2.01888822697335e-01 1.26121568840555e-03
1.12648148148148e+00 1.99322601624480e-01 1.26168183912767e-03
1.15574074074074e+00 1.96788999941675e-01 1.26172201263868e-03
1.18500000000000e+00 1.94287603021996e-01 1.26135748458255e-03
1.21425925925926e+00 1.91818001508836e-01 1.26060834880568e-03
1.24351851851852e+00 1.89379791248935e-01 1.25949360586445e-03
1.27277777777778e+00 1.86972573226273e-01 1.25803124282956e-03
1.30203703703704e+00 1.84595953496739e-01 1.25623830542506e-03
1.33129629629630e+00 1.82249543123662e-01 1.25413096340552e-03
1.36055555555556e+00 1.79932958114161e-01 1.25172456996279e-03
1.38981481481481e+00 1.77645819356307e-01 1.24903371369955e-03
1.41907407407407e+00 1.75387752572906e-01 1.24607227449293e-03
1.44833333333333e+00 1.73158388212081e-01 1.24285346432329e-03
1.47759259259259e+00 1.70957361435678e-01 1.23938986426446e-03
1.50685185185185e+00 1.68784312043018e-01 1.23569346925032e-03
1.53611111111111e+00 1.66638884411950e-01 1.23177572082887e-03
1.56537037037037e+00 1.64520727440653e-01 1.22764753944943e-03
1.59462962962963e+00 1.62429494490179e-01 1.22331935428757e-03
1.62388888888889e+00 1.60364843327699e-01 1.21880113082712e-03
1.65314814814815e+00 1.58326436070550e-01 1.21410239642719e-03
1.68240740740741e+00 1.56313939130914e-01 1.20923226405911e-03
1.71166666666667e+00 1.54327023161223e-01 1.20419945435811e-03
1.74092592592593e+00 1.52365363000264e-01 1.19901231615404e-03
1.77018518518519e+00 1.50428637619965e-01 1.19367884400857e-03
1.79944444444444e+00 1.48516530083390e-01 1.18820670092899e-03
1.82870370370370e+00 1.46628727460857e-01 1.18260323179972e-03
1.85796296296296e+00 1.44764920811179e-01 1.17687547567713e-03
1.88722222222222e+00 1.42924805120131e-01 1.17103018545592e-03
1.91648148148148e+00 1.41108079250545e-01 1.16507383989952e-03
1.94574074074074e+00 1.39314445893020e-01 1.15901265652844e-03
1.97500000000000e+00 1.37543611517271e-01 1.15285260373639e-03
2.00425925925926e+00 1.35795286324088e-01 1.14659941218853e-03
2.03351851851852e+00 1.34069184197913e-01 1.14025858555682e-03
2.06277777777778e+00 1.32365022660026e-01 1.13383541064582e-03
2.09203703703704e+00 1.30682522822310e-01 1.12733496694738e-03
2.12129629629630e+00 1.29021409341609e-01 1.12076213566313e-03
2.15055555555556e+00 1.27381410374671e-01 1.11412160823545e-03
2.17981481481481e+00 1.25762257533657e-01 1.10741789321235e-03
2.20907407407407e+00 1.24163685849386e-01 1.10065532754970e-03
2.23833333333333e+00 1.22585433706212e-01 1.09383808139765e-03
2.26759259259259e+00 1.21027242821243e-01 1.08697016246194e-03
2.29685185185185e+00 1.19488858194635e-01 1.08005542631841e-03
2.32611111111111e+00 1.17970028067864e-01 1.07309758132946e-03
2.35537037037037e+00 1.16470503882519e-01 1.06610019453169e-03
2.38462962962963e+00 1.14990040239631e-01 1.05906669723698e-03
2.41388888888889e+00 1.13528394859502e-01 1.05200039035932e-03
2.44314814814815e+00 1.12085328542075e-01 1.04490444949076e-03
2.47240740740741e+00 1.10660605127778e-01 1.03778192974162e-03
2.50166666666667e+00 1.09253991458875e-01 1.03063577035108e-03
2.53092592592593e+00 1.07865257341314e-01 1.02346879908778e-03
2.56018518518519e+00 1.06494175507050e-01 1.01628373550776e-03
2.58944444444444e+00 1.05140521582024e-01 1.00908319782363e-03
2.61870370370370e+00 1.03804074033757e-01 1.00186970482088e-03
2.64796296296296e+00 1.02484614150969e-01 9.94645677563844e-04
2.67722222222222e+00 1.01181926002431e-01 9.87413445864324e-04
2.70648148148148e+00 9.98957964016297e-02 9.80175250640908e-04
2.73574074074074e+00 9.86260148718762e-02 9.72933247132899e-04
2.76500000000000e+00 9.73723736118636e-02 9.65689507979670e-04
2.79425925925926e+00 9.61346674616567e-02 9.58446026170890e-04
2.82351851851852e+00 9.49126938691203e-02 9.51204717874727e-04
2.85277777777778e+00 9.37062528567736e-02 9.43967425152499e-04
2.88203703703704e+00 9.25151469890612e-02 9.36735918563216e-04
2.91129629629630e+00 9.13391813400424e-02 9.29511899662858e-04
2.94055555555556e+00 9.01781634614914e-02 9.22297003404852e-04
2.96981481481481e+00 8.90319033514030e-02 9.15092799713804e-04
2.99907407407407e+00 8.79002134266270e-02 9.07900797920929e-04
3.02833333333333e+00 8.67829084808573e-02 9.00722447405457e-04
3.05759259259259e+00 8.56798056657656e-02 8.93559138120811e-04
3.08685185185185e+00 8.45907244572193e-02 8.86412204865773e-04
3.11611111111111e+00 8.35154866257385e-02 8.79282928407117e-04
3.14537037037037e+00 8.24539162073288e-02 8.72172537305742e-04
3.17462962962963e+00 8.14058394746841e-02 8.65082209675614e-04
3.20388888888889e+00 8.03710849087530e-02 8.58013074876025e-04
3.23314814814815e+00 7.93494831706764e-02 8.50966215143395e-04
3.26240740740741e+00 7.83408670740710e-02 8.43942667165231e-04
3.29166666666667e+00 7.73450715576699e-02 8.36943423595388e-04
3.32092592592593e+00 7.63619336583092e-02 8.29969434515924e-04
3.35018518518519e+00 7.53912924842593e-02 8.23021608263079e-04
3.37944444444444e+00 7.44329891916937e-02 8.16100814555737e-04
3.40870370370370e+00 7.34868669502049e-02 8.09207884621663e-04
3.43796296296296e+00 7.25527709257227e-02 8.02343611250451e-04
3.46722222222222e+00 7.16305482522816e-02 7.95508751849076e-04
3.49648148148148e+00 7.07200480070046e-02 7.88704029006036e-04
3.52574074074074e+00 6.98211211854042e-02 7.81930131631961e-04
3.55500000000000e+00 6.89336206769977e-02 7.75187716061674e-04
3.58425925925926e+00 6.80574012412311e-02 7.68477407118639e-04
3.61351851851852e+00 6.71923194837120e-02 7.61799799143445e-04
3.64277777777778e+00 6.63382338327435e-02 7.55155456988768e-04
3.67203703703704e+00 6.54950045161550e-02 7.48544916981089e-04
3.70129629629630e+00 6.46624935384280e-02 7.41968687850234e-04
3.73055555555556e+00 6.38405646581133e-02 7.35427251628492e-04
3.75981481481481e+00 6.30290833655349e-02 7.28921064059269e-04
3.78907407407407e+00 6.22279168628637e-02 7.22450556834753e-04
3.81833333333333e+00 6.14369340360578e-02 7.16016137473543e-04
3.84759259259259e+00 6.06560054398017e-02 7.09618189150006e-04
3.87685185185185e+00 5.98850032741671e-02 7.03257072903573e-04
3.90611111111111e+00 5.91238013636982e-02 6.96933127889986e-04
3.93537037037037e+00 5.83722751367625e-02 6.90646672095964e-04
3.96462962962963e+00 5.76303016051652e-02 6.84398003031535e-04
3.99388888888889e+00 5.68977593440202e-02 6.78187398399522e-04
4.02314814814815e+00 5.61745284718817e-02 6.72015116744542e-04
4.05240740740741e+00 5.54604906311243e-02 6.65881398082534e-04
4.08166666666667e+00 5.47555289685732e-02 6.59786464509372e-04
4.11092592592593e+00 5.40595281163812e-02 6.53730520791004e-04
4.14018518518519e+00 5.33723741731488e-02 6.47713754563404e-04
4.16944444444444e+00 5.26939546868884e-02 6.41736338012893e-04
4.19870370370370e+00 5.20241586317570e-02 6.35798427657994e-04
4.22796296296296e+00 5.13628763948030e-02 6.29900164096605e-04
4.25722222222222e+00 5.07099997563715e-02 6.24041673677632e-04
4.28648148148148e+00 5.00654218723944e-02 6.18223068597437e-04
4.31574074074074e+00 4.94290372569044e-02 6.12444447374147e-04
4.34500000000000e+00 4.88007417647729e-02 6.06705895307641e-04
4.37425925925926e+00 4.81804325746655e-02 6.01007484925366e-04
4.40351851851852e+00 4.75680081722161e-02 5.95349276414620e-04
4.43277777777778e+00 4.69633683334143e-02 5.89731318042238e-04
4.46203703703704e+00 4.63664141082027e-02 5.84153646561457e-04
4.49129629629630e+00 4.57770478042845e-02 5.78616287606478e-04
4.52055555555556e+00 4.51951729711350e-02 5.73119256075228e-04
4.54981481481482e+00 4.46206943842182e-02 5.67662556203904e-04
4.57907407407407e+00 4.40535180306241e-02 5.62246182825788e-04
4.60833333333333e+00 4.34935510899813e-02 5.56870121118313e-04
4.63759259259259e+00 4.29407019230077e-02 5.51534346325188e-04
4.66685185185185e+00 4.23948800552537e-02 5.46238825016334e-04
4.69611111111111e+00 4.18559961622959e-02 5.40983515093914e-04
4.72537037037037e+00 4.13239620551189e-02 5.35768366102187e-04
4.75462962962963e+00 4.07986906656829e-02 5.30593319528324e-04
4.78388888888889e+00 4.02800960326748e-02 5.25458309093836e-04
4.81314814814815e+00 3.97680932874414e-02 5.20363261037758e-04
4.84240740740741e+00 3.92625986401000e-02 5.15308094391818e-04
4.87166666666667e+00 3.87635293658262e-02 5.10292721246993e-04
4.90092592592593e+00 3.82708037913157e-02 5.05317047012377e-04
4.93018518518519e+00 3.77843412814184e-02 5.00380970425116e-04
4.95944444444444e+00 3.73040622268970e-02 4.95484384524936e-04
4.98870370370370e+00 3.68298880285059e-02 4.90627176401047e-04
5.01796296296296e+00 3.63617410870511e-02 4.85809226920089e-04
5.04722222222222e+00 3.58995447897066e-02 4.81030411706079e-04
5.07648148148148e+00 3.54432234974765e-02 4.76290601102187e-04
5.10574074074074e+00 3.49927025328167e-02 4.71589660380853e-04
5.13500000000000e+00 3.45479081674140e-02 4.66927449947754e-04
5.16425925925926e+00 3.41087676101197e-02 4.62303825539673e-04
5.19351851851852e+00 3.36752089950380e-02 4.57718638416503e-04
5.22277777777778e+00 3.32471613697647e-02 4.53171735547894e-04
5.25203703703704e+00 3.28245546837762e-02 4.48662959794322e-04
5.28129629629630e+00 3.24073197769651e-02 4.44192150082694e-04
5.31055555555556e+00 3.19953883683225e-02 4.39759141576857e-04
5.33981481481482e+00 3.15886930447631e-02 4.35363765649163e-04
5.36907407407407e+00 3.11871672508307e-02 4.31005850628281e-04
5.39833333333333e+00 3.07907452755724e-02 4.26685221561487e-04
5.42759259259259e+00 3.03993622440414e-02 4.22401699962649e-04
5.45685185185185e+00 3.00129541059200e-02 4.18155104567346e-04
5.48611111111111e+00 2.96314576250383e-02 4.13945251270657e-04
5.51537037037037e+00 2.92548103690248e-02 4.09771953265426e-04
5.54462962962963e+00 2.88829506990897e-02 4.05635021176516e-04
5.57388888888889e+00 2.85158177599374e-02 4.01534263190721e-04
5.60314814814815e+00 2.81533514698076e-02 3.97469485183080e-04
5.63240740740741e+00 2.77954925106432e-02 3.93440490839599e-04
5.66166666666667e+00 2.74421823183822e-02 3.89447081776010e-04
5.69092592592593e+00 2.70933630733742e-02 3.85489057653081e-04
5.72018518518519e+00 2.67489776909175e-02 3.81566216129822e-04
5.74944444444444e+00 2.64089698125003e-02 3.77678353452224e-04
5.77870370370370e+00 2.60732837948119e-02 3.73825264236580e-04
5.80796296296296e+00 2.57418647024199e-02 3.70006741241670e-04
5.83722222222222e+00 2.54146582981795e-02 3.66222575965215e-04
5.86648148148148e+00 2.50916110343575e-02 3.62472558572447e-04
5.89574074074074e+00 2.47726700438690e-02 3.58756477989112e-04
5.92500000000000e+00 2.44577831316260e-02 3.55074121991668e-04
5.95425925925926e+00 2.41468987659950e-02 3.51425277294719e-04
5.98351851851852e+00 2.38399660703644e-02 3.47809729635648e-04
6.01277777777778e+00 2.35369348148184e-02 3.44227263856796e-04
6.04203703703704e+00 2.32377554079164e-02 3.40677663985108e-04
6.07129629629630e+00 2.29423788885780e-02 3.37160713309182e-04
6.10055555555556e+00 2.26507569180697e-02 3.33676194453998e-04
6.12981481481481e+00 2.23628417720946e-02 3.30223889325114e-04
6.15907407407407e+00 2.20785863334370e-02 3.26803579566728e-04
6.18833333333333e+00 2.17979440828738e-02 3.23415046369571e-04
6.21759259259259e+00 2.15208690929531e-02 3.20058070270148e-04
6.24685185185185e+00 2.12473160200096e-02 3.16732431616253e-04
6.27611111111111e+00 2.09772400967439e-02 3.13437910493370e-04
6.30537037037037e+00 2.07105971248967e-02 3.10174286784285e-04
6.33462962962963e+00 2.04473434680151e-02 3.06941340226857e-04
6.36388888888889e+00 2.01874360443119e-02 3.03738850469722e-04
6.39314814814815e+00 1.99308323196151e-02 3.00566597126296e-04
6.42240740740741e+00 1.96774903004070e-02 2.97424359827124e-04
6.45166666666667e+00 1.94273685269524e-02 2.94311918270309e-04
6.48092592592593e+00 1.91804260665129e-02 2.91229052270359e-04
6.51018518518519e+00 1.89366225066488e-02 2.88175541700091e-04
6.53944444444444e+00 1.86959179489677e-02 2.85151166854961e-04
6.56870370370370e+00 1.84582730014973e-02 2.82155708283526e-04
6.59796296296296e+00 1.82236487733474e-02 2.79188946611068e-04
6.62722222222222e+00 1.79920068679723e-02 2.76250662910877e-04
6.65648148148148e+00 1.77633093768872e-02 2.73340638632815e-04
6.68574074074074e+00 1.75375188734642e-02 2.70458655641609e-04
6.71500000000000e+00 1.73145984068076e-02 2.67604496253846e-04
6.74425925925926e+00 1.70945114957066e-02 2.64777943273573e-04
6.77351851851852e+00 1.68772221226655e-02 2.61978780026597e-04
6.80277777777778e+00 1.66626947280088e-02 2.59206790393683e-04
6.83203703703704e+00 1.64508942040625e-02 2.56461758842489e-04
6.86129629629630e+00 1.62417858894083e-02 2.53743470458276e-04
6.89055555555556e+00 1.60353355632113e-02 2.51051710973525e-04
6.91981481481481e+00 1.58315094396195e-02 2.48386266711042e-04
6.94907407407407e+00 1.56302741625203e-02 2.45746924869887e-04
6.97833333333333e+00 1.54315967992175e-02 2.43133473378517e-04
7.00759259259259e+00 1.52354448359143e-02 2.40545700742568e-04
7.03685185185185e+00 1.50417861720988e-02 2.37983396336974e-04
7.06611111111111e+00 1.48505891152906e-02 2.35446350339276e-04
7.09537037037037e+00 1.46618223758544e-02 2.32934353752089e-04
7.12462962962963e+00 1.44754550618791e-02 2.30447198424684e-04
7.15388888888889e+00 1.42914566741227e-02 2.27984677073557e-04
7.18314814814815e+00 1.41097971010208e-02 2.25546583302218e-04
7.21240740740741e+00 1.39304466137592e-02 2.23132711620252e-04
7.24166666666667e+00 1.37533758614081e-02 2.20742857461388e-04
7.27092592592593e+00 1.35785558661192e-02 2.18376817200851e-04
7.30018518518519e+00 1.34059580183837e-02 2.16034388101553e-04
7.32944444444444e+00 1.32355540725785e-02 2.13715368542995e-04
7.35870370370370e+00 1.30673161416510e-02 2.11419557893602e-04
7.38796296296296e+00 1.29012166932551e-02 2.09146756378728e-04
7.41722222222222e+00 1.27372285450103e-02 2.06896765315048e-04
7.44648148148148e+00 1.25753248600528e-02 2.04669387049374e-04
7.47574074074074e+00 1.24154791426437e-02 2.02464424971014e-04
7.50500000000000e+00 1.22576652338332e-02 2.00281683523538e-04
7.53425925925926e+00 1.21018573071794e-02 1.98120968215915e-04
7.56351851851852e+00 1.19480298645218e-02 1.95982085633011e-04
7.59277777777778e+00 1.17961577318085e-02 1.93864843445588e-04
7.62203703703704e+00 1.16462160549768e-02 1.91769050419718e-04
7.65129629629630e+00 1.14981802958852e-02 1.89694516425608e-04
7.68055555555556e+00 1.13520262282982e-02 1.87641052445950e-04
7.70981481481481e+00 1.12077299339212e-02 1.85608470526415e-04
7.73907407407407e+00 1.10652677986680e-02 1.83596583956343e-04
7.76833333333333e+00 1.09246165082468e-02 1.81605207159429e-04
7.79759259259259e+00 1.07857530448996e-02 1.79634155580936e-04
7.82685185185185e+00 1.06486546834484e-02 1.77683245873155e-04
7.85611111111111e+00 1.05132989875763e-02 1.75752295840464e-04
7.88537037037037e+00 1.03796638061558e-02 1.73841124444323e-04
7.91462962962963e+00 1.02477272696236e-02 1.71949551807897e-04
7.94388888888889e+00 1.01174677864019e-02 1.70077399220196e-04
7.97314814814815e+00 9.98886403936473e-03 1.68224489139868e-04
8.00240740740741e+00 9.86189498234923e-03 1.66390645198660e-04
8.03166666666667e+00 9.73653983671176e-03 1.64575692204420e-04
8.06092592592593e+00 9.61277808792721e-03 1.62779456143793e-04
8.09018518518518e+00 9.49058948223184e-03 1.61001764137202e-04
8.11944444444444e+00 9.36995402345496e-03 1.59242444584131e-04
8.14870370370370e+00 9.25085196930362e-03 1.57501327068800e-04
8.17796296296296e+00 9.13326382857893e-03 1.55778242263066e-04
8.20722222222222e+00 9.01717035783581e-03 1.54073022075864e-04
8.23648148148148e+00 8.90255255823376e-03 1.52385499604029e-04
8.26574074074074e+00 8.78939167242769e-03 1.50715509132743e-04
8.29500000000000e+00 8.67766918149825e-03 1.49062886135726e-04
8.32425925925926e+00 8.56736680192119e-03 1.47427467275122e-04
8.35351851851852e+00 8.45846648257520e-03 1.45809090401108e-04
8.38277777777778e+00 8.35095040178792e-03 1.44207594551313e-04
8.41203703703704e+00 8.24480096441932e-03 1.42622819949959e-04
8.44129629629630e+00 8.14000079898225e-03 1.41054608006741e-04
8.47055555555556e+00 8.03653275479961e-03 1.39502801315511e-04
8.49981481481482e+00 7.93437989919756e-03 1.37967243614091e-04
8.52907407407407e+00 7.83352551485092e-03 1.36447779899417e-04
8.55833333333333e+00 7.73395309669479e-03 1.34944256347251e-04
8.58759259259259e+00 7.63564634957941e-03 1.33456520229680e-04
8.61685185185185e+00 7.53858918548365e-03 1.31984420033822e-04
8.64611111111111e+00 7.44276572088220e-03 1.30527805418555e-04
8.67537037037037e+00 7.34816027414617e-03 1.29086527211765e-04
8.70462962962963e+00 7.25475736297683e-03 1.27660437407451e-04
8.73388888888889e+00 7.16254170187182e-03 1.26249389162613e-04
8.76314814814815e+00 7.07149819962377e-03 1.24853236794014e-04
8.79240740740741e+00 6.98161195685057e-03 1.23471835774808e-04
8.82166666666667e+00 6.89286826355704e-03 1.22105042730966e-04
8.85092592592593e+00 6.80525259672762e-03 1.20752715437585e-04
8.88018518518519e+00 6.71875061794971e-03 1.19414712783059e-04
8.90944444444444e+00 6.63334817116145e-03 1.18090894861936e-04
8.93870370370370e+00 6.54903128004940e-03 1.16781122905959e-04
8.96796296296296e+00 6.46578614604971e-03 1.15485259213302e-04
8.99722222222222e+00 6.38359914599292e-03 1.14203167244517e-04
9.02648148148148e+00 6.30245682987447e-03 1.12934711584337e-04
9.05574074074074e+00 6.22234591865366e-03 1.11679757937108e-04
9.08500000000000e+00 6.14325330208043e-03 1.10438173122113e-04
9.11425925925926e+00 6.06516603654992e-03 1.09209825068794e-04
9.14351851851852e+00 5.98807134298420e-03 1.07994582811857e-04
9.17277777777778e+00 5.91195660474098e-03 1.06792316486318e-04
9.20203703703704e+00 5.83680936554889e-03 1.05602897322451e-04
9.23129629629630e+00 5.76261732746895e-03 1.04426197640627e-04
