Energy (eV)          EEDF (eV^-(3/2))     First Anisotropy
2.15000000000000e-02 1.69291147955564e+00 2.48624715723194e-03
6.45000000000000e-02 1.59834777566524e+00 4.00429858193200e-03
1.07500000000000e-01 1.50906627004766e+00 5.02463576135770e-03
1.50500000000000e-01 1.42477190638172e+00 5.65593329022245e-03
1.93500000000000e-01 1.34518610978594e+00 6.07365768430777e-03
2.36500000000000e-01 1.27004586618808e+00 6.34942796226896e-03
2.79500000000000e-01 1.19910285311980e+00 6.52277211998359e-03
3.22500000000000e-01 1.13212261906382e+00 6.61887822903034e-03
3.65500000000000e-01 1.06888380864179e+00 6.65520190878105e-03
4.08500000000000e-01 1.00917743108194e+00 6.64451645399754e-03
4.51500000000000e-01 9.52806169549194e-01 6.59652665980522e-03
4.94500000000000e-01 8.99583729055170e-01 6.51880808728740e-03
5.37500000000000e-01 8.49334220792977e-01 6.41739380417942e-03
5.80500000000000e-01 8.01891580862256e-01 6.29716152895073e-03
6.23500000000000e-01 7.57099021463429e-01 6.16210046166276e-03
6.66500000000000e-01 7.14808512747490e-01 6.01550183843875e-03
7.09500000000000e-01 6.74880293608937e-01 5.86009907286057e-03
7.52500000000000e-01 6.37182409805156e-01 5.69817339273019e-03
7.95500000000000e-01 6.01590277875805e-01 5.53163514663649e-03
8.38500000000000e-01 5.67986273421071e-01 5.36208750860373e-03
8.81500000000000e-01 5.36259342378131e-01 5.19087716098842e-03
9.24500000000000e-01 5.06304634011172e-01 5.01913515368160e-03
9.67500000000000e-01 4.78023154402094e-01 4.84781022331389e-03
1.01050000000000e+00 4.51321439296734e-01 4.67769623614591e-03
1.05350000000000e+00 4.26111245225454e-01 4.50945498853960e-03
1.09650000000000e+00 4.02309257877306e-01 4.34363529502658e-03
1.13950000000000e+00 3.79836816764020e-01 4.18068907524879e-03
1.18250000000000e+00 3.58619655263871e-01 4.02098499100718e-03
1.22550000000000e+00 3.38587655186353e-01 3.86482006580864e-03
1.26850000000000e+00 3.19674615046517e-01 3.71242962983521e-03
1.31150000000000e+00 3.01818031283196e-01 3.56399586505996e-03
1.35450000000000e+00 2.84958891698076e-01 3.41965517264055e-03
1.39750000000000e+00 2.69041480432970e-01 3.27950454372577e-03
1.44050000000000e+00 2.54013193840805e-01 3.14360708253642e-03
1.48350000000000e+00 2.39824366641789e-01 3.01199680493926e-03
1.52650000000000e+00 2.26428107790264e-01 2.88468281518113e-03
1.56950000000000e+00 2.13780145509810e-01 2.76165294684931e-03
1.61250000000000e+00 2.01838680984467e-01 2.64287694061174e-03
1.65550000000000e+00 1.90564250222572e-01 2.52830922021637e-03
1.69850000000000e+00 1.79919593636691e-01 2.41789131909335e-03
1.74150000000000e+00 1.69869532908633e-01 2.31155400232105e-03
1.78450000000000e+00 1.60380854732613e-01 2.20921912238779e-03
1.82750000000000e+00 1.51422201052373e-01 2.11080124186988e-03
1.87050000000000e+00 1.42963965429489e-01 2.01620905166688e-03
1.91350000000000e+00 1.34978195200418e-01 1.92534660963976e-03
1.95650000000000e+00 1.27438499098908e-01 1.83811442126777e-03
1.99950000000000e+00 1.20319960038493e-01 1.75441038117928e-03
2.04250000000000e+00 1.13599052766847e-01 1.67413059204504e-03
2.08550000000000e+00 1.07253566119839e-01 1.59717007528401e-03
2.12850000000000e+00 1.01262529618379e-01 1.52342338627171e-03
2.17150000000000e+00 9.56061441654611e-02 1.45278514521626e-03
2.21450000000000e+00 9.02657166143706e-02 1.38515049354185e-03
2.25750000000000e+00 8.52235979918263e-02 1.32041548446491e-03
2.30050000000000e+00 8.04631251718897e-02 1.25847741543976e-03
2.34350000000000e+00 7.59685658078897e-02 1.19923510926748e-03
2.38650000000000e+00 7.17250663403747e-02 1.14258914988678e-03
2.42950000000000e+00 6.77186029092690e-02 1.08844207818440e-03
2.47250000000000e+00 6.39359350080080e-02 1.03669855256233e-03
2.51550000000000e+00 6.03645617264898e-02 9.87265478469512e-04
2.55850000000000e+00 5.69926804382356e-02 9.40052110637287e-04
2.60150000000000e+00 5.38091477952277e-02 8.94970131343512e-04
2.64450000000000e+00 5.08034429015233e-02 8.51933707662660e-04
2.68750000000000e+00 4.79656325439378e-02 8.10859530333134e-04
2.73050000000000e+00 4.52863383648962e-02 7.71666836583094e-04
2.77350000000000e+00 4.27567058689622e-02 7.34277418998169e-04
2.81650000000000e+00 4.03683751606208e-02 6.98615622284898e-04
2.85950000000000e+00 3.81134533166079e-02 6.64608329579045e-04
2.90250000000000e+00 3.59844883014834e-02 6.32184939765287e-04
2.94550000000000e+00 3.39744443402443e-02 6.01277337111913e-04
2.98850000000000e+00 3.20766786665902e-02 5.71819854378673e-04
3.03150000000000e+00 3.02849195699983e-02 5.43749230425820e-04
3.07450000000000e+00 2.85932456690587e-02 5.17004563236140e-04
3.11750000000000e+00 2.69960663425723e-02 4.91527259157869e-04
3.16050000000000e+00 2.54881032537416e-02 4.67260979083358e-04
3.20350000000000e+00 2.40643729063933e-02 4.44151582195164e-04
3.24650000000000e+00 2.27201701755875e-02 4.22147067836820e-04
3.28950000000000e+00 2.14510527581840e-02 4.01197515998903e-04
3.33250000000000e+00 2.02528264919783e-02 3.81255026851443e-04
3.37550000000000e+00 1.91215314948907e-02 3.62273659700403e-04
3.41850000000000e+00 1.80534290784013e-02 3.44209371698239e-04
3.46150000000000e+00 1.70449893919821e-02 3.27019956595977e-04
3.50450000000000e+00 1.60928797576949e-02 3.10664983786060e-04
3.54750000000000e+00 1.51939536564012e-02 2.95105737851253e-04
3.59050000000000e+00 1.43452403291885e-02 2.80305158804448e-04
3.63350000000000e+00 1.35439349596463e-02 2.66227783177161e-04
3.67650000000000e+00 1.27873894045458e-02 2.52839686090326e-04
3.71950000000000e+00 1.20731034422924e-02 2.40108424419466e-04
3.76250000000000e+00 1.13987165102266e-02 2.28002981147228e-04
3.80550000000000e+00 1.07619999034682e-02 2.16493710979270e-04
3.84850000000000e+00 1.01608494095224e-02 2.05552287284394e-04
3.89150000000000e+00 9.59327835430668e-03 1.95151650406517e-04
3.93450000000000e+00 9.05741103661677e-03 1.85265957384264e-04
3.97750000000000e+00 8.55147652933460e-03 1.75870533103569e-04
4.02050000000000e+00 8.07380282689214e-03 1.66941822899542e-04
4.06350000000000e+00 7.62281131964982e-03 1.58457346615831e-04
4.10650000000000e+00 7.19701157692857e-03 1.50395654122715e-04
4.14950000000000e+00 6.79499642145457e-03 1.42736282289028e-04
4.19250000000000e+00 6.41543727893862e-03 1.35459713397754e-04
4.23550000000000e+00 6.05707978742172e-03 1.28547334990546e-04
4.27850000000000e+00 5.71873965187646e-03 1.21981401122499e-04
4.32150000000000e+00 5.39929873036476e-03 1.15744995005186e-04
4.36450000000000e+00 5.09770133881734e-03 1.09821993013125e-04
4.40750000000000e+00 4.81295076222326e-03 1.04197030026515e-04
4.45050000000000e+00 4.54410596069945e-03 9.88554660811004e-05
4.49350000000000e+00 4.29027845955479e-03 9.37833542944794e-05
4.53650000000000e+00 4.05062941307087e-03 8.89674100368998e-05
4.57950000000000e+00 3.82436683229589e-03 8.43949813136260e-05
4.62250000000000e+00 3.61074296769025e-03 8.00540203252597e-05
4.66550000000000e+00 3.40905183797386e-03 7.59330561719087e-05
4.70850000000000e+00 3.21862689700872e-03 7.20211686668173e-05
4.75150000000000e+00 3.03883883100620e-03 6.83079632249617e-05
4.79450000000000e+00 2.86909347877922e-03 6.47835467921560e-05
4.83750000000000e+00 2.70882986816640e-03 6.14385047803914e-05
4.88050000000000e+00 2.55751836213874e-03 5.82638789754238e-05
4.92350000000000e+00 2.41465890846233e-03 5.52511463830090e-05
4.96650000000000e+00 2.27977938713239e-03 5.23921989806640e-05
5.00950000000000e+00 2.15243405011744e-03 4.96793243423815e-05
5.05250000000000e+00 2.03220204825720e-03 4.71051871043280e-05
5.09550000000000e+00 1.91868604044589e-03 4.46628112402183e-05
5.13850000000000e+00 1.81151088050474e-03 4.23455631157581e-05
5.18150000000000e+00 1.71032237740388e-03 4.01471352922841e-05
5.22450000000000e+00 1.61478612473661e-03 3.80615310504854e-05
5.26750000000000e+00 1.52458639557760e-03 3.60830496058788e-05
5.31050000000000e+00 1.43942509907275e-03 3.42062719884991e-05
5.35350000000000e+00 1.35902079531257e-03 3.24260475600743e-05
5.39650000000000e+00 1.28310776523333e-03 3.07374811427641e-05
5.43950000000000e+00 1.21143513247229e-03 2.91359207343533e-05
5.48250000000000e+00 1.14376603427482e-03 2.76169457855973e-05
5.52550000000000e+00 1.07987683871358e-03 2.61763560162247e-05
5.56850000000000e+00 1.01955640563273e-03 2.48101607468968e-05
5.61150000000000e+00 9.62605388874766e-04 2.35145687252088e-05
5.65450000000000e+00 9.08835577484002e-04 2.22859784245973e-05
5.69750000000000e+00 8.58069273709560e-04 2.11209687957765e-05
5.74050000000000e+00 8.10138705752210e-04 2.00162904510726e-05
5.78350000000000e+00 7.64885473314384e-04 1.89688572627613e-05
5.82650000000000e+00 7.22160024120996e-04 1.79757383572244e-05
5.86950000000000e+00 6.81821159681096e-04 1.70341504874395e-05
5.91250000000000e+00 6.43735568656990e-04 1.61414507669989e-05
5.95550000000000e+00 6.07777386298720e-04 1.52951297495126e-05
5.99850000000000e+00 5.73827778487927e-04 1.44928048378929e-05
6.04150000000000e+00 5.41774549016457e-04 1.37322140086432e-05
6.08450000000000e+00 5.11511768801831e-04 1.30112098368775e-05
6.12750000000000e+00 4.82939425814243e-04 1.23277538083820e-05
6.17050000000000e+00 4.55963094558140e-04 1.16799109055988e-05
6.21350000000000e+00 4.30493624016115e-04 1.10658444549579e-05
6.25650000000000e+00 4.06446843023822e-04 1.04838112235135e-05
6.29950000000000e+00 3.83743282102239e-04 9.93215675335323e-06
6.34250000000000e+00 3.62307910828003e-04 9.40931092273934e-06
6.38550000000000e+00 3.42069889873876e-04 8.91378372341773e-06
6.42850000000000e+00 3.22962336899881e-04 8.44416124398809e-06
6.47150000000000e+00 3.04922105521448e-04 7.99910184966890e-06
6.51450000000000e+00 2.87889576624089e-04 7.57733254921534e-06
6.55750000000000e+00 2.71808461334947e-04 7.17764554015569e-06
6.60050000000000e+00 2.56625615000087e-04 6.79889492390369e-06
6.64350000000000e+00 2.42290861552754e-04 6.43999358268128e-06
6.68650000000000e+00 2.28756827692185e-04 6.09991021054735e-06
6.72950000000000e+00 2.15978786324957e-04 5.77766649117504e-06
6.77250000000000e+00 2.03914508751491e-04 5.47233441535356e-06
6.81550000000000e+00 1.92524125109213e-04 5.18303373150934e-06
6.85850000000000e+00 1.81769992611165e-04 4.90892952284762e-06
6.90150000000000e+00 1.71616571144630e-04 4.64922990500882e-06
6.94450000000000e+00 1.62030305818645e-04 4.40318383841537e-06
6.98750000000000e+00 1.52979516072246e-04 4.17007904975326e-06
7.03050000000000e+00 1.44434290976976e-04 3.94924005729028e-06
7.07350000000000e+00 1.36366390387650e-04 3.74002629498003e-06
7.11650000000000e+00 1.28749151614704e-04 3.54183033053576e-06
7.15950000000000e+00 1.21557401309695e-04 3.35407617288449e-06
7.20250000000000e+00 1.14767372272756e-04 3.17621766462705e-06
7.24550000000000e+00 1.08356624907074e-04 3.00773695533612e-06
7.28850000000000e+00 1.02303973060814e-04 2.84814305172143e-06
7.33150000000000e+00 9.65894140114029e-05 2.69697044087956e-06
7.37450000000000e+00 9.11940623608074e-05 2.55377778302557e-06
7.41750000000000e+00 8.61000876233190e-05 2.41814667027560e-06
7.46050000000000e+00 8.12906552996065e-05 2.28968044821369e-06
7.50350000000000e+00 7.67498712422879e-05 2.16800309713228e-06
7.54650000000000e+00 7.24627291291658e-05 2.05275816998565e-06
7.58950000000000e+00 6.84150608705350e-05 1.94360778423807e-06
7.63250000000000e+00 6.45934897866701e-05 1.84023166492443e-06
7.67550000000000e+00 6.09853864007536e-05 1.74232623637087e-06
7.71850000000000e+00 5.75788267011506e-05 1.64960376014677e-06
7.76150000000000e+00 5.43625527350953e-05 1.56179151693751e-06
7.80450000000000e+00 5.13259354035598e-05 1.47863103013967e-06
7.84750000000000e+00 4.84589393343502e-05 1.39987732908799e-06
7.89050000000000e+00 4.57520897173432e-05 1.32529824992519e-06
7.93350000000000e+00 4.31964409922612e-05 1.25467377222354e-06
7.97650000000000e+00 4.07835472855043e-05 1.18779538955960e-06
8.01950000000000e+00 3.85054344983410e-05 1.12446551233204e-06
8.06250000000000e+00 3.63545739542135e-05 1.06449690119678e-06
8.10550000000000e+00 3.43238575180686e-05 1.00771212957356e-06
8.14850000000000e+00 3.24065741054883e-05 9.53943073754941e-07
8.19150000000000e+00 3.05963875039882e-05 9.03030429220870e-07
8.23450000000000e+00 2.88873154331874e-05 8.54823251831646e-07
8.27750000000000e+00 2.72737097746489e-05 8.09178522637700e-07
8.32050000000000e+00 2.57502379060532e-05 7.65960735107502e-07
8.36350000000000e+00 2.43118650780201e-05 7.25041503634515e-07
8.40650000000000e+00 2.29538377753359e-05 6.86299192240939e-07
8.44950000000000e+00 2.16716680076009e-05 6.49618562450010e-07
8.49250000000000e+00 2.04611184773785e-05 6.14890439350047e-07
8.53550000000000e+00 1.93181885768314e-05 5.82011394922384e-07
8.57850000000000e+00 1.82391011665670e-05 5.50883447751718e-07
8.62150000000000e+00 1.72202900929974e-05 5.21413778281801e-07
8.66450000000000e+00 1.62583884029632e-05 4.93514458821389e-07
8.70750000000000e+00 1.53502172166715e-05 4.67102197545372e-07
8.75050000000000e+00 1.44927752221773e-05 4.42098095774092e-07
8.79350000000000e+00 1.36832287566873e-05 4.18427417849979e-07
8.83650000000000e+00 1.29189024419096e-05 3.96019372965035e-07
8.87950000000000e+00 1.21972703424995e-05 3.74806908325386e-07
8.92250000000000e+00 1.15159476183820e-05 3.54726513070175e-07
8.96550000000000e+00 1.08726826433644e-05 3.35718032391589e-07
9.00850000000000e+00 1.02653495639925e-05 3.17724491330872e-07
9.05150000000000e+00 9.69194127405830e-06 3.00691927751836e-07
9.09450000000000e+00 9.15056278154264e-06 2.84569234018738e-07
9.13750000000000e+00 8.63942494607089e-06 2.69308006929416e-07
9.18050000000000e+00 8.15683856618586e-06 2.54862405477475e-07
9.22350000000000e+00 7.70120879689752e-06 2.41189016039043e-07
9.26650000000000e+00 7.27102987906066e-06 2.28246724600216e-07
9.30950000000000e+00 6.86488016316232e-06 2.15996595660969e-07
9.35250000000000e+00 6.48141741107351e-06 2.04401757469837e-07
9.39550000000000e+00 6.11937436023871e-06 1.93427293261474e-07
9.43850000000000e+00 5.77755453564356e-06 1.83040138185861e-07
9.48150000000000e+00 5.45482829572031e-06 1.73208981633971e-07
9.52450000000000e+00 5.15012909912352e-06 1.63904174679783e-07
9.56750000000000e+00 4.86244998003853e-06 1.55097642372952e-07
9.61050000000000e+00 4.59084022037437e-06 1.46762800630058e-07
9.65350000000000e+00 4.33440220784338e-06 1.38874477485326e-07
9.69650000000000e+00 4.09228846954416e-06 1.31408838474026e-07
9.73950000000000e+00 3.86369887124448e-06 1.24343315933407e-07
9.78250000000000e+00 3.64787797310846e-06 1.17656542017129e-07
9.82550000000000e+00 3.44411253312910e-06 1.11328285229665e-07
9.86850000000000e+00 3.25172915001570e-06 1.05339390297134e-07
9.91150000000000e+00 3.07009203774628e-06 9.96717212005045e-08
9.95450000000000e+00 2.89860092443049e-06 9.43081072060860e-08
9.99750000000000e+00 2.73668906853915e-06 8.92322917367941e-08
1.00405000000000e+01 2.58382138594438e-06 8.44288839357347e-08
1.00835000000000e+01 2.43949268158084e-06 7.98833127813637e-08
1.01265000000000e+01 2.30322597988381e-06 7.55817836207656e-08
1.01695000000000e+01 2.17457094848675e-06 7.15112369944999e-08
1.02125000000000e+01 2.05310240996896e-06 6.76593096330471e-08
1.02555000000000e+01 1.93841893673492e-06 6.40142975111007e-08
1.02985000000000e+01 1.83014152438181e-06 6.05651208518601e-08
1.03415000000000e+01 1.72791233917078e-06 5.73012909790918e-08
1.03845000000000e+01 1.63139353546286e-06 5.42128789200286e-08
1.04275000000000e+01 1.54026613921122e-06 5.12904856672333e-08
1.04705000000000e+01 1.45422899382002e-06 4.85252140123287e-08
1.05135000000000e+01 1.37299776488613e-06 4.59086418690288e-08
1.05565000000000e+01 1.29630400053461e-06 4.34327970072194e-08
1.05995000000000e+01 1.22389424424255e-06 4.10901331239063e-08
1.06425000000000e+01 1.15552919721940e-06 3.88735071807251e-08
1.06855000000000e+01 1.09098292757547e-06 3.67761579413739e-08
1.07285000000000e+01 1.03004212366532e-06 3.47916856458141e-08
1.07715000000000e+01 9.72505389138232e-07 3.29140327613780e-08
1.08145000000000e+01 9.18182577366328e-07 3.11374657540566e-08
1.08575000000000e+01 8.66894163050483e-07 2.94565578262078e-08
1.09005000000000e+01 8.18470648927559e-07 2.78661725697348e-08
1.09435000000000e+01 7.72752005618118e-07 2.63614484864562e-08
1.09865000000000e+01 7.29587142763474e-07 2.49377843299148e-08
1.10295000000000e+01 6.88833409704306e-07 2.35908252252721e-08
1.10725000000000e+01 6.50356124050677e-07 2.23164495262061e-08
1.11155000000000e+01 6.14028126585474e-07 2.11107563698891e-08
1.11585000000000e+01 5.79729361030339e-07 1.99700538931584e-08
1.12015000000000e+01 5.47346477285290e-07 1.88908480749357e-08
1.12445000000000e+01 5.16772456830831e-07 1.78698321717816e-08
1.12875000000000e+01 4.87906259054588e-07 1.69038767152144e-08
1.13305000000000e+01 4.60652487333649e-07 1.59900200410709e-08
1.13735000000000e+01 4.34921073769083e-07 1.51254593227486e-08
1.14165000000000e+01 4.10626981530758e-07 1.43075420816516e-08
1.14595000000000e+01 3.87689923828768e-07 1.35337581495670e-08
1.15025000000000e+01 3.66034098582723e-07 1.28017320590278e-08
1.15455000000000e+01 3.45587937912059e-07 1.21092158389810e-08
1.15885000000000e+01 3.26283871619457e-07 1.14540821942731e-08
1.16315000000000e+01 3.08058103885770e-07 1.08343180486011e-08
1.16745000000000e+01 2.90850402438454e-07 1.02480184316459e-08
1.17175000000000e+01 2.74603899496761e-07 9.69338069212640e-09
1.17605000000000e+01 2.59264903835861e-07 9.16869901947422e-09
1.18035000000000e+01 2.44782723348803e-07 8.67235925774239e-09
1.18465000000000e+01 2.31109497519922e-07 8.20283399622782e-09
1.18895000000000e+01 2.18200039256046e-07 7.75867792210628e-09
1.19325000000000e+01 2.06011685552802e-07 7.33852342115647e-09
1.19755000000000e+01 1.94504156502485e-07 6.94107641338498e-09
1.20185000000000e+01 1.83639422177567e-07 6.56511241106251e-09
1.20615000000000e+01 1.73381576949899e-07 6.20947278734162e-09
1.21045000000000e+01 1.63696720830272e-07 5.87306124425280e-09
1.21475000000000e+01 1.54552847436192e-07 5.55484046946866e-09
1.21905000000000e+01 1.45919738217612e-07 5.25382897178801e-09
1.22335000000000e+01 1.37768862591076e-07 4.96909808582384e-09
1.22765000000000e+01 1.30073283652232e-07 4.69976913688361e-09
1.23195000000000e+01 1.22807569155107e-07 4.44501075750798e-09
1.23625000000000e+01 1.15947707463966e-07 4.20403634758626e-09
1.24055000000000e+01 1.09471028199977e-07 3.97610167039623e-09
1.24485000000000e+01 1.03356127320452e-07 3.76050257732148e-09
1.24915000000000e+01 9.75827963830499e-08 3.55657285438423e-09
1.25345000000000e+01 9.21319557611898e-08 3.36368218409589e-09
1.25775000000000e+01 8.69855915899562e-08 3.18123421647277e-09
1.26205000000000e+01 8.21266962341205e-08 3.00866474339101e-09
1.26635000000000e+01 7.75392120815361e-08 2.84543997076476e-09
1.27065000000000e+01 7.32079784761578e-08 2.69105488332431e-09
1.27495000000000e+01 6.91186816153085e-08 2.54503169704909e-09
1.27925000000000e+01 6.52578072456170e-08 2.40691839457307e-09
1.28355000000000e+01 6.16125960012946e-08 2.27628733912958e-09
1.28785000000000e+01 5.81710012371539e-08 2.15273396283791e-09
1.29215000000000e+01 5.49216492170182e-08 2.03587552535821e-09
1.29645000000000e+01 5.18538015259504e-08 1.92534993915207e-09
1.30075000000000e+01 4.89573195820838e-08 1.82081465778698e-09
1.30505000000000e+01 4.62226311307722e-08 1.72194562391240e-09
1.30935000000000e+01 4.36406986103323e-08 1.62843627371503e-09
1.31365000000000e+01 4.12029892848299e-08 1.53999659483081e-09
1.31795000000000e+01 3.89014470452100e-08 1.45635223485248e-09
1.32225000000000e+01 3.67284657855747e-08 1.37724365772407e-09
1.32655000000000e+01 3.46768642666272e-08 1.30242534545798e-09
1.33085000000000e+01 3.27398623832082e-08 1.23166504274744e-09
1.33515000000000e+01 3.09110587574956e-08 1.16474304217637e-09
1.33945000000000e+01 2.91844095838167e-08 1.10145150785159e-09
1.34375000000000e+01 2.75542086551610e-08 1.04159383539813e-09
1.34805000000000e+01 2.60150685053830e-08 9.84984046368596e-10
1.35235000000000e+01 2.45619026047771e-08 9.31446215221724e-10
1.35665000000000e+01 2.31899085501822e-08 8.80813927123471e-10
