Energy (eV)          EEDF (eV^-(3/2))     First Anisotropy
2.33571428571429e-01 3.77654668948977e-02 5.24375320143783e-05
7.00714285714286e-01 3.59471961924634e-02 8.47898363531784e-05
1.16785714285714e+00 3.42164686510673e-02 1.07264265016909e-04
1.63500000000000e+00 3.25690693848659e-02 1.21727271519355e-04
2.10214285714286e+00 3.10009864349607e-02 1.31785325364806e-04
2.56928571428571e+00 2.95084010085193e-02 1.38894316415476e-04
3.03642857142857e+00 2.80876781788255e-02 1.43851771030626e-04
3.50357142857143e+00 2.67353580159854e-02 1.47163643246665e-04
3.97071428571429e+00 2.54481471790732e-02 1.49179967444831e-04
4.43785714285714e+00 2.42229108926652e-02 1.50157070197701e-04
4.90500000000000e+00 2.30566653032218e-02 1.50290268196483e-04
5.37214285714286e+00 2.19465702220994e-02 1.49732772397942e-04
5.83928571428571e+00 2.08899222054443e-02 1.48607419675475e-04
6.30642857142857e+00 1.98841479721134e-02 1.47014363812564e-04
6.77357142857143e+00 1.89267981316463e-02 1.45036343570168e-04
7.24071428571429e+00 1.80155412246435e-02 1.42742423009727e-04
7.70785714285714e+00 1.71481580442159e-02 1.40190728199937e-04
8.17500000000000e+00 1.63225362278723e-02 1.37430499957393e-04
8.64214285714286e+00 1.55366651169561e-02 1.34503667385899e-04
9.10928571428571e+00 1.47886308587496e-02 1.31446076824075e-04
9.57642857142857e+00 1.40766117463821e-02 1.28288466993562e-04
1.00435714285714e+01 1.33988737800073e-02 1.25057253726470e-04
1.05107142857143e+01 1.27537664438707e-02 1.21775168622869e-04
1.09778571428571e+01 1.21397186972831e-02 1.18461786435199e-04
1.14450000000000e+01 1.15552351275461e-02 1.15133962207369e-04
1.19121428571429e+01 1.09988923314728e-02 1.11806198200853e-04
1.23792857142857e+01 1.04693354278514e-02 1.08490954202466e-04
1.28464285714286e+01 9.96527477695226e-03 1.05198910953242e-04
1.33135714285714e+01 9.48548282251166e-03 1.01939196133491e-04
1.37807142857143e+01 9.02879111470878e-03 9.87195774971303e-05
1.42478571428571e+01 8.59408746348707e-03 9.55466317461558e-05
1.47150000000000e+01 8.18031322031305e-03 9.24258893426626e-05
1.51821428571429e+01 7.78646071261769e-03 8.93619613405721e-05
1.56492857142857e+01 7.41157077826583e-03 8.63586503625344e-05
1.61164285714286e+01 7.05473044022861e-03 8.34190476126406e-05
1.65835714285714e+01 6.71507067351577e-03 8.05456185346824e-05
1.70507142857143e+01 6.39176429582653e-03 7.77402775160746e-05
1.75178571428571e+01 6.08402395248015e-03 7.50044551082731e-05
1.79850000000000e+01 5.79110019342434e-03 7.23391563747103e-05
1.84521428571429e+01 5.51227965528629e-03 6.97450130341033e-05
1.89192857142857e+01 5.24688331745973e-03 6.72223297948199e-05
1.93864285714286e+01 4.99426485459065e-03 6.47711253406863e-05
1.98535714285714e+01 4.75380905691209e-03 6.23911690154414e-05
2.03207142857143e+01 4.52493033612167e-03 6.00820129722002e-05
2.07878571428571e+01 4.30707129893259e-03 5.78430216151950e-05
2.12550000000000e+01 4.09970138636486e-03 5.56733971032736e-05
2.17221428571429e+01 3.90231558594202e-03 5.35722023672327e-05
2.21892857142857e+01 3.71443319785591e-03 5.15383816650430e-05
2.26564285714286e+01 3.53559666797959e-03 4.95707787889941e-05
2.31235714285714e+01 3.36537047016647e-03 4.76681534415150e-05
2.35907142857143e+01 3.20334004808921e-03 4.58291954953937e-05
2.40578571428571e+01 3.04911080545144e-03 4.40525382182123e-05
2.45250000000000e+01 2.90230714302396e-03 4.23367695580764e-05
2.49921428571429e+01 2.76257154654881e-03 4.06804423612622e-05
2.54592857142857e+01 2.62956371364820e-03 3.90820834650534e-05
2.59264285714286e+01 2.50295972733418e-03 3.75402016828070e-05
2.63935714285714e+01 2.38245126506465e-03 3.60532949669603e-05
2.68607142857143e+01 2.26774484941386e-03 3.46198565184813e-05
2.73278571428571e+01 2.15856113323193e-03 3.32383805168147e-05
2.77950000000000e+01 2.05463421810597e-03 3.19073668384129e-05
2.82621428571429e+01 1.95571100843395e-03 3.06253253112186e-05
2.87292857142857e+01 1.86155059354090e-03 2.93907794403779e-05
2.91964285714286e+01 1.77192366239397e-03 2.82022695948918e-05
2.96635714285714e+01 1.68661194383847e-03 2.70583558237076e-05
3.01307142857143e+01 1.60540767600120e-03 2.59576201299985e-05
3.05978571428571e+01 1.52811310024346e-03 2.48986686368820e-05
3.10650000000000e+01 1.45453997877402e-03 2.38801332089165e-05
3.15321428571429e+01 1.38450913725334e-03 2.29006728826087e-05
3.19992857142857e+01 1.31785002748810e-03 2.19589750510720e-05
3.24664285714286e+01 1.25440031298538e-03 2.10537563867476e-05
3.29335714285714e+01 1.19400547277384e-03 2.01837636054711e-05
3.34007142857143e+01 1.13651842570836e-03 1.93477739495217e-05
3.38678571428571e+01 1.08179917222962e-03 1.85445956730354e-05
3.43350000000000e+01 1.02971445292169e-03 1.77730682308159e-05
3.48021428571429e+01 9.80137424636206e-04 1.70320624021552e-05
3.52692857142857e+01 9.32947350975343e-04 1.63204803072592e-05
3.57364285714286e+01 8.88029308832726e-04 1.56372553010915e-05
3.62035714285714e+01 8.45273907981078e-04 1.49813518095069e-05
3.66707142857143e+01 8.04577025065752e-04 1.43517650215152e-05
3.71378571428571e+01 7.65839549998526e-04 1.37475206251617e-05
3.76050000000000e+01 7.28967144271436e-04 1.31676743820236e-05
3.80721428571429e+01 6.93870011633686e-04 1.26113116938076e-05
3.85392857142857e+01 6.60462679012876e-04 1.20775471295496e-05
3.90064285714286e+01 6.28663788731023e-04 1.15655239008994e-05
3.94735714285714e+01 5.98395900024240e-04 1.10744133269075e-05
3.99407142857143e+01 5.69585300704873e-04 1.06034142280387e-05
4.04078571428571e+01 5.42161827627730e-04 1.01517523744589e-05
4.08750000000000e+01 5.16058695611566e-04 9.71867984791993e-06
4.13421428571429e+01 4.91212335069644e-04 9.30347441972358e-06
4.18092857142857e+01 4.67562236939588e-04 8.90543892183345e-06
4.22764285714286e+01 4.45050805565715e-04 8.52390060139589e-06
4.27435714285714e+01 4.23623218207903e-04 8.15821048541642e-06
4.32107142857143e+01 4.03227291697239e-04 7.80774271354501e-06
4.36778571428571e+01 3.83813355339634e-04 7.47189392287180e-06
4.41450000000000e+01 3.65334129815188e-04 7.15008258806748e-06
4.46121428571429e+01 3.47744612217107e-04 6.84174838568386e-06
4.50792857142857e+01 3.31001966286273e-04 6.54635156610239e-06
4.55464285714286e+01 3.15065418249443e-04 6.26337232577795e-06
4.60135714285714e+01 2.99896157372847e-04 5.99231019719287e-06
4.64807142857143e+01 2.85457241555021e-04 5.73268342722072e-06
4.69478571428571e+01 2.71713507352005e-04 5.48402840045730e-06
4.74150000000000e+01 2.58631484253228e-04 5.24589904099055e-06
4.78821428571429e+01 2.46179313288024e-04 5.01786623902293e-06
4.83492857142857e+01 2.34326669327531e-04 4.79951729053290e-06
4.88164285714286e+01 2.23044687337591e-04 4.59045534451854e-06
4.92835714285714e+01 2.12305891984671e-04 4.39029886923272e-06
4.97507142857143e+01 2.02084130796852e-04 4.19868111699364e-06
5.02178571428571e+01 1.92354510468277e-04 4.01524962583862e-06
5.06850000000000e+01 1.83093336176553e-04 3.83966571216129e-06
5.11521428571429e+01 1.74278053956265e-04 3.67160398574779e-06
5.16192857142857e+01 1.65887195699154e-04 3.51075187879386e-06
5.20864285714286e+01 1.57900326941490e-04 3.35680918489500e-06
5.25535714285714e+01 1.50297997034312e-04 3.20948761552029e-06
5.30207142857143e+01 1.43061691822764e-04 3.06851035973905e-06
5.34878571428571e+01 1.36173788554289e-04 2.93361167317223e-06
5.39550000000000e+01 1.29617512922111e-04 2.80453646450796e-06
5.44221428571429e+01 1.23376898266231e-04 2.68103990090776e-06
5.48892857142857e+01 1.17436746640504e-04 2.56288702631902e-06
5.53564285714286e+01 1.11782591846725e-04 2.44985238977121e-06
5.58235714285714e+01 1.06400664161337e-04 2.34171968861740e-06
5.62907142857143e+01 1.01277856833631e-04 2.23828141679598e-06
5.67578571428571e+01 9.64016941640103e-05 2.13933853578498e-06
5.72250000000000e+01 9.17603010953495e-05 2.04470014635942e-06
5.76921428571429e+01 8.73423743279668e-05 1.95418317566493e-06
5.81592857142857e+01 8.31371547597779e-05 1.86761207536028e-06
5.86264285714286e+01 7.91344013151104e-05 1.78481852870729e-06
5.90935714285714e+01 7.53243659753646e-05 1.70564116989557e-06
5.95607142857143e+01 7.16977700607726e-05 1.62992530867480e-06
6.00278571428571e+01 6.82457816321043e-05 1.55752267234595e-06
6.04950000000000e+01 6.49599939644603e-05 1.48829114995713e-06
6.09621428571429e+01 6.18324050973121e-05 1.42209454860174e-06
6.14292857142857e+01 5.88553983252765e-05 1.35880235880695e-06
6.18964285714286e+01 5.60217236695428e-05 1.29828952747805e-06
6.23635714285714e+01 5.33244802023875e-05 1.24043624058145e-06
6.28307142857143e+01 5.07570992554867e-05 1.18512771072780e-06
6.32978571428571e+01 4.83133284219408e-05 1.13225397788919e-06
6.37650000000000e+01 4.59872163178462e-05 1.08170971274593e-06
6.42321428571429e+01 4.37730981042753e-05 1.03339402942513e-06
6.46992857142857e+01 4.16655816768810e-05 9.87210305496477e-07
6.51664285714286e+01 3.96595345481938e-05 9.43066008118204e-07
6.56335714285714e+01 3.77500713352885e-05 9.00872527784957e-07
6.61007142857143e+01 3.59325418719112e-05 8.60545016295484e-07
6.65678571428571e+01 3.42025198830522e-05 8.22002234575163e-07
6.70350000000000e+01 3.25557921975995e-05 7.85166403063722e-07
6.75021428571429e+01 3.09883484983498e-05 7.49963059295374e-07
6.79692857142857e+01 2.94963715457057e-05 7.16320921159450e-07
6.84364285714286e+01 2.80762278907670e-05 6.84171755044014e-07
6.89035714285714e+01 2.67244590179019e-05 6.53450249829502e-07
6.93707142857143e+01 2.54377729286233e-05 6.24093894366420e-07
6.98378571428571e+01 2.42130361239902e-05 5.96042862299258e-07
7.03050000000000e+01 2.30472659681715e-05 5.69239899172485e-07
7.07721428571429e+01 2.19376234318092e-05 5.43630214989541e-07
7.12392857142857e+01 2.08814061713935e-05 5.19161381153981e-07
7.17064285714286e+01 1.98760419544635e-05 4.95783231219178e-07
7.21735714285714e+01 1.89190823894416e-05 4.73447766091360e-07
7.26407142857143e+01 1.80081969673856e-05 4.52109062029709e-07
7.31078571428571e+01 1.71411673860963e-05 4.31723184094012e-07
7.35750000000000e+01 1.63158821442159e-05 4.12248101518375e-07
7.40421428571428e+01 1.55303314038021e-05 3.93643607186671e-07
7.45092857142857e+01 1.47826020912120e-05 3.75871240451350e-07
7.49764285714286e+01 1.40708732423974e-05 3.58894212883520e-07
7.54435714285714e+01 1.33934115642438e-05 3.42677337384542e-07
7.59107142857143e+01 1.27485672164033e-05 3.27186959498900e-07
7.63778571428571e+01 1.21347697931641e-05 3.12390892749341e-07
7.68450000000000e+01 1.15505244965529e-05 2.98258355543416e-07
7.73121428571429e+01 1.09944084992457e-05 2.84759911145863e-07
7.77792857142857e+01 1.04650674764651e-05 2.71867410179739e-07
7.82464285714286e+01 9.96121231064199e-06 2.59553935360554e-07
7.87135714285714e+01 9.48161594926773e-06 2.47793748750599e-07
7.91807142857143e+01 9.02511041863346e-06 2.36562240720172e-07
7.96478571428571e+01 8.59058397927638e-06 2.25835881868176e-07
8.01150000000000e+01 8.17697841687110e-06 2.15592176194884e-07
8.05821428571429e+01 7.78328646732533e-06 2.05809616554398e-07
8.10492857142857e+01 7.40854936169012e-06 1.96467642006449e-07
8.15164285714286e+01 7.05185449320340e-06 1.87546596855445e-07
8.19835714285714e+01 6.71233319294280e-06 1.79027691568492e-07
8.24507142857143e+01 6.38915861570103e-06 1.70892965001977e-07
8.29178571428571e+01 6.08154372624160e-06 1.63125248798946e-07
8.33850000000000e+01 5.78873938148253e-06 1.55708132767181e-07
8.38521428571429e+01 5.51003250757949e-06 1.48625931945134e-07
8.43192857142857e+01 5.24474436194841e-06 1.41863655086333e-07
8.47864285714286e+01 4.99222888163828e-06 1.35406974410243e-07
8.52535714285714e+01 4.75187110869700e-06 1.29242196747585e-07
8.57207142857143e+01 4.52308569347878e-06 1.23356235679826e-07
8.61878571428571e+01 4.30531546905445e-06 1.17736585266942e-07
8.66550000000000e+01 4.09803009355975e-06 1.12371294533217e-07
8.71221428571429e+01 3.90072475965504e-06 1.07248943198191e-07
8.75892857142857e+01 3.71291896419444e-06 1.02358618461924e-07
8.80564285714286e+01 3.53415533895173e-06 9.76898927356740e-08
8.85235714285714e+01 3.36399853592065e-06 9.32328024034720e-08
8.89907142857143e+01 3.20203416773492e-06 8.89778273334867e-08
8.94578571428571e+01 3.04786779845045e-06 8.49158715488910e-08
8.99250000000000e+01 2.90112398244124e-06 8.10382444786556e-08
9.03921428571429e+01 2.76144535075898e-06 7.73366431240322e-08
9.08592857142857e+01 2.62849174016813e-06 7.38031350055597e-08
9.13264285714286e+01 2.50193936535677e-06 7.04301418126077e-08
9.17935714285714e+01 2.38148002982768e-06 6.72104238124964e-08
9.22607142857143e+01 2.26682037577229e-06 6.41370648217306e-08
9.27278571428571e+01 2.15768116961511e-06 6.12034580220670e-08
9.31950000000000e+01 2.05379662163109e-06 5.84032922165846e-08
9.36621428571429e+01 1.95491373913369e-06 5.57305387573595e-08
9.41292857142857e+01 1.86079170990771e-06 5.31794390489925e-08
9.45964285714286e+01 1.77120131617614e-06 5.07444925721634e-08
9.50635714285714e+01 1.68592437597963e-06 4.84204454652571e-08
9.55307142857143e+01 1.60475321212808e-06 4.62022795252841e-08
9.59978571428571e+01 1.52749014641602e-06 4.40852018233116e-08
9.64650000000000e+01 1.45394701796709e-06 4.20646346514755e-08
9.69321428571428e+01 1.38394472532413e-06 4.01362059614317e-08
9.73992857142857e+01 1.31731278997277e-06 3.82957402263944e-08
9.78664285714286e+01 1.25388894145999e-06 3.65392496868275e-08
9.83335714285714e+01 1.19351872193870e-06 3.48629260051389e-08
9.88007142857143e+01 1.13605511021491e-06 3.32631322318012e-08
9.92678571428571e+01 1.08135816368749e-06 3.17363952177832e-08
9.97350000000000e+01 1.02929467737486e-06 3.02793982754440e-08
1.00202142857143e+02 9.79737859738652e-07 2.88889741789440e-08
1.00669285714286e+02 9.32567023832179e-07 2.75620985669954e-08
1.01136428571429e+02 8.87667293075959e-07 2.62958834828497e-08
1.01603571428571e+02 8.44929321974254e-07 2.50875712546170e-08
1.02070714285714e+02 8.04249029620731e-07 2.39345287399906e-08
1.02537857142857e+02 7.65527346228357e-07 2.28342417227415e-08
1.03005000000000e+02 7.28669971861727e-07 2.17843095399670e-08
1.03472142857143e+02 6.93587147116887e-07 2.07824401395548e-08
1.03939285714286e+02 6.60193433501437e-07 1.98264451165711e-08
1.04406428571429e+02 6.28407506425973e-07 1.89142349549726e-08
1.04873571428571e+02 5.98151956785675e-07 1.80438147535693e-08
1.05340714285714e+02 5.69353102443662e-07 1.72132799232004e-08
1.05807857142857e+02 5.41940808791510e-07 1.64208121305579e-08
1.06275000000000e+02 5.15848317948332e-07 1.56646753893397e-08
1.06742142857143e+02 4.91012086410625e-07 1.49432124592994e-08
1.07209285714286e+02 4.67371629598797e-07 1.42548412382605e-08
1.07676428571429e+02 4.44869375286181e-07 1.35980513045061e-08
1.08143571428571e+02 4.23450523140428e-07 1.29714008035868e-08
1.08610714285714e+02 4.03062911266661e-07 1.23735133216458e-08
1.09077857142857e+02 3.83656889176624e-07 1.18030749368971e-08
1.09545000000000e+02 3.65185196873362e-07 1.12588313797179e-08
1.10012142857143e+02 3.47602849913670e-07 1.07395854130311e-08
1.10479285714286e+02 3.30867029372564e-07 1.02441942131026e-08
1.10946428571429e+02 3.14936978065695e-07 9.77156686024881e-09
1.11413571428571e+02 2.99773901119614e-07 9.32066207451084e-09
1.11880714285714e+02 2.85340871493497e-07 8.89048594650272e-09
1.12347857142857e+02 2.71602740050005e-07 8.48008979682933e-09
1.12815000000000e+02 2.58526049955546e-07 8.08856811536471e-09
1.13282142857143e+02 2.46078955309183e-07 7.71505665809854e-09
1.13749285714286e+02 2.34231143254945e-07 7.35873054797208e-09
1.14216428571429e+02 2.22953760504155e-07 7.01880245590463e-09
1.14683571428571e+02 2.12219342949550e-07 6.69452095605303e-09
1.15150714285714e+02 2.02001748781155e-07 6.38516888088847e-09
1.15617857142857e+02 1.92276094822613e-07 6.09006176898706e-09
1.16085000000000e+02 1.83018695932452e-07 5.80854637140190e-09
1.16552142857143e+02 1.74207007396802e-07 5.53999927071051e-09
1.17019285714286e+02 1.65819569796882e-07 5.28382550542277e-09
1.17486428571429e+02 1.57835956984991e-07 5.03945725280132e-09
1.17953571428571e+02 1.50236726258511e-07 4.80635263560641e-09
1.18420714285714e+02 1.43003371010535e-07 4.58399453092992e-09
1.18887857142857e+02 1.36118275660360e-07 4.37188944583892e-09
1.19355000000000e+02 1.29564672753737e-07 4.16956643590237e-09
1.19822142857143e+02 1.23326602179450e-07 3.97657610427148e-09
1.20289285714286e+02 1.17388872143707e-07 3.79248960629687e-09
1.20756428571429e+02 1.11737022336124e-07 3.61689769663311e-09
1.21223571428571e+02 1.06357288657931e-07 3.44940986448565e-09
1.21690714285714e+02 1.01236569701861e-07 3.28965347186039e-09
1.22157857142857e+02 9.63623948460349e-08 3.13727293992471e-09
1.22625000000000e+02 9.17228938838831e-08 2.99192896670131e-09
1.23092142857143e+02 8.73067681513247e-08 2.85329780233852e-09
1.23559285714286e+02 8.31032629022856e-08 2.72107052949817e-09
1.24026428571429e+02 7.91021412296708e-08 2.59495237460683e-09
1.24493571428571e+02 7.52936590964135e-08 2.47466208179902e-09
1.24960714285714e+02 7.16685416055451e-08 2.35993129003401e-09
1.25427857142857e+02 6.82179604128465e-08 2.25050394483766e-09
1.25895000000000e+02 6.49335122269240e-08 2.14613573289962e-09
1.26362142857143e+02 6.18071983685885e-08 2.04659355781510e-09
1.26829285714286e+02 5.88314052166132e-08 1.95165502027412e-09
1.27296428571429e+02 5.59988857435075e-08 1.86110792064335e-09
1.27763571428571e+02 5.33027418399279e-08 1.77474980613822e-09
1.28230714285714e+02 5.07364075155168e-08 1.69238752096289e-09
1.28697857142857e+02 4.82936329086084e-08 1.61383678135537e-09
1.29165000000000e+02 4.59684690657593e-08 1.53892176727894e-09
1.29632142857143e+02 4.37552534707602e-08 1.46747474350965e-09
1.30099285714286e+02 4.16485962029141e-08 1.39933568444090e-09
1.30566428571429e+02 3.96433668642449e-08 1.33435191511678e-09
1.31033571428571e+02 3.77346820668729e-08 1.27237778398049e-09
1.31500714285714e+02 3.59178935403626e-08 1.21327433822084e-09
1.31967857142857e+02 3.41885768116908e-08 1.15690901702308e-09
1.32435000000000e+02 3.25425204301994e-08 1.10315535692700e-09
1.32902142857143e+02 3.09757157228389e-08 1.05189271818358e-09
1.33369285714286e+02 2.94843469960808e-08 1.00300601413491e-09
1.33836428571429e+02 2.80647822803451e-08 9.56385452344128e-10
1.34303571428571e+02 2.67135644722441e-08 9.11926298282718e-10
1.34770714285714e+02 2.54274029154010e-08 8.69528641199798e-10
1.35237857142857e+02 2.42031653866436e-08 8.29097172856644e-10
1.35705000000000e+02 2.30378704680116e-08 7.90540975055944e-10
1.36172142857143e+02 2.19286802939751e-08 7.53773322168322e-10
1.36639285714286e+02 2.08728936156699e-08 7.18711486069712e-10
1.37106428571429e+02 1.98679392479581e-08 6.85276549578106e-10
1.37573571428571e+02 1.89113697989618e-08 6.53393235934043e-10
1.38040714285714e+02 1.80008557098615e-08 6.22989740062506e-10
1.38507857142857e+02 1.71341795816702e-08 5.93997569074797e-10
1.38975000000000e+02 1.63092307751388e-08 5.66351389151699e-10
1.39442142857143e+02 1.55240002761527e-08 5.39988883135877e-10
1.39909285714286e+02 1.47765757860958e-08 5.14850610017927e-10
1.40376428571429e+02 1.40651370823952e-08 4.90879870565219e-10
1.40843571428571e+02 1.33879515796085e-08 4.68022584361645e-10
1.41310714285714e+02 1.27433701100097e-08 4.46227168271950e-10
1.41777857142857e+02 1.21298229073351e-08 4.25444421539524e-10
1.42245000000000e+02 1.15458157838862e-08 4.05627415509425e-10
1.42712142857143e+02 1.09899264954948e-08 3.86731390997396e-10
1.43179285714286e+02 1.04608012661138e-08 3.68713657128729e-10
1.43646428571429e+02 9.95715150311497e-09 3.51533494613227e-10
1.44113571428571e+02 9.47775065494266e-09 3.35152067135911e-10
1.44580714285714e+02 9.02143122405814e-09 3.19532333869273e-10
1.45047857142857e+02 8.58708192370718e-09 3.04638966745825e-10
1.45515000000000e+02 8.17364497157180e-09 2.90438271079798e-10
1.45982142857143e+02 7.78011351635413e-09 2.76898111646946e-10
1.46449285714286e+02 7.40552917761290e-09 2.63987839894354e-10
1.46916428571429e+02 7.04897972022596e-09 2.51678224351483e-10
1.47383571428571e+02 6.70959682989145e-09 2.39941386813280e-10
