Energy (eV)          EEDF (eV^-(3/2))     First Anisotropy
2.30357142857143e-03 1.73776749791129e+00 8.56743076563128e-04
6.91071428571429e-03 1.72710123240158e+00 1.41514202767412e-03
1.15178571428571e-02 1.71650043550942e+00 1.86924941711508e-03
1.61250000000000e-02 1.70596470535206e+00 2.21490977628252e-03
2.07321428571429e-02 1.69549364262948e+00 2.50375117073111e-03
2.53392857142857e-02 1.68508685035684e+00 2.75527243462315e-03
2.99464285714286e-02 1.67474393408943e+00 2.97955389892504e-03
3.45535714285714e-02 1.66446450172715e+00 3.18267669541954e-03
3.91607142857143e-02 1.65424816361245e+00 3.36866994243061e-03
4.37678571428571e-02 1.64409453250673e+00 3.54037854009145e-03
4.83750000000000e-02 1.63400322349448e+00 3.69990636347972e-03
5.29821428571429e-02 1.62397385406937e+00 3.84886518846914e-03
5.75892857142857e-02 1.61400604403225e+00 3.98852471397795e-03
6.21964285714286e-02 1.60409941555382e+00 4.11990804762276e-03
6.68035714285714e-02 1.59425359309145e+00 4.24385519516844e-03
7.14107142857143e-02 1.58446820342341e+00 4.36106680167783e-03
7.60178571428572e-02 1.57474287563252e+00 4.47213522017250e-03
8.06250000000000e-02 1.56507724105104e+00 4.57756712353815e-03
8.52321428571429e-02 1.55547093329914e+00 4.67780033881008e-03
8.98392857142857e-02 1.54592358822269e+00 4.77321661603760e-03
9.44464285714286e-02 1.53643484392419e+00 4.86415147537285e-03
9.90535714285714e-02 1.52700434070744e+00 4.95090191780547e-03
1.03660714285714e-01 1.51763172108466e+00 5.03373253202574e-03
1.08267857142857e-01 1.50831662977275e+00 5.11288040411426e-03
1.12875000000000e-01 1.49905871366911e+00 5.18855908771052e-03
1.17482142857143e-01 1.48985762191561e+00 5.26096189379755e-03
1.22089285714286e-01 1.48071300565009e+00 5.33026456237890e-03
1.26696428571429e-01 1.47162451823189e+00 5.39662748456500e-03
1.31303571428571e-01 1.46259181514789e+00 5.46019761787333e-03
1.35910714285714e-01 1.45361455399900e+00 5.52111006617657e-03
1.40517857142857e-01 1.44469239448821e+00 5.57948943270913e-03
1.45125000000000e-01 1.43582499840715e+00 5.63545096872690e-03
1.49732142857143e-01 1.42701202968104e+00 5.68910159584278e-03
1.54339285714286e-01 1.41825315418058e+00 5.74054074863376e-03
1.58946428571429e-01 1.40954803988684e+00 5.78986110426561e-03
1.63553571428571e-01 1.40089635681877e+00 5.83714926239124e-03
1.68160714285714e-01 1.39229777702034e+00 5.88248630762187e-03
1.72767857142857e-01 1.38375197454881e+00 5.92594831257763e-03
1.77375000000000e-01 1.37525862546199e+00 5.96760677452665e-03
1.81982142857143e-01 1.36681740785134e+00 6.00752903232714e-03
1.86589285714286e-01 1.35842800169226e+00 6.04577860086487e-03
1.91196428571429e-01 1.35009008897097e+00 6.08241546766776e-03
1.95803571428571e-01 1.34180335362559e+00 6.11749639607670e-03
2.00410714285714e-01 1.33356748153400e+00 6.15107516793252e-03
2.05017857142857e-01 1.32538216050231e+00 6.18320280916507e-03
2.09625000000000e-01 1.31724708025284e+00 6.21392778656923e-03
2.14232142857143e-01 1.30916193244915e+00 6.24329621230673e-03
2.18839285714286e-01 1.30112641057286e+00 6.27135199693875e-03
2.23446428571429e-01 1.29314021002462e+00 6.29813698714639e-03
2.28053571428571e-01 1.28520302807470e+00 6.32369112462796e-03
2.32660714285714e-01 1.27731456385132e+00 6.34805256491948e-03
2.37267857142857e-01 1.26947451832956e+00 6.37125779247814e-03
2.41875000000000e-01 1.26168259431988e+00 6.39334172008386e-03
2.46482142857143e-01 1.25393849648745e+00 6.41433780382279e-03
2.51089285714286e-01 1.24624193124833e+00 6.43427811971593e-03
2.55696428571429e-01 1.23859260685183e+00 6.45319343324117e-03
2.60303571428571e-01 1.23099023333796e+00 6.47111329347711e-03
2.64910714285714e-01 1.22343452252638e+00 6.48806609654725e-03
2.69517857142857e-01 1.21592518800569e+00 6.50407915013546e-03
2.74125000000000e-01 1.20846194512243e+00 6.51917872784623e-03
2.78732142857143e-01 1.20104451099618e+00 6.53339014109159e-03
2.83339285714286e-01 1.19367260443059e+00 6.54673777957182e-03
2.87946428571429e-01 1.18634594598160e+00 6.55924514809163e-03
2.92553571428571e-01 1.17906425792039e+00 6.57093492797054e-03
2.97160714285714e-01 1.17182726422270e+00 6.58182901301762e-03
3.01767857142857e-01 1.16463469055856e+00 6.59194854839845e-03
3.06375000000000e-01 1.15748626428183e+00 6.60131396206117e-03
3.10982142857143e-01 1.15038171444200e+00 6.60994501363069e-03
3.15589285714286e-01 1.14332077170688e+00 6.61786081626461e-03
3.20196428571429e-01 1.13630316841999e+00 6.62507985645994e-03
3.24803571428571e-01 1.12932863856768e+00 6.63162003728962e-03
3.29410714285714e-01 1.12239691776905e+00 6.63749869963541e-03
3.34017857142857e-01 1.11550774326595e+00 6.64273264697649e-03
3.38625000000000e-01 1.10866085391305e+00 6.64733816425002e-03
3.43232142857143e-01 1.10185599018713e+00 6.65133105341328e-03
3.47839285714286e-01 1.09509289411909e+00 6.65472664508207e-03
3.52446428571429e-01 1.08837130934279e+00 6.65753980893644e-03
3.57053571428571e-01 1.08169098106565e+00 6.65978498606067e-03
3.61660714285714e-01 1.07505165605891e+00 6.66147620177318e-03
3.66267857142857e-01 1.06845308264818e+00 6.66262708217992e-03
3.70875000000000e-01 1.06189501070379e+00 6.66325086575185e-03
3.75482142857143e-01 1.05537719164820e+00 6.66336043060083e-03
3.80089285714286e-01 1.04889937839567e+00 6.66296830024146e-03
3.84696428571429e-01 1.04246132539416e+00 6.66208664856629e-03
3.89303571428571e-01 1.03606278859879e+00 6.66072732521379e-03
3.93910714285714e-01 1.02970352546257e+00 6.65890186337782e-03
3.98517857142857e-01 1.02338329492728e+00 6.65662149128851e-03
4.03125000000000e-01 1.01710185741430e+00 6.65389713937272e-03
4.07732142857143e-01 1.01085897483036e+00 6.65073946207074e-03
4.12339285714286e-01 1.00465441051365e+00 6.64715884010051e-03
4.16946428571429e-01 9.98487929270082e-01 6.64316538219518e-03
4.21553571428571e-01 9.92359297349127e-01 6.63876894575592e-03
4.26160714285714e-01 9.86268282434980e-01 6.63397914154749e-03
4.30767857142857e-01 9.80214653637798e-01 6.62880534192012e-03
4.35375000000000e-01 9.74198181484917e-01 6.62325668519296e-03
4.39982142857143e-01 9.68218637925320e-01 6.61734209368699e-03
4.44589285714286e-01 9.62275796281225e-01 6.61107027386119e-03
4.49196428571429e-01 9.56369431279535e-01 6.60444971607936e-03
4.53803571428571e-01 9.50499319029855e-01 6.59748871192131e-03
4.58410714285714e-01 9.44665237015983e-01 6.59019535688727e-03
4.63017857142857e-01 9.38866964087529e-01 6.58257755644840e-03
4.67625000000000e-01 9.33104280451501e-01 6.57464302863865e-03
4.72232142857143e-01 9.27376967675720e-01 6.56639931934370e-03
4.76839285714286e-01 9.21684808645073e-01 6.55785380112958e-03
4.81446428571429e-01 9.16027587588989e-01 6.54901367180106e-03
4.86053571428571e-01 9.10405090061275e-01 6.53988596924129e-03
4.90660714285714e-01 9.04817102931965e-01 6.53047757281898e-03
4.95267857142857e-01 8.99263414379291e-01 6.52079520794656e-03
4.99875000000000e-01 8.93743813881624e-01 6.51084544748613e-03
5.04482142857143e-01 8.88258092220025e-01 6.50063472497633e-03
5.09089285714286e-01 8.82806041438527e-01 6.49016933266031e-03
5.13696428571429e-01 8.77387454868249e-01 6.47945541930391e-03
5.18303571428571e-01 8.72002127108821e-01 6.46849900314527e-03
5.22910714285714e-01 8.66649854020584e-01 6.45730597244202e-03
5.27517857142857e-01 8.61330432716889e-01 6.44588208897362e-03
5.32125000000000e-01 8.56043661556385e-01 6.43423298865491e-03
5.36732142857143e-01 8.50789340144850e-01 6.42236419315821e-03
5.41339285714286e-01 8.45567269298997e-01 6.41028110745959e-03
5.45946428571429e-01 8.40377251067703e-01 6.39798901721987e-03
5.50553571428571e-01 8.35219088714850e-01 6.38549310023990e-03
5.55160714285714e-01 8.30092586711854e-01 6.37279842643200e-03
5.59767857142857e-01 8.24997550730282e-01 6.35990996055989e-03
5.64375000000000e-01 8.19933787634472e-01 6.34683256231602e-03
5.68982142857143e-01 8.14901105482766e-01 6.33357099666141e-03
5.73589285714286e-01 8.09899313494408e-01 6.32012993109526e-03
5.78196428571429e-01 8.04928222068303e-01 6.30651393279122e-03
5.82803571428571e-01 7.99987642767106e-01 6.29272747884474e-03
5.87410714285714e-01 7.95077388310073e-01 6.27877495585769e-03
5.92017857142857e-01 7.90197272565985e-01 6.26466066211515e-03
5.96625000000000e-01 7.85347110546078e-01 6.25038880729813e-03
6.01232142857143e-01 7.80526718404787e-01 6.23596352177271e-03
6.05839285714286e-01 7.75735913409373e-01 6.22138885371959e-03
6.10446428571429e-01 7.70974513956542e-01 6.20666876615328e-03
6.15053571428571e-01 7.66242339557667e-01 6.19180714616793e-03
6.19660714285714e-01 7.61539210831928e-01 6.17680780426369e-03
6.24267857142857e-01 7.56864949499543e-01 6.16167447609984e-03
6.28875000000000e-01 7.52219378374994e-01 6.14641082196152e-03
6.33482142857143e-01 7.47602321367360e-01 6.13102043517135e-03
6.38089285714286e-01 7.43013603452370e-01 6.11550683916732e-03
6.42696428571429e-01 7.38453050687170e-01 6.09987348448844e-03
6.47303571428571e-01 7.33920490196550e-01 6.08412375717550e-03
6.51910714285714e-01 7.29415750166384e-01 6.06826097792845e-03
6.56517857142857e-01 7.24938659837133e-01 6.05228840353657e-03
6.61125000000000e-01 7.20489049497368e-01 6.03620922617816e-03
6.65732142857143e-01 7.16066750483751e-01 6.02002658108745e-03
6.70339285714286e-01 7.11671595155271e-01 6.00374354364194e-03
6.74946428571429e-01 7.07303416906377e-01 5.98736312636806e-03
6.79553571428571e-01 7.02962050154128e-01 5.97088828661809e-03
6.84160714285714e-01 6.98647330331907e-01 5.95432192561986e-03
6.88767857142857e-01 6.94359093883201e-01 5.93766688965702e-03
6.93375000000000e-01 6.90097178255394e-01 5.92092596926011e-03
6.97982142857143e-01 6.85861421899464e-01 5.90410190622980e-03
7.02589285714286e-01 6.81651664246172e-01 5.88719739077267e-03
7.07196428571429e-01 6.77467745717766e-01 5.87021505856393e-03
7.11803571428571e-01 6.73309507715969e-01 5.85315749779633e-03
7.16410714285714e-01 6.69176792615959e-01 5.83602724816741e-03
7.21017857142857e-01 6.65069443760409e-01 5.81882680185948e-03
7.25625000000000e-01 6.60987305453539e-01 5.80155860266380e-03
7.30232142857143e-01 6.56930222960586e-01 5.78422505244477e-03
7.34839285714286e-01 6.52898042485737e-01 5.76682850834737e-03
7.39446428571429e-01 6.48890611182594e-01 5.74937127994088e-03
7.44053571428571e-01 6.44907777142916e-01 5.73185563571737e-03
7.48660714285714e-01 6.40949389390853e-01 5.71428380204411e-03
7.53267857142857e-01 6.37015297877241e-01 5.69665796398700e-03
7.57875000000000e-01 6.33105353473901e-01 5.67898026439753e-03
7.62482142857143e-01 6.29219407972915e-01 5.66125280988068e-03
7.67089285714286e-01 6.25357314066153e-01 5.64347766809292e-03
7.71696428571429e-01 6.21518925354622e-01 5.62565686498122e-03
7.76303571428571e-01 6.17704096337917e-01 5.60779239079291e-03
7.80910714285714e-01 6.13912682408693e-01 5.58988619901641e-03
7.85517857142857e-01 6.10144539847201e-01 5.57194020707807e-03
7.90125000000000e-01 6.06399525815827e-01 5.55395629541335e-03
7.94732142857143e-01 6.02677498358208e-01 5.53593631299233e-03
7.99339285714286e-01 5.98978316380201e-01 5.51788207471726e-03
8.03946428571429e-01 5.95301839658257e-01 5.49979535876837e-03
8.08553571428571e-01 5.91647928829507e-01 5.48167791217524e-03
8.13160714285714e-01 5.88016445386475e-01 5.46353144976198e-03
8.17767857142857e-01 5.84407251671835e-01 5.44535765474105e-03
8.22375000000000e-01 5.80820210873191e-01 5.42715817778180e-03
8.26982142857143e-01 5.77255187022051e-01 5.40893464214328e-03
8.31589285714286e-01 5.73712044976116e-01 5.39068864117473e-03
8.36196428571429e-01 5.70190650426787e-01 5.37242173577010e-03
8.40803571428571e-01 5.66690869889837e-01 5.35413545954874e-03
8.45410714285714e-01 5.63212570700351e-01 5.33583131781428e-03
8.50017857142857e-01 5.59755621007701e-01 5.31751078806375e-03
8.54625000000000e-01 5.56319889770549e-01 5.29917531906575e-03
8.59232142857143e-01 5.52905246755715e-01 5.28082633563649e-03
8.63839285714286e-01 5.49511562521661e-01 5.26246523624793e-03
8.68446428571429e-01 5.46138708425231e-01 5.24409339059226e-03
8.73053571428571e-01 5.42786556612866e-01 5.22571214440789e-03
8.77660714285714e-01 5.39454980015758e-01 5.20732281846120e-03
8.82267857142857e-01 5.36143852345042e-01 5.18892670898549e-03
8.86875000000000e-01 5.32853048086998e-01 5.17052508677518e-03
8.91482142857143e-01 5.29582442501846e-01 5.15211920163924e-03
8.96089285714286e-01 5.26331911608322e-01 5.13371028011719e-03
9.00696428571429e-01 5.23101332189731e-01 5.11529952315238e-03
9.05303571428571e-01 5.19890581785669e-01 5.09688811059589e-03
9.09910714285714e-01 5.16699538687379e-01 5.07847720021667e-03
9.14517857142857e-01 5.13528081933146e-01 5.06006792808145e-03
9.19125000000000e-01 5.10376091303707e-01 5.04166140767097e-03
9.23732142857143e-01 5.07243447320970e-01 5.02325873404002e-03
9.28339285714286e-01 5.04130031233605e-01 5.00486098163770e-03
9.32946428571429e-01 5.01035725022475e-01 4.98646920208994e-03
9.37553571428571e-01 4.97960411392836e-01 4.96808442840859e-03
9.42160714285714e-01 4.94903973769884e-01 4.94970767403289e-03
9.46767857142857e-01 4.91866296294344e-01 4.93133993316063e-03
9.51375000000000e-01 4.88847263818075e-01 4.91298217988950e-03
9.55982142857143e-01 4.85846761902736e-01 4.89463537210792e-03
9.60589285714286e-01 4.82864676806307e-01 4.87630044941897e-03
9.65196428571429e-01 4.79900895487967e-01 4.85797833102873e-03
9.69803571428571e-01 4.76955305600731e-01 4.83966991968481e-03
9.74410714285714e-01 4.74027795487186e-01 4.82137610075214e-03
9.79017857142857e-01 4.71118254175265e-01 4.80309774250168e-03
9.83625000000000e-01 4.68226571374038e-01 4.78483569528032e-03
9.88232142857143e-01 4.65352637472337e-01 4.76659079515518e-03
9.92839285714286e-01 4.62496343526138e-01 4.74836386193658e-03
9.97446428571429e-01 4.59657581262940e-01 4.73015569716920e-03
1.00205357142857e+00 4.56836243074807e-01 4.71196708459509e-03
1.00666071428571e+00 4.54032222022328e-01 4.69379880649050e-03
1.01126785714286e+00 4.51245411787696e-01 4.67565161161690e-03
1.01587500000000e+00 4.48475706759159e-01 4.65752623048224e-03
1.02048214285714e+00 4.45723001946263e-01 4.63942340073077e-03
1.02508928571429e+00 4.42987193002984e-01 4.62134384482581e-03
1.02969642857143e+00 4.40268176198353e-01 4.60328825015600e-03
1.03430357142857e+00 4.37565848489290e-01 4.58525729017372e-03
1.03891071428571e+00 4.34880107439377e-01 4.56725165572677e-03
1.04351785714286e+00 4.32210851216335e-01 4.54927199310790e-03
1.04812500000000e+00 4.29557978662552e-01 4.53131893534420e-03
1.05273214285714e+00 4.26921389216324e-01 4.51339312294676e-03
1.05733928571429e+00 4.24300982933187e-01 4.49549518285983e-03
1.06194642857143e+00 4.21696660458532e-01 4.47762570968057e-03
1.06655357142857e+00 4.19108323095117e-01 4.45978528557739e-03
1.07116071428571e+00 4.16535872727539e-01 4.44197450983155e-03
1.07576785714286e+00 4.13979211819750e-01 4.42419394039296e-03
1.08037500000000e+00 4.11438243480480e-01 4.40644412337486e-03
1.08498214285714e+00 4.08912871389953e-01 4.38872561261788e-03
1.08958928571429e+00 4.06402999819602e-01 4.37103894982485e-03
1.09419642857143e+00 4.03908533606493e-01 4.35338464682304e-03
1.09880357142857e+00 4.01429378215983e-01 4.33576320434504e-03
1.10341071428571e+00 3.98965439671409e-01 4.31817513989557e-03
1.10801785714286e+00 3.96516624551663e-01 4.30062093259027e-03
1.11262500000000e+00 3.94082840051920e-01 4.28310105097457e-03
1.11723214285714e+00 3.91663993915402e-01 4.26561597147829e-03
1.12183928571429e+00 3.89259994451594e-01 4.24816615966159e-03
1.12644642857143e+00 3.86870750512364e-01 4.23075205345537e-03
1.13105357142857e+00 3.84496171550143e-01 4.21337408087945e-03
1.13566071428571e+00 3.82136167552426e-01 4.19603268634194e-03
1.14026785714286e+00 3.79790649039405e-01 4.17872827855410e-03
1.14487500000000e+00 3.77459527120388e-01 4.16146125678223e-03
1.14948214285714e+00 3.75142713430204e-01 4.14423202826251e-03
1.15408928571429e+00 3.72840120146061e-01 4.12704099048901e-03
1.15869642857143e+00 3.70551659965213e-01 4.10988851537600e-03
1.16330357142857e+00 3.68277246159041e-01 4.09277496597835e-03
1.16791071428571e+00 3.66016792511980e-01 4.07570072132171e-03
1.17251785714286e+00 3.63770213319213e-01 4.05866612720604e-03
1.17712500000000e+00 3.61537423439129e-01 4.04167152098743e-03
1.18173214285714e+00 3.59318338234008e-01 4.02471724801913e-03
1.18633928571429e+00 3.57112873585629e-01 4.00780364491866e-03
1.19094642857143e+00 3.54920945874373e-01 3.99093102459488e-03
1.19555357142857e+00 3.52742472029532e-01 3.97409969203429e-03
1.20016071428571e+00 3.50577369472317e-01 3.95730996775528e-03
1.20476785714286e+00 3.48425556113615e-01 3.94056214132114e-03
1.20937500000000e+00 3.46286950402800e-01 3.92385649474370e-03
1.21398214285714e+00 3.44161471272370e-01 3.90719331801294e-03
1.21858928571429e+00 3.42049038152408e-01 3.89057289328276e-03
1.22319642857143e+00 3.39949570951014e-01 3.87399548071013e-03
1.22780357142857e+00 3.37862990101138e-01 3.85746133336756e-03
1.23241071428571e+00 3.35789216507357e-01 3.84097071940537e-03
1.23701785714286e+00 3.33728171543698e-01 3.82452387810770e-03
1.24162500000000e+00 3.31679777099093e-01 3.80812104200624e-03
1.24623214285714e+00 3.29643955525654e-01 3.79176245155318e-03
1.25083928571429e+00 3.27620629652093e-01 3.77544834016948e-03
1.25544642857143e+00 3.25609722765379e-01 3.75917892085012e-03
1.26005357142857e+00 3.23611158654369e-01 3.74295440025485e-03
1.26466071428571e+00 3.21624861560072e-01 3.72677499965712e-03
1.26926785714286e+00 3.19650756173533e-01 3.71064091339266e-03
1.27387500000000e+00 3.17688767678188e-01 3.69455232975856e-03
1.27848214285714e+00 3.15738821701520e-01 3.67850944488347e-03
1.28308928571429e+00 3.13800844327507e-01 3.66251244858813e-03
1.28769642857143e+00 3.11874762079420e-01 3.64656151170982e-03
1.29230357142857e+00 3.09960501960503e-01 3.63065679942227e-03
1.29691071428571e+00 3.08057991407455e-01 3.61479849104430e-03
1.30151785714286e+00 3.06167158288383e-01 3.59898674073722e-03
1.30612500000000e+00 3.04287930942298e-01 3.58322169726505e-03
1.31073214285714e+00 3.02420238133889e-01 3.56750351710960e-03
1.31533928571429e+00 3.00564009065081e-01 3.55183235109440e-03
1.31994642857143e+00 2.98719173358906e-01 3.53620833238645e-03
1.32455357142857e+00 2.96885661097432e-01 3.52063158909160e-03
1.32916071428571e+00 2.95063402778249e-01 3.50510226299286e-03
1.33376785714286e+00 2.93252329312481e-01 3.48962047236230e-03
1.33837500000000e+00 2.91452372061632e-01 3.47418633065020e-03
1.34298214285714e+00 2.89663462795263e-01 3.45879995889078e-03
1.34758928571429e+00 2.87885533701727e-01 3.44346147304437e-03
1.35219642857143e+00 2.86118517373026e-01 3.42817097263797e-03
1.35680357142857e+00 2.84362346840217e-01 3.41292855267948e-03
1.36141071428571e+00 2.82616955532661e-01 3.39773432138712e-03
1.36601785714286e+00 2.80882277276109e-01 3.38258836499331e-03
1.37062500000000e+00 2.79158246327093e-01 3.36749076542709e-03
1.37523214285714e+00 2.77444797333291e-01 3.35244161205139e-03
1.37983928571429e+00 2.75741865343512e-01 3.33744098968197e-03
1.38444642857143e+00 2.74049385793463e-01 3.32248896782958e-03
1.38905357142857e+00 2.72367294538819e-01 3.30758561197332e-03
1.39366071428571e+00 2.70695527817046e-01 3.29273100034182e-03
1.39826785714286e+00 2.69034022245549e-01 3.27792519059193e-03
1.40287500000000e+00 2.67382714853794e-01 3.26316823654314e-03
1.40748214285714e+00 2.65741543046175e-01 3.24846019928698e-03
1.41208928571429e+00 2.64110444611289e-01 3.23380113584259e-03
1.41669642857143e+00 2.62489357708574e-01 3.21919108896659e-03
1.42130357142857e+00 2.60878220899198e-01 3.20463009782364e-03
1.42591071428571e+00 2.59276973110279e-01 3.19011821387305e-03
1.43051785714286e+00 2.57685553633095e-01 3.17565546931583e-03
1.43512500000000e+00 2.56103902153102e-01 3.16124189293583e-03
1.43973214285714e+00 2.54531958715119e-01 3.14687752061658e-03
1.44433928571429e+00 2.52969663731969e-01 3.13256238459840e-03
1.44894642857143e+00 2.51416957971901e-01 3.11829650382387e-03
1.45355357142857e+00 2.49873782587473e-01 3.10407989403959e-03
