Energy (eV)          EEDF (eV^-(3/2))     First Anisotropy
1.75909090909091e-02 9.36641249093895e-01 1.03608663783926e-03
5.27727272727273e-02 9.07679517159907e-01 1.69010450463975e-03
8.79545454545455e-02 8.79613306235138e-01 2.17677687802173e-03
1.23136363636364e-01 8.52414925930351e-01 2.51498751482691e-03
1.58318181818182e-01 8.26057542415836e-01 2.77206934193777e-03
1.93500000000000e-01 8.00515151321155e-01 2.97447691555780e-03
2.28681818181818e-01 7.75762552376379e-01 3.13639268900345e-03
2.63863636363636e-01 7.51775324536603e-01 3.26666682427886e-03
2.99045454545455e-01 7.28529801882182e-01 3.37135053913167e-03
3.34227272727273e-01 7.06003050197418e-01 3.45484271753020e-03
3.69409090909091e-01 6.84172844557559e-01 3.52048457379640e-03
4.04590909090909e-01 6.63017647171810e-01 3.57089880891312e-03
4.39772727272727e-01 6.42516586215855e-01 3.60819717858654e-03
4.74954545454545e-01 6.22649435241786e-01 3.63411469551498e-03
5.10136363636364e-01 6.03396593183226e-01 3.65010027133516e-03
5.45318181818182e-01 5.84739065134719e-01 3.65738019340627e-03
5.80500000000000e-01 5.66658443486985e-01 3.65700393235522e-03
6.15681818181818e-01 5.49136889809506e-01 3.64987804614437e-03
6.50863636363636e-01 5.32157117251289e-01 3.63679184562393e-03
6.86045454545455e-01 5.15702373485659e-01 3.61843719417501e-03
7.21227272727273e-01 4.99756424160415e-01 3.59542403711688e-03
7.56409090909091e-01 4.84303536948352e-01 3.56829277345642e-03
7.91590909090909e-01 4.69328465955314e-01 3.53752423988250e-03
8.26772727272727e-01 4.54816436702856e-01 3.50354785759299e-03
8.61954545454545e-01 4.40753131552111e-01 3.46674836197691e-03
8.97136363636364e-01 4.27124675562778e-01 3.42747140640953e-03
9.32318181818182e-01 4.13917622850293e-01 3.38602827762569e-03
9.67500000000000e-01 4.01118943271993e-01 3.34269989213325e-03
1.00268181818182e+00 3.88716009588129e-01 3.29774020525835e-03
1.03786363636364e+00 3.76696584969105e-01 3.25137913695592e-03
1.07304545454545e+00 3.65048811008462e-01 3.20382510035781e-03
1.10822727272727e+00 3.53761196059160e-01 3.15526723014565e-03
1.14340909090909e+00 3.42822603599341e-01 3.10587728964039e-03
1.17859090909091e+00 3.32222241563443e-01 3.05581134775277e-03
1.21377272727273e+00 3.21949651584719e-01 3.00521129253680e-03
1.24895454545455e+00 3.11994698678451e-01 2.95420613903549e-03
1.28413636363636e+00 3.02347561315380e-01 2.90291321965858e-03
1.31931818181818e+00 2.92998721505421e-01 2.85143922061584e-03
1.35450000000000e+00 2.83938955639894e-01 2.79988110776587e-03
1.38968181818182e+00 2.75159325311461e-01 2.74832698573995e-03
1.42486363636364e+00 2.66651168495743e-01 2.69685684940496e-03
1.46004545454545e+00 2.58406091005519e-01 2.64554326353477e-03
1.49522727272727e+00 2.50415958261032e-01 2.59445199377645e-03
1.53040909090909e+00 2.42672887103392e-01 2.54364255909505e-03
1.56559090909091e+00 2.35169238182392e-01 2.49316873249970e-03
1.60077272727273e+00 2.27897608362576e-01 2.44307901851890e-03
1.63595454545455e+00 2.20850823419862e-01 2.39341706848719e-03
1.67113636363636e+00 2.14021931002896e-01 2.34422207720075e-03
1.70631818181818e+00 2.07404193651383e-01 2.29552912991004e-03
1.74150000000000e+00 2.00991082274575e-01 2.24736951934023e-03
1.77668181818182e+00 1.94776269666529e-01 2.19977105408033e-03
1.81186363636364e+00 1.88753624263767e-01 2.15275832817956e-03
1.84704545454545e+00 1.82917204095937e-01 2.10635297005420e-03
1.88222727272727e+00 1.77261250952629e-01 2.06057388185088e-03
1.91740909090909e+00 1.71780184612196e-01 2.01543744760898e-03
1.95259090909091e+00 1.66468597428725e-01 1.97095772460361e-03
1.98777272727273e+00 1.61321248965079e-01 1.92714663372416e-03
2.02295454545455e+00 1.56333060822929e-01 1.88401412258849e-03
2.05813636363636e+00 1.51499111655054e-01 1.84156832740691e-03
2.09331818181818e+00 1.46814632239766e-01 1.79981571257503e-03
2.12850000000000e+00 1.42275000847517e-01 1.75876119937392e-03
2.16368181818182e+00 1.37875738656434e-01 1.71840829640203e-03
2.19886363636364e+00 1.33612505333545e-01 1.67875921168975e-03
2.23404545454545e+00 1.29481094752633e-01 1.63981495726461e-03
2.26922727272727e+00 1.25477430861558e-01 1.60157545272222e-03
2.30440909090909e+00 1.21597563608068e-01 1.56403961330189e-03
2.33959090909091e+00 1.17837665096722e-01 1.52720543121502e-03
2.37477272727273e+00 1.14194025793734e-01 1.49107006000492e-03
2.40995454545455e+00 1.10663050867255e-01 1.45562988461651e-03
2.44513636363636e+00 1.07241256654202e-01 1.42088059363258e-03
2.48031818181818e+00 1.03925267181554e-01 1.38681723976383e-03
2.51550000000000e+00 1.00711810878341e-01 1.35343429569572e-03
2.55068181818182e+00 9.75977173332681e-02 1.32072571325075e-03
2.58586363636364e+00 9.45799141668041e-02 1.28868497265139e-03
2.62104545454545e+00 9.16554239999747e-02 1.25730512866982e-03
2.65622727272727e+00 8.88213615272043e-02 1.22657885779263e-03
2.69140909090909e+00 8.60749306378329e-02 1.19649849677554e-03
2.72659090909091e+00 8.34134216900677e-02 1.16705607816333e-03
2.76177272727273e+00 8.08342088264665e-02 1.13824336904818e-03
2.79695454545455e+00 7.83347473833232e-02 1.11005190163170e-03
2.83213636363636e+00 7.59125713883401e-02 1.08247300627000e-03
2.86731818181818e+00 7.35652911022396e-02 1.05549783778077e-03
2.90250000000000e+00 7.12905906871027e-02 1.02911739959401e-03
2.93768181818182e+00 6.90862259126381e-02 1.00332257090632e-03
2.97286363636364e+00 6.69500219420284e-02 9.78104128088149e-04
3.00804545454545e+00 6.48798711862369e-02 9.53452764738291e-04
3.04322727272727e+00 6.28737312310310e-02 9.29359113064239e-04
3.07840909090909e+00 6.09296228022938e-02 9.05813760180071e-04
3.11359090909091e+00 5.90456278333687e-02 8.82807262957002e-04
3.14877272727273e+00 5.72198875658028e-02 8.60330165531789e-04
3.18395454545455e+00 5.54506007155245e-02 8.38373011876526e-04
3.21913636363636e+00 5.37360217008240e-02 8.16926360462972e-04
3.25431818181818e+00 5.20744589043248e-02 7.95980794876398e-04
3.28950000000000e+00 5.04642730202338e-02 7.75526933386959e-04
3.32468181818182e+00 4.89038754314546e-02 7.55555440876544e-04
3.35986363636364e+00 4.73917266422581e-02 7.36057037290221e-04
3.39504545454545e+00 4.59263347594149e-02 7.17022505502051e-04
3.43022727272727e+00 4.45062540242908e-02 6.98442700362224e-04
3.46540909090909e+00 4.31300833741402e-02 6.80308554636635e-04
3.50059090909091e+00 4.17964650724174e-02 6.62611084241462e-04
3.53577272727273e+00 4.05040833649146e-02 6.45341395492341e-04
3.57095454545455e+00 3.92516631816532e-02 6.28490689289566e-04
3.60613636363636e+00 3.80379688821381e-02 6.12050266917200e-04
3.64131818181818e+00 3.68618030262766e-02 5.96011533337990e-04
3.67650000000000e+00 3.57220052032064e-02 5.80365999981001e-04
3.71168181818182e+00 3.46174508829346e-02 5.65105289282672e-04
3.74686363636364e+00 3.35470503068750e-02 5.50221137072900e-04
3.78204545454545e+00 3.25097474126911e-02 5.35705394726389e-04
3.81722727272727e+00 3.15045187949251e-02 5.21550032256778e-04
3.85240909090909e+00 3.05303726874765e-02 5.07747139468779e-04
3.88759090909091e+00 2.95863479931294e-02 4.94288926770781e-04
3.92277272727273e+00 2.86715133325912e-02 4.81167727464875e-04
3.95795454545455e+00 2.77849661256009e-02 4.68375998100380e-04
3.99313636363636e+00 2.69258317025132e-02 4.55906320024803e-04
4.02831818181818e+00 2.60932624349616e-02 4.43751399358528e-04
4.06350000000000e+00 2.52864369061171e-02 4.31904066729495e-04
4.09868181818182e+00 2.45045590980429e-02 4.20357278282910e-04
4.13386363636364e+00 2.37468576063423e-02 4.09104115332904e-04
4.16904545454545e+00 2.30125848790891e-02 3.98137783941690e-04
4.20422727272727e+00 2.23010164809249e-02 3.87451615216541e-04
4.23940909090909e+00 2.16114503733024e-02 3.77039064375668e-04
4.27459090909091e+00 2.09432062269929e-02 3.66893709658947e-04
4.30977272727273e+00 2.02956247491127e-02 3.57009252305047e-04
4.34495454545455e+00 1.96680670326684e-02 3.47379515289309e-04
4.38013636363636e+00 1.90599139275465e-02 3.37998442933732e-04
4.41531818181818e+00 1.84705654255400e-02 3.28860099512796e-04
4.45050000000000e+00 1.78994400725895e-02 3.19958667754542e-04
4.48568181818182e+00 1.73459743936799e-02 3.11288448258023e-04
4.52086363636364e+00 1.68096223369146e-02 3.02843858045426e-04
4.55604545454545e+00 1.62898547347791e-02 2.94619429114530e-04
4.59122727272727e+00 1.57861587831220e-02 2.86609807524788e-04
4.62640909090909e+00 1.52980375319640e-02 2.78809751695235e-04
4.66159090909091e+00 1.48250093985359e-02 2.71214130640464e-04
4.69677272727273e+00 1.43666076910079e-02 2.63817922969971e-04
4.73195454545455e+00 1.39223801480539e-02 2.56616215087475e-04
4.76713636363636e+00 1.34918884935183e-02 2.49604200019118e-04
4.80231818181818e+00 1.30747080013346e-02 2.42777175596577e-04
4.83750000000000e+00 1.26704270792260e-02 2.36130542603364e-04
4.87268181818182e+00 1.22786468616925e-02 2.29659803575565e-04
4.90786363636364e+00 1.18989808164886e-02 2.23360561046973e-04
4.94304545454545e+00 1.15310543632698e-02 2.17228515824166e-04
4.97822727272727e+00 1.11745045047213e-02 2.11259465652961e-04
5.01340909090909e+00 1.08289794662994e-02 2.05449303376789e-04
5.04859090909091e+00 1.04941383513412e-02 1.99794015079171e-04
5.08377272727273e+00 1.01696508039926e-02 1.94289678770162e-04
5.11895454545455e+00 9.85519668327986e-03 1.88932462553061e-04
5.15413636363636e+00 9.55046574782679e-03 1.83718623242024e-04
5.18931818181818e+00 9.25515734801768e-03 1.78644504562796e-04
5.22450000000000e+00 8.96898013116632e-03 1.73706535349515e-04
5.25968181818182e+00 8.69165175345472e-03 1.68901228207231e-04
5.29486363636364e+00 8.42289860137182e-03 1.64225177815757e-04
5.33004545454545e+00 8.16245552176558e-03 1.59675059272416e-04
5.36522727272727e+00 7.91006556069570e-03 1.55247626719458e-04
5.40040909090909e+00 7.66547970852725e-03 1.50939711642324e-04
5.43559090909091e+00 7.42845665568275e-03 1.46748221173507e-04
5.47077272727273e+00 7.19876255407790e-03 1.42670136783017e-04
5.50595454545455e+00 6.97617078640749e-03 1.38702512629637e-04
5.54113636363636e+00 6.76046174293863e-03 1.34842474234375e-04
5.57631818181818e+00 6.55142260369015e-03 1.31087216883358e-04
5.61150000000000e+00 6.34884712964224e-03 1.27434004041428e-04
5.64668181818182e+00 6.15253545885773e-03 1.23880166096498e-04
5.68186363636364e+00 5.96229390929772e-03 1.20423098871469e-04
5.71704545454545e+00 5.77793478773421e-03 1.17060262174493e-04
5.75222727272727e+00 5.59927620487079e-03 1.13789178555216e-04
5.78740909090909e+00 5.42614189496957e-03 1.10607431847033e-04
5.82259090909091e+00 5.25836104288768e-03 1.07512665723659e-04
5.85777272727273e+00 5.09576811522885e-03 1.04502582530101e-04
5.89295454545455e+00 4.93820269702837e-03 1.01574941891469e-04
5.92813636363636e+00 4.78550933373492e-03 9.87275595515198e-05
5.96331818181818e+00 4.63753737707607e-03 9.59583060350958e-05
5.99850000000000e+00 4.49414083720756e-03 9.32651053265166e-05
6.03368181818182e+00 4.35517823841304e-03 9.06459337826131e-05
6.06886363636364e+00 4.22051247952365e-03 8.80988188947336e-05
6.10404545454545e+00 4.09001069865352e-03 8.56218380846435e-05
6.13922727272727e+00 3.96354414231633e-03 8.32131176489255e-05
6.17440909090909e+00 3.84098803778643e-03 8.08708315639288e-05
6.20959090909091e+00 3.72222147062135e-03 7.85932003073673e-05
6.24477272727273e+00 3.60712726515403e-03 7.63784898744916e-05
6.27995454545455e+00 3.49559186888733e-03 7.42250106484057e-05
6.31513636363636e+00 3.38750524062744e-03 7.21311164339803e-05
6.35031818181818e+00 3.28276074141027e-03 7.00952033768981e-05
6.38550000000000e+00 3.18125502980880e-03 6.81157088992876e-05
6.42068181818182e+00 3.08288795979923e-03 6.61911108017198e-05
6.45586363636364e+00 2.98756248195663e-03 6.43199262668970e-05
6.49104545454545e+00 2.89518454770556e-03 6.25007108916184e-05
6.52622727272727e+00 2.80566301666364e-03 6.07320578255514e-05
6.56140909090909e+00 2.71890956631588e-03 5.90125968189669e-05
6.59659090909091e+00 2.63483860529052e-03 5.73409932864166e-05
6.63177272727273e+00 2.55336718877244e-03 5.57159475083294e-05
6.66695454545455e+00 2.47441493666979e-03 5.41361937366700e-05
6.70213636363636e+00 2.39790395442050e-03 5.26004994170009e-05
6.73731818181818e+00 2.32375875580346e-03 5.11076643355227e-05
6.77250000000000e+00 2.25190618880873e-03 4.96565197812555e-05
6.80768181818182e+00 2.18227536334766e-03 4.82459278261360e-05
6.84286363636364e+00 2.11479758131242e-03 4.68747805410598e-05
6.87804545454545e+00 2.04940626879823e-03 4.55419992346981e-05
6.91322727272727e+00 1.98603691050961e-03 4.42465337689935e-05
6.94840909090909e+00 1.92462698583799e-03 4.29873618151742e-05
6.98359090909091e+00 1.86511590745594e-03 4.17634881237297e-05
7.01877272727273e+00 1.80744496144676e-03 4.05739438921347e-05
7.05395454545455e+00 1.75155724937733e-03 3.94177860693888e-05
7.08913636363636e+00 1.69739763223533e-03 3.82940967433357e-05
7.12431818181818e+00 1.64491267580293e-03 3.72019824789561e-05
7.15950000000000e+00 1.59405059816933e-03 3.61405736695805e-05
7.19468181818182e+00 1.54476121856370e-03 3.51090239716698e-05
7.22986363636364e+00 1.49699590784660e-03 3.41065096978470e-05
7.26504545454545e+00 1.45070754053234e-03 3.31322292278446e-05
7.30022727272727e+00 1.40585044835395e-03 3.21854024744295e-05
7.33540909090909e+00 1.36238037502487e-03 3.12652703104487e-05
7.37059090909091e+00 1.32025443276132e-03 3.03710940075067e-05
7.40577272727273e+00 1.27943105990563e-03 2.95021547439176e-05
7.44095454545455e+00 1.23986997992144e-03 2.86577530710065e-05
7.47613636363636e+00 1.20153216170601e-03 2.78372084382668e-05
7.51131818181818e+00 1.16437978093038e-03 2.70398586864761e-05
7.54650000000000e+00 1.12837618287668e-03 2.62650595513950e-05
7.58168181818182e+00 1.09348584622157e-03 2.55121842266948e-05
7.61686363636364e+00 1.05967434799072e-03 2.47806228996824e-05
7.65204545454545e+00 1.02690832959703e-03 2.40697823008826e-05
7.68722727272727e+00 9.95155463968655e-04 2.33790852929989e-05
7.72240909090909e+00 9.64384423532794e-04 2.27079704344714e-05
7.75759090909091e+00 9.34564849432672e-04 2.20558915524144e-05
7.79277272727273e+00 9.05667321532723e-04 2.14223173646492e-05
7.82795454545455e+00 8.77663329392632e-04 2.08067310742790e-05
7.86313636363636e+00 8.50525244172037e-04 2.02086300060950e-05
7.89831818181818e+00 8.24226291269740e-04 1.96275252220517e-05
7.93350000000000e+00 7.98740524012068e-04 1.90629411451871e-05
7.96868181818182e+00 7.74042798018191e-04 1.85144152255182e-05
8.00386363636364e+00 7.50108746392573e-04 1.79814975882295e-05
8.03904545454546e+00 7.26914755684496e-04 1.74637506924484e-05
8.07422727272727e+00 7.04437942617751e-04 1.69607490182040e-05
8.10940909090909e+00 6.82656131431552e-04 1.64720787367991e-05
8.14459090909091e+00 6.61547832085992e-04 1.59973373885822e-05
8.17977272727273e+00 6.41092219031150e-04 1.55361335955175e-05
8.21495454545455e+00 6.21269110660565e-04 1.50880867556507e-05
8.25013636363636e+00 6.02058949422386e-04 1.46528267673078e-05
8.28531818181818e+00 5.83442782454967e-04 1.42299937396327e-05
8.32050000000000e+00 5.65402242958241e-04 1.38192377097324e-05
8.35568181818182e+00 5.47919532048955e-04 1.34202183895782e-05
8.39086363636364e+00 5.30977401200222e-04 1.30326049013939e-05
8.42604545454545e+00 5.14559135224049e-04 1.26560755210578e-05
8.46122727272727e+00 4.98648535798186e-04 1.22903174416630e-05
8.49640909090909e+00 4.83229905429164e-04 1.19350265262610e-05
8.53159090909091e+00 4.68288032021924e-04 1.15899070663483e-05
8.56677272727273e+00 4.53808173852099e-04 1.12546715650230e-05
8.60195454545454e+00 4.39776045021791e-04 1.09290405082083e-05
8.63713636363636e+00 4.26177801380200e-04 1.06127421570075e-05
8.67231818181818e+00 4.13000026818382e-04 1.03055123311559e-05
8.70750000000000e+00 4.00229720080418e-04 1.00070941975725e-05
8.74268181818182e+00 3.87854281920095e-04 9.71723808000605e-06
8.77786363636364e+00 3.75861502670435e-04 9.43570126121107e-06
8.81304545454545e+00 3.64239550197588e-04 9.16224779114363e-06
8.84822727272727e+00 3.52976958239461e-04 8.89664830956969e-06
8.88340909090909e+00 3.42062615055412e-04 8.63867986163038e-06
8.91859090909091e+00 3.31485752501826e-04 8.38812571781236e-06
8.95377272727273e+00 3.21235935395082e-04 8.14477521140787e-06
8.98895454545455e+00 3.11303051216188e-04 7.90842356811745e-06
9.02413636363636e+00 3.01677300143979e-04 7.67887175066982e-06
9.05931818181818e+00 2.92349185355053e-04 7.45592629765159e-06
9.09450000000000e+00 2.83309503686375e-04 7.23939916622906e-06
9.12968181818182e+00 2.74549336544407e-04 7.02910758982717e-06
9.16486363636364e+00 2.66060041105987e-04 6.82487393097440e-06
9.20004545454545e+00 2.57833241791284e-04 6.62652553864207e-06
9.23522727272727e+00 2.49860822008729e-04 6.43389461588355e-06
9.27040909090909e+00 2.42134916121626e-04 6.24681808289855e-06
9.30559090909091e+00 2.34647901713963e-04 6.06513744344341e-06
9.34077272727273e+00 2.27392392061202e-04 5.88869866364367e-06
9.37595454545455e+00 2.20361228842519e-04 5.71735204563756e-06
9.41113636363636e+00 2.13547475085338e-04 5.55095211189230e-06
9.44631818181818e+00 2.06944408299888e-04 5.38935748576399e-06
9.48150000000000e+00 2.00545513868630e-04 5.23243077500297e-06
9.51668181818182e+00 1.94344478611447e-04 5.08003846586625e-06
9.55186363636364e+00 1.88335184557035e-04 4.93205081411176e-06
9.58704545454546e+00 1.82511702906888e-04 4.78834173933146e-06
9.62222727272727e+00 1.76868288191563e-04 4.64878872664298e-06
9.65740909090909e+00 1.71399372584843e-04 4.51327272541807e-06
9.69259090909091e+00 1.66099560428208e-04 4.38167805053338e-06
9.72777272727273e+00 1.60963622901410e-04 4.25389229241702e-06
9.76295454545455e+00 1.55986492863705e-04 4.12980622369971e-06
9.79813636363636e+00 1.51163259859324e-04 4.00931371345139e-06
9.83331818181818e+00 1.46489165258255e-04 3.89231163898839e-06
9.86850000000000e+00 1.41959597576215e-04 3.77869979989450e-06
9.90368181818182e+00 1.37570087919873e-04 3.66838083956521e-06
9.93886363636364e+00 1.33316305577820e-04 3.56126016474865e-06
9.97404545454545e+00 1.29194053747871e-04 3.45724586755697e-06
1.00092272727273e+01 1.25199265400323e-04 3.35624865423299e-06
1.00444090909091e+01 1.21327999246171e-04 3.25818176445801e-06
1.00795909090909e+01 1.17576435890670e-04 3.16296090473723e-06
1.01147727272727e+01 1.13940874022541e-04 3.07050418512790e-06
1.01499545454545e+01 1.10417726778204e-04 2.98073204944184e-06
1.01851363636364e+01 1.07003518170642e-04 2.89356719323481e-06
1.02203181818182e+01 1.03694879759002e-04 2.80893451376032e-06
1.02555000000000e+01 1.00488547223997e-04 2.72676106260489e-06
1.02906818181818e+01 9.73813571818367e-05 2.64697596364906e-06
1.03258636363636e+01 9.43702440632256e-05 2.56951036207457e-06
1.03610454545455e+01 9.14522370888727e-05 2.49429737289191e-06
1.03962272727273e+01 8.86244573123007e-05 2.42127200920858e-06
1.04314090909091e+01 8.58841148597800e-05 2.35037113955591e-06
1.04665909090909e+01 8.32285060956909e-05 2.28153344746578e-06
1.05017727272727e+01 8.06550109830863e-05 2.21469936267801e-06
1.05369545454545e+01 7.81610904987950e-05 2.14981102239986e-06
1.05721363636364e+01 7.57442841063652e-05 2.08681220931655e-06
1.06073181818182e+01 7.34022073960164e-05 2.02564831426745e-06
1.06425000000000e+01 7.11325496631119e-05 1.96626630086712e-06
1.06776818181818e+01 6.89330716519429e-05 1.90861464611517e-06
1.07128636363636e+01 6.68016033464771e-05 1.85264330265068e-06
1.07480454545455e+01 6.47360418294174e-05 1.79830366074853e-06
1.07832272727273e+01 6.27343491895713e-05 1.74554849630608e-06
1.08184090909091e+01 6.07945505660466e-05 1.69433193909412e-06
1.08535909090909e+01 5.89147321437966e-05 1.64460944263844e-06
1.08887727272727e+01 5.70930392845362e-05 1.59633773444888e-06
1.09239545454545e+01 5.53276746969755e-05 1.54947478719739e-06
1.09591363636364e+01 5.36168966485512e-05 1.50397977379398e-06
1.09943181818182e+01 5.19590172931349e-05 1.45981303966855e-06
1.10295000000000e+01 5.03524009586449e-05 1.41693607646151e-06
1.10646818181818e+01 4.87954625493543e-05 1.37531147907576e-06
1.10998636363636e+01 4.72866659820330e-05 1.33490291782843e-06
