Energy (eV)          EEDF (eV^-(3/2))     First Anisotropy
2.34375000000000e-02 4.39857503268426e-02 2.06440442124316e-05
7.03125000000000e-02 4.37489173322035e-02 3.41120894247462e-05
1.17187500000000e-01 4.35133595201253e-02 4.50925429253389e-05
1.64062500000000e-01 4.32790700247240e-02 5.34715403494101e-05
2.10937500000000e-01 4.30460420170057e-02 6.04904759598465e-05
2.57812500000000e-01 4.28142687047337e-02 6.66176893324210e-05
3.04687500000000e-01 4.25837433322394e-02 7.20950496016573e-05
3.51562500000000e-01 4.23544591802273e-02 7.70683221346293e-05
3.98437500000000e-01 4.21264095655802e-02 8.16339897743847e-05
4.45312500000000e-01 4.18995878411644e-02 8.58601103138423e-05
4.92187500000000e-01 4.16739873956365e-02 8.97969646953681e-05
5.39062500000000e-01 4.14496016532503e-02 9.34830352254796e-05
5.85937500000000e-01 4.12264240736655e-02 9.69486070945842e-05
6.32812500000000e-01 4.10044481517571e-02 1.00218059821449e-04
6.79687500000000e-01 4.07836674174256e-02 1.03311390203029e-04
7.26562500000000e-01 4.05640754354083e-02 1.06245261346970e-04
7.73437500000000e-01 4.03456658050923e-02 1.09033747170374e-04
8.20312500000000e-01 4.01284321603273e-02 1.11688874338222e-04
8.67187500000000e-01 3.99123681692406e-02 1.14221025450890e-04
9.14062500000000e-01 3.96974675340520e-02 1.16639244749410e-04
9.60937500000000e-01 3.94837239908907e-02 1.18951473801838e-04
1.00781250000000e+00 3.92711313096124e-02 1.21164735908785e-04
1.05468750000000e+00 3.90596832936179e-02 1.23285282297569e-04
1.10156250000000e+00 3.88493737796725e-02 1.25318709400760e-04
1.14843750000000e+00 3.86401966377260e-02 1.27270053947791e-04
1.19531250000000e+00 3.84321457707347e-02 1.29143870817557e-04
1.24218750000000e+00 3.82252151144830e-02 1.30944297342735e-04
1.28906250000000e+00 3.80193986374069e-02 1.32675106855026e-04
1.33593750000000e+00 3.78146903404184e-02 1.34339753604256e-04
1.38281250000000e+00 3.76110842567303e-02 1.35941410700475e-04
1.42968750000000e+00 3.74085744516826e-02 1.37483002366844e-04
1.47656250000000e+00 3.72071550225693e-02 1.38967231518438e-04
1.52343750000000e+00 3.70068200984663e-02 1.40396603474049e-04
1.57031250000000e+00 3.68075638400606e-02 1.41773446447881e-04
1.61718750000000e+00 3.66093804394795e-02 1.43099929343427e-04
1.66406250000000e+00 3.64122641201222e-02 1.44378077274204e-04
1.71093750000000e+00 3.62162091364906e-02 1.45609785158962e-04
1.75781250000000e+00 3.60212097740222e-02 1.46796829677579e-04
1.80468750000000e+00 3.58272603489236e-02 1.47940879824863e-04
1.85156250000000e+00 3.56343552080044e-02 1.49043506259528e-04
1.89843750000000e+00 3.54424887285132e-02 1.50106189613721e-04
1.94531250000000e+00 3.52516553179729e-02 1.51130327902132e-04
1.99218750000000e+00 3.50618494140182e-02 1.52117243148077e-04
2.03906250000000e+00 3.48730654842331e-02 1.53068187326377e-04
2.08593750000000e+00 3.46852980259903e-02 1.53984347707895e-04
2.13281250000000e+00 3.44985415662898e-02 1.54866851678497e-04
2.17968750000000e+00 3.43127906616004e-02 1.55716771094867e-04
2.22656250000000e+00 3.41280398977003e-02 1.56535126230975e-04
2.27343750000000e+00 3.39442838895197e-02 1.57322889361711e-04
2.32031250000000e+00 3.37615172809835e-02 1.58080988024147e-04
2.36718750000000e+00 3.35797347448556e-02 1.58810307991530e-04
2.41406250000000e+00 3.33989309825834e-02 1.59511695990674e-04
2.46093750000000e+00 3.32191007241432e-02 1.60185962189616e-04
2.50781250000000e+00 3.30402387278868e-02 1.60833882479149e-04
2.55468750000000e+00 3.28623397803887e-02 1.61456200568990e-04
2.60156250000000e+00 3.26853986962941e-02 1.62053629916846e-04
2.64843750000000e+00 3.25094103181678e-02 1.62626855506620e-04
2.69531250000000e+00 3.23343695163437e-02 1.63176535490155e-04
2.74218750000000e+00 3.21602711887757e-02 1.63703302705225e-04
2.78906250000000e+00 3.19871102608885e-02 1.64207766081157e-04
2.83593750000000e+00 3.18148816854298e-02 1.64690511942241e-04
2.88281250000000e+00 3.16435804423235e-02 1.65152105218017e-04
2.92968750000000e+00 3.14732015385230e-02 1.65593090568547e-04
2.97656250000000e+00 3.13037400078660e-02 1.66013993431980e-04
3.02343750000000e+00 3.11351909109294e-02 1.66415321000961e-04
3.07031250000000e+00 3.09675493348855e-02 1.66797563133796e-04
3.11718750000000e+00 3.08008103933589e-02 1.67161193205778e-04
3.16406250000000e+00 3.06349692262839e-02 1.67506668905376e-04
3.21093750000000e+00 3.04700209997629e-02 1.67834432979778e-04
3.25781250000000e+00 3.03059609059255e-02 1.68144913933677e-04
3.30468750000000e+00 3.01427841627885e-02 1.68438526684879e-04
3.35156250000000e+00 2.99804860141162e-02 1.68715673180086e-04
3.39843750000000e+00 2.98190617292821e-02 1.68976742973766e-04
3.44531250000000e+00 2.96585066031309e-02 1.69222113772865e-04
3.49218750000000e+00 2.94988159558411e-02 1.69452151949829e-04
3.53906250000000e+00 2.93399851327889e-02 1.69667213026190e-04
3.58593750000000e+00 2.91820095044128e-02 1.69867642128841e-04
3.63281250000000e+00 2.90248844660777e-02 1.70053774420827e-04
3.67968750000000e+00 2.88686054379418e-02 1.70225935508482e-04
3.72656250000000e+00 2.87131678648223e-02 1.70384441826506e-04
3.77343750000000e+00 2.85585672160630e-02 1.70529601002402e-04
3.82031250000000e+00 2.84047989854022e-02 1.70661712201704e-04
3.86718750000000e+00 2.82518586908414e-02 1.70781066455197e-04
3.91406250000000e+00 2.80997418745144e-02 1.70887946969322e-04
3.96093750000000e+00 2.79484441025576e-02 1.70982629420859e-04
4.00781250000000e+00 2.77979609649808e-02 1.71065382236780e-04
4.05468750000000e+00 2.76482880755384e-02 1.71136466860288e-04
4.10156250000000e+00 2.74994210716019e-02 1.71196138003908e-04
4.14843750000000e+00 2.73513556140324e-02 1.71244643890276e-04
4.19531250000000e+00 2.72040873870543e-02 1.71282226481503e-04
4.24218750000000e+00 2.70576120981296e-02 1.71309121697741e-04
4.28906250000000e+00 2.69119254778326e-02 1.71325559625565e-04
4.33593750000000e+00 2.67670232797253e-02 1.71331764716773e-04
4.38281250000000e+00 2.66229012802342e-02 1.71327955978142e-04
4.42968750000000e+00 2.64795552785267e-02 1.71314347152713e-04
4.47656250000000e+00 2.63369810963887e-02 1.71291146892987e-04
4.52343750000000e+00 2.61951745781030e-02 1.71258558926508e-04
4.57031250000000e+00 2.60541315903281e-02 1.71216782214318e-04
4.61718750000000e+00 2.59138480219775e-02 1.71166011102526e-04
4.66406250000000e+00 2.57743197841005e-02 1.71106435467548e-04
4.71093750000000e+00 2.56355428097620e-02 1.71038240855203e-04
4.75781250000000e+00 2.54975130539251e-02 1.70961608613993e-04
4.80468750000000e+00 2.53602264933323e-02 1.70876716022985e-04
4.85156250000000e+00 2.52236791263887e-02 1.70783736414455e-04
4.89843750000000e+00 2.50878669730451e-02 1.70682839291636e-04
4.94531250000000e+00 2.49527860746824e-02 1.70574190441754e-04
4.99218750000000e+00 2.48184324939957e-02 1.70457952044609e-04
5.03906250000000e+00 2.46848023148798e-02 1.70334282776963e-04
5.08593750000000e+00 2.45518916423152e-02 1.70203337912858e-04
5.13281250000000e+00 2.44196966022541e-02 1.70065269420167e-04
5.17968750000000e+00 2.42882133415082e-02 1.69920226053448e-04
5.22656250000000e+00 2.41574380276355e-02 1.69768353443308e-04
5.27343750000000e+00 2.40273668488294e-02 1.69609794182536e-04
5.32031250000000e+00 2.38979960138071e-02 1.69444687909033e-04
5.36718750000000e+00 2.37693217516993e-02 1.69273171385692e-04
5.41406250000000e+00 2.36413403119404e-02 1.69095378577460e-04
5.46093750000000e+00 2.35140479641586e-02 1.68911440725644e-04
5.50781250000000e+00 2.33874409980679e-02 1.68721486419597e-04
5.55468750000000e+00 2.32615157233597e-02 1.68525641665881e-04
5.60156250000000e+00 2.31362684695949e-02 1.68324029955054e-04
5.64843750000000e+00 2.30116955860974e-02 1.68116772326153e-04
5.69531250000000e+00 2.28877934418473e-02 1.67903987428974e-04
5.74218750000000e+00 2.27645584253755e-02 1.67685791584322e-04
5.78906250000000e+00 2.26419869446580e-02 1.67462298842171e-04
5.83593750000000e+00 2.25200754270113e-02 1.67233621037919e-04
5.88281250000000e+00 2.23988203189885e-02 1.66999867846840e-04
5.92968750000000e+00 2.22782180862756e-02 1.66761146836707e-04
5.97656250000000e+00 2.21582652135882e-02 1.66517563518772e-04
6.02343750000000e+00 2.20389582045696e-02 1.66269221397118e-04
6.07031250000000e+00 2.19202935816883e-02 1.66016222016369e-04
6.11718750000000e+00 2.18022678861371e-02 1.65758665008008e-04
6.16406250000000e+00 2.16848776777320e-02 1.65496648135226e-04
6.21093750000000e+00 2.15681195348120e-02 1.65230267336324e-04
6.25781250000000e+00 2.14519900541396e-02 1.64959616766868e-04
6.30468750000000e+00 2.13364858508012e-02 1.64684788840507e-04
6.35156250000000e+00 2.12216035581086e-02 1.64405874268624e-04
6.39843750000000e+00 2.11073398275009e-02 1.64122962098732e-04
6.44531250000000e+00 2.09936913284472e-02 1.63836139751774e-04
6.49218750000000e+00 2.08806547483487e-02 1.63545493058357e-04
6.53906250000000e+00 2.07682267924432e-02 1.63251106293849e-04
6.58593750000000e+00 2.06564041837081e-02 1.62953062212536e-04
6.63281250000000e+00 2.05451836627655e-02 1.62651442080776e-04
6.67968750000000e+00 2.04345619877871e-02 1.62346325709207e-04
6.72656250000000e+00 2.03245359343994e-02 1.62037791484051e-04
6.77343750000000e+00 2.02151022955900e-02 1.61725916397507e-04
6.82031250000000e+00 2.01062578816142e-02 1.61410776077349e-04
6.86718750000000e+00 1.99979995199017e-02 1.61092444815715e-04
6.91406250000000e+00 1.98903240549644e-02 1.60770995597041e-04
6.96093750000000e+00 1.97832283483044e-02 1.60446500125296e-04
7.00781250000000e+00 1.96767092783222e-02 1.60119028850487e-04
7.05468750000000e+00 1.95707637402262e-02 1.59788650994384e-04
7.10156250000000e+00 1.94653886459419e-02 1.59455434575629e-04
7.14843750000000e+00 1.93605809240220e-02 1.59119446434179e-04
7.19531250000000e+00 1.92563375195567e-02 1.58780752255075e-04
7.24218750000000e+00 1.91526553940849e-02 1.58439416591620e-04
7.28906250000000e+00 1.90495315255055e-02 1.58095502887926e-04
7.33593750000000e+00 1.89469629079892e-02 1.57749073500941e-04
7.38281250000000e+00 1.88449465518914e-02 1.57400189721861e-04
7.42968750000000e+00 1.87434794836642e-02 1.57048911797020e-04
7.47656250000000e+00 1.86425587457705e-02 1.56695298948279e-04
7.52343750000000e+00 1.85421813965975e-02 1.56339409392852e-04
7.57031250000000e+00 1.84423445103708e-02 1.55981300362681e-04
7.61718750000000e+00 1.83430451770694e-02 1.55621028123340e-04
7.66406250000000e+00 1.82442805023407e-02 1.55258647992464e-04
7.71093750000000e+00 1.81460476074164e-02 1.54894214357720e-04
7.75781250000000e+00 1.80483436290280e-02 1.54527780694356e-04
7.80468750000000e+00 1.79511657193241e-02 1.54159399582342e-04
7.85156250000000e+00 1.78545110457868e-02 1.53789122723081e-04
7.89843750000000e+00 1.77583767911495e-02 1.53417000955732e-04
7.94531250000000e+00 1.76627601533145e-02 1.53043084273164e-04
7.99218750000000e+00 1.75676583452716e-02 1.52667421837519e-04
8.03906250000000e+00 1.74730685950166e-02 1.52290061995416e-04
8.08593750000000e+00 1.73789881454708e-02 1.51911052292827e-04
8.13281250000000e+00 1.72854142544003e-02 1.51530439489581e-04
8.17968750000000e+00 1.71923441943363e-02 1.51148269573541e-04
8.22656250000000e+00 1.70997752524956e-02 1.50764587774504e-04
8.27343750000000e+00 1.70077047307015e-02 1.50379438577736e-04
8.32031250000000e+00 1.69161299453050e-02 1.49992865737224e-04
8.36718750000000e+00 1.68250482271068e-02 1.49604912288650e-04
8.41406250000000e+00 1.67344569212793e-02 1.49215620562045e-04
8.46093750000000e+00 1.66443533872893e-02 1.48825032194180e-04
8.50781250000000e+00 1.65547349988214e-02 1.48433188140713e-04
8.55468750000000e+00 1.64655991437005e-02 1.48040128688018e-04
8.60156250000000e+00 1.63769432238169e-02 1.47645893464831e-04
8.64843750000000e+00 1.62887646550495e-02 1.47250521453593e-04
8.69531250000000e+00 1.62010608671911e-02 1.46854051001525e-04
8.74218750000000e+00 1.61138293038732e-02 1.46456519831543e-04
8.78906250000000e+00 1.60270674224916e-02 1.46057965052909e-04
8.83593750000000e+00 1.59407726941323e-02 1.45658423171659e-04
8.88281250000000e+00 1.58549426034979e-02 1.45257930100790e-04
8.92968750000000e+00 1.57695746488339e-02 1.44856521170268e-04
8.97656250000000e+00 1.56846663418562e-02 1.44454231136833e-04
9.02343750000000e+00 1.56002152076782e-02 1.44051094193556e-04
9.07031250000000e+00 1.55162187847392e-02 1.43647143979263e-04
9.11718750000000e+00 1.54326746247319e-02 1.43242413587719e-04
9.16406250000000e+00 1.53495802925318e-02 1.42836935576664e-04
9.21093750000000e+00 1.52669333661257e-02 1.42430741976658e-04
9.25781250000000e+00 1.51847314365413e-02 1.42023864299718e-04
9.30468750000000e+00 1.51029721077769e-02 1.41616333547805e-04
9.35156250000000e+00 1.50216529967317e-02 1.41208180221153e-04
9.39843750000000e+00 1.49407717331363e-02 1.40799434326432e-04
9.44531250000000e+00 1.48603259594835e-02 1.40390125384742e-04
9.49218750000000e+00 1.47803133309596e-02 1.39980282439460e-04
9.53906250000000e+00 1.47007315153762e-02 1.39569934063919e-04
9.58593750000000e+00 1.46215781931021e-02 1.39159108368953e-04
9.63281250000000e+00 1.45428510569957e-02 1.38747833010296e-04
9.67968750000000e+00 1.44645478123378e-02 1.38336135195835e-04
9.72656250000000e+00 1.43866661767646e-02 1.37924041692731e-04
9.77343750000000e+00 1.43092038802014e-02 1.37511578834407e-04
9.82031250000000e+00 1.42321586647963e-02 1.37098772527389e-04
9.86718750000000e+00 1.41555282848541e-02 1.36685648258037e-04
9.91406250000000e+00 1.40793105067715e-02 1.36272231099142e-04
9.96093750000000e+00 1.40035031089713e-02 1.35858545716390e-04
1.00078125000000e+01 1.39281038818381e-02 1.35444616374750e-04
1.00546875000000e+01 1.38531106276539e-02 1.35030466944690e-04
1.01015625000000e+01 1.37785211605337e-02 1.34616120908292e-04
1.01484375000000e+01 1.37043333063619e-02 1.34201601365292e-04
1.01953125000000e+01 1.36305449027294e-02 1.33786931038962e-04
1.02421875000000e+01 1.35571537988697e-02 1.33372132281920e-04
1.02890625000000e+01 1.34841578555972e-02 1.32957227081832e-04
1.03359375000000e+01 1.34115549452438e-02 1.32542237066984e-04
1.03828125000000e+01 1.33393429515980e-02 1.32127183511791e-04
1.04296875000000e+01 1.32675197698421e-02 1.31712087342172e-04
1.04765625000000e+01 1.31960833064918e-02 1.31296969140864e-04
1.05234375000000e+01 1.31250314793346e-02 1.30881849152638e-04
1.05703125000000e+01 1.30543622173693e-02 1.30466747289396e-04
1.06171875000000e+01 1.29840734607456e-02 1.30051683135205e-04
1.06640625000000e+01 1.29141631607041e-02 1.29636675951218e-04
1.07109375000000e+01 1.28446292795166e-02 1.29221744680554e-04
1.07578125000000e+01 1.27754697904265e-02 1.28806907953066e-04
1.08046875000000e+01 1.27066826775902e-02 1.28392184090002e-04
1.08515625000000e+01 1.26382659360177e-02 1.27977591108614e-04
1.08984375000000e+01 1.25702175715146e-02 1.27563146726720e-04
1.09453125000000e+01 1.25025356006240e-02 1.27148868367144e-04
1.09921875000000e+01 1.24352180505684e-02 1.26734773162055e-04
1.10390625000000e+01 1.23682629591925e-02 1.26320877957309e-04
1.10859375000000e+01 1.23016683749055e-02 1.25907199316693e-04
1.11328125000000e+01 1.22354323566251e-02 1.25493753526037e-04
1.11796875000000e+01 1.21695529737199e-02 1.25080556597340e-04
1.12265625000000e+01 1.21040283059540e-02 1.24667624272777e-04
1.12734375000000e+01 1.20388564434304e-02 1.24254972028654e-04
1.13203125000000e+01 1.19740354865356e-02 1.23842615079328e-04
1.13671875000000e+01 1.19095635458845e-02 1.23430568381001e-04
1.14140625000000e+01 1.18454387422646e-02 1.23018846635498e-04
1.14609375000000e+01 1.17816592065820e-02 1.22607464293965e-04
1.15078125000000e+01 1.17182230798065e-02 1.22196435560516e-04
1.15546875000000e+01 1.16551285129173e-02 1.21785774395830e-04
1.16015625000000e+01 1.15923736668496e-02 1.21375494520664e-04
1.16484375000000e+01 1.15299567124406e-02 1.20965609419317e-04
1.16953125000000e+01 1.14678758303762e-02 1.20556132343063e-04
1.17421875000000e+01 1.14061292111380e-02 1.20147076313496e-04
1.17890625000000e+01 1.13447150549509e-02 1.19738454125841e-04
1.18359375000000e+01 1.12836315717301e-02 1.19330278352217e-04
1.18828125000000e+01 1.12228769810293e-02 1.18922561344825e-04
1.19296875000000e+01 1.11624495119884e-02 1.18515315239127e-04
1.19765625000000e+01 1.11023474032827e-02 1.18108551956918e-04
1.20234375000000e+01 1.10425689030705e-02 1.17702283209383e-04
1.20703125000000e+01 1.09831122689427e-02 1.17296520500131e-04
1.21171875000000e+01 1.09239757678722e-02 1.16891275128140e-04
1.21640625000000e+01 1.08651576761626e-02 1.16486558190664e-04
1.22109375000000e+01 1.08066562793987e-02 1.16082380586108e-04
1.22578125000000e+01 1.07484698723961e-02 1.15678753016855e-04
1.23046875000000e+01 1.06905967591518e-02 1.15275685992048e-04
1.23515625000000e+01 1.06330352527944e-02 1.14873189830333e-04
1.23984375000000e+01 1.05757836755354e-02 1.14471274662543e-04
1.24453125000000e+01 1.05188403586197e-02 1.14069950434367e-04
1.24921875000000e+01 1.04622036422777e-02 1.13669226908965e-04
1.25390625000000e+01 1.04058718756763e-02 1.13269113669548e-04
1.25859375000000e+01 1.03498434168708e-02 1.12869620121899e-04
1.26328125000000e+01 1.02941166327577e-02 1.12470755496891e-04
1.26796875000000e+01 1.02386898990262e-02 1.12072528852943e-04
1.27265625000000e+01 1.01835616001116e-02 1.11674949078438e-04
1.27734375000000e+01 1.01287301291478e-02 1.11278024894124e-04
1.28203125000000e+01 1.00741938879205e-02 1.10881764855463e-04
1.28671875000000e+01 1.00199512868207e-02 1.10486177354944e-04
1.29140625000000e+01 9.96600074479853e-03 1.10091270624380e-04
1.29609375000000e+01 9.91234068931678e-03 1.09697052737149e-04
1.30078125000000e+01 9.85896955630533e-03 1.09303531610411e-04
1.30546875000000e+01 9.80588579011552e-03 1.08910715007299e-04
1.31015625000000e+01 9.75308784347479e-03 1.08518610539071e-04
1.31484375000000e+01 9.70057417744154e-03 1.08127225667219e-04
1.31953125000000e+01 9.64834326136037e-03 1.07736567705568e-04
1.32421875000000e+01 9.59639357281736e-03 1.07346643822367e-04
1.32890625000000e+01 9.54472359759576e-03 1.06957461042277e-04
1.33359375000000e+01 9.49333182963183e-03 1.06569026248387e-04
1.33828125000000e+01 9.44221677097095e-03 1.06181346184187e-04
1.34296875000000e+01 9.39137693172395e-03 1.05794427455507e-04
1.34765625000000e+01 9.34081083002368e-03 1.05408276532443e-04
1.35234375000000e+01 9.29051699198185e-03 1.05022899751245e-04
1.35703125000000e+01 9.24049395164601e-03 1.04638303316167e-04
1.36171875000000e+01 9.19074025095690e-03 1.04254493301307e-04
1.36640625000000e+01 9.14125443970586e-03 1.03871475652433e-04
1.37109375000000e+01 9.09203507549263e-03 1.03489256188748e-04
1.37578125000000e+01 9.04308072368329e-03 1.03107840604643e-04
1.38046875000000e+01 8.99438995736841e-03 1.02727234471448e-04
1.38515625000000e+01 8.94596135732151e-03 1.02347443239139e-04
1.38984375000000e+01 8.89779351195765e-03 1.01968472238016e-04
1.39453125000000e+01 8.84988501729232e-03 1.01590326680362e-04
1.39921875000000e+01 8.80223447690049e-03 1.01213011662079e-04
1.40390625000000e+01 8.75484050187591e-03 1.00836532164311e-04
1.40859375000000e+01 8.70770171079065e-03 1.00460893055058e-04
1.41328125000000e+01 8.66081672965482e-03 1.00086099090706e-04
1.41796875000000e+01 8.61418419187650e-03 9.97121549175798e-05
1.42265625000000e+01 8.56780273822194e-03 9.93390650735071e-05
1.42734375000000e+01 8.52167101677594e-03 9.89668339892976e-05
1.43203125000000e+01 8.47578768290242e-03 9.85954659902278e-05
1.43671875000000e+01 8.43015139920522e-03 9.82249652975149e-05
1.44140625000000e+01 8.38476083548919e-03 9.78553360297561e-05
1.44609375000000e+01 8.33961466872130e-03 9.74865822043630e-05
1.45078125000000e+01 8.29471158299220e-03 9.71187077389505e-05
1.45546875000000e+01 8.25005026947777e-03 9.67517164527269e-05
1.46015625000000e+01 8.20562942640102e-03 9.63856120678729e-05
1.46484375000000e+01 8.16144775899415e-03 9.60203982108951e-05
1.46953125000000e+01 8.11750397946076e-03 9.56560784139426e-05
1.47421875000000e+01 8.07379680693837e-03 9.52926561161157e-05
1.47890625000000e+01 8.03032496746105e-03 9.49301346647666e-05
