Energy (eV)          EEDF (eV^-(3/2))     First Anisotropy
6.03703703703704e-04 3.87454297992515e+01 2.38103695016240e-02
1.81111111111111e-03 3.82522306016907e+01 3.91992259174405e-02
3.01851851851852e-03 3.77653094482058e+01 5.14345416231464e-02
4.22592592592593e-03 3.72845864220700e+01 6.05415894562580e-02
5.43333333333333e-03 3.68099826260838e+01 6.79828085963287e-02
6.64074074074074e-03 3.63414201672461e+01 7.43160542686211e-02
7.84814814814815e-03 3.58788221445740e+01 7.98324578755944e-02
9.05555555555555e-03 3.54221126349378e+01 8.47092695541729e-02
1.02629629629630e-02 3.49712166821693e+01 8.90649919518649e-02
1.14703703703704e-02 3.45260602832550e+01 9.29840438907854e-02
1.26777777777778e-02 3.40865703795233e+01 9.65294033450285e-02
1.38851851851852e-02 3.36526748408254e+01 9.97497341163407e-02
1.50925925925926e-02 3.32243024551918e+01 1.02683696168191e-01
1.63000000000000e-02 3.28013829171391e+01 1.05362699025723e-01
1.75074074074074e-02 3.23838468161201e+01 1.07812738963255e-01
1.87148148148148e-02 3.19716256251389e+01 1.10055669509057e-01
1.99222222222222e-02 3.15646516895072e+01 1.12110106719025e-01
2.11296296296296e-02 3.11628582157309e+01 1.13992090791806e-01
2.23370370370370e-02 3.07661792605473e+01 1.15715580284271e-01
2.35444444444444e-02 3.03745497201021e+01 1.17292828367099e-01
2.47518518518518e-02 2.99879053192636e+01 1.18734674151595e-01
2.59592592592593e-02 2.96061825999909e+01 1.20050771379040e-01
2.71666666666667e-02 2.92293189142488e+01 1.21249770727862e-01
2.83740740740741e-02 2.88572524103068e+01 1.22339466698775e-01
2.95814814814815e-02 2.84899220237602e+01 1.23326916977535e-01
3.07888888888889e-02 2.81272674675080e+01 1.24218540777226e-01
3.19962962962963e-02 2.77692292218585e+01 1.25020200378843e-01
3.32037037037037e-02 2.74157485247599e+01 1.25737269332795e-01
3.44111111111111e-02 2.70667673621537e+01 1.26374689931610e-01
3.56185185185185e-02 2.67222284584594e+01 1.26937021978299e-01
3.68259259259259e-02 2.63820752671706e+01 1.27428484434440e-01
3.80333333333333e-02 2.60462519615741e+01 1.27852991198865e-01
3.92407407407407e-02 2.57147034255882e+01 1.28214182015322e-01
4.04481481481481e-02 2.53873752447160e+01 1.28515449344935e-01
4.16555555555555e-02 2.50642136965480e+01 1.28759961677888e-01
4.28629629629630e-02 2.47451657436792e+01 1.28950684131255e-01
4.40703703703704e-02 2.44301790232357e+01 1.29090396587373e-01
4.52777777777778e-02 2.41192018388827e+01 1.29181709551589e-01
4.64851851851852e-02 2.38121831523398e+01 1.29227078355235e-01
4.76925925925926e-02 2.35090725750046e+01 1.29228815767433e-01
4.89000000000000e-02 2.32098203596827e+01 1.29189103261646e-01
5.01074074074074e-02 2.29143773924222e+01 1.29110001112662e-01
5.13148148148148e-02 2.26226951844543e+01 1.28993457473001e-01
5.25222222222222e-02 2.23347258642351e+01 1.28841316555709e-01
5.37296296296296e-02 2.20504221695884e+01 1.28655326031595e-01
5.49370370370370e-02 2.17697374399489e+01 1.28437143733804e-01
5.61444444444444e-02 2.14926256087041e+01 1.28188343749878e-01
5.73518518518518e-02 2.12190411956340e+01 1.27910421994543e-01
5.85592592592593e-02 2.09489392991108e+01 1.27604801201225e-01
5.97666666666667e-02 2.06822755897525e+01 1.27272835605970e-01
6.09740740740741e-02 2.04190063021078e+01 1.26915815246189e-01
6.21814814814815e-02 2.01590882278259e+01 1.26534969785616e-01
6.33888888888889e-02 1.99024787085646e+01 1.26131472131905e-01
6.45962962962963e-02 1.96491356289896e+01 1.25706441747932e-01
6.58037037037037e-02 1.93990174098618e+01 1.25260947710281e-01
6.70111111111111e-02 1.91520830012133e+01 1.24796011538760e-01
6.82185185185185e-02 1.89082918756110e+01 1.24312609818570e-01
6.94259259259259e-02 1.86676040215045e+01 1.23811676634105e-01
7.06333333333333e-02 1.84299799366594e+01 1.23294105831034e-01
7.18407407407407e-02 1.81953806216743e+01 1.22760753122048e-01
7.30481481481481e-02 1.79637675735795e+01 1.22212438067809e-01
7.42555555555555e-02 1.77351027792949e+01 1.21649945853823e-01
7.54629629629630e-02 1.75093487100715e+01 1.21074029039926e-01
7.66703703703704e-02 1.72864683146413e+01 1.20485409200777e-01
7.78777777777778e-02 1.70664250133702e+01 1.19884778368761e-01
7.90851851851852e-02 1.68491826922547e+01 1.19272800461570e-01
8.02925925925926e-02 1.66347056969941e+01 1.18650112604188e-01
8.15000000000000e-02 1.64229588271395e+01 1.18017326371565e-01
8.27074074074074e-02 1.62139073303164e+01 1.17375028957908e-01
8.39148148148148e-02 1.60075168965208e+01 1.16723784278046e-01
8.51222222222222e-02 1.58037536524887e+01 1.16064134005871e-01
8.63296296296296e-02 1.56025841561364e+01 1.15396598554314e-01
8.75370370370370e-02 1.54039753910720e+01 1.14721678000974e-01
8.87444444444444e-02 1.52078947611767e+01 1.14039852963195e-01
8.99518518518518e-02 1.50143100852547e+01 1.13351585439704e-01
9.11592592592592e-02 1.48231895916001e+01 1.12657319553209e-01
9.23666666666667e-02 1.46345019132442e+01 1.11957482321375e-01
9.35740740740741e-02 1.44482160823391e+01 1.11252484390594e-01
9.47814814814815e-02 1.42643015252338e+01 1.10542720661116e-01
9.59888888888889e-02 1.40827280574557e+01 1.09828570937259e-01
9.71962962962963e-02 1.39034658787576e+01 1.09110400531356e-01
9.84037037037037e-02 1.37264855682258e+01 1.08388560838205e-01
9.96111111111111e-02 1.35517580794523e+01 1.07663389905378e-01
1.00818518518519e-01 1.33792547355169e+01 1.06935212836240e-01
1.02025925925926e-01 1.32089472255251e+01 1.06204342541645e-01
1.03233333333333e-01 1.30408075970113e+01 1.05471079919161e-01
1.04440740740741e-01 1.28748082557217e+01 1.04735714361287e-01
1.05648148148148e-01 1.27109219574338e+01 1.03998524607845e-01
1.06855555555556e-01 1.25491218036398e+01 1.03259778471919e-01
1.08062962962963e-01 1.23893812404418e+01 1.02519733676393e-01
1.09270370370370e-01 1.22316740497858e+01 1.01778638142827e-01
1.10477777777778e-01 1.20759743494745e+01 1.01036730220176e-01
1.11685185185185e-01 1.19222565856914e+01 1.00294239459123e-01
1.12892592592593e-01 1.17704955289382e+01 9.95513863172171e-02
1.14100000000000e-01 1.16206662728305e+01 9.88083828780455e-02
1.15307407407407e-01 1.14727442261015e+01 9.80654330748926e-02
1.16514814814815e-01 1.13267051123941e+01 9.73227329516146e-02
1.17722222222222e-01 1.11825249625263e+01 9.65804709699469e-02
1.18929629629630e-01 1.10401801142305e+01 9.58388281602379e-02
1.20137037037037e-01 1.08996472055240e+01 9.50979787585454e-02
1.21344444444444e-01 1.07609031709825e+01 9.43580899005321e-02
1.22551851851852e-01 1.06239252404611e+01 9.36193222147192e-02
1.23759259259259e-01 1.04886909320197e+01 9.28818299799639e-02
1.24966666666667e-01 1.03551780515042e+01 9.21457612377085e-02
1.26174074074074e-01 1.02233646864571e+01 9.14112583500156e-02
1.27381481481481e-01 1.00932292026166e+01 9.06784576969238e-02
1.28588888888889e-01 9.96475024260234e+00 8.99474901970275e-02
1.29796296296296e-01 9.83790671943160e+00 8.92184814309787e-02
1.31003703703704e-01 9.71267781597900e+00 8.84915517245946e-02
1.32211111111111e-01 9.58904297937453e+00 8.77668166408353e-02
1.33418518518518e-01 9.46698191771488e+00 8.70443866851742e-02
1.34625925925926e-01 9.34647459873294e+00 8.63243677652289e-02
1.35833333333333e-01 9.22750124384615e+00 8.56068612879278e-02
1.37040740740741e-01 9.11004232752331e+00 8.48919642202444e-02
1.38248148148148e-01 8.99407857212499e+00 8.41797695255125e-02
1.39455555555556e-01 8.87959094481285e+00 8.34703658796560e-02
1.40662962962963e-01 8.76656065621949e+00 8.27638380789361e-02
1.41870370370370e-01 8.65496915497658e+00 8.20602671166607e-02
1.43077777777778e-01 8.54479812701295e+00 8.13597302266914e-02
1.44285185185185e-01 8.43602949079620e+00 8.06623012721934e-02
1.45492592592593e-01 8.32864539442868e+00 7.99680504744154e-02
1.46700000000000e-01 8.22262821432938e+00 7.92770447760430e-02
1.47907407407407e-01 8.11796055019634e+00 7.85893479017479e-02
1.49114814814815e-01 8.01462522425556e+00 7.79050204449607e-02
1.50322222222222e-01 7.91260527637616e+00 7.72241199883362e-02
1.51529629629630e-01 7.81188396331375e+00 7.65467011291582e-02
1.52737037037037e-01 7.71244475444667e+00 7.58728158132838e-02
1.53944444444444e-01 7.61427132911677e+00 7.52025130814898e-02
1.55151851851852e-01 7.51734757534735e+00 7.45358393817142e-02
1.56359259259259e-01 7.42165758533943e+00 7.38728386119767e-02
1.57566666666667e-01 7.32718565468612e+00 7.32135521366309e-02
1.58774074074074e-01 7.23391627842977e+00 7.25580190863910e-02
1.59981481481481e-01 7.14183414856545e+00 7.19062761186652e-02
1.61188888888889e-01 7.05092415278766e+00 7.12583576982409e-02
1.62396296296296e-01 6.96117137033350e+00 7.06142961307351e-02
1.63603703703704e-01 6.87256107118005e+00 6.99741215717355e-02
1.64811111111111e-01 6.78507871239494e+00 6.93378622971161e-02
1.66018518518519e-01 6.69870993579287e+00 6.87055444772341e-02
1.67225925925926e-01 6.61344056671589e+00 6.80771924299348e-02
1.68433333333333e-01 6.52925661019310e+00 6.74528286463980e-02
1.69640740740741e-01 6.44614425013060e+00 6.68324737946975e-02
1.70848148148148e-01 6.36408984593146e+00 6.62161469640345e-02
1.72055555555556e-01 6.28307993029514e+00 6.56038654524636e-02
1.73262962962963e-01 6.20310120803561e+00 6.49956449954088e-02
1.74470370370370e-01 6.12414055253020e+00 6.43914997854266e-02
1.75677777777778e-01 6.04618500490994e+00 6.37914424714407e-02
1.76885185185185e-01 5.96922177092670e+00 6.31954843798936e-02
1.78092592592593e-01 5.89323821888698e+00 6.26036353155213e-02
1.79300000000000e-01 5.81822187851035e+00 6.20159037681861e-02
1.80507407407407e-01 5.74416043764301e+00 6.14322969277200e-02
1.81714814814815e-01 5.67104174145487e+00 6.08528207160797e-02
1.82922222222222e-01 5.59885378924824e+00 6.02774798423374e-02
1.84129629629630e-01 5.52758473366354e+00 5.97062777972836e-02
1.85337037037037e-01 5.45722287785587e+00 5.91392170470200e-02
1.86544444444444e-01 5.38775667360420e+00 5.85762988503363e-02
1.87751851851852e-01 5.31917472023101e+00 5.80175234397216e-02
1.88959259259259e-01 5.25146576164629e+00 5.74628900306394e-02
1.90166666666667e-01 5.18461868556616e+00 5.69123968139334e-02
1.91374074074074e-01 5.11862252089157e+00 5.63660411318063e-02
1.92581481481481e-01 5.05346643593392e+00 5.58238193069170e-02
1.93788888888889e-01 4.98913973737707e+00 5.52857268069555e-02
1.94996296296296e-01 4.92563186753742e+00 5.47517582508934e-02
1.96203703703704e-01 4.86293240359915e+00 5.42219073997480e-02
1.97411111111111e-01 4.80103105517924e+00 5.36961673167851e-02
1.98618518518518e-01 4.73991766266232e+00 5.31745302077019e-02
1.99825925925926e-01 4.67958219620549e+00 5.26569875704676e-02
2.01033333333333e-01 4.62001475319710e+00 5.21435301991292e-02
2.02240740740741e-01 4.56120555751131e+00 5.16341481733477e-02
2.03448148148148e-01 4.50314495724536e+00 5.11288310044662e-02
2.04655555555556e-01 4.44582342315653e+00 5.06275674861513e-02
2.05862962962963e-01 4.38923154770996e+00 5.01303458309457e-02
2.07070370370370e-01 4.33336004272035e+00 4.96371536721309e-02
2.08277777777778e-01 4.27819973862797e+00 4.91479780523805e-02
2.09485185185185e-01 4.22374158239491e+00 4.86628055571068e-02
2.10692592592593e-01 4.16997663603814e+00 4.81816221749308e-02
2.11900000000000e-01 4.11689607571967e+00 4.77044134222719e-02
2.13107407407407e-01 4.06449118955694e+00 4.72311643436474e-02
2.14314814814815e-01 4.01275337692189e+00 4.67618595233460e-02
2.15522222222222e-01 3.96167414631276e+00 4.62964831124106e-02
2.16729629629630e-01 3.91124511466495e+00 4.58350188164106e-02
2.17937037037037e-01 3.86145800544821e+00 4.53774500133150e-02
2.19144444444444e-01 3.81230464732469e+00 4.49237596263278e-02
2.20351851851852e-01 3.76377697329850e+00 4.44739302339678e-02
2.21559259259259e-01 3.71586701873856e+00 4.40279440685629e-02
2.22766666666667e-01 3.66856692071370e+00 4.35857830037844e-02
2.23974074074074e-01 3.62186891622165e+00 4.31474286624720e-02
2.25181481481481e-01 3.57576534092990e+00 4.27128622979371e-02
2.26388888888889e-01 3.53024862836540e+00 4.22820648946633e-02
2.27596296296296e-01 3.48531130807687e+00 4.18550171658658e-02
2.28803703703704e-01 3.44094600499472e+00 4.14316995409370e-02
2.30011111111111e-01 3.39714543778215e+00 4.10120922641613e-02
2.31218518518518e-01 3.35390241765373e+00 4.05961752839512e-02
2.32425925925926e-01 3.31120984760414e+00 4.01839283450491e-02
2.33633333333333e-01 3.26906072069943e+00 3.97753309853388e-02
2.34840740740741e-01 3.22744811946200e+00 3.93703625233153e-02
2.36048148148148e-01 3.18636521433503e+00 3.89690021485668e-02
2.37255555555556e-01 3.14580526257381e+00 3.85712288184109e-02
2.38462962962963e-01 3.10576160751241e+00 3.81770213423521e-02
2.39670370370370e-01 3.06622767697429e+00 3.77863583783491e-02
2.40877777777778e-01 3.02719698268238e+00 3.73992184203953e-02
2.42085185185185e-01 2.98866311882854e+00 3.70155798815060e-02
2.43292592592593e-01 2.95061976103323e+00 3.66354209972849e-02
2.44500000000000e-01 2.91306066564890e+00 3.62587199033386e-02
2.45707407407407e-01 2.87597966828096e+00 3.58854546311174e-02
2.46914814814815e-01 2.83937068322291e+00 3.55156031112728e-02
2.48122222222222e-01 2.80322770201800e+00 3.51491431872842e-02
2.49329629629630e-01 2.76754479290544e+00 3.47860526032819e-02
2.50537037037037e-01 2.73231609952345e+00 3.44263090778209e-02
2.51744444444444e-01 2.69753583995777e+00 3.40698902161414e-02
2.52951851851852e-01 2.66319830609476e+00 3.37167735789621e-02
2.54159259259259e-01 2.62929786228252e+00 3.33669366778421e-02
2.55366666666667e-01 2.59582894480151e+00 3.30203569633103e-02
2.56574074074074e-01 2.56278606065544e+00 3.26770118926130e-02
2.57781481481481e-01 2.53016378667857e+00 3.23368788478638e-02
2.58988888888889e-01 2.49795676892221e+00 3.19999351992123e-02
2.60196296296296e-01 2.46615972140787e+00 3.16661583000055e-02
2.61403703703704e-01 2.43476742562193e+00 3.13355254752599e-02
2.62611111111111e-01 2.40377472938810e+00 3.10080140839058e-02
2.63818518518519e-01 2.37317654602995e+00 3.06836014424341e-02
2.65025925925926e-01 2.34296785378932e+00 3.03622648829340e-02
2.66233333333333e-01 2.31314369466498e+00 3.00439817481242e-02
2.67440740740741e-01 2.28369917393069e+00 2.97287293801844e-02
2.68648148148148e-01 2.25462945908359e+00 2.94164851779876e-02
2.69855555555556e-01 2.22592977905840e+00 2.91072265258752e-02
2.71062962962963e-01 2.19759542367654e+00 2.88009308469912e-02
2.72270370370370e-01 2.16962174256405e+00 2.84975755982524e-02
2.73477777777778e-01 2.14200414469249e+00 2.81971382595570e-02
2.74685185185185e-01 2.11473809739786e+00 2.78995963864371e-02
2.75892592592593e-01 2.08781912564335e+00 2.76049275436127e-02
2.77100000000000e-01 2.06124281149779e+00 2.73131093540258e-02
2.78307407407407e-01 2.03500479312719e+00 2.70241194937979e-02
2.79514814814815e-01 2.00910076435776e+00 2.67379356921870e-02
2.80722222222222e-01 1.98352647369466e+00 2.64545357384619e-02
2.81929629629630e-01 1.95827772389439e+00 2.61738974716254e-02
2.83137037037037e-01 1.93335037107383e+00 2.58959988273922e-02
2.84344444444444e-01 1.90874032403597e+00 2.56208177777609e-02
2.85551851851852e-01 1.88444354378765e+00 2.53483323747453e-02
2.86759259259259e-01 1.86045604262483e+00 2.50785207453361e-02
2.87966666666667e-01 1.83677388372601e+00 2.48113610816414e-02
2.89174074074074e-01 1.81339318032059e+00 2.45468316841360e-02
2.90381481481481e-01 1.79031009505638e+00 2.42849109052835e-02
2.91588888888889e-01 1.76752083954346e+00 2.40255771897943e-02
2.92796296296296e-01 1.74502167350118e+00 2.37688090696451e-02
2.94003703703704e-01 1.72280890437196e+00 2.35145851546354e-02
2.95211111111111e-01 1.70087888654487e+00 2.32628841722173e-02
2.96418518518518e-01 1.67922802076227e+00 2.30136849148953e-02
2.97625925925926e-01 1.65785275368858e+00 2.27669662772986e-02
2.98833333333333e-01 1.63674957711478e+00 2.25227072512872e-02
3.00040740740741e-01 1.61591502759161e+00 2.22808869169103e-02
3.01248148148148e-01 1.59534568570477e+00 2.20414844791094e-02
3.02455555555556e-01 1.57503817551818e+00 2.18044792186412e-02
3.03662962962963e-01 1.55498916416649e+00 2.15698505262202e-02
3.04870370370370e-01 1.53519536111295e+00 2.13375778977323e-02
3.06077777777778e-01 1.51565351780146e+00 2.11076409255901e-02
3.07285185185185e-01 1.49636042697969e+00 2.08800193325692e-02
3.08492592592593e-01 1.47731292217673e+00 2.06546929260119e-02
3.09700000000000e-01 1.45850787731819e+00 2.04316416292821e-02
3.10907407407407e-01 1.43994220603378e+00 2.02108454771014e-02
3.12114814814815e-01 1.42161286132731e+00 1.99922846142299e-02
3.13322222222222e-01 1.40351683490284e+00 1.97759392988240e-02
3.14529629629630e-01 1.38565115684198e+00 1.95617898943165e-02
3.15737037037037e-01 1.36801289498852e+00 1.93498168996823e-02
3.16944444444444e-01 1.35059915447078e+00 1.91400009077824e-02
3.18151851851852e-01 1.33340707734653e+00 1.89323226334889e-02
3.19359259259259e-01 1.31643384197415e+00 1.87267629091855e-02
3.20566666666667e-01 1.29967666270688e+00 1.85233026770343e-02
3.21774074074074e-01 1.28313278931792e+00 1.83219230168874e-02
3.22981481481481e-01 1.26679950655228e+00 1.81226051074121e-02
3.24188888888889e-01 1.25067413379170e+00 1.79253302520270e-02
3.25396296296296e-01 1.23475402446764e+00 1.77300798745413e-02
3.26603703703704e-01 1.21903656577164e+00 1.75368355117944e-02
3.27811111111111e-01 1.20351917811822e+00 1.73455788394051e-02
3.29018518518518e-01 1.18819931472455e+00 1.71562916354891e-02
3.30225925925926e-01 1.17307446129409e+00 1.69689558045833e-02
3.31433333333333e-01 1.15814213546863e+00 1.67835533734282e-02
3.32640740740741e-01 1.14339988655414e+00 1.66000664839660e-02
3.33848148148148e-01 1.12884529501885e+00 1.64184774171069e-02
3.35055555555555e-01 1.11447597209887e+00 1.62387685588616e-02
3.36262962962963e-01 1.10028955949983e+00 1.60609224224097e-02
3.37470370370370e-01 1.08628372888518e+00 1.58849216440355e-02
3.38677777777778e-01 1.07245618161676e+00 1.57107489764695e-02
3.39885185185185e-01 1.05880464828574e+00 1.55383873108293e-02
3.41092592592593e-01 1.04532688834269e+00 1.53678196450051e-02
3.42300000000000e-01 1.03202068981608e+00 1.51990291040200e-02
3.43507407407407e-01 1.01888386883448e+00 1.50319989361211e-02
3.44714814814815e-01 1.00591426938117e+00 1.48667125111203e-02
3.45922222222222e-01 9.93109762828970e-01 1.47031533219091e-02
3.47129629629630e-01 9.80468247700480e-01 1.45413049782480e-02
3.48337037037037e-01 9.67987649241210e-01 1.43811512264266e-02
3.49544444444444e-01 9.55665919081295e-01 1.42226759205010e-02
3.50751851851852e-01 9.43501034976349e-01 1.40658630405302e-02
3.51959259259259e-01 9.31491000373037e-01 1.39106966888669e-02
3.53166666666667e-01 9.19633844182366e-01 1.37571610842653e-02
3.54374074074074e-01 9.07927620380643e-01 1.36052405800362e-02
3.55581481481481e-01 8.96370407692147e-01 1.34549196371947e-02
3.56788888888889e-01 8.84960309344807e-01 1.33061828412979e-02
3.57996296296296e-01 8.73695452664396e-01 1.31590148988843e-02
3.59203703703704e-01 8.62573988860254e-01 1.30134006318874e-02
3.60411111111111e-01 8.51594092652214e-01 1.28693249944045e-02
3.61618518518518e-01 8.40753961972945e-01 1.27267730476234e-02
3.62825925925926e-01 8.30051817737640e-01 1.25857299753753e-02
3.64033333333333e-01 8.19485903464902e-01 1.24461810807191e-02
3.65240740740741e-01 8.09054485074283e-01 1.23081117806459e-02
3.66448148148148e-01 7.98755850537466e-01 1.21715076215735e-02
3.67655555555556e-01 7.88588309599029e-01 1.20363542559332e-02
3.68862962962963e-01 7.78550193559409e-01 1.19026374565327e-02
3.70070370370370e-01 7.68639854920675e-01 1.17703431132894e-02
3.71277777777778e-01 7.58855667195280e-01 1.16394572282099e-02
3.72485185185185e-01 7.49196024579900e-01 1.15099659297100e-02
3.73692592592593e-01 7.39659341693481e-01 1.13818554507509e-02
3.74900000000000e-01 7.30244053372740e-01 1.12551121421056e-02
3.76107407407407e-01 7.20948614341164e-01 1.11297224692355e-02
3.77314814814815e-01 7.11771499028398e-01 1.10056730106920e-02
3.78522222222222e-01 7.02711201247959e-01 1.08829504586772e-02
3.79729629629630e-01 6.93766234020861e-01 1.07615416143805e-02
3.80937037037037e-01 6.84935129278579e-01 1.06414334008283e-02
