Energy (eV)          EEDF (eV^-(3/2))     First Anisotropy
5.69117647058824e-03 9.46833121973739e-01 6.02031358466719e-04
1.70735294117647e-02 9.37261083097496e-01 9.92436197746880e-04
2.84558823529412e-02 9.27785813013730e-01 1.30566222541433e-03
3.98382352941177e-02 9.18406333484293e-01 1.54092196085454e-03
5.12205882352941e-02 9.09121676081117e-01 1.73490935560206e-03
6.26029411764706e-02 8.99930882220172e-01 1.90156506289565e-03
7.39852941176471e-02 8.90833002980232e-01 2.04813654716042e-03
8.53676470588235e-02 8.81827099026561e-01 2.17901993706267e-03
9.67500000000000e-02 8.72912240543031e-01 2.29714367840191e-03
1.08132352941176e-01 8.64087507132457e-01 2.40458656549448e-03
1.19514705882353e-01 8.55351987630970e-01 2.50289406756565e-03
1.30897058823529e-01 8.46704780129191e-01 2.59325637618585e-03
1.42279411764706e-01 8.38144991835290e-01 2.67661594706416e-03
1.53661764705882e-01 8.29671738982907e-01 2.75373608603018e-03
1.65044117647059e-01 8.21284146739972e-01 2.82524664807184e-03
1.76426470588235e-01 8.12981349118430e-01 2.89167559382168e-03
1.87808823529412e-01 8.04762488884860e-01 2.95347144101412e-03
1.99191176470588e-01 7.96626717471997e-01 3.01101964835354e-03
2.10573529411765e-01 7.88573194890941e-01 3.06465483530154e-03
2.21955882352941e-01 7.80601089644873e-01 3.11467007089331e-03
2.33338235294118e-01 7.72709578642965e-01 3.16132405336931e-03
2.44720588235294e-01 7.64897847115416e-01 3.20484674208085e-03
2.56102941176471e-01 7.57165088529333e-01 3.24544383401413e-03
2.67485294117647e-01 7.49510504505468e-01 3.28330036433766e-03
2.78867647058824e-01 7.41933304735790e-01 3.31858363353496e-03
2.90250000000000e-01 7.34432706901895e-01 3.35144560762255e-03
3.01632352941177e-01 7.27007936618688e-01 3.38202491639668e-03
3.13014705882353e-01 7.19658227279758e-01 3.41044850959341e-03
3.24397058823529e-01 7.12382820054311e-01 3.43683304920301e-03
3.35779411764706e-01 7.05180963782958e-01 3.46128610188377e-03
3.47161764705882e-01 6.98051914900165e-01 3.48390714544633e-03
3.58544117647059e-01 6.90994937357488e-01 3.50478843436863e-03
3.69926470588235e-01 6.84009302547572e-01 3.52401574609924e-03
3.81308823529412e-01 6.77094289228937e-01 3.54166902789137e-03
3.92691176470588e-01 6.70249183451503e-01 3.55782296013813e-03
4.04073529411765e-01 6.63473278482842e-01 3.57254744918877e-03
4.15455882352941e-01 6.56765874735304e-01 3.58590806033389e-03
4.26838235294118e-01 6.50126279693731e-01 3.59796639974889e-03
4.38220588235294e-01 6.43553807843965e-01 3.60878045265900e-03
4.49602941176471e-01 6.37047780602068e-01 3.61840488383337e-03
4.60985294117647e-01 6.30607526244266e-01 3.62689130550237e-03
4.72367647058824e-01 6.24232379837588e-01 3.63428851699343e-03
4.83750000000000e-01 6.17921683171223e-01 3.64064271797218e-03
4.95132352941177e-01 6.11674784700982e-01 3.64599770718625e-03
5.06514705882353e-01 6.05491039444252e-01 3.65039505341767e-03
5.17897058823529e-01 5.99369808951708e-01 3.65387424974774e-03
5.29279411764706e-01 5.93310461228448e-01 3.65647286219087e-03
5.40661764705882e-01 5.87312370668735e-01 3.65822665799180e-03
5.52044117647059e-01 5.81374917991414e-01 3.65916972419132e-03
5.63426470588235e-01 5.75497490175964e-01 3.65933457588455e-03
5.74808823529412e-01 5.69679480399217e-01 3.65875225527447e-03
5.86191176470588e-01 5.63920287972697e-01 3.65745242248568e-03
5.97573529411765e-01 5.58219318280589e-01 3.65546343897482e-03
6.08955882352941e-01 5.52575982718381e-01 3.65281244429469e-03
6.20338235294118e-01 5.46989698632074e-01 3.64952542686614e-03
6.31720588235294e-01 5.41459889258028e-01 3.64562728932477e-03
6.43102941176471e-01 5.35985983663408e-01 3.64114190896668e-03
6.54485294117647e-01 5.30567416687243e-01 3.63609219374626e-03
6.65867647058824e-01 5.25203628882073e-01 3.63050013423317e-03
6.77250000000000e-01 5.19894066456187e-01 3.62438685064270e-03
6.88632352941177e-01 5.14638181223935e-01 3.61777264152965e-03
7.00014705882353e-01 5.09435430526404e-01 3.61067702310992e-03
7.11397058823530e-01 5.04285277198388e-01 3.60311876574125e-03
7.22779411764706e-01 4.99187189505168e-01 3.59511593429021e-03
7.34161764705882e-01 4.94140641087613e-01 3.58668592094639e-03
7.45544117647059e-01 4.89145110907832e-01 3.57784547717381e-03
7.56926470588235e-01 4.84200083195385e-01 3.56861074366632e-03
7.68308823529412e-01 4.79305047394026e-01 3.55899727846185e-03
7.79691176470588e-01 4.74459498108995e-01 3.54902008335888e-03
7.91073529411765e-01 4.69662935054824e-01 3.53869362875793e-03
8.02455882352941e-01 4.64914863003707e-01 3.52803187705207e-03
8.13838235294118e-01 4.60214791734356e-01 3.51704830467327e-03
8.25220588235294e-01 4.55562235981391e-01 3.50575592288411e-03
8.36602941176471e-01 4.50956715385235e-01 3.49416729741050e-03
8.47985294117647e-01 4.46397754442523e-01 3.48229456699473e-03
8.59367647058824e-01 4.41884882457003e-01 3.47014946094311e-03
8.70750000000000e-01 4.37417633490941e-01 3.45774331481198e-03
8.82132352941177e-01 4.32995546321922e-01 3.44508708894482e-03
8.93514705882353e-01 4.28618164380353e-01 3.43219138151413e-03
9.04897058823530e-01 4.24285035717361e-01 3.41906644077152e-03
9.16279411764706e-01 4.19995712953062e-01 3.40572218137569e-03
9.27661764705882e-01 4.15749753230374e-01 3.39216819619907e-03
9.39044117647059e-01 4.11546718169292e-01 3.37841376847744e-03
9.50426470588235e-01 4.07386173821626e-01 3.36446788337148e-03
9.61808823529412e-01 4.03267690626198e-01 3.35033923897629e-03
9.73191176470588e-01 3.99190843364491e-01 3.33603625681272e-03
9.84573529411765e-01 3.95155211116747e-01 3.32156709182810e-03
9.95955882352941e-01 3.91160377218508e-01 3.30693964271873e-03
1.00733823529412e+00 3.87205929213732e-01 3.29216155640052e-03
1.01872058823529e+00 3.83291458835186e-01 3.27724024296524e-03
1.03010294117647e+00 3.79416561927274e-01 3.26218289286985e-03
1.04148529411765e+00 3.75580838384481e-01 3.24699645545214e-03
1.05286764705882e+00 3.71783892218746e-01 3.23168766482072e-03
1.06425000000000e+00 3.68025331408402e-01 3.21626306924188e-03
1.07563235294118e+00 3.64304767861368e-01 3.20072899388364e-03
1.08701470588235e+00 3.60621817477301e-01 3.18509156964141e-03
1.09839705882353e+00 3.56976100004230e-01 3.16935676068068e-03
1.10977941176471e+00 3.53367239002712e-01 3.15353032825702e-03
1.12116176470588e+00 3.49794861903272e-01 3.13761785778031e-03
1.13254411764706e+00 3.46258599870331e-01 3.12162477831803e-03
1.14392647058824e+00 3.42758087797061e-01 3.10555635329960e-03
1.15530882352941e+00 3.39292964238577e-01 3.08941767373406e-03
1.16669117647059e+00 3.35862871463169e-01 3.07321367614132e-03
1.17807352941176e+00 3.32467455325584e-01 3.05694916635957e-03
1.18945588235294e+00 3.29106365233388e-01 3.04062878619690e-03
1.20083823529412e+00 3.25779254194263e-01 3.02425703691851e-03
1.21222058823529e+00 3.22485778695531e-01 3.00783829596289e-03
1.22360294117647e+00 3.19225598697304e-01 2.99137680788196e-03
1.23498529411765e+00 3.15998377571970e-01 2.97487667753174e-03
1.24636764705882e+00 3.12803782146490e-01 2.95834188550299e-03
1.25775000000000e+00 3.09641482589973e-01 2.94177630893899e-03
1.26913235294118e+00 3.06511152382020e-01 2.92518369092356e-03
1.28051470588235e+00 3.03412468351829e-01 2.90856766103594e-03
1.29189705882353e+00 3.00345110571041e-01 2.89193175507596e-03
1.30327941176471e+00 2.97308762322954e-01 2.87527938549418e-03
1.31466176470588e+00 2.94303110138733e-01 2.85861386088391e-03
1.32604411764706e+00 2.91327843695281e-01 2.84193839973143e-03
1.33742647058824e+00 2.88382655806718e-01 2.82525612191854e-03
1.34880882352941e+00 2.85467242371682e-01 2.80857004215386e-03
1.36019117647059e+00 2.82581302405695e-01 2.79188308271750e-03
1.37157352941176e+00 2.79724537945500e-01 2.77519809087894e-03
1.38295588235294e+00 2.76896654020262e-01 2.75851781183887e-03
1.39433823529412e+00 2.74097358681475e-01 2.74184490598142e-03
1.40572058823529e+00 2.71326362911678e-01 2.72518196093786e-03
1.41710294117647e+00 2.68583380615268e-01 2.70853148360993e-03
1.42848529411765e+00 2.65868128570475e-01 2.69189589392307e-03
1.43986764705882e+00 2.63180326456140e-01 2.67527753603064e-03
1.45125000000000e+00 2.60519696766094e-01 2.65867869379917e-03
1.46263235294118e+00 2.57885964782141e-01 2.64210156607262e-03
1.47401470588235e+00 2.55278858598817e-01 2.62554828200690e-03
1.48539705882353e+00 2.52698109041532e-01 2.60902091582901e-03
1.49677941176471e+00 2.50143449640321e-01 2.59252146298079e-03
1.50816176470588e+00 2.47614616652766e-01 2.57605185474082e-03
1.51954411764706e+00 2.45111348985739e-01 2.55961396839685e-03
1.53092647058824e+00 2.42633388185641e-01 2.54320962000245e-03
1.54230882352941e+00 2.40180478396270e-01 2.52684055862205e-03
1.55369117647059e+00 2.37752366379301e-01 2.51050847579883e-03
1.56507352941176e+00 2.35348801440673e-01 2.49421501874564e-03
1.57645588235294e+00 2.32969535406076e-01 2.47796176854856e-03
1.58783823529412e+00 2.30614322639845e-01 2.46175025325509e-03
1.59922058823529e+00 2.28282919974538e-01 2.44558195692068e-03
1.61060294117647e+00 2.25975086701040e-01 2.42945831289631e-03
1.62198529411765e+00 2.23690584530011e-01 2.41338069845546e-03
1.63336764705882e+00 2.21429177608777e-01 2.39735044322375e-03
1.64475000000000e+00 2.19190632455024e-01 2.38136884102047e-03
1.65613235294118e+00 2.16974717933840e-01 2.36543712994332e-03
1.66751470588235e+00 2.14781205273303e-01 2.34955650411116e-03
1.67889705882353e+00 2.12609868000947e-01 2.33372812499062e-03
1.69027941176471e+00 2.10460481921465e-01 2.31795310219549e-03
1.70166176470588e+00 2.08332825131111e-01 2.30223250472072e-03
1.71304411764706e+00 2.06226677956825e-01 2.28656736868457e-03
1.72442647058824e+00 2.04141822946334e-01 2.27095869130817e-03
1.73580882352941e+00 2.02078044834162e-01 2.25540742605251e-03
1.74719117647059e+00 2.00035130554435e-01 2.23991448984062e-03
1.75857352941176e+00 1.98012869183443e-01 2.22448077325737e-03
1.76995588235294e+00 1.96011051918837e-01 2.20910712300093e-03
1.78133823529412e+00 1.94029472091413e-01 2.19379435201023e-03
1.79272058823529e+00 1.92067925110047e-01 2.17854324640912e-03
1.80410294117647e+00 1.90126208451942e-01 2.16335455995461e-03
1.81548529411765e+00 1.88204121631432e-01 2.14822900953090e-03
1.82686764705882e+00 1.86301466210454e-01 2.13316728163151e-03
1.83825000000000e+00 1.84418045746550e-01 2.11817004157281e-03
1.84963235294118e+00 1.82553665773414e-01 2.10323791745003e-03
1.86101470588235e+00 1.80708133810520e-01 2.08837150927898e-03
1.87239705882353e+00 1.78881259313208e-01 2.07357139782930e-03
1.88377941176471e+00 1.77072853653797e-01 2.05883812915439e-03
1.89516176470588e+00 1.75282730130441e-01 2.04417222335710e-03
1.90654411764706e+00 1.73510703919219e-01 2.02957418058877e-03
1.91792647058824e+00 1.71756592064690e-01 2.01504447609524e-03
1.92930882352941e+00 1.70020213452268e-01 2.00058355617040e-03
1.94069117647059e+00 1.68301388816029e-01 1.98619184376034e-03
1.95207352941177e+00 1.66599940693400e-01 1.97186974645759e-03
1.96345588235294e+00 1.64915693407543e-01 1.95761764234973e-03
1.97483823529412e+00 1.63248473074496e-01 1.94343588795949e-03
1.98622058823529e+00 1.61598107559659e-01 1.92932482365649e-03
1.99760294117647e+00 1.59964426468639e-01 1.91528476909770e-03
2.00898529411765e+00 1.58347261121834e-01 1.90131601949012e-03
2.02036764705882e+00 1.56746444560710e-01 1.88741885064836e-03
2.03175000000000e+00 1.55161811506621e-01 1.87359352624735e-03
2.04313235294118e+00 1.53593198344358e-01 1.85984028487072e-03
2.05451470588235e+00 1.52040443127867e-01 1.84615934720875e-03
2.06589705882353e+00 1.50503385540668e-01 1.83255092302249e-03
2.07727941176471e+00 1.48981866879883e-01 1.81901519865253e-03
2.08866176470588e+00 1.47475730061453e-01 1.80555234393152e-03
2.10004411764706e+00 1.45984819582092e-01 1.79216251689020e-03
2.11142647058824e+00 1.44508981510579e-01 1.77884585969650e-03
2.12280882352941e+00 1.43048063465180e-01 1.76560249531187e-03
2.13419117647059e+00 1.41601914618183e-01 1.75243253189125e-03
2.14557352941176e+00 1.40170385659841e-01 1.73933606910868e-03
2.15695588235294e+00 1.38753328783477e-01 1.72631318671833e-03
2.16833823529412e+00 1.37350597689584e-01 1.71336395083769e-03
2.17972058823529e+00 1.35962047551152e-01 1.70048841821040e-03
2.19110294117647e+00 1.34587535005308e-01 1.68768663247082e-03
2.20248529411765e+00 1.33226918132512e-01 1.67495862106018e-03
2.21386764705882e+00 1.31880056460081e-01 1.66230439921286e-03
2.22525000000000e+00 1.30546810929327e-01 1.64972397571318e-03
2.23663235294118e+00 1.29227043881645e-01 1.63721734241531e-03
2.24801470588235e+00 1.27920619061685e-01 1.62478447995671e-03
2.25939705882353e+00 1.26627401585719e-01 1.61242536329254e-03
2.27077941176471e+00 1.25347257928149e-01 1.60013995158485e-03
2.28216176470588e+00 1.24080055924339e-01 1.58792819369557e-03
2.29354411764706e+00 1.22825664740185e-01 1.57579003191128e-03
2.30492647058824e+00 1.21583954864254e-01 1.56372539861866e-03
2.31630882352941e+00 1.20354798089255e-01 1.55173421354918e-03
2.32769117647059e+00 1.19138067514431e-01 1.53981638726351e-03
2.33907352941177e+00 1.17933637516670e-01 1.52797182619199e-03
2.35045588235294e+00 1.16741383737920e-01 1.51620042336542e-03
2.36183823529412e+00 1.15561183087299e-01 1.50450206342123e-03
2.37322058823529e+00 1.14392913713283e-01 1.49287662598791e-03
2.38460294117647e+00 1.13236454996214e-01 1.48132398262656e-03
2.39598529411765e+00 1.12091687531200e-01 1.46984399429080e-03
2.40736764705882e+00 1.10958493129850e-01 1.45843651449317e-03
2.41875000000000e+00 1.09836754793867e-01 1.44710139390330e-03
2.43013235294118e+00 1.08726356703317e-01 1.43583847184643e-03
2.44151470588235e+00 1.07627184218119e-01 1.42464758086715e-03
2.45289705882353e+00 1.06539123852621e-01 1.41352855115397e-03
2.46427941176471e+00 1.05462063264208e-01 1.40248120233483e-03
2.47566176470588e+00 1.04395891254582e-01 1.39150534786878e-03
2.48704411764706e+00 1.03340497745277e-01 1.38060079801319e-03
2.49842647058824e+00 1.02295773770669e-01 1.36976735710148e-03
2.50980882352941e+00 1.01261611462722e-01 1.35900482127576e-03
2.52119117647059e+00 1.00237904051978e-01 1.34831298126356e-03
2.53257352941176e+00 9.92245458442867e-02 1.33769162641611e-03
2.54395588235294e+00 9.82214322101865e-02 1.32714053717943e-03
2.55533823529412e+00 9.72284595857115e-02 1.31665948910482e-03
2.56672058823529e+00 9.62455254499722e-02 1.30624825555121e-03
2.57810294117647e+00 9.52725283185197e-02 1.29590660518000e-03
2.58948529411765e+00 9.43093677292523e-02 1.28563429986506e-03
2.60086764705882e+00 9.33559442429851e-02 1.27543109722176e-03
2.61225000000000e+00 9.24121594221365e-02 1.26529675429781e-03
2.62363235294118e+00 9.14779158208237e-02 1.25523102066114e-03
2.63501470588235e+00 9.05531169852836e-02 1.24523364206285e-03
2.64639705882353e+00 8.96376674333287e-02 1.23530436399130e-03
2.65777941176471e+00 8.87314726447353e-02 1.22544292499930e-03
2.66916176470588e+00 8.78344390615321e-02 1.21564906023138e-03
2.68054411764706e+00 8.69464740681977e-02 1.20592250380011e-03
2.69192647058824e+00 8.60674859855100e-02 1.19626298655532e-03
2.70330882352941e+00 8.51973840579539e-02 1.18667023421825e-03
2.71469117647059e+00 8.43360784538233e-02 1.17714396960569e-03
2.72607352941177e+00 8.34834802463810e-02 1.16768391587937e-03
2.73745588235294e+00 8.26395014049027e-02 1.15828979041696e-03
2.74883823529412e+00 8.18040547946647e-02 1.14896130803836e-03
2.76022058823529e+00 8.09770541587815e-02 1.13969818317412e-03
2.77160294117647e+00 8.01584141123861e-02 1.13050012781152e-03
2.78298529411765e+00 7.93480501309840e-02 1.12136684977429e-03
2.79436764705882e+00 7.85458785502909e-02 1.11229805475231e-03
2.80575000000000e+00 7.77518165489496e-02 1.10329344927567e-03
2.81713235294118e+00 7.69657821401777e-02 1.09435273508288e-03
2.82851470588235e+00 7.61876941715142e-02 1.08547561207244e-03
2.83989705882353e+00 7.54174723081494e-02 1.07666178116822e-03
2.85127941176471e+00 7.46550370248206e-02 1.06791093888137e-03
2.86266176470588e+00 7.39003096054783e-02 1.05922278015409e-03
2.87404411764706e+00 7.31532121272086e-02 1.05059700027040e-03
2.88542647058824e+00 7.24136674548611e-02 1.04203329302620e-03
2.89680882352941e+00 7.16815992306307e-02 1.03353134919336e-03
2.90819117647059e+00 7.09569318736097e-02 1.02509085830860e-03
2.91957352941176e+00 7.02395905644764e-02 1.01671151129705e-03
2.93095588235294e+00 6.95295012379440e-02 1.00839299547279e-03
2.94233823529412e+00 6.88265905822449e-02 1.00013499714361e-03
2.95372058823529e+00 6.81307860243612e-02 9.91937203357347e-04
2.96510294117647e+00 6.74420157249556e-02 9.83799300216308e-04
2.97648529411765e+00 6.67602085687277e-02 9.75720971460563e-04
2.98786764705882e+00 6.60852941638081e-02 9.67701900102804e-04
2.99925000000000e+00 6.54172028276922e-02 9.59741770832829e-04
3.01063235294118e+00 6.47558655801985e-02 9.51840265419962e-04
3.02201470588235e+00 6.41012141428115e-02 9.43997065098938e-04
3.03339705882353e+00 6.34531809251057e-02 9.36211852887679e-04
3.04477941176471e+00 6.28116990179145e-02 9.28484309146773e-04
3.05616176470588e+00 6.21767021926270e-02 9.20814113879251e-04
3.06754411764706e+00 6.15481248880879e-02 9.13200948272297e-04
3.07892647058824e+00 6.09259022059345e-02 9.05644493194701e-04
3.09030882352941e+00 6.03099699019595e-02 8.98144427931567e-04
3.10169117647059e+00 5.97002643853420e-02 8.90700431627770e-04
3.11307352941177e+00 5.90967227061630e-02 8.83312185412442e-04
3.12445588235294e+00 5.84992825490397e-02 8.75979368313552e-04
3.13583823529412e+00 5.79078822323200e-02 8.68701659367012e-04
3.14722058823529e+00 5.73224606960325e-02 8.61478739027391e-04
3.15860294117647e+00 5.67429574974949e-02 8.54310287783023e-04
3.16998529411765e+00 5.61693128033137e-02 8.47195984988635e-04
3.18136764705882e+00 5.56014673885289e-02 8.40135510186204e-04
3.19275000000000e+00 5.50393626251286e-02 8.33128545054148e-04
3.20413235294118e+00 5.44829404761159e-02 8.26174769647496e-04
3.21551470588235e+00 5.39321434946258e-02 8.19273864331827e-04
3.22689705882353e+00 5.33869148128366e-02 8.12425511663048e-04
3.23827941176471e+00 5.28471981362130e-02 8.05629392754987e-04
3.24966176470588e+00 5.23129377426018e-02 7.98885189144411e-04
3.26104411764706e+00 5.17840784715260e-02 7.92192584038523e-04
3.27242647058824e+00 5.12605657201553e-02 7.85551261079532e-04
3.28380882352941e+00 5.07423454361353e-02 7.78960903301670e-04
3.29519117647059e+00 5.02293641166485e-02 7.72421194299060e-04
3.30657352941177e+00 4.97215687982055e-02 7.65931819950505e-04
3.31795588235294e+00 4.92189070512813e-02 7.59492465075386e-04
3.32933823529412e+00 4.87213269793599e-02 7.53102815145564e-04
3.34072058823529e+00 4.82287772090767e-02 7.46762557428150e-04
3.35210294117647e+00 4.77412068864286e-02 7.40471379846301e-04
3.36348529411765e+00 4.72585656701284e-02 7.34228970016439e-04
3.37486764705882e+00 4.67808037306271e-02 7.28035016318268e-04
3.38625000000000e+00 4.63078717407114e-02 7.21889209478586e-04
3.39763235294118e+00 4.58397208705045e-02 7.15791239491607e-04
3.40901470588235e+00 4.53763027864781e-02 7.09740797190288e-04
3.42039705882353e+00 4.49175696423709e-02 7.03737575774186e-04
3.43177941176471e+00 4.44634740743383e-02 6.97781267833611e-04
3.44316176470588e+00 4.40139691999579e-02 6.91871566865480e-04
3.45454411764706e+00 4.35690086094586e-02 6.86008168285014e-04
3.46592647058824e+00 4.31285463622502e-02 6.80190768409023e-04
3.47730882352941e+00 4.26925369809620e-02 6.74419063595272e-04
3.48869117647059e+00 4.22609354504356e-02 6.68692751189782e-04
3.50007352941177e+00 4.18336972093553e-02 6.63011530930029e-04
3.51145588235294e+00 4.14107781457295e-02 6.57375102203412e-04
3.52283823529412e+00 4.09921345958796e-02 6.51783165439930e-04
3.53422058823529e+00 4.05777233363558e-02 6.46235423039836e-04
3.54560294117647e+00 4.01675015806779e-02 6.40731578435535e-04
3.55698529411765e+00 3.97614269738078e-02 6.35271335296984e-04
3.56836764705882e+00 3.93594575911329e-02 6.29854398400282e-04
3.57975000000000e+00 3.89615519307518e-02 6.24480474917259e-04
3.59113235294118e+00 3.85676689092621e-02 6.19149271889244e-04
