Energy (eV)          EEDF (eV^-(3/2))     First Anisotropy
5.18750000000000e-02 5.78388647696910e-02 4.41009683274641e-05
1.55625000000000e-01 5.70127362394326e-02 7.25470452742736e-05
2.59375000000000e-01 5.61984075318603e-02 9.50414282529914e-05
3.63125000000000e-01 5.53957101068356e-02 1.11693459103198e-04
4.66875000000000e-01 5.46044778315269e-02 1.25224373391261e-04
5.70625000000000e-01 5.38245469460243e-02 1.36674737924813e-04
6.74375000000000e-01 5.30557560294458e-02 1.46588853875593e-04
7.78125000000000e-01 5.22979459665290e-02 1.55298845691776e-04
8.81875000000000e-01 5.15509599146985e-02 1.63027236121028e-04
9.85625000000000e-01 5.08146432716052e-02 1.69932874836782e-04
1.08937500000000e+00 5.00888436431281e-02 1.76134503241492e-04
1.19312500000000e+00 4.93734108118334e-02 1.81724049523469e-04
1.29687500000000e+00 4.86681967058848e-02 1.86774677193076e-04
1.40062500000000e+00 4.79730553683971e-02 1.91345930801212e-04
1.50437500000000e+00 4.72878429272275e-02 1.95487172545758e-04
1.60812500000000e+00 4.66124175651991e-02 1.99239961023891e-04
1.71187500000000e+00 4.59466394907488e-02 2.02639747732276e-04
1.81562500000000e+00 4.52903709089955e-02 2.05717118110581e-04
1.91937500000000e+00 4.46434759932201e-02 2.08498719464418e-04
2.02312500000000e+00 4.40058208567545e-02 2.11007968094008e-04
2.12687500000000e+00 4.33772735252708e-02 2.13265597249942e-04
2.23062500000000e+00 4.27577039094670e-02 2.15290088083136e-04
2.33437500000000e+00 4.21469837781429e-02 2.17098013085734e-04
2.43812500000000e+00 4.15449867316596e-02 2.18704313064463e-04
2.54187500000000e+00 4.09515881757796e-02 2.20122522921757e-04
2.64562500000000e+00 4.03666652958794e-02 2.21364957510334e-04
2.74937500000000e+00 3.97900970315306e-02 2.22442865989517e-04
2.85312500000000e+00 3.92217640514447e-02 2.23366561071472e-04
2.95687500000000e+00 3.86615487287748e-02 2.24145528057126e-04
3.06062500000000e+00 3.81093351167710e-02 2.24788517461348e-04
3.16437500000000e+00 3.75650089247830e-02 2.25303624203488e-04
3.26812500000000e+00 3.70284574946053e-02 2.25698355716291e-04
3.37187500000000e+00 3.64995697771610e-02 2.25979690849690e-04
3.47562500000000e+00 3.59782363095177e-02 2.26154131077940e-04
3.57937500000000e+00 3.54643491922327e-02 2.26227745231907e-04
3.68312500000000e+00 3.49578020670207e-02 2.26206208753076e-04
3.78687500000000e+00 3.44584900947413e-02 2.26094838287483e-04
3.89062500000000e+00 3.39663099337006e-02 2.25898622295424e-04
3.99437500000000e+00 3.34811597182627e-02 2.25622248238539e-04
4.09812500000000e+00 3.30029390377669e-02 2.25270126813465e-04
4.20187500000000e+00 3.25315489157458e-02 2.24846413626004e-04
4.30562500000000e+00 3.20668917894401e-02 2.24355028638288e-04
4.40937500000000e+00 3.16088714896066e-02 2.23799673670837e-04
4.51312500000000e+00 3.11573932206141e-02 2.23183848199485e-04
4.61687500000000e+00 3.07123635408235e-02 2.22510863652383e-04
4.72062500000000e+00 3.02736903432486e-02 2.21783856383319e-04
4.82437500000000e+00 2.98412828364928e-02 2.21005799473082e-04
4.92812500000000e+00 2.94150515259581e-02 2.20179513490219e-04
5.03187500000000e+00 2.89949081953228e-02 2.19307676325095e-04
5.13562500000000e+00 2.85807658882833e-02 2.18392832196472e-04
5.23937500000000e+00 2.81725388905568e-02 2.17437399917229e-04
5.34312500000000e+00 2.77701427121417e-02 2.16443680495120e-04
5.44687500000000e+00 2.73734940698301e-02 2.15413864135270e-04
5.55062500000000e+00 2.69825108699715e-02 2.14350036703157e-04
5.65437500000000e+00 2.65971121914817e-02 2.13254185699974e-04
5.75812500000000e+00 2.62172182690948e-02 2.12128205796351e-04
5.86187500000000e+00 2.58427504768541e-02 2.10973903965213e-04
5.96562500000000e+00 2.54736313118395e-02 2.09793004250113e-04
6.06937500000000e+00 2.51097843781265e-02 2.08587152201437e-04
6.17312500000000e+00 2.47511343709745e-02 2.07357919009442e-04
6.27687500000000e+00 2.43976070612417e-02 2.06106805360034e-04
6.38062500000000e+00 2.40491292800215e-02 2.04835245036626e-04
6.48437500000000e+00 2.37056289034993e-02 2.03544608288985e-04
6.58812500000000e+00 2.33670348380246e-02 2.02236204987952e-04
6.69187500000000e+00 2.30332770053975e-02 2.00911287583080e-04
6.79562500000000e+00 2.27042863283642e-02 1.99571053878652e-04
6.89937500000000e+00 2.23799947163207e-02 1.98216649641952e-04
7.00312500000000e+00 2.20603350512197e-02 1.96849171056554e-04
7.10687500000000e+00 2.17452411736798e-02 1.95469667032118e-04
7.21062500000000e+00 2.14346478692922e-02 1.94079141381175e-04
7.31437500000000e+00 2.11284908551237e-02 1.92678554872515e-04
7.41812500000000e+00 2.08267067664120e-02 1.91268827169858e-04
7.52187500000000e+00 2.05292331434512e-02 1.89850838663864e-04
7.62562500000000e+00 2.02360084186647e-02 1.88425432204756e-04
7.72937500000000e+00 1.99469719038628e-02 1.86993414742300e-04
7.83312500000000e+00 1.96620637776818e-02 1.85555558879298e-04
7.93687500000000e+00 1.93812250732033e-02 1.84112604344255e-04
8.04062500000000e+00 1.91043976657496e-02 1.82665259388466e-04
8.14437500000000e+00 1.88315242608539e-02 1.81214202112313e-04
8.24812500000000e+00 1.85625483824023e-02 1.79760081725250e-04
8.35187500000000e+00 1.82974143609446e-02 1.78303519743528e-04
8.45562500000000e+00 1.80360673221731e-02 1.76845111129492e-04
8.55937500000000e+00 1.77784531755648e-02 1.75385425375985e-04
8.66312500000000e+00 1.75245186031866e-02 1.73925007539079e-04
8.76687500000000e+00 1.72742110486605e-02 1.72464379222168e-04
8.87062500000000e+00 1.70274787062855e-02 1.71004039514271e-04
8.97437500000000e+00 1.67842705103159e-02 1.69544465885120e-04
9.07812500000000e+00 1.65445361243923e-02 1.68086115039471e-04
9.18187500000000e+00 1.63082259311232e-02 1.66629423732925e-04
9.28562500000000e+00 1.60752910218164e-02 1.65174809551354e-04
9.38937500000000e+00 1.58456831863558e-02 1.63722671655939e-04
9.49312500000000e+00 1.56193549032238e-02 1.62273391495616e-04
9.59687500000000e+00 1.53962593296660e-02 1.60827333488682e-04
9.70062500000000e+00 1.51763502919959e-02 1.59384845675183e-04
9.80437500000000e+00 1.49595822760385e-02 1.57946260341594e-04
9.90812500000000e+00 1.47459104177104e-02 1.56511894619166e-04
1.00118750000000e+01 1.45352904937344e-02 1.55082051057341e-04
1.01156250000000e+01 1.43276789124866e-02 1.53657018173430e-04
1.02193750000000e+01 1.41230327049743e-02 1.52237070979735e-04
1.03231250000000e+01 1.39213095159429e-02 1.50822471489243e-04
1.04268750000000e+01 1.37224675951095e-02 1.49413469200895e-04
1.05306250000000e+01 1.35264657885223e-02 1.48010301565446e-04
1.06343750000000e+01 1.33332635300425e-02 1.46613194432799e-04
1.07381250000000e+01 1.31428208329489e-02 1.45222362481685e-04
1.08418750000000e+01 1.29550982816616e-02 1.43838009632558e-04
1.09456250000000e+01 1.27700570235845e-02 1.42460329444412e-04
1.10493750000000e+01 1.25876587610638e-02 1.41089505496289e-04
1.11531250000000e+01 1.24078657434617e-02 1.39725711754155e-04
1.12568750000000e+01 1.22306407593431e-02 1.38369112923803e-04
1.13606250000000e+01 1.20559471287744e-02 1.37019864790410e-04
1.14643750000000e+01 1.18837486957315e-02 1.35678114545304e-04
1.15681250000000e+01 1.17140098206168e-02 1.34344001100534e-04
1.16718750000000e+01 1.15466953728829e-02 1.33017655391743e-04
1.17756250000000e+01 1.13817707237619e-02 1.31699200669839e-04
1.18793750000000e+01 1.12192017390981e-02 1.30388752781969e-04
1.19831250000000e+01 1.10589547722834e-02 1.29086420442214e-04
1.20868750000000e+01 1.09009966572934e-02 1.27792305492435e-04
1.21906250000000e+01 1.07452947018235e-02 1.26506503153710e-04
1.22943750000000e+01 1.05918166805221e-02 1.25229102268703e-04
1.23981250000000e+01 1.04405308283214e-02 1.23960185535353e-04
1.25018750000000e+01 1.02914058338627e-02 1.22699829732241e-04
1.26056250000000e+01 1.01444108330162e-02 1.21448105935949e-04
1.27093750000000e+01 9.99951540249295e-03 1.20205079730753e-04
1.28131250000000e+01 9.85668955354841e-03 1.18970811410924e-04
1.29168750000000e+01 9.71590372577546e-03 1.17745356175943e-04
1.30206250000000e+01 9.57712878098651e-03 1.16528764318921e-04
1.31243750000000e+01 9.44033599718276e-03 1.15321081408433e-04
1.32281250000000e+01 9.30549706260968e-03 1.14122348464078e-04
1.33318750000000e+01 9.17258406989738e-03 1.12932602125977e-04
1.34356250000000e+01 9.04156951028467e-03 1.11751874818426e-04
1.35393750000000e+01 8.91242626792560e-03 1.10580194907942e-04
1.36431250000000e+01 8.78512761427738e-03 1.09417586855916e-04
1.37468750000000e+01 8.65964720256839e-03 1.08264071366049e-04
1.38506250000000e+01 8.53595906234526e-03 1.07119665526779e-04
1.39543750000000e+01 8.41403759409778e-03 1.05984382948889e-04
1.40581250000000e+01 8.29385756396067e-03 1.04858233898455e-04
1.41618750000000e+01 8.17539409849090e-03 1.03741225425309e-04
1.42656250000000e+01 8.05862267951975e-03 1.02633361487176e-04
1.43693750000000e+01 7.94351913907828e-03 1.01534643069664e-04
1.44731250000000e+01 7.83005965439535e-03 1.00445068302206e-04
1.45768750000000e+01 7.71822074296705e-03 9.93646325701418e-05
1.46806250000000e+01 7.60797925769661e-03 9.82933286230558e-05
1.47843750000000e+01 7.49931238210363e-03 9.72311466795052e-05
1.48881250000000e+01 7.39219762560183e-03 9.61780745282627e-05
1.49918750000000e+01 7.28661281884420e-03 9.51340976261904e-05
1.50956250000000e+01 7.18253610913465e-03 9.40991991928748e-05
1.51993750000000e+01 7.07994595590523e-03 9.30733603021300e-05
1.53031250000000e+01 6.97882112625785e-03 9.20565599704576e-05
1.54068750000000e+01 6.87914069056982e-03 9.10487752425942e-05
1.55106250000000e+01 6.78088401816203e-03 9.00499812742234e-05
1.56143750000000e+01 6.68403077302909e-03 8.90601514119672e-05
1.57181250000000e+01 6.58856090963040e-03 8.80792572707325e-05
1.58218750000000e+01 6.49445466874136e-03 8.71072688085002e-05
1.59256250000000e+01 6.40169257336388e-03 8.61441543986615e-05
1.60293750000000e+01 6.31025542469521e-03 8.51898808999627e-05
1.61331250000000e+01 6.22012429815440e-03 8.42444137241445e-05
1.62368750000000e+01 6.13128053946557e-03 8.33077169013526e-05
1.63406250000000e+01 6.04370576079701e-03 8.23797531433975e-05
1.64443750000000e+01 5.95738183695552e-03 8.14604839049209e-05
1.65481250000000e+01 5.87229090163503e-03 8.05498694425542e-05
1.66518750000000e+01 5.78841534371888e-03 7.96478688721118e-05
1.67556250000000e+01 5.70573780363489e-03 7.87544402239039e-05
1.68593750000000e+01 5.62424116976243e-03 7.78695404962281e-05
1.69631250000000e+01 5.54390857489091e-03 7.69931257070818e-05
1.70668750000000e+01 5.46472339272877e-03 7.61251509441655e-05
1.71706250000000e+01 5.38666923446238e-03 7.52655704132254e-05
1.72743750000000e+01 5.30972994536407e-03 7.44143374847968e-05
1.73781250000000e+01 5.23388960144864e-03 7.35714047393934e-05
1.74818750000000e+01 5.15913250617756e-03 7.27367240111952e-05
1.75856250000000e+01 5.08544318721033e-03 7.19102464302731e-05
1.76893750000000e+01 5.01280639320216e-03 7.10919224634051e-05
1.77931250000000e+01 4.94120709064744e-03 7.02817019535298e-05
1.78968750000000e+01 4.87063046076831e-03 6.94795341578704e-05
1.80006250000000e+01 4.80106189644760e-03 6.86853677847865e-05
1.81043750000000e+01 4.73248699920565e-03 6.78991510293809e-05
1.82081250000000e+01 4.66489157622025e-03 6.71208316078968e-05
1.83118750000000e+01 4.59826163738924e-03 6.63503567909562e-05
1.84156250000000e+01 4.53258339243495e-03 6.55876734356723e-05
1.85193750000000e+01 4.46784324805005e-03 6.48327280166656e-05
1.86231250000000e+01 4.40402780508421e-03 6.40854666560127e-05
1.87268750000000e+01 4.34112385577087e-03 6.33458351521762e-05
1.88306250000000e+01 4.27911838099364e-03 6.26137790079424e-05
1.89343750000000e+01 4.21799854759179e-03 6.18892434573856e-05
1.90381250000000e+01 4.15775170570420e-03 6.11721734919005e-05
1.91418750000000e+01 4.09836538615118e-03 6.04625138853282e-05
1.92456250000000e+01 4.03982729785382e-03 5.97602092182133e-05
1.93493750000000e+01 3.98212532529008e-03 5.90652039011951e-05
1.94531250000000e+01 3.92524752598730e-03 5.83774421975824e-05
1.95568750000000e+01 3.86918212805043e-03 5.76968682451295e-05
1.96606250000000e+01 3.81391752772570e-03 5.70234260770280e-05
1.97643750000000e+01 3.75944228699893e-03 5.63570596421613e-05
1.98681250000000e+01 3.70574513122829e-03 5.56977128246202e-05
1.99718750000000e+01 3.65281494681077e-03 5.50453294625106e-05
2.00756250000000e+01 3.60064077888205e-03 5.43998533660847e-05
2.01793750000000e+01 3.54921182904915e-03 5.37612283352064e-05
2.02831250000000e+01 3.49851745315553e-03 5.31293981761671e-05
2.03868750000000e+01 3.44854715907812e-03 5.25043067178872e-05
2.04906250000000e+01 3.39929060455571e-03 5.18858978275067e-05
2.05943750000000e+01 3.35073759504849e-03 5.12741154253877e-05
2.06981250000000e+01 3.30287808162808e-03 5.06689034995541e-05
2.08018750000000e+01 3.25570215889775e-03 5.00702061195794e-05
2.09056250000000e+01 3.20920006294226e-03 4.94779674499349e-05
2.10093750000000e+01 3.16336216930710e-03 4.88921317628242e-05
2.11131250000000e+01 3.11817899100652e-03 4.83126434505205e-05
2.12168750000000e+01 3.07364117655998e-03 4.77394470372071e-05
2.13206250000000e+01 3.02973950805677e-03 4.71724871903510e-05
2.14243750000000e+01 2.98646489924811e-03 4.66117087316214e-05
2.15281250000000e+01 2.94380839366667e-03 4.60570566473599e-05
2.16318750000000e+01 2.90176116277280e-03 4.55084760986265e-05
2.17356250000000e+01 2.86031450412732e-03 4.49659124308231e-05
2.18393750000000e+01 2.81945983959043e-03 4.44293111829164e-05
2.19431250000000e+01 2.77918871354625e-03 4.38986180962708e-05
2.20468750000000e+01 2.73949279115282e-03 4.33737791230978e-05
2.21506250000000e+01 2.70036385661703e-03 4.28547404345420e-05
2.22543750000000e+01 2.66179381149422e-03 4.23414484284063e-05
2.23581250000000e+01 2.62377467301205e-03 4.18338497365335e-05
2.24618750000000e+01 2.58629857241835e-03 4.13318912318582e-05
2.25656250000000e+01 2.54935775335250e-03 4.08355200351270e-05
2.26693750000000e+01 2.51294457024014e-03 4.03446835213054e-05
2.27731250000000e+01 2.47705148671075e-03 3.98593293256833e-05
2.28768750000000e+01 2.44167107403789e-03 3.93794053496872e-05
2.29806250000000e+01 2.40679600960169e-03 3.89048597664018e-05
2.30843750000000e+01 2.37241907537326e-03 3.84356410258159e-05
2.31881250000000e+01 2.33853315642084e-03 3.79716978598026e-05
2.32918750000000e+01 2.30513123943720e-03 3.75129792868352e-05
2.33956250000000e+01 2.27220641128811e-03 3.70594346164555e-05
2.34993750000000e+01 2.23975185758159e-03 3.66110134534986e-05
2.36031250000000e+01 2.20776086125747e-03 3.61676657020780e-05
2.37068750000000e+01 2.17622680119722e-03 3.57293415693466e-05
2.38106250000000e+01 2.14514315085359e-03 3.52959915690331e-05
2.39143750000000e+01 2.11450347689981e-03 3.48675665247667e-05
2.40181250000000e+01 2.08430143789809e-03 3.44440175731937e-05
2.41218750000000e+01 2.05453078298716e-03 3.40252961668901e-05
2.42256250000000e+01 2.02518535058855e-03 3.36113540770873e-05
2.43293750000000e+01 1.99625906713128e-03 3.32021433962033e-05
2.44331250000000e+01 1.96774594579490e-03 3.27976165401946e-05
2.45368750000000e+01 1.93964008527038e-03 3.23977262507335e-05
2.46406250000000e+01 1.91193566853869e-03 3.20024255972132e-05
2.47443750000000e+01 1.88462696166692e-03 3.16116679785894e-05
2.48481250000000e+01 1.85770831262152e-03 3.12254071250629e-05
2.49518750000000e+01 1.83117415009847e-03 3.08435970996075e-05
2.50556250000000e+01 1.80501898237025e-03 3.04661922993507e-05
2.51593750000000e+01 1.77923739614920e-03 3.00931474568083e-05
2.52631250000000e+01 1.75382405546716e-03 2.97244176409819e-05
2.53668750000000e+01 1.72877370057106e-03 2.93599582583237e-05
2.54706250000000e+01 1.70408114683436e-03 2.89997250535677e-05
2.55743750000000e+01 1.67974128368395e-03 2.86436741104367e-05
2.56781250000000e+01 1.65574907354250e-03 2.82917618522321e-05
2.57818750000000e+01 1.63209955078573e-03 2.79439450423039e-05
2.58856250000000e+01 1.60878782071481e-03 2.76001807844055e-05
2.59893750000000e+01 1.58580905854320e-03 2.72604265229438e-05
2.60931250000000e+01 1.56315850839815e-03 2.69246400431243e-05
2.61968750000000e+01 1.54083148233635e-03 2.65927794709918e-05
2.63006250000000e+01 1.51882335937368e-03 2.62648032733758e-05
2.64043750000000e+01 1.49712958452882e-03 2.59406702577408e-05
2.65081250000000e+01 1.47574566788052e-03 2.56203395719465e-05
2.66118750000000e+01 1.45466718363830e-03 2.53037707039208e-05
2.67156250000000e+01 1.43388976922649e-03 2.49909234812465e-05
2.68193750000000e+01 1.41340912438127e-03 2.46817580706697e-05
2.69231250000000e+01 1.39322101026073e-03 2.43762349775287e-05
2.70268750000000e+01 1.37332124856745e-03 2.40743150451064e-05
2.71306250000000e+01 1.35370572068383e-03 2.37759594539121e-05
2.72343750000000e+01 1.33437036681963e-03 2.34811297208945e-05
2.73381250000000e+01 1.31531118517169e-03 2.31897876985858e-05
2.74418750000000e+01 1.29652423109574e-03 2.29018955741817e-05
2.75456250000000e+01 1.27800561628995e-03 2.26174158685607e-05
2.76493750000000e+01 1.25975150799016e-03 2.23363114352448e-05
2.77531250000000e+01 1.24175812817667e-03 2.20585454593010e-05
2.78568750000000e+01 1.22402175279228e-03 2.17840814561891e-05
2.79606250000000e+01 1.20653871097152e-03 2.15128832705583e-05
2.80643750000000e+01 1.18930538428091e-03 2.12449150749935e-05
2.81681250000000e+01 1.17231820597006e-03 2.09801413687117e-05
2.82718750000000e+01 1.15557366023346e-03 2.07185269762144e-05
2.83756250000000e+01 1.13906828148284e-03 2.04600370458946e-05
2.84793750000000e+01 1.12279865362987e-03 2.02046370486026e-05
2.85831250000000e+01 1.10676140937917e-03 1.99522927761722e-05
2.86868750000000e+01 1.09095322953135e-03 1.97029703399067e-05
2.87906250000000e+01 1.07537084229609e-03 1.94566361690285e-05
2.88943750000000e+01 1.06001102261494e-03 1.92132570090982e-05
2.89981250000000e+01 1.04487059149387e-03 1.89727999203942e-05
2.91018750000000e+01 1.02994641534528e-03 1.87352322762635e-05
2.92056250000000e+01 1.01523540533950e-03 1.85005217614435e-05
2.93093750000000e+01 1.00073451676543e-03 1.82686363703540e-05
2.94131250000000e+01 9.86440748400469e-04 1.80395444053627e-05
2.95168750000000e+01 9.72351141889270e-04 1.78132144750243e-05
2.96206250000000e+01 9.58462781131517e-04 1.75896154922959e-05
2.97243750000000e+01 9.44772791678355e-04 1.73687166727305e-05
2.98281250000000e+01 9.31278340137481e-04 1.71504875326468e-05
2.99318750000000e+01 9.17976633586717e-04 1.69348978872803e-05
3.00356250000000e+01 9.04864918995968e-04 1.67219178489142e-05
3.01393750000000e+01 8.91940482657431e-04 1.65115178249941e-05
3.02431250000000e+01 8.79200649623942e-04 1.63036685162244e-05
3.03468750000000e+01 8.66642783155350e-04 1.60983409146494e-05
3.04506250000000e+01 8.54264284172792e-04 1.58955063017192e-05
3.05543750000000e+01 8.42062590720771e-04 1.56951362463433e-05
3.06581250000000e+01 8.30035177436907e-04 1.54972026029314e-05
3.07618750000000e+01 8.18179555029274e-04 1.53016775094208e-05
3.08656250000000e+01 8.06493269761190e-04 1.51085333852968e-05
3.09693750000000e+01 7.94973902943375e-04 1.49177429296003e-05
3.10731250000000e+01 7.83619070433357e-04 1.47292791189275e-05
3.11768750000000e+01 7.72426422142033e-04 1.45431152054205e-05
3.12806250000000e+01 7.61393641547271e-04 1.43592247147535e-05
3.13843750000000e+01 7.50518445214471e-04 1.41775814441121e-05
3.14881250000000e+01 7.39798582323958e-04 1.39981594601638e-05
3.15918750000000e+01 7.29231834205139e-04 1.38209330970270e-05
3.16956250000000e+01 7.18816013877309e-04 1.36458769542348e-05
3.17993750000000e+01 7.08548965597013e-04 1.34729658946958e-05
3.19031250000000e+01 6.98428564411877e-04 1.33021750426517e-05
3.20068750000000e+01 6.88452715720812e-04 1.31334797816331e-05
3.21106250000000e+01 6.78619354840495e-04 1.29668557524140e-05
3.22143750000000e+01 6.68926446578048e-04 1.28022788509658e-05
3.23181250000000e+01 6.59371984809817e-04 1.26397252264091e-05
3.24218750000000e+01 6.49953992066166e-04 1.24791712789693e-05
3.25256250000000e+01 6.40670519122208e-04 1.23205936579305e-05
3.26293750000000e+01 6.31519644594373e-04 1.21639692595919e-05
3.27331250000000e+01 6.22499474542748e-04 1.20092752252249e-05
