Energy (eV)          EEDF (eV^-(3/2))     First Anisotropy
1.47857142857143e-03 1.46839997518376e+01 1.10872673325848e-02
4.43571428571429e-03 1.44443931824831e+01 1.82201096020125e-02
7.39285714285714e-03 1.42086964003315e+01 2.38202885863421e-02
1.03500000000000e-02 1.39768456068112e+01 2.79360252214845e-02
1.33071428571429e-02 1.37487780453479e+01 3.12556510024020e-02
1.62642857142857e-02 1.35244319819668e+01 3.40432285217081e-02
1.92214285714286e-02 1.33037466922535e+01 3.64373050129508e-02
2.21785714285714e-02 1.30866624404100e+01 3.85226660111626e-02
2.51357142857143e-02 1.28731204664420e+01 4.03562758589181e-02
2.80928571428571e-02 1.26630629699474e+01 4.19789072564782e-02
3.10500000000000e-02 1.24564330921462e+01 4.34211150744321e-02
3.40071428571429e-02 1.22531749033734e+01 4.47066108521685e-02
3.69642857142857e-02 1.20532333854605e+01 4.58543081129974e-02
3.99214285714286e-02 1.18565544190036e+01 4.68796315596745e-02
4.28785714285714e-02 1.16630847668047e+01 4.77953925447372e-02
4.58357142857143e-02 1.14727720608020e+01 4.86123956932494e-02
4.87928571428571e-02 1.12855647878138e+01 4.93398722702644e-02
5.17500000000000e-02 1.11014122745027e+01 4.99857974419746e-02
5.47071428571429e-02 1.09202646750549e+01 5.05571278676822e-02
5.76642857142857e-02 1.07420729564144e+01 5.10599829994960e-02
6.06214285714286e-02 1.05667888861781e+01 5.14997857442311e-02
6.35785714285714e-02 1.03943650184657e+01 5.18813732707668e-02
6.65357142857143e-02 1.02247546818494e+01 5.22090853587103e-02
6.94928571428571e-02 1.00579119666838e+01 5.24868358898783e-02
7.24500000000000e-02 9.89379171201614e+00 5.27181710809050e-02
7.54071428571429e-02 9.73234949421850e+00 5.29063175432215e-02
7.83642857142857e-02 9.57354161416417e+00 5.30542222558692e-02
8.13214285714286e-02 9.41732508614706e+00 5.31645860740049e-02
8.42785714285714e-02 9.26365762554478e+00 5.32398920618935e-02
8.72357142857143e-02 9.11249763788325e+00 5.32824295356111e-02
9.01928571428571e-02 8.96380420755548e+00 5.32943147603555e-02
9.31500000000000e-02 8.81753708629926e+00 5.32775086760053e-02
9.61071428571428e-02 8.67365668288495e+00 5.32338322957072e-02
9.90642857142857e-02 8.53212405184886e+00 5.31649801025402e-02
1.02021428571429e-01 8.39290088358721e+00 5.30725318056737e-02
1.04978571428571e-01 8.25594949303102e+00 5.29579626215783e-02
1.07935714285714e-01 8.12123281039281e+00 5.28226523202207e-02
1.10892857142857e-01 7.98871437077841e+00 5.26678933618727e-02
1.13850000000000e-01 7.85835830430935e+00 5.24948979599557e-02
1.16807142857143e-01 7.73012932736096e+00 5.23048047214052e-02
1.19764285714286e-01 7.60399273012079e+00 5.20986842178532e-02
1.22721428571429e-01 7.47991437013654e+00 5.18775439711425e-02
1.25678571428571e-01 7.35786066207540e+00 5.16423333498714e-02
1.28635714285714e-01 7.23779856862939e+00 5.13939476802197e-02
1.31592857142857e-01 7.11969559158146e+00 5.11332320499924e-02
1.34550000000000e-01 7.00351976300441e+00 5.08609847013675e-02
1.37507142857143e-01 6.88923963732321e+00 5.05779603759833e-02
1.40464285714286e-01 6.77682428062215e+00 5.02848730572560e-02
1.43421428571429e-01 6.66624326448980e+00 4.99823984643753e-02
1.46378571428571e-01 6.55746665703063e+00 4.96711766722706e-02
1.49335714285714e-01 6.45046501476050e+00 4.93518142576968e-02
1.52292857142857e-01 6.34520937464261e+00 4.90248863400850e-02
1.55250000000000e-01 6.24167124624487e+00 4.86909384108025e-02
1.58207142857143e-01 6.13982260458127e+00 4.83504882353292e-02
1.61164285714286e-01 6.03963588084074e+00 4.80040273532406e-02
1.64121428571429e-01 5.94108395663739e+00 4.76520224568404e-02
1.67078571428571e-01 5.84414015608998e+00 4.72949169489013e-02
1.70035714285714e-01 5.74877823859961e+00 4.69331321724584e-02
1.72992857142857e-01 5.65497239175072e+00 4.65670686104594e-02
1.75950000000000e-01 5.56269722432227e+00 4.61971069598244e-02
1.78907142857143e-01 5.47192775985017e+00 4.58236093121594e-02
1.81864285714286e-01 5.38263942854099e+00 4.54469200382723e-02
1.84821428571429e-01 5.29480806196774e+00 4.50673666066145e-02
1.87778571428571e-01 5.20840988607213e+00 4.46852605836036e-02
1.90735714285714e-01 5.12342151472823e+00 4.43008983877766e-02
1.93692857142857e-01 5.03981994341506e+00 4.39145620439595e-02
1.96650000000000e-01 4.95758254298833e+00 4.35265198546168e-02
1.99607142857143e-01 4.87668705390259e+00 4.31370271818340e-02
2.02564285714286e-01 4.79711157912862e+00 4.27463269982844e-02
2.05521428571429e-01 4.71883457929973e+00 4.23546503990299e-02
2.08478571428571e-01 4.64183486651824e+00 4.19622172817997e-02
2.11435714285714e-01 4.56609159861950e+00 4.15692368333475e-02
2.14392857142857e-01 4.49158427353231e+00 4.11759080280638e-02
2.17350000000000e-01 4.41829272372844e+00 4.07824200676844e-02
2.20307142857143e-01 4.34619711104392e+00 4.03889529250681e-02
2.23264285714286e-01 4.27527792045655e+00 3.99956777015279e-02
2.26221428571429e-01 4.20551595566882e+00 3.96027569593181e-02
2.29178571428571e-01 4.13689233361921e+00 3.92103452047188e-02
2.32135714285714e-01 4.06938847937030e+00 3.88185892137794e-02
2.35092857142857e-01 4.00298612108231e+00 3.84276283748578e-02
2.38050000000000e-01 3.93766728506665e+00 3.80375949869449e-02
2.41007142857143e-01 3.87341429114887e+00 3.76486146520941e-02
2.43964285714286e-01 3.81020974718905e+00 3.72608065141393e-02
2.46921428571429e-01 3.74803654507807e+00 3.68742834807565e-02
2.49878571428571e-01 3.68687785586876e+00 3.64891525780462e-02
2.52835714285714e-01 3.62671712522015e+00 3.61055151750112e-02
2.55792857142857e-01 3.56753806891768e+00 3.57234672258930e-02
2.58750000000000e-01 3.50932466846480e+00 3.53430994780460e-02
2.61707142857143e-01 3.45206116693426e+00 3.49644977633491e-02
2.64664285714286e-01 3.39573206413394e+00 3.45877431611077e-02
2.67621428571429e-01 3.34032211298837e+00 3.42129121492846e-02
2.70578571428571e-01 3.28581631521659e+00 3.38400768714794e-02
2.73535714285714e-01 3.23219991727206e+00 3.34693052949606e-02
2.76492857142857e-01 3.17945840634997e+00 3.31006613860375e-02
2.79450000000000e-01 3.12757750645857e+00 3.27342052578373e-02
2.82407142857143e-01 3.07654317470936e+00 3.23699933915619e-02
2.85364285714286e-01 3.02634159704636e+00 3.20080787492588e-02
2.88321428571429e-01 2.97695918498307e+00 3.16485108781203e-02
2.91278571428571e-01 2.92838257176347e+00 3.12913361155398e-02
2.94235714285714e-01 2.88059860874358e+00 3.09365977021153e-02
2.97192857142857e-01 2.83359436183304e+00 3.05843359107907e-02
3.00150000000000e-01 2.78735710799385e+00 3.02345881534691e-02
3.03107142857143e-01 2.74187433192465e+00 2.98873891519501e-02
3.06064285714286e-01 2.69713372228337e+00 2.95427710166539e-02
3.09021428571429e-01 2.65312316874992e+00 2.92007633190101e-02
3.11978571428571e-01 2.60983075861463e+00 2.88613932514354e-02
3.14935714285714e-01 2.56724477355351e+00 2.85246857090176e-02
3.17892857142857e-01 2.52535368645687e+00 2.81906633858831e-02
3.20850000000000e-01 2.48414615830892e+00 2.78593468529163e-02
3.23807142857143e-01 2.44361103522543e+00 2.75307546916479e-02
3.26764285714286e-01 2.40373734510964e+00 2.72049035493502e-02
3.29721428571429e-01 2.36451429501173e+00 2.68818081892881e-02
3.32678571428571e-01 2.32593126809607e+00 2.65614816170816e-02
3.35635714285714e-01 2.28797782076736e+00 2.62439351401496e-02
3.38592857142857e-01 2.25064367984410e+00 2.59291784403372e-02
3.41550000000000e-01 2.21391873977767e+00 2.56172196309385e-02
3.44507142857143e-01 2.17779306000654e+00 2.53080653627191e-02
3.47464285714286e-01 2.14225686199341e+00 2.50017208623415e-02
3.50421428571429e-01 2.10730052685416e+00 2.46981899670098e-02
3.53378571428571e-01 2.07291459266103e+00 2.43974752252731e-02
3.56335714285714e-01 2.03908975188137e+00 2.40995779404064e-02
3.59292857142857e-01 2.00581684885857e+00 2.38044982255358e-02
3.62250000000000e-01 1.97308687733368e+00 2.35122350455991e-02
3.65207142857143e-01 1.94089097808283e+00 2.32227863020397e-02
3.68164285714286e-01 1.90922043629061e+00 2.29361488593150e-02
3.71121428571429e-01 1.87806667942279e+00 2.26523185684148e-02
3.74078571428571e-01 1.84742127482768e+00 2.23712903479156e-02
3.77035714285714e-01 1.81727592745348e+00 2.20930582156042e-02
3.79992857142857e-01 1.78762247760323e+00 2.18176153305115e-02
3.82950000000000e-01 1.75845289872605e+00 2.15449540237729e-02
3.85907142857143e-01 1.72975929530791e+00 2.12750658667564e-02
3.88864285714286e-01 1.70153390054176e+00 2.10079416889802e-02
3.91821428571429e-01 1.67376907442051e+00 2.07435715936289e-02
3.94778571428571e-01 1.64645730160307e+00 2.04819450231433e-02
3.97735714285714e-01 1.61959118938002e+00 2.02230507821521e-02
4.00692857142857e-01 1.59316346567278e+00 1.99668770695989e-02
4.03650000000000e-01 1.56716697706508e+00 1.97134115013390e-02
4.06607142857143e-01 1.54159468692035e+00 1.94626411652495e-02
4.09564285714286e-01 1.51643967331406e+00 1.92145526329125e-02
4.12521428571429e-01 1.49169512732519e+00 1.89691319693530e-02
4.15478571428571e-01 1.46735435113747e+00 1.87263647863873e-02
4.18435714285714e-01 1.44341075622636e+00 1.84862362590740e-02
4.21392857142857e-01 1.41985786157579e+00 1.82487311502775e-02
4.24350000000000e-01 1.39668929192385e+00 1.80138338270666e-02
4.27307142857143e-01 1.37389877608262e+00 1.77815283054929e-02
4.30264285714286e-01 1.35148014510248e+00 1.75517982577389e-02
4.33221428571429e-01 1.32942733074230e+00 1.73246270176745e-02
4.36178571428571e-01 1.30773436377964e+00 1.70999976244274e-02
4.39135714285714e-01 1.28639537239492e+00 1.68778928339822e-02
4.42092857142857e-01 1.26540458058222e+00 1.66582951379212e-02
4.45050000000000e-01 1.24475630658571e+00 1.64411867751505e-02
4.48007142857143e-01 1.22444496140045e+00 1.62265497684112e-02
4.50964285714286e-01 1.20446504714205e+00 1.60143659281308e-02
4.53921428571429e-01 1.18481115567754e+00 1.58046168549622e-02
4.56878571428571e-01 1.16547796712127e+00 1.55972839754851e-02
4.59835714285714e-01 1.14646024839490e+00 1.53923485501574e-02
4.62792857142857e-01 1.12775285181107e+00 1.51897916875513e-02
4.65750000000000e-01 1.10935071367991e+00 1.49895943525462e-02
4.68707142857143e-01 1.09124885297138e+00 1.47917373961807e-02
4.71664285714286e-01 1.07344236986697e+00 1.45962015571151e-02
4.74621428571429e-01 1.05592644453474e+00 1.44029674620092e-02
4.77578571428571e-01 1.03869633579047e+00 1.42120156548499e-02
4.80535714285714e-01 1.02174737981430e+00 1.40233266021588e-02
4.83492857142857e-01 1.00507498888840e+00 1.38368807037294e-02
4.86450000000000e-01 9.88674650155164e-01 1.36526582981448e-02
4.89407142857143e-01 9.72541924423747e-01 1.34706396872333e-02
4.92364285714286e-01 9.56672444883131e-01 1.32908051358197e-02
4.95321428571429e-01 9.41061916006552e-01 1.31131348705704e-02
4.98278571428571e-01 9.25706112359614e-01 1.29376091041310e-02
5.01235714285714e-01 9.10600877456524e-01 1.27642080382752e-02
5.04192857142857e-01 8.95742122635089e-01 1.25929118719159e-02
5.07150000000000e-01 8.81125825949969e-01 1.24237008046003e-02
5.10107142857143e-01 8.66748031108040e-01 1.22565550565740e-02
5.13064285714286e-01 8.52604846324555e-01 1.20914548673188e-02
5.16021428571429e-01 8.38692443343598e-01 1.19283804933357e-02
5.18978571428571e-01 8.25007056376918e-01 1.17673122280405e-02
5.21935714285714e-01 8.11544981084584e-01 1.16082304033724e-02
5.24892857142857e-01 7.98302573572358e-01 1.14511153956774e-02
5.27850000000000e-01 7.85276249405343e-01 1.12959476276796e-02
5.30807142857143e-01 7.72462482658317e-01 1.11427075849558e-02
5.33764285714286e-01 7.59857804898878e-01 1.09913758136380e-02
5.36721428571429e-01 7.47458804311858e-01 1.08419329174813e-02
5.39678571428571e-01 7.35262124754475e-01 1.06943595742763e-02
5.42635714285714e-01 7.23264464847873e-01 1.05486365363154e-02
5.45592857142857e-01 7.11462577083553e-01 1.04047446346171e-02
5.48550000000000e-01 6.99853266944323e-01 1.02626647797559e-02
5.51507142857143e-01 6.88433392057251e-01 1.01223779753951e-02
5.54464285714286e-01 6.77199861289511e-01 9.98386531543236e-03
5.57421428571429e-01 6.66149633965932e-01 9.84710798061167e-03
5.60378571428571e-01 6.55279719027636e-01 9.71208725207060e-03
5.63335714285714e-01 6.44587174222412e-01 9.57878451096628e-03
5.66292857142857e-01 6.34069105308342e-01 9.44718124140895e-03
5.69250000000000e-01 6.23722665270382e-01 9.31725903044359e-03
5.72207142857143e-01 6.13545053564877e-01 9.18899957916605e-03
5.75164285714286e-01 6.03533515315509e-01 9.06238469952100e-03
5.78121428571429e-01 5.93685340614191e-01 8.93739631064999e-03
5.81078571428571e-01 5.83997863771834e-01 8.81401645007376e-03
5.84035714285714e-01 5.74468462596786e-01 8.69222727271330e-03
5.86992857142857e-01 5.65094557685089e-01 8.57201105281988e-03
5.89950000000000e-01 5.55873611722281e-01 8.45335018333638e-03
5.92907142857143e-01 5.46803128809625e-01 8.33622718502324e-03
5.95864285714286e-01 5.37880653748952e-01 8.22062470306482e-03
5.98821428571429e-01 5.29103771418154e-01 8.10652550329493e-03
6.01778571428571e-01 5.20470106103943e-01 7.99391248142471e-03
6.04735714285714e-01 5.11977320858778e-01 7.88276866163688e-03
6.07692857142857e-01 5.03623116868341e-01 7.77307719774039e-03
6.10650000000000e-01 4.95405232829271e-01 7.66482137208863e-03
6.13607142857143e-01 4.87321444348310e-01 7.55798460306218e-03
6.16564285714286e-01 4.79369563306126e-01 7.45255044159904e-03
6.19521428571429e-01 4.71547437299534e-01 7.34850256740218e-03
6.22478571428571e-01 4.63852949047246e-01 7.24582479654822e-03
6.25435714285714e-01 4.56284015816754e-01 7.14450107979301e-03
6.28392857142857e-01 4.48838588860606e-01 7.04451550313131e-03
6.31350000000000e-01 4.41514652861839e-01 6.94585228640657e-03
6.34307142857143e-01 4.34310225398152e-01 6.84849578943757e-03
6.37264285714286e-01 4.27223356375935e-01 6.75243050855617e-03
6.40221428571428e-01 4.20252127532150e-01 6.65764107287188e-03
6.43178571428571e-01 4.13394651905066e-01 6.56411225053779e-03
6.46135714285714e-01 4.06649073323493e-01 6.47182894687357e-03
6.49092857142857e-01 4.00013565904374e-01 6.38077620447241e-03
6.52050000000000e-01 3.93486333558543e-01 6.29093920160599e-03
6.55007142857143e-01 3.87065609512918e-01 6.20230325723157e-03
6.57964285714286e-01 3.80749655806922e-01 6.11485382759756e-03
6.60921428571429e-01 3.74536762847712e-01 6.02857650261699e-03
6.63878571428571e-01 3.68425248938771e-01 5.94345701102118e-03
6.66835714285714e-01 3.62413459824702e-01 5.85948121837923e-03
6.69792857142857e-01 3.56499768243474e-01 5.77663512686470e-03
6.72750000000000e-01 3.50682573485945e-01 5.69490487353672e-03
6.75707142857143e-01 3.44960300969799e-01 5.61427673442062e-03
6.78664285714286e-01 3.39331401791446e-01 5.53473712122485e-03
6.81621428571428e-01 3.33794352328925e-01 5.45627257785998e-03
6.84578571428571e-01 3.28347653822018e-01 5.37886978466834e-03
6.87535714285714e-01 3.22989831966561e-01 5.30251555640102e-03
6.90492857142857e-01 3.17719436515394e-01 5.22719684173386e-03
6.93450000000000e-01 3.12535040885801e-01 5.15290072148523e-03
6.96407142857143e-01 3.07435241779606e-01 5.07961441193099e-03
6.99364285714286e-01 3.02418658784394e-01 5.00732526166127e-03
7.02321428571429e-01 2.97483934019027e-01 4.93602074826888e-03
7.05278571428571e-01 2.92629731759627e-01 4.86568848181275e-03
7.08235714285714e-01 2.87854738078022e-01 4.79631620279670e-03
7.11192857142857e-01 2.83157660486103e-01 4.72789178150528e-03
7.14150000000000e-01 2.78537227585971e-01 4.66040321620453e-03
7.17107142857143e-01 2.73992188731191e-01 4.59383863582407e-03
7.20064285714286e-01 2.69521313671887e-01 4.52818629697260e-03
7.23021428571428e-01 2.65123392238323e-01 4.46343458080992e-03
7.25978571428571e-01 2.60797234007738e-01 4.39957199587373e-03
7.28935714285714e-01 2.56541667982124e-01 4.33658717609469e-03
7.31892857142857e-01 2.52355542271266e-01 4.27446888000701e-03
7.34850000000000e-01 2.48237723780952e-01 4.21320598896635e-03
7.37807142857143e-01 2.44187097910934e-01 4.15278750930934e-03
7.40764285714286e-01 2.40202568239049e-01 4.09320256953868e-03
7.43721428571429e-01 2.36283056238797e-01 4.03444041738598e-03
7.46678571428571e-01 2.32427500982563e-01 3.97649042211023e-03
7.49635714285714e-01 2.28634858854441e-01 3.91934207257289e-03
7.52592857142857e-01 2.24904103267763e-01 3.86298497636716e-03
7.55550000000000e-01 2.21234224387213e-01 3.80740885807799e-03
7.58507142857143e-01 2.17624228859544e-01 3.75260356101034e-03
7.61464285714286e-01 2.14073139532392e-01 3.69855904454894e-03
7.64421428571428e-01 2.10579995202238e-01 3.64526538141357e-03
7.67378571428571e-01 2.07143850350026e-01 3.59271275951977e-03
7.70335714285714e-01 2.03763774885229e-01 3.54089148013074e-03
7.73292857142857e-01 2.00438853894099e-01 3.48979195693882e-03
7.76250000000000e-01 1.97168187392020e-01 3.43940471438586e-03
7.79207142857143e-01 1.93950890083412e-01 3.38972038903587e-03
7.82164285714286e-01 1.90786091111432e-01 3.34072972711030e-03
7.85121428571429e-01 1.87672933833053e-01 3.29242358193368e-03
7.88078571428571e-01 1.84610575583540e-01 3.24479291543168e-03
7.91035714285714e-01 1.81598187448362e-01 3.19782879637081e-03
7.93992857142857e-01 1.78634954038826e-01 3.15152239941845e-03
7.96950000000000e-01 1.75720073271364e-01 3.10586500353603e-03
7.99907142857143e-01 1.72852756153480e-01 3.06084799305930e-03
8.02864285714286e-01 1.70032226560924e-01 3.01646285540600e-03
8.05821428571429e-01 1.67257721036986e-01 2.97270117870731e-03
8.08778571428571e-01 1.64528488582678e-01 2.92955465300580e-03
8.11735714285714e-01 1.61843790453458e-01 2.88701506859001e-03
8.14692857142857e-01 1.59202899959271e-01 2.84507431505309e-03
8.17650000000000e-01 1.56605102267845e-01 2.80372437976644e-03
8.20607142857143e-01 1.54049694213854e-01 2.76295734872022e-03
8.23564285714286e-01 1.51535984100537e-01 2.72276540439859e-03
8.26521428571429e-01 1.49063291520620e-01 2.68314082358972e-03
8.29478571428571e-01 1.46630947169389e-01 2.64407597833637e-03
8.32435714285714e-01 1.44238292663528e-01 2.60556333436887e-03
8.35392857142857e-01 1.41884680362909e-01 2.56759545017700e-03
8.38350000000000e-01 1.39569473195291e-01 2.53016497556913e-03
8.41307142857143e-01 1.37292044486177e-01 2.49326465231650e-03
8.44264285714286e-01 1.35051777782199e-01 2.45688731218945e-03
8.47221428571429e-01 1.32848066691331e-01 2.42102587493798e-03
8.50178571428571e-01 1.30680314716366e-01 2.38567334903816e-03
8.53135714285714e-01 1.28547935093454e-01 2.35082283022468e-03
8.56092857142857e-01 1.26450350633281e-01 2.31646750058734e-03
8.59050000000000e-01 1.24386993564835e-01 2.28260062721775e-03
8.62007142857143e-01 1.22357305383728e-01 2.24921556269333e-03
8.64964285714286e-01 1.20360736694935e-01 2.21630574326706e-03
8.67921428571429e-01 1.18396747070242e-01 2.18386468700945e-03
8.70878571428571e-01 1.16464804899889e-01 2.15188599438740e-03
8.73835714285714e-01 1.14564387248667e-01 2.12036334689538e-03
8.76792857142857e-01 1.12694979714383e-01 2.08929050618431e-03
8.79750000000000e-01 1.10856076288610e-01 2.05866131279614e-03
8.82707142857143e-01 1.09047179221475e-01 2.02846968651785e-03
8.85664285714286e-01 1.07267798881630e-01 1.99870962471604e-03
8.88621428571429e-01 1.05517453629077e-01 1.96937520063111e-03
8.91578571428571e-01 1.03795669682991e-01 1.94046056381867e-03
8.94535714285714e-01 1.02101980993478e-01 1.91195993887708e-03
8.97492857142857e-01 1.00435929115427e-01 1.88386762461462e-03
9.00450000000000e-01 9.87970630844177e-02 1.85617799287046e-03
9.03407142857143e-01 9.71849392961704e-02 1.82888548876328e-03
9.06364285714286e-01 9.55991213818665e-02 1.80198462916249e-03
9.09321428571429e-01 9.40391800946943e-02 1.77547000112477e-03
9.12278571428571e-01 9.25046931920885e-02 1.74933626222335e-03
9.15235714285714e-01 9.09952453214374e-02 1.72357813936864e-03
9.18192857142857e-01 8.95104279076575e-02 1.69819042801724e-03
9.21150000000000e-01 8.80498390426002e-02 1.67316799107683e-03
9.24107142857143e-01 8.66130833775870e-02 1.64850575907036e-03
9.27064285714286e-01 8.51997720123813e-02 1.62419872873496e-03
9.30021428571429e-01 8.38095223939849e-02 1.60024196159130e-03
9.32978571428571e-01 8.24419582117184e-02 1.57663058418154e-03
