Energy (eV)          EEDF (eV^-(3/2))     First Anisotropy
6.29411764705882e-02 7.23648988365135e-02 6.53453492179696e-05
1.88823529411765e-01 7.09101004455438e-02 1.07179431493605e-04
3.14705882352941e-01 6.94845488081082e-02 1.39583052295213e-04
4.40588235294118e-01 6.80876559579663e-02 1.63070534444228e-04
5.66470588235294e-01 6.67188457488338e-02 1.81745906266863e-04
6.92352941176471e-01 6.53775536171676e-02 1.97193246316617e-04
8.18235294117647e-01 6.40632263492331e-02 2.10248425839343e-04
9.44117647058824e-01 6.27753218529170e-02 2.21425710864380e-04
1.07000000000000e+00 6.15133089387701e-02 2.31072361504557e-04
1.19588235294118e+00 6.02766670787689e-02 2.39438100592347e-04
1.32176470588235e+00 5.90648862338734e-02 2.46710883807434e-04
1.44764705882353e+00 5.78774666059330e-02 2.53037153417676e-04
1.57352941176471e+00 5.67139184374952e-02 2.58534138785066e-04
1.69941176470588e+00 5.55737618333652e-02 2.63297752125894e-04
1.82529411764706e+00 5.44565265372467e-02 2.67407880693047e-04
1.95117647058824e+00 5.33617517468111e-02 2.70932061763607e-04
2.07705882352941e+00 5.22889859185715e-02 2.73928113699320e-04
2.20294117647059e+00 5.12377865976019e-02 2.76446069071372e-04
2.32882352941176e+00 5.02077202180955e-02 2.78529626073611e-04
2.45470588235294e+00 4.91983619265396e-02 2.80217256318954e-04
2.58058823529412e+00 4.82092954192012e-02 2.81543069219078e-04
2.70647058823529e+00 4.72401127569902e-02 2.82537494374181e-04
2.83235294117647e+00 4.62904142019342e-02 2.83227826497278e-04
2.95823529411765e+00 4.53598080491863e-02 2.83638666910126e-04
3.08411764705882e+00 4.44479104750780e-02 2.83792285784276e-04
3.21000000000000e+00 4.35543453687951e-02 2.83708921892412e-04
3.33588235294118e+00 4.26787441781665e-02 2.83407030671072e-04
3.46176470588235e+00 4.18207457656968e-02 2.82903494722759e-04
3.58764705882353e+00 4.09799962512271e-02 2.82213802201192e-04
3.71352941176471e+00 4.01561488666957e-02 2.81352197243480e-04
3.83941176470588e+00 3.93488638199539e-02 2.80331810856652e-04
3.96529411764706e+00 3.85578081475249e-02 2.79164773834034e-04
4.09117647058823e+00 3.77826555797175e-02 2.77862314049629e-04
4.21705882352941e+00 3.70230864042886e-02 2.76434841529184e-04
4.34294117647059e+00 3.62787873400654e-02 2.74892023669886e-04
4.46882352941176e+00 3.55494514020481e-02 2.73242851712215e-04
4.59470588235294e+00 3.48347777752342e-02 2.71495698188604e-04
4.72058823529412e+00 3.41344716952928e-02 2.69658369308731e-04
4.84647058823529e+00 3.34482443220786e-02 2.67738151550902e-04
4.97235294117647e+00 3.27758126221957e-02 2.65741852744633e-04
5.09823529411765e+00 3.21168992509841e-02 2.63675839051426e-04
5.22411764705882e+00 3.14712324420481e-02 2.61546068736012e-04
5.35000000000000e+00 3.08385458911314e-02 2.59358122815836e-04
5.47588235294118e+00 3.02185786465549e-02 2.57117231728194e-04
5.60176470588235e+00 2.96110750050277e-02 2.54828300618942e-04
5.72764705882353e+00 2.90157844026361e-02 2.52495932367295e-04
5.85352941176471e+00 2.84324613117317e-02 2.50124447595435e-04
5.97941176470588e+00 2.78608651427058e-02 2.47717903950078e-04
6.10529411764706e+00 2.73007601416316e-02 2.45280113680985e-04
6.23117647058824e+00 2.67519152940970e-02 2.42814659335603e-04
6.35705882352941e+00 2.62141042290914e-02 2.40324908267172e-04
6.48294117647059e+00 2.56871051282034e-02 2.37814026353850e-04
6.60882352941177e+00 2.51707006314957e-02 2.35284990768262e-04
6.73470588235294e+00 2.46646777480212e-02 2.32740600978651e-04
6.86058823529412e+00 2.41688277702552e-02 2.30183489733977e-04
6.98647058823529e+00 2.36829461856711e-02 2.27616133176013e-04
7.11235294117647e+00 2.32068325931924e-02 2.25040859871442e-04
7.23823529411765e+00 2.27402906199021e-02 2.22459859267485e-04
7.36411764705882e+00 2.22831278419964e-02 2.19875189848729e-04
7.49000000000000e+00 2.18351557034238e-02 2.17288786827052e-04
7.61588235294118e+00 2.13961894382309e-02 2.14702468661792e-04
7.74176470588235e+00 2.09660479961012e-02 2.12117943802203e-04
7.86764705882353e+00 2.05445539658908e-02 2.09536816994531e-04
7.99352941176471e+00 2.01315335025570e-02 2.06960594581507e-04
8.11941176470588e+00 1.97268162570259e-02 2.04390690068496e-04
8.24529411764706e+00 1.93302353043248e-02 2.01828429287480e-04
8.37117647058824e+00 1.89416270752820e-02 1.99275054973990e-04
8.49705882352941e+00 1.85608312886221e-02 1.96731731109012e-04
8.62294117647059e+00 1.81876908862130e-02 1.94199547217490e-04
8.74882352941176e+00 1.78220519668995e-02 1.91679522476671e-04
8.87470588235294e+00 1.74637637231042e-02 1.89172609087244e-04
9.00058823529412e+00 1.71126783798488e-02 1.86679695943663e-04
9.12647058823529e+00 1.67686511325532e-02 1.84201612047186e-04
9.25235294117647e+00 1.64315400877388e-02 1.81739129503683e-04
9.37823529411765e+00 1.61012062041567e-02 1.79292966387567e-04
9.50411764705882e+00 1.57775132365034e-02 1.76863789624868e-04
9.63000000000000e+00 1.54603276781404e-02 1.74452217770710e-04
9.75588235294118e+00 1.51495187060862e-02 1.72058823224395e-04
9.88176470588235e+00 1.48449581280211e-02 1.69684134732833e-04
1.00076470588235e+01 1.45465203284301e-02 1.67328639602421e-04
1.01335294117647e+01 1.42540822179803e-02 1.64992786234205e-04
1.02594117647059e+01 1.39675231787762e-02 1.62676985169652e-04
1.03852941176471e+01 1.36867250227975e-02 1.60381611896255e-04
1.05111764705882e+01 1.34115719326092e-02 1.58107008332823e-04
1.06370588235294e+01 1.31419504243754e-02 1.55853484489786e-04
1.07629411764706e+01 1.28777492906256e-02 1.53621320585618e-04
1.08888235294118e+01 1.26188595621173e-02 1.51410767099907e-04
1.10147058823529e+01 1.23651744626053e-02 1.49222048403339e-04
1.11405882352941e+01 1.21165893577605e-02 1.47055362784129e-04
1.12664705882353e+01 1.18730017213107e-02 1.44910884031606e-04
1.13923529411765e+01 1.16343110837567e-02 1.42788762832375e-04
1.15182352941176e+01 1.14004189996415e-02 1.40689127855028e-04
1.16441176470588e+01 1.11712289985178e-02 1.38612087019385e-04
1.17700000000000e+01 1.09466465533192e-02 1.36557728474545e-04
1.18958823529412e+01 1.07265790334711e-02 1.34526121753921e-04
1.20217647058824e+01 1.05109356743373e-02 1.32517318657724e-04
1.21476470588235e+01 1.02996275323732e-02 1.30531354305033e-04
1.22735294117647e+01 1.00925674556199e-02 1.28568247930495e-04
1.23994117647059e+01 9.88967004080389e-03 1.26628003843410e-04
1.25252941176471e+01 9.69085160485103e-03 1.24710612147287e-04
1.26511764705882e+01 9.49603014384160e-03 1.22816049614797e-04
1.27770588235294e+01 9.30512530551683e-03 1.20944280337859e-04
1.29029411764706e+01 9.11805835000306e-03 1.19095256745351e-04
1.30288235294118e+01 8.93475212188936e-03 1.17268919310273e-04
1.31547058823529e+01 8.75513101823952e-03 1.15465198585908e-04
1.32805882352941e+01 8.57912095324864e-03 1.13684014929044e-04
1.34064705882353e+01 8.40664933318653e-03 1.11925279248289e-04
1.35323529411765e+01 8.23764502112319e-03 1.10188893642786e-04
1.36582352941176e+01 8.07203831276078e-03 1.08474751856867e-04
1.37841176470588e+01 7.90976090266761e-03 1.06782739864074e-04
1.39100000000000e+01 7.75074586097175e-03 1.05112736277833e-04
1.40358823529412e+01 7.59492760103530e-03 1.03464612885593e-04
1.41617647058824e+01 7.44224185698322e-03 1.01838235019633e-04
1.42876470588235e+01 7.29262565275310e-03 1.00233462045701e-04
1.44135294117647e+01 7.14601728043303e-03 9.86501476976320e-05
1.45394117647059e+01 7.00235627062538e-03 9.70881405244274e-05
1.46652941176471e+01 6.86158337156791e-03 9.55472841920151e-05
1.47911764705882e+01 6.72364052075313e-03 9.40274178923205e-05
1.49170588235294e+01 6.58847082480748e-03 9.25283766151834e-05
1.50429411764706e+01 6.45601853231043e-03 9.10499916663120e-05
1.51688235294118e+01 6.32622901356037e-03 8.95920903345748e-05
1.52947058823529e+01 6.19904873794385e-03 8.81544970918626e-05
1.54205882352941e+01 6.07442524932891e-03 8.67370332824398e-05
1.55464705882353e+01 5.95230714777382e-03 8.53395174912797e-05
1.56723529411765e+01 5.83264406507962e-03 8.39617658443885e-05
1.57982352941176e+01 5.71538664716996e-03 8.26035921952045e-05
1.59241176470588e+01 5.60048653067154e-03 8.12648083992484e-05
1.60500000000000e+01 5.48789632594251e-03 7.99452244810330e-05
1.61758823529412e+01 5.37756959463592e-03 7.86446488851356e-05
1.63017647058824e+01 5.26946083335468e-03 7.73628886253568e-05
1.64276470588235e+01 5.16352545215522e-03 7.60997495141466e-05
1.65535294117647e+01 5.05971975880755e-03 7.48550362955829e-05
1.66794117647059e+01 4.95800093819841e-03 7.36285528549168e-05
1.68052941176471e+01 4.85832703717558e-03 7.24201023368068e-05
1.69311764705882e+01 4.76065694481153e-03 7.12294873365877e-05
1.70570588235294e+01 4.66495037781176e-03 7.00565100050702e-05
1.71829411764706e+01 4.57116786160183e-03 6.89009723182076e-05
1.73088235294118e+01 4.47927071575488e-03 6.77626757869716e-05
1.74347058823529e+01 4.38922103797749e-03 6.66414221846775e-05
1.75605882352941e+01 4.30098168690934e-03 6.55370132762393e-05
1.76864705882353e+01 4.21451626887924e-03 6.44492510002013e-05
1.78123529411765e+01 4.12978912087740e-03 6.33779376072749e-05
1.79382352941176e+01 4.04676529780749e-03 6.23228757264315e-05
1.80641176470588e+01 3.96541055616672e-03 6.12838684908672e-05
1.81900000000000e+01 3.88569134177632e-03 6.02607195952889e-05
1.83158823529412e+01 3.80757477413914e-03 5.92532334103057e-05
1.84417647058824e+01 3.73102863463159e-03 5.82612150316957e-05
1.85676470588235e+01 3.65602135150979e-03 5.72844703841500e-05
1.86935294117647e+01 3.58252198854646e-03 5.63228062632380e-05
1.88194117647059e+01 3.51050023065807e-03 5.53760304293501e-05
1.89452941176471e+01 3.43992637297068e-03 5.44439516430318e-05
1.90711764705882e+01 3.37077130704170e-03 5.35263797499021e-05
1.91970588235294e+01 3.30300651033914e-03 5.26231257099558e-05
1.93229411764706e+01 3.23660403303290e-03 5.17340017377589e-05
1.94488235294118e+01 3.17153648754159e-03 5.08588210707010e-05
1.95747058823529e+01 3.10777703719888e-03 4.99973984175814e-05
1.97005882352941e+01 3.04529938419756e-03 4.91495497420531e-05
1.98264705882353e+01 2.98407776005034e-03 4.83150923498225e-05
1.99523529411765e+01 2.92408691368966e-03 4.74938449475372e-05
2.00782352941176e+01 2.86530210229071e-03 4.66856276548173e-05
2.02041176470588e+01 2.80769907986175e-03 4.58902620569199e-05
2.03300000000000e+01 2.75125408841614e-03 4.51075712129104e-05
2.04558823529412e+01 2.69594384703252e-03 4.43373797026119e-05
2.05817647058824e+01 2.64174554336303e-03 4.35795136312851e-05
2.07076470588235e+01 2.58863682314360e-03 4.28338006713177e-05
2.08335294117647e+01 2.53659578202600e-03 4.21000700637616e-05
2.09594117647059e+01 2.48560095551938e-03 4.13781526551963e-05
2.10852941176471e+01 2.43563131113408e-03 4.06678808964281e-05
2.12111764705882e+01 2.38666623873648e-03 3.99690888749138e-05
2.13370588235294e+01 2.33868554299303e-03 3.92816123109209e-05
2.14629411764706e+01 2.29166943412103e-03 3.86052886285979e-05
2.15888235294118e+01 2.24559852041084e-03 3.79399567781206e-05
2.17147058823529e+01 2.20045380020396e-03 3.72854575154148e-05
2.18405882352941e+01 2.15621665342643e-03 3.66416332356842e-05
2.19664705882353e+01 2.11286883474281e-03 3.60083280117759e-05
2.20923529411765e+01 2.07039246521903e-03 3.53853876139021e-05
2.22182352941176e+01 2.02877002573885e-03 3.47726594986923e-05
2.23441176470588e+01 1.98798434900825e-03 3.41699928259006e-05
2.24700000000000e+01 1.94801861322453e-03 3.35772384459485e-05
2.25958823529412e+01 1.90885633440806e-03 3.29942489138731e-05
2.27217647058824e+01 1.87048136031458e-03 3.24208784755373e-05
2.28476470588235e+01 1.83287786308062e-03 3.18569830790542e-05
2.29735294117647e+01 1.79603033336995e-03 3.13024203598295e-05
2.30994117647059e+01 1.75992357331971e-03 3.07570496496777e-05
2.32252941176471e+01 1.72454269091203e-03 3.02207319608441e-05
2.33511764705882e+01 1.68987309320851e-03 2.96933299930219e-05
2.34770588235294e+01 1.65590048093859e-03 2.91747081164850e-05
2.36029411764706e+01 1.62261084201032e-03 2.86647324060360e-05
2.37288235294118e+01 1.58999044617148e-03 2.81632705074153e-05
2.38547058823529e+01 1.55802583933134e-03 2.76701918129455e-05
2.39805882352941e+01 1.52670383760619e-03 2.71853673362842e-05
2.41064705882353e+01 1.49601152241881e-03 2.67086697259116e-05
2.42323529411765e+01 1.46593623464693e-03 2.62399732662472e-05
2.43582352941176e+01 1.43646556991181e-03 2.57791538585175e-05
2.44841176470588e+01 1.40758737296536e-03 2.53260890204992e-05
2.46100000000000e+01 1.37928973316074e-03 2.48806578669873e-05
2.47358823529412e+01 1.35156097906816e-03 2.44427411082954e-05
2.48617647058824e+01 1.32438967412064e-03 2.40122210304062e-05
2.49876470588235e+01 1.29776461144918e-03 2.35889814923502e-05
2.51135294117647e+01 1.27167480969686e-03 2.31729079061138e-05
2.52394117647059e+01 1.24610950806438e-03 2.27638872330064e-05
2.53652941176471e+01 1.22105816228620e-03 2.23618079633947e-05
2.54911764705882e+01 1.19651043987766e-03 2.19665601121627e-05
2.56170588235294e+01 1.17245621626707e-03 2.15780351983321e-05
2.57429411764706e+01 1.14888557023608e-03 2.11961262592712e-05
2.58688235294118e+01 1.12578878011353e-03 2.08207277516233e-05
2.59947058823529e+01 1.10315631975583e-03 2.04517356620666e-05
2.61205882352941e+01 1.08097885435482e-03 2.00890474142928e-05
2.62464705882353e+01 1.05924723693643e-03 1.97325618702982e-05
2.63723529411765e+01 1.03795250424803e-03 1.93821793234220e-05
2.64982352941176e+01 1.01708587339297e-03 1.90378014779238e-05
2.66241176470588e+01 9.96638737885045e-04 1.86993314414842e-05
2.67500000000000e+01 9.76602664413660e-04 1.83666737048839e-05
2.68758823529412e+01 9.56969389058539e-04 1.80397341340322e-05
2.70017647058824e+01 9.37730814180571e-04 1.77184199497823e-05
2.71276470588235e+01 9.18879004790173e-04 1.74026397195491e-05
2.72535294117647e+01 9.00406185558977e-04 1.70923033372904e-05
2.73794117647059e+01 8.82304737335578e-04 1.67873220147707e-05
2.75052941176471e+01 8.64567194273412e-04 1.64876082617368e-05
2.76311764705882e+01 8.47186240487860e-04 1.61930758768774e-05
2.77570588235294e+01 8.30154707295858e-04 1.59036399282177e-05
2.78829411764706e+01 8.13465570008561e-04 1.56192167571332e-05
2.80088235294118e+01 7.97111945220722e-04 1.53397239054794e-05
2.81347058823529e+01 7.81087087965227e-04 1.50650801855862e-05
2.82605882352941e+01 7.65384388759102e-04 1.47952056117467e-05
2.83864705882353e+01 7.49997371105550e-04 1.45300213960240e-05
2.85123529411765e+01 7.34919688600294e-04 1.42694499385282e-05
2.86382352941176e+01 7.20145122530920e-04 1.40134148086973e-05
2.87641176470588e+01 7.05667579100459e-04 1.37618407354529e-05
2.88900000000000e+01 6.91481087120285e-04 1.35146535887798e-05
2.90158823529412e+01 6.77579795346145e-04 1.32717803697907e-05
2.91417647058824e+01 6.63957970261003e-04 1.30331491926173e-05
2.92676470588235e+01 6.50609993518936e-04 1.27986892744116e-05
2.93935294117647e+01 6.37530359814449e-04 1.25683309175573e-05
2.95194117647059e+01 6.24713674429837e-04 1.23420054996374e-05
2.96452941176471e+01 6.12154651187637e-04 1.21196454559716e-05
2.97711764705882e+01 5.99848110097233e-04 1.19011842695736e-05
2.98970588235294e+01 5.87788975387234e-04 1.16865564540240e-05
3.00229411764706e+01 5.75972273247279e-04 1.14756975525185e-05
3.01488235294118e+01 5.64393129899311e-04 1.12685440845711e-05
3.02747058823529e+01 5.53046769583201e-04 1.10650335902663e-05
3.04005882352941e+01 5.41928512473844e-04 1.08651045800888e-05
3.05264705882353e+01 5.31033772901019e-04 1.06686965287363e-05
3.06523529411765e+01 5.20358057311672e-04 1.04757498652142e-05
3.07782352941176e+01 5.09896962559334e-04 1.02862059568939e-05
3.09041176470588e+01 4.99646173948772e-04 1.01000070996778e-05
3.10300000000000e+01 4.89601463592267e-04 9.91709650240829e-06
3.11558823529412e+01 4.79758688533286e-04 9.73741827711608e-06
3.12817647058824e+01 4.70113789167031e-04 9.56091742377968e-06
3.14076470588235e+01 4.60662787439915e-04 9.38753982067121e-06
3.15335294117647e+01 4.51401785331884e-04 9.21723220946651e-06
3.16594117647059e+01 4.42326963128626e-04 9.04994218569712e-06
3.17852941176471e+01 4.33434577963270e-04 8.88561818420944e-06
3.19111764705882e+01 4.24720962158364e-04 8.72420946973520e-06
3.20370588235294e+01 4.16182521824648e-04 8.56566612269785e-06
3.21629411764706e+01 4.07815735269971e-04 8.40993903612223e-06
3.22888235294118e+01 3.99617151627849e-04 8.25697987680714e-06
3.24147058823529e+01 3.91583389431393e-04 8.10674111327649e-06
3.25405882352941e+01 3.83711135143847e-04 7.95917597919095e-06
3.26664705882353e+01 3.75997141891109e-04 7.81423846690837e-06
3.27923529411765e+01 3.68438228025786e-04 7.67188331853848e-06
3.29182352941177e+01 3.61031275909363e-04 7.53206601293173e-06
3.30441176470588e+01 3.53773230534185e-04 7.39474275688113e-06
3.31700000000000e+01 3.46661098353351e-04 7.25987047244549e-06
3.32958823529412e+01 3.39691945958276e-04 7.12740678830287e-06
3.34217647058824e+01 3.32862898954448e-04 6.99731002740423e-06
3.35476470588235e+01 3.26171140692319e-04 6.86953919848253e-06
3.36735294117647e+01 3.19613911187134e-04 6.74405398403150e-06
3.37994117647059e+01 3.13188505900997e-04 6.62081473197418e-06
3.39252941176471e+01 3.06892274705053e-04 6.49978244396206e-06
3.40511764705882e+01 3.00722620710652e-04 6.38091876720478e-06
3.41770588235294e+01 2.94676999272236e-04 6.26418598308472e-06
3.43029411764706e+01 2.88752916865618e-04 6.14954700341136e-06
3.44288235294118e+01 2.82947930113332e-04 6.03696534221910e-06
3.45547058823529e+01 2.77259644775040e-04 5.92640513337878e-06
3.46805882352941e+01 2.71685714710377e-04 5.81783110399710e-06
3.48064705882353e+01 2.66223840977156e-04 5.71120856852458e-06
3.49323529411765e+01 2.60871770818888e-04 5.60650342117079e-06
3.50582352941177e+01 2.55627296798378e-04 5.50368212557383e-06
3.51841176470588e+01 2.50488255826032e-04 5.40271170738122e-06
3.53100000000000e+01 2.45452528327468e-04 5.30355974421029e-06
3.54358823529412e+01 2.40518037310959e-04 5.20619435839521e-06
3.55617647058824e+01 2.35682747567727e-04 5.11058420723324e-06
3.56876470588235e+01 2.30944664776938e-04 5.01669847589763e-06
3.58135294117647e+01 2.26301834737410e-04 4.92450686796293e-06
3.59394117647059e+01 2.21752342508635e-04 4.83397959848324e-06
3.60652941176471e+01 2.17294311672673e-04 4.74508738479103e-06
3.61911764705882e+01 2.12925903509754e-04 4.65780143973960e-06
3.63170588235294e+01 2.08645316289168e-04 4.57209346277031e-06
3.64429411764706e+01 2.04450784478051e-04 4.48793563624446e-06
3.65688235294118e+01 2.00340578049046e-04 4.40530060500593e-06
3.66947058823529e+01 1.96313001765537e-04 4.32416148743566e-06
3.68205882352941e+01 1.92366394449359e-04 4.24449185615724e-06
3.69464705882353e+01 1.88499128339554e-04 4.16626573299475e-06
3.70723529411765e+01 1.84709608378140e-04 4.08945758278467e-06
3.71982352941176e+01 1.80996271594077e-04 4.01404230532803e-06
3.73241176470588e+01 1.77357586417771e-04 3.93999522935893e-06
3.74500000000000e+01 1.73792052089261e-04 3.86729210473807e-06
3.75758823529412e+01 1.70298198000299e-04 3.79590909657652e-06
3.77017647058824e+01 1.66874583125814e-04 3.72582277766492e-06
3.78276470588235e+01 1.63519795392448e-04 3.65701012275009e-06
3.79535294117647e+01 1.60232451132382e-04 3.58944850119331e-06
3.80794117647059e+01 1.57011194477275e-04 3.52311567139838e-06
3.82052941176471e+01 1.53854696833568e-04 3.45798977369390e-06
3.83311764705882e+01 1.50761656300792e-04 3.39404932490910e-06
3.84570588235294e+01 1.47730797167527e-04 3.33127321147466e-06
3.85829411764706e+01 1.44760869353082e-04 3.26964068615889e-06
3.87088235294118e+01 1.41850647915877e-04 3.20913135328389e-06
3.88347058823529e+01 1.38998932547403e-04 3.14972517562546e-06
3.89605882352941e+01 1.36204547055024e-04 3.09140246044548e-06
3.90864705882353e+01 1.33466338906225e-04 3.03414385534812e-06
3.92123529411765e+01 1.30783178724578e-04 2.97793034335906e-06
3.93382352941176e+01 1.28153959851932e-04 2.92274323674287e-06
3.94641176470588e+01 1.25577597864630e-04 2.86856417221905e-06
3.95900000000000e+01 1.23053030152942e-04 2.81537510497281e-06
3.97158823529412e+01 1.20579215456723e-04 2.76315830400541e-06
