Energy (eV)          EEDF (eV^-(3/2))     First Anisotropy
2.48055555555556e-04 2.68836277044049e+02 0.00000000000000e+00
7.44166666666667e-04 2.63726222402217e+02 0.00000000000000e+00
1.24027777777778e-03 2.58713299958240e+02 0.00000000000000e+00
1.73638888888889e-03 2.53795663417964e+02 0.00000000000000e+00
2.23250000000000e-03 2.48971501581723e+02 0.00000000000000e+00
2.72861111111111e-03 2.44239037677232e+02 0.00000000000000e+00
3.22472222222222e-03 2.39596528705194e+02 0.00000000000000e+00
3.72083333333333e-03 2.35042264797339e+02 0.00000000000000e+00
4.21694444444444e-03 2.30574568586664e+02 0.00000000000000e+00
4.71305555555556e-03 2.26191794589652e+02 0.00000000000000e+00
5.20916666666667e-03 2.21892328600226e+02 0.00000000000000e+00
5.70527777777778e-03 2.17674587095227e+02 0.00000000000000e+00
6.20138888888889e-03 2.13537016651189e+02 0.00000000000000e+00
6.69750000000000e-03 2.09478093372205e+02 0.00000000000000e+00
7.19361111111111e-03 2.05496322328665e+02 0.00000000000000e+00
7.68972222222222e-03 2.01590237006662e+02 0.00000000000000e+00
8.18583333333333e-03 1.97758398767867e+02 0.00000000000000e+00
8.68194444444445e-03 1.93999396319666e+02 0.00000000000000e+00
9.17805555555556e-03 1.90311845195371e+02 0.00000000000000e+00
9.67416666666667e-03 1.86694387244314e+02 0.00000000000000e+00
1.01702777777778e-02 1.83145690131629e+02 0.00000000000000e+00
1.06663888888889e-02 1.79664446847542e+02 0.00000000000000e+00
1.11625000000000e-02 1.76249375225996e+02 0.00000000000000e+00
1.16586111111111e-02 1.72899217472412e+02 0.00000000000000e+00
1.21547222222222e-02 1.69612739700443e+02 0.00000000000000e+00
1.26508333333333e-02 1.66388731477518e+02 0.00000000000000e+00
1.31469444444444e-02 1.63226005379037e+02 0.00000000000000e+00
1.36430555555556e-02 1.60123396551029e+02 0.00000000000000e+00
1.41391666666667e-02 1.57079762281133e+02 0.00000000000000e+00
1.46352777777778e-02 1.54093981577727e+02 0.00000000000000e+00
1.51313888888889e-02 1.51164954757058e+02 0.00000000000000e+00
1.56275000000000e-02 1.48291603038222e+02 0.00000000000000e+00
1.61236111111111e-02 1.45472868145841e+02 0.00000000000000e+00
1.66197222222222e-02 1.42707711920295e+02 0.00000000000000e+00
1.71158333333333e-02 1.39995115935357e+02 0.00000000000000e+00
1.76119444444444e-02 1.37334081123101e+02 0.00000000000000e+00
1.81080555555556e-02 1.34723627405941e+02 0.00000000000000e+00
1.86041666666667e-02 1.32162793335658e+02 0.00000000000000e+00
1.91002777777778e-02 1.29650635739293e+02 0.00000000000000e+00
1.95963888888889e-02 1.27186229371769e+02 0.00000000000000e+00
2.00925000000000e-02 1.24768666575121e+02 0.00000000000000e+00
2.05886111111111e-02 1.22397056944194e+02 0.00000000000000e+00
2.10847222222222e-02 1.20070526998703e+02 0.00000000000000e+00
2.15808333333333e-02 1.17788219861524e+02 0.00000000000000e+00
2.20769444444444e-02 1.15549294943102e+02 0.00000000000000e+00
2.25730555555556e-02 1.13352927631851e+02 0.00000000000000e+00
2.30691666666667e-02 1.11198308990451e+02 0.00000000000000e+00
2.35652777777778e-02 1.09084645457902e+02 0.00000000000000e+00
2.40613888888889e-02 1.07011158557258e+02 0.00000000000000e+00
2.45575000000000e-02 1.04977084608906e+02 0.00000000000000e+00
2.50536111111111e-02 1.02981674449295e+02 0.00000000000000e+00
2.55497222222222e-02 1.01024193155016e+02 0.00000000000000e+00
2.60458333333333e-02 9.91039197721243e+01 0.00000000000000e+00
2.65419444444444e-02 9.72201470506077e+01 0.00000000000000e+00
2.70380555555556e-02 9.53721811839007e+01 0.00000000000000e+00
2.75341666666667e-02 9.35593415533505e+01 0.00000000000000e+00
2.80302777777778e-02 9.17809604775414e+01 0.00000000000000e+00
2.85263888888889e-02 9.00363829663822e+01 0.00000000000000e+00
2.90225000000000e-02 8.83249664798691e+01 0.00000000000000e+00
2.95186111111111e-02 8.66460806914339e+01 0.00000000000000e+00
3.00147222222222e-02 8.49991072557903e+01 0.00000000000000e+00
3.05108333333333e-02 8.33834395811929e+01 0.00000000000000e+00
3.10069444444444e-02 8.17984826060254e+01 0.00000000000000e+00
3.15030555555556e-02 8.02436525796351e+01 0.00000000000000e+00
3.19991666666667e-02 7.87183768473336e+01 0.00000000000000e+00
3.24952777777778e-02 7.72220936394844e+01 0.00000000000000e+00
3.29913888888889e-02 7.57542518645985e+01 0.00000000000000e+00
3.34875000000000e-02 7.43143109063644e+01 0.00000000000000e+00
3.39836111111111e-02 7.29017404245348e+01 0.00000000000000e+00
3.44797222222222e-02 7.15160201595988e+01 0.00000000000000e+00
3.49758333333333e-02 7.01566397411668e+01 0.00000000000000e+00
3.54719444444444e-02 6.88230984999974e+01 0.00000000000000e+00
3.59680555555556e-02 6.75149052835974e+01 0.00000000000000e+00
3.64641666666667e-02 6.62315782753271e+01 0.00000000000000e+00
3.69602777777778e-02 6.49726448169439e+01 0.00000000000000e+00
3.74563888888889e-02 6.37376412345188e+01 0.00000000000000e+00
3.79525000000000e-02 6.25261126676622e+01 0.00000000000000e+00
3.84486111111111e-02 6.13376129019957e+01 0.00000000000000e+00
3.89447222222222e-02 6.01717042048079e+01 0.00000000000000e+00
3.94408333333333e-02 5.90279571638350e+01 0.00000000000000e+00
3.99369444444444e-02 5.79059505291050e+01 0.00000000000000e+00
4.04330555555556e-02 5.68052710577881e+01 0.00000000000000e+00
4.09291666666667e-02 5.57255133619970e+01 0.00000000000000e+00
4.14252777777778e-02 5.46662797594795e+01 0.00000000000000e+00
4.19213888888889e-02 5.36271801271493e+01 0.00000000000000e+00
4.24175000000000e-02 5.26078317574011e+01 0.00000000000000e+00
4.29136111111111e-02 5.16078592171565e+01 0.00000000000000e+00
4.34097222222222e-02 5.06268942095899e+01 0.00000000000000e+00
4.39058333333333e-02 4.96645754384816e+01 0.00000000000000e+00
4.44019444444444e-02 4.87205484751503e+01 0.00000000000000e+00
4.48980555555556e-02 4.77944656279143e+01 0.00000000000000e+00
4.53941666666667e-02 4.68859858140347e+01 0.00000000000000e+00
4.58902777777778e-02 4.59947744340916e+01 0.00000000000000e+00
4.63863888888889e-02 4.51205032487492e+01 0.00000000000000e+00
4.68825000000000e-02 4.42628502578632e+01 0.00000000000000e+00
4.73786111111111e-02 4.34214995818853e+01 0.00000000000000e+00
4.78747222222222e-02 4.25961413455232e+01 0.00000000000000e+00
4.83708333333333e-02 4.17864715636108e+01 0.00000000000000e+00
4.88669444444444e-02 4.09921920291488e+01 0.00000000000000e+00
4.93630555555556e-02 4.02130102034730e+01 0.00000000000000e+00
4.98591666666667e-02 3.94486391085098e+01 0.00000000000000e+00
5.03552777777778e-02 3.86987972210806e+01 0.00000000000000e+00
5.08513888888889e-02 3.79632083692149e+01 0.00000000000000e+00
5.13475000000000e-02 3.72416016304339e+01 0.00000000000000e+00
5.18436111111111e-02 3.65337112319683e+01 0.00000000000000e+00
5.23397222222222e-02 3.58392764528719e+01 0.00000000000000e+00
5.28358333333333e-02 3.51580415279966e+01 0.00000000000000e+00
5.33319444444444e-02 3.44897555537923e+01 0.00000000000000e+00
5.38280555555556e-02 3.38341723958971e+01 0.00000000000000e+00
5.43241666666667e-02 3.31910505984845e+01 0.00000000000000e+00
5.48202777777778e-02 3.25601532953338e+01 0.00000000000000e+00
5.53163888888889e-02 3.19412481225901e+01 0.00000000000000e+00
5.58125000000000e-02 3.13341071331834e+01 0.00000000000000e+00
5.63086111111111e-02 3.07385067128742e+01 0.00000000000000e+00
5.68047222222222e-02 3.01542274978946e+01 0.00000000000000e+00
5.73008333333333e-02 2.95810542941550e+01 0.00000000000000e+00
5.77969444444444e-02 2.90187759979871e+01 0.00000000000000e+00
5.82930555555556e-02 2.84671855183926e+01 0.00000000000000e+00
5.87891666666667e-02 2.79260797007700e+01 0.00000000000000e+00
5.92852777777778e-02 2.73952592520918e+01 0.00000000000000e+00
5.97813888888889e-02 2.68745286675031e+01 0.00000000000000e+00
6.02775000000000e-02 2.63636961583162e+01 0.00000000000000e+00
6.07736111111111e-02 2.58625735813729e+01 0.00000000000000e+00
6.12697222222222e-02 2.53709763697507e+01 0.00000000000000e+00
6.17658333333333e-02 2.48887234647852e+01 0.00000000000000e+00
6.22619444444444e-02 2.44156372493849e+01 0.00000000000000e+00
6.27580555555556e-02 2.39515434826137e+01 0.00000000000000e+00
6.32541666666667e-02 2.34962712355168e+01 0.00000000000000e+00
6.37502777777778e-02 2.30496528281662e+01 0.00000000000000e+00
6.42463888888889e-02 2.26115237679034e+01 0.00000000000000e+00
6.47425000000000e-02 2.21817226887549e+01 0.00000000000000e+00
6.52386111111111e-02 2.17600912920009e+01 0.00000000000000e+00
6.57347222222222e-02 2.13464742878719e+01 0.00000000000000e+00
6.62308333333333e-02 2.09407193383552e+01 0.00000000000000e+00
6.67269444444444e-02 2.05426770010871e+01 0.00000000000000e+00
6.72230555555556e-02 2.01522006743126e+01 0.00000000000000e+00
6.77191666666667e-02 1.97691465428909e+01 0.00000000000000e+00
6.82152777777778e-02 1.93933735253272e+01 0.00000000000000e+00
6.87113888888889e-02 1.90247432218114e+01 0.00000000000000e+00
6.92075000000000e-02 1.86631198632449e+01 0.00000000000000e+00
6.97036111111111e-02 1.83083702612350e+01 0.00000000000000e+00
7.01997222222222e-02 1.79603637590418e+01 0.00000000000000e+00
7.06958333333333e-02 1.76189721834553e+01 0.00000000000000e+00
7.11919444444444e-02 1.72840697975893e+01 0.00000000000000e+00
7.16880555555556e-02 1.69555332545711e+01 0.00000000000000e+00
7.21841666666667e-02 1.66332415521120e+01 0.00000000000000e+00
7.26802777777778e-02 1.63170759879415e+01 0.00000000000000e+00
7.31763888888889e-02 1.60069201160882e+01 0.00000000000000e+00
7.36725000000000e-02 1.57026597039923e+01 0.00000000000000e+00
7.41686111111111e-02 1.54041826904327e+01 0.00000000000000e+00
7.46647222222222e-02 1.51113791442539e+01 0.00000000000000e+00
7.51608333333333e-02 1.48241412238781e+01 0.00000000000000e+00
7.56569444444444e-02 1.45423631375858e+01 0.00000000000000e+00
7.61530555555556e-02 1.42659411045526e+01 0.00000000000000e+00
7.66491666666667e-02 1.39947733166254e+01 0.00000000000000e+00
7.71452777777778e-02 1.37287599008263e+01 0.00000000000000e+00
7.76413888888889e-02 1.34678028825681e+01 0.00000000000000e+00
7.81375000000000e-02 1.32118061495703e+01 0.00000000000000e+00
7.86336111111111e-02 1.29606754164595e+01 0.00000000000000e+00
7.91297222222222e-02 1.27143181900441e+01 0.00000000000000e+00
7.96258333333333e-02 1.24726437352480e+01 0.00000000000000e+00
8.01219444444444e-02 1.22355630416924e+01 0.00000000000000e+00
8.06180555555556e-02 1.20029887909126e+01 0.00000000000000e+00
8.11141666666667e-02 1.17748353241983e+01 0.00000000000000e+00
8.16102777777778e-02 1.15510186110443e+01 0.00000000000000e+00
8.21063888888889e-02 1.13314562182020e+01 0.00000000000000e+00
8.26025000000000e-02 1.11160672793185e+01 0.00000000000000e+00
8.30986111111111e-02 1.09047724651530e+01 0.00000000000000e+00
8.35947222222222e-02 1.06974939543592e+01 0.00000000000000e+00
8.40908333333333e-02 1.04941554048230e+01 0.00000000000000e+00
8.45869444444445e-02 1.02946819255457e+01 0.00000000000000e+00
8.50830555555556e-02 1.00990000490607e+01 0.00000000000000e+00
8.55791666666667e-02 9.90703770437483e+00 0.00000000000000e+00
8.60752777777778e-02 9.71872419042452e+00 0.00000000000000e+00
8.65713888888889e-02 9.53399015003578e+00 0.00000000000000e+00
8.70675000000000e-02 9.35276754437960e+00 0.00000000000000e+00
8.75636111111111e-02 9.17498962791272e+00 0.00000000000000e+00
8.80597222222222e-02 9.00059092379485e+00 0.00000000000000e+00
8.85558333333333e-02 8.82950719977304e+00 0.00000000000000e+00
8.90519444444444e-02 8.66167544452449e+00 0.00000000000000e+00
8.95480555555556e-02 8.49703384444910e+00 0.00000000000000e+00
9.00441666666667e-02 8.33552176090304e+00 0.00000000000000e+00
9.05402777777778e-02 8.17707970786516e+00 0.00000000000000e+00
9.10363888888889e-02 8.02164933002781e+00 0.00000000000000e+00
9.15325000000000e-02 7.86917338130425e+00 0.00000000000000e+00
9.20286111111111e-02 7.71959570374446e+00 0.00000000000000e+00
9.25247222222222e-02 7.57286120685183e+00 0.00000000000000e+00
9.30208333333333e-02 7.42891584729289e+00 0.00000000000000e+00
9.35169444444444e-02 7.28770660899282e+00 0.00000000000000e+00
9.40130555555556e-02 7.14918148360925e+00 0.00000000000000e+00
9.45091666666667e-02 7.01328945137721e+00 0.00000000000000e+00
9.50052777777778e-02 6.87998046231822e+00 0.00000000000000e+00
9.55013888888889e-02 6.74920541780653e+00 0.00000000000000e+00
9.59975000000000e-02 6.62091615248575e+00 0.00000000000000e+00
9.64936111111111e-02 6.49506541652919e+00 0.00000000000000e+00
9.69897222222222e-02 6.37160685823748e+00 0.00000000000000e+00
9.74858333333333e-02 6.25049500696687e+00 0.00000000000000e+00
9.79819444444444e-02 6.13168525638209e+00 0.00000000000000e+00
9.84780555555556e-02 6.01513384802754e+00 0.00000000000000e+00
9.89741666666667e-02 5.90079785521071e+00 0.00000000000000e+00
9.94702777777778e-02 5.78863516719202e+00 0.00000000000000e+00
9.99663888888889e-02 5.67860447367514e+00 0.00000000000000e+00
1.00462500000000e-01 5.57066524959210e+00 0.00000000000000e+00
1.00958611111111e-01 5.46477774017762e+00 0.00000000000000e+00
1.01454722222222e-01 5.36090294632720e+00 0.00000000000000e+00
1.01950833333333e-01 5.25900261023344e+00 0.00000000000000e+00
1.02446944444444e-01 5.15903920129541e+00 0.00000000000000e+00
1.02943055555556e-01 5.06097590229592e+00 0.00000000000000e+00
1.03439166666667e-01 4.96477659584145e+00 0.00000000000000e+00
1.03935277777778e-01 4.87040585105985e+00 0.00000000000000e+00
1.04431388888889e-01 4.77782891055097e+00 0.00000000000000e+00
1.04927500000000e-01 4.68701167758516e+00 0.00000000000000e+00
1.05423611111111e-01 4.59792070354532e+00 0.00000000000000e+00
1.05919722222222e-01 4.51052317560747e+00 0.00000000000000e+00
1.06415833333333e-01 4.42478690465557e+00 0.00000000000000e+00
1.06911944444444e-01 4.34068031342609e+00 0.00000000000000e+00
1.07408055555556e-01 4.25817242487781e+00 0.00000000000000e+00
1.07904166666667e-01 4.17723285078283e+00 0.00000000000000e+00
1.08400277777778e-01 4.09783178053433e+00 0.00000000000000e+00
1.08896388888889e-01 4.01993997016716e+00 0.00000000000000e+00
1.09392500000000e-01 3.94352873158701e+00 0.00000000000000e+00
1.09888611111111e-01 3.86856992200449e+00 0.00000000000000e+00
1.10384722222222e-01 3.79503593356984e+00 0.00000000000000e+00
1.10880833333333e-01 3.72289968320485e+00 0.00000000000000e+00
1.11376944444444e-01 3.65213460262791e+00 0.00000000000000e+00
1.11873055555556e-01 3.58271462856880e+00 0.00000000000000e+00
1.12369166666667e-01 3.51461419316932e+00 0.00000000000000e+00
1.12865277777778e-01 3.44780821456655e+00 0.00000000000000e+00
1.13361388888889e-01 3.38227208765497e+00 0.00000000000000e+00
1.13857500000000e-01 3.31798167502425e+00 0.00000000000000e+00
1.14353611111111e-01 3.25491329806929e+00 0.00000000000000e+00
1.14849722222222e-01 3.19304372826919e+00 0.00000000000000e+00
1.15345833333333e-01 3.13235017863207e+00 0.00000000000000e+00
1.15841944444444e-01 3.07281029530240e+00 0.00000000000000e+00
1.16338055555556e-01 3.01440214932800e+00 0.00000000000000e+00
1.16834166666667e-01 2.95710422858337e+00 0.00000000000000e+00
1.17330277777778e-01 2.90089542984670e+00 0.00000000000000e+00
1.17826388888889e-01 2.84575505102735e+00 0.00000000000000e+00
1.18322500000000e-01 2.79166278354117e+00 0.00000000000000e+00
1.18818611111111e-01 2.73859870483066e+00 0.00000000000000e+00
1.19314722222222e-01 2.68654327102741e+00 0.00000000000000e+00
1.19810833333333e-01 2.63547730975391e+00 0.00000000000000e+00
1.20306944444444e-01 2.58538201306226e+00 0.00000000000000e+00
1.20803055555556e-01 2.53623893050705e+00 0.00000000000000e+00
1.21299166666667e-01 2.48802996234996e+00 0.00000000000000e+00
1.21795277777778e-01 2.44073735289347e+00 0.00000000000000e+00
1.22291388888889e-01 2.39434368394133e+00 0.00000000000000e+00
1.22787500000000e-01 2.34883186838333e+00 0.00000000000000e+00
1.23283611111111e-01 2.30418514390197e+00 0.00000000000000e+00
1.23779722222222e-01 2.26038706679880e+00 0.00000000000000e+00
1.24275833333333e-01 2.21742150593809e+00 0.00000000000000e+00
1.24771944444444e-01 2.17527263680562e+00 0.00000000000000e+00
1.25268055555556e-01 2.13392493568040e+00 0.00000000000000e+00
1.25764166666667e-01 2.09336317391717e+00 0.00000000000000e+00
1.26260277777778e-01 2.05357241233761e+00 0.00000000000000e+00
1.26756388888889e-01 2.01453799572810e+00 0.00000000000000e+00
1.27252500000000e-01 1.97624554744213e+00 0.00000000000000e+00
1.27748611111111e-01 1.93868096410526e+00 0.00000000000000e+00
1.28244722222222e-01 1.90183041042078e+00 0.00000000000000e+00
1.28740833333333e-01 1.86568031407405e+00 0.00000000000000e+00
1.29236944444444e-01 1.83021736073372e+00 0.00000000000000e+00
1.29733055555556e-01 1.79542848914798e+00 0.00000000000000e+00
1.30229166666667e-01 1.76130088633401e+00 0.00000000000000e+00
1.30725277777778e-01 1.72782198285887e+00 0.00000000000000e+00
1.31221388888889e-01 1.69497944821009e+00 0.00000000000000e+00
1.31717500000000e-01 1.66276118625424e+00 0.00000000000000e+00
1.32213611111111e-01 1.63115533078188e+00 0.00000000000000e+00
1.32709722222222e-01 1.60015024113711e+00 0.00000000000000e+00
1.33205833333333e-01 1.56973449793025e+00 0.00000000000000e+00
1.33701944444444e-01 1.53989689883202e+00 0.00000000000000e+00
1.34198055555556e-01 1.51062645444760e+00 0.00000000000000e+00
1.34694166666667e-01 1.48191238426922e+00 0.00000000000000e+00
1.35190277777778e-01 1.45374411270556e+00 0.00000000000000e+00
1.35686388888889e-01 1.42611126518675e+00 0.00000000000000e+00
1.36182500000000e-01 1.39900366434328e+00 0.00000000000000e+00
1.36678611111111e-01 1.37241132625765e+00 0.00000000000000e+00
1.37174722222222e-01 1.34632445678721e+00 0.00000000000000e+00
1.37670833333333e-01 1.32073344795690e+00 0.00000000000000e+00
1.38166944444444e-01 1.29562887442059e+00 0.00000000000000e+00
1.38663055555556e-01 1.27100148998964e+00 0.00000000000000e+00
1.39159166666667e-01 1.24684222422745e+00 0.00000000000000e+00
1.39655277777778e-01 1.22314217910880e+00 0.00000000000000e+00
1.40151388888889e-01 1.19989262574260e+00 0.00000000000000e+00
1.40647500000000e-01 1.17708500115702e+00 0.00000000000000e+00
1.41143611111111e-01 1.15471090514563e+00 0.00000000000000e+00
1.41639722222222e-01 1.13276209717363e+00 0.00000000000000e+00
1.42135833333333e-01 1.11123049334273e+00 0.00000000000000e+00
1.42631944444444e-01 1.09010816341380e+00 0.00000000000000e+00
1.43128055555556e-01 1.06938732788617e+00 0.00000000000000e+00
1.43624166666667e-01 1.04906035513233e+00 0.00000000000000e+00
1.44120277777778e-01 1.02911975858714e+00 0.00000000000000e+00
1.44616388888889e-01 1.00955819399052e+00 0.00000000000000e+00
1.45112500000000e-01 9.90368456682497e-01 0.00000000000000e+00
1.45608611111111e-01 9.71543478949641e-01 0.00000000000000e+00
1.46104722222222e-01 9.53076327422024e-01 0.00000000000000e+00
1.46600833333333e-01 9.34960200519587e-01 0.00000000000000e+00
1.47096944444444e-01 9.17188425947076e-01 0.00000000000000e+00
1.47593055555556e-01 8.99754458236590e-01 0.00000000000000e+00
1.48089166666667e-01 8.82651876336840e-01 0.00000000000000e+00
1.48585277777778e-01 8.65874381248230e-01 0.00000000000000e+00
1.49081388888889e-01 8.49415793702894e-01 0.00000000000000e+00
1.49577500000000e-01 8.33270051888825e-01 0.00000000000000e+00
1.50073611111111e-01 8.17431209217272e-01 0.00000000000000e+00
1.50569722222222e-01 8.01893432132566e-01 0.00000000000000e+00
1.51065833333333e-01 7.86650997963585e-01 0.00000000000000e+00
1.51561944444444e-01 7.71698292816049e-01 0.00000000000000e+00
1.52058055555556e-01 7.57029809504891e-01 0.00000000000000e+00
1.52554166666667e-01 7.42640145525915e-01 0.00000000000000e+00
1.53050277777778e-01 7.28524001066023e-01 0.00000000000000e+00
1.53546388888889e-01 7.14676177051253e-01 0.00000000000000e+00
1.54042500000000e-01 7.01091573231924e-01 0.00000000000000e+00
1.54538611111111e-01 6.87765186304179e-01 0.00000000000000e+00
1.55034722222222e-01 6.74692108067238e-01 0.00000000000000e+00
1.55530833333333e-01 6.61867523615664e-01 0.00000000000000e+00
1.56026944444444e-01 6.49286709566010e-01 0.00000000000000e+00
1.56523055555556e-01 6.36945032317158e-01 0.00000000000000e+00
