Energy (eV)          EEDF (eV^-(3/2))     First Anisotropy
2.04761904761905e-02 1.01491609767494e-01 5.87122546135451e-05
6.14285714285714e-02 1.00658353250922e-01 9.68783187020985e-05
1.02380952380952e-01 9.98319378574389e-02 1.27698963997573e-04
1.43333333333333e-01 9.90123074177232e-02 1.50997486003737e-04
1.84285714285714e-01 9.81994062280190e-02 1.70332844265779e-04
2.25238095238095e-01 9.73931790404383e-02 1.87053283748657e-04
2.66190476190476e-01 9.65935710607164e-02 2.01857826106372e-04
3.07142857142857e-01 9.58005279444667e-02 2.15169358935592e-04
3.48095238095238e-01 9.50139957934804e-02 2.27268852791888e-04
3.89047619047619e-01 9.42339211520611e-02 2.38355245671629e-04
4.30000000000000e-01 9.34602510033907e-02 2.48576062198413e-04
4.70952380952381e-01 9.26929327676272e-02 2.58044630494160e-04
5.11904761904762e-01 9.19319142930643e-02 2.66850469150701e-04
5.52857142857143e-01 9.11771438580376e-02 2.75065905486419e-04
5.93809523809524e-01 9.04285701655185e-02 2.82750481259168e-04
6.34761904761905e-01 8.96861423396293e-02 2.89953991369266e-04
6.75714285714286e-01 8.89498099221861e-02 2.96718643683686e-04
7.16666666666667e-01 8.82195228692700e-02 3.03080633525229e-04
7.57619047619048e-01 8.74952315478263e-02 3.09071316771602e-04
7.98571428571429e-01 8.67768867322918e-02 3.14718100637925e-04
8.39523809523810e-01 8.60644396012490e-02 3.20045131454723e-04
8.80476190476191e-01 8.53578417341087e-02 3.25073833604398e-04
9.21428571428571e-01 8.46570451078165e-02 3.29823337425972e-04
9.62380952380952e-01 8.39620020935947e-02 3.34310823007342e-04
1.00333333333333e+00 8.32726654537021e-02 3.38551799049627e-04
1.04428571428571e+00 8.25889883408010e-02 3.42560332672591e-04
1.08523809523810e+00 8.19109242875184e-02 3.46349239068332e-04
1.12619047619048e+00 8.12384272040099e-02 3.49930236458141e-04
1.16714285714286e+00 8.05714513911425e-02 3.53314081211564e-04
1.20809523809524e+00 7.99099515186610e-02 3.56510681441696e-04
1.24904761904762e+00 7.92538826284824e-02 3.59529190197031e-04
1.29000000000000e+00 7.86032001316392e-02 3.62378088150054e-04
1.33095238095238e+00 7.79578598052378e-02 3.65065254106298e-04
1.37190476190476e+00 7.73178177894651e-02 3.67598026038400e-04
1.41285714285714e+00 7.66830305846162e-02 3.69983254179987e-04
1.45380952380952e+00 7.60534550481264e-02 3.72227347414038e-04
1.49476190476190e+00 7.54290483916378e-02 3.74336314578175e-04
1.53571428571429e+00 7.48097681740449e-02 3.76315798485513e-04
1.57666666666667e+00 7.41955723109373e-02 3.78171108872564e-04
1.61761904761905e+00 7.35864190592141e-02 3.79907251775411e-04
1.65857142857143e+00 7.29822670184918e-02 3.81528952695450e-04
1.69952380952381e+00 7.23830751282906e-02 3.83040679614062e-04
1.74047619047619e+00 7.17888026652431e-02 3.84446663043988e-04
1.78142857142857e+00 7.11994092403158e-02 3.85750914040629e-04
1.82238095238095e+00 7.06148547960868e-02 3.86957240433517e-04
1.86333333333333e+00 7.00350996040115e-02 3.88069261492407e-04
1.90428571428571e+00 6.94601042617214e-02 3.89090421203127e-04
1.94523809523810e+00 6.88898296903469e-02 3.90024000804901e-04
1.98619047619048e+00 6.83242371290158e-02 3.90873128288286e-04
2.02714285714286e+00 6.77632881408664e-02 3.91640789383454e-04
2.06809523809524e+00 6.72069446016705e-02 3.92329837688068e-04
2.10904761904762e+00 6.66551687002045e-02 3.92943001523422e-04
2.15000000000000e+00 6.61079229356801e-02 3.93482892113771e-04
2.19095238095238e+00 6.55651701151916e-02 3.93952010635008e-04
2.23190476190476e+00 6.50268733511923e-02 3.94352754702952e-04
2.27285714285714e+00 6.44929960589901e-02 3.94687424358676e-04
2.31380952380952e+00 6.39635019542580e-02 3.94958227596278e-04
2.35476190476190e+00 6.34383550505671e-02 3.95167285881833e-04
2.39571428571429e+00 6.29175196547703e-02 3.95316637660246e-04
2.43666666666667e+00 6.24009603711677e-02 3.95408243579634e-04
2.47761904761905e+00 6.18886420924289e-02 3.95443991408674e-04
2.51857142857143e+00 6.13805299994588e-02 3.95425698574262e-04
2.55952380952381e+00 6.08765895590313e-02 3.95355116126929e-04
2.60047619047619e+00 6.03767865214421e-02 3.95233932044526e-04
2.64142857142857e+00 5.98810869181769e-02 3.95063774315441e-04
2.68238095238095e+00 5.93894570596112e-02 3.94846213823471e-04
2.72333333333333e+00 5.89018635327162e-02 3.94582767050353e-04
2.76428571428571e+00 5.84182731987880e-02 3.94274898606201e-04
2.80523809523810e+00 5.79386531911949e-02 3.93924023944593e-04
2.84619047619048e+00 5.74629709114789e-02 3.93531510564764e-04
2.88714285714286e+00 5.69911940321902e-02 3.93098680801087e-04
2.92809523809524e+00 5.65232904895837e-02 3.92626814494118e-04
2.96904761904762e+00 5.60592284831612e-02 3.92117149795348e-04
3.01000000000000e+00 5.55989764735100e-02 3.91570885275872e-04
3.05095238095238e+00 5.51425031801585e-02 3.90989181581174e-04
3.09190476190476e+00 5.46897775794511e-02 3.90373162993889e-04
3.13285714285714e+00 5.42407689024413e-02 3.89723918912567e-04
3.17380952380952e+00 5.37954466327994e-02 3.89042505250647e-04
3.21476190476191e+00 5.33537805047378e-02 3.88329946053559e-04
3.25571428571429e+00 5.29157404996135e-02 3.87587233868056e-04
3.29666666666667e+00 5.24812968479518e-02 3.86815331528289e-04
3.33761904761905e+00 5.20504200233167e-02 3.86015173886375e-04
3.37857142857143e+00 5.16230807416874e-02 3.85187667977686e-04
3.41952380952381e+00 5.11992499594684e-02 3.84333694346463e-04
3.46047619047619e+00 5.07788988715152e-02 3.83454108016846e-04
3.50142857142857e+00 5.03619989091744e-02 3.82549739415749e-04
3.54238095238095e+00 4.99485217383469e-02 3.81621395252813e-04
3.58333333333333e+00 4.95384392575595e-02 3.80669859359976e-04
3.62428571428571e+00 4.91317235960550e-02 3.79695893490710e-04
3.66523809523810e+00 4.87283471118982e-02 3.78700238333733e-04
3.70619047619048e+00 4.83282823890231e-02 3.77683613484415e-04
3.74714285714286e+00 4.79315022386230e-02 3.76646718649558e-04
3.78809523809524e+00 4.75379796940172e-02 3.75590234826373e-04
3.82904761904762e+00 4.71476880099244e-02 3.74514824162922e-04
3.87000000000000e+00 4.67606006606450e-02 3.73421130828140e-04
3.91095238095238e+00 4.63766913382575e-02 3.72309781594863e-04
3.95190476190476e+00 4.59959339508313e-02 3.71181386398123e-04
3.99285714285714e+00 4.56183026206541e-02 3.70036538870959e-04
4.03380952380952e+00 4.52437716824725e-02 3.68875816858079e-04
4.07476190476191e+00 4.48723156817473e-02 3.67699783127138e-04
4.11571428571429e+00 4.45039093720332e-02 3.66508985179644e-04
4.15666666666667e+00 4.41385277159598e-02 3.65303956149382e-04
4.19761904761905e+00 4.37761458808076e-02 3.64085215687334e-04
4.23857142857143e+00 4.34167392377364e-02 3.62853269702788e-04
4.27952380952381e+00 4.30602833601115e-02 3.61608610994195e-04
4.32047619047619e+00 4.27067540218432e-02 3.60351719637085e-04
4.36142857142857e+00 4.23561271957398e-02 3.59083063356656e-04
4.40238095238095e+00 4.20083790518763e-02 3.57803097886940e-04
4.44333333333333e+00 4.16634859559742e-02 3.56512267317241e-04
4.48428571428571e+00 4.13214244677946e-02 3.55211004425149e-04
4.52523809523810e+00 4.09821713395456e-02 3.53899731187423e-04
4.56619047619048e+00 4.06457035135695e-02 3.52578858516377e-04
4.60714285714286e+00 4.03119981229931e-02 3.51248786943295e-04
4.64809523809524e+00 3.99810324879363e-02 3.49909907295611e-04
4.68904761904762e+00 3.96527841147232e-02 3.48562600387797e-04
4.73000000000000e+00 3.93272306943532e-02 3.47207237487183e-04
4.77095238095238e+00 3.90043501009848e-02 3.45844180573385e-04
4.81190476190476e+00 3.86841203904318e-02 3.44473782588651e-04
4.85285714285714e+00 3.83665197986728e-02 3.43096387680267e-04
4.89380952380952e+00 3.80515267403709e-02 3.41712331434874e-04
4.93476190476191e+00 3.77391198074075e-02 3.40321941272184e-04
4.97571428571429e+00 3.74292777668074e-02 3.38925536158155e-04
5.01666666666667e+00 3.71219795611697e-02 3.37523427156290e-04
5.05761904761905e+00 3.68172043053468e-02 3.36115917976030e-04
5.09857142857143e+00 3.65149312856602e-02 3.34703304653276e-04
5.13952380952381e+00 3.62151399584931e-02 3.33285875916674e-04
5.18047619047619e+00 3.59178099488937e-02 3.31863913374147e-04
5.22142857142857e+00 3.56229210491902e-02 3.30437691693067e-04
5.26238095238095e+00 3.53304532176186e-02 3.29007478775250e-04
5.30333333333333e+00 3.50403865769597e-02 3.27573535926949e-04
5.34428571428571e+00 3.47527014131887e-02 3.26136118023134e-04
5.38523809523810e+00 3.44673781741347e-02 3.24695473813396e-04
5.42619047619048e+00 3.41843974676340e-02 3.23251845634638e-04
5.46714285714286e+00 3.39037400617798e-02 3.21805469857725e-04
5.50809523809524e+00 3.36253868820341e-02 3.20356577333295e-04
5.54904761904762e+00 3.33493190104630e-02 3.18905393080595e-04
5.59000000000000e+00 3.30755176844506e-02 3.17452136576945e-04
5.63095238095238e+00 3.28039642954241e-02 3.15997021891160e-04
5.67190476190476e+00 3.25346403875887e-02 3.14540257813107e-04
5.71285714285714e+00 3.22675276566741e-02 3.13082047979826e-04
5.75380952380952e+00 3.20026079486899e-02 3.11622590998048e-04
5.79476190476190e+00 3.17398632586919e-02 3.10162080693169e-04
5.83571428571429e+00 3.14792757291144e-02 3.08700705832296e-04
5.87666666666667e+00 3.12208276498992e-02 3.07238650500051e-04
5.91761904761905e+00 3.09645014559382e-02 3.05776094474528e-04
5.95857142857143e+00 3.07102797263349e-02 3.04313212931750e-04
5.99952380952381e+00 3.04581451832200e-02 3.02850176684185e-04
6.04047619047619e+00 3.02080806905772e-02 3.01387152281738e-04
6.08142857142857e+00 2.99600692530787e-02 2.99924302109654e-04
6.12238095238095e+00 2.97140940149301e-02 2.98461784483988e-04
6.16333333333333e+00 2.94701382587251e-02 2.96999753744929e-04
6.20428571428571e+00 2.92281854043088e-02 2.95538360347239e-04
6.24523809523810e+00 2.89882190076515e-02 2.94077751062783e-04
6.28619047619048e+00 2.87502227593541e-02 2.92618068721189e-04
6.32714285714286e+00 2.85141804846779e-02 2.91159452525011e-04
6.36809523809524e+00 2.82800761412980e-02 2.89702038365748e-04
6.40904761904762e+00 2.80478938185988e-02 2.88245958549819e-04
6.45000000000000e+00 2.78176177365928e-02 2.86791341994764e-04
6.49095238095238e+00 2.75892322448473e-02 2.85338314304803e-04
6.53190476190476e+00 2.73627218214214e-02 2.83886997844373e-04
6.57285714285714e+00 2.71380710718111e-02 2.82437511810086e-04
6.61380952380952e+00 2.69152647279031e-02 2.80989972300854e-04
6.65476190476191e+00 2.66942876469366e-02 2.79544492488208e-04
6.69571428571429e+00 2.64751248101494e-02 2.78101182374801e-04
6.73666666666667e+00 2.62577613227402e-02 2.76660149065995e-04
6.77761904761905e+00 2.60421824118653e-02 2.75221497042544e-04
6.81857142857143e+00 2.58283734259676e-02 2.73785327907048e-04
6.85952380952381e+00 2.56163198337808e-02 2.72351740550319e-04
6.90047619047619e+00 2.54060072233420e-02 2.70920831210491e-04
6.94142857142857e+00 2.51974213010113e-02 2.69492693530423e-04
6.98238095238095e+00 2.49905478905019e-02 2.68067418614017e-04
7.02333333333333e+00 2.47853729319155e-02 2.66645095081345e-04
7.06428571428571e+00 2.45818824807869e-02 2.65225809122176e-04
7.10523809523810e+00 2.43800627071365e-02 2.63809644638535e-04
7.14619047619048e+00 2.41798998942524e-02 2.62396683023600e-04
7.18714285714286e+00 2.39813804385982e-02 2.60987003394211e-04
7.22809523809524e+00 2.37844908480421e-02 2.59580682824568e-04
7.26904761904762e+00 2.35892177412239e-02 2.58177796115245e-04
7.31000000000000e+00 2.33955478466457e-02 2.56778415933424e-04
7.35095238095238e+00 2.32034680017699e-02 2.55382612858449e-04
7.39190476190476e+00 2.30129651521249e-02 2.53990455426325e-04
7.43285714285714e+00 2.28240263504175e-02 2.52602010173343e-04
7.47380952380952e+00 2.26366387556532e-02 2.51217341678755e-04
7.51476190476191e+00 2.24507896322636e-02 2.49836512687131e-04
7.55571428571429e+00 2.22664663489980e-02 2.48459583905094e-04
7.59666666666667e+00 2.20836563787980e-02 2.47086614204607e-04
7.63761904761905e+00 2.19023472972074e-02 2.45717660827534e-04
7.67857142857143e+00 2.17225267817765e-02 2.44352779174020e-04
7.71952380952381e+00 2.15441826112240e-02 2.42992022923536e-04
7.76047619047619e+00 2.13673026646064e-02 2.41635444071338e-04
7.80142857142857e+00 2.11918749204946e-02 2.40283092964022e-04
7.84238095238095e+00 2.10178874561566e-02 2.38935018334388e-04
7.88333333333333e+00 2.08453284467473e-02 2.37591267335693e-04
7.92428571428572e+00 2.06741861645050e-02 2.36251885574965e-04
7.96523809523810e+00 2.05044489779537e-02 2.34916917217279e-04
8.00619047619048e+00 2.03361053509048e-02 2.33586404801428e-04
8.04714285714286e+00 2.01691438423030e-02 2.32260389416141e-04
8.08809523809524e+00 2.00035531048138e-02 2.30938910877577e-04
8.12904761904762e+00 1.98393218842654e-02 2.29622007537899e-04
8.17000000000000e+00 1.96764390188838e-02 2.28309716388939e-04
8.21095238095238e+00 1.95148934385344e-02 2.27002073090875e-04
8.25190476190476e+00 1.93546741639695e-02 2.25699112000346e-04
8.29285714285714e+00 1.91957703060823e-02 2.24400866198032e-04
8.33380952380952e+00 1.90381710651666e-02 2.23107367515625e-04
8.37476190476191e+00 1.88818657301829e-02 2.21818646626597e-04
8.41571428571429e+00 1.87268436778477e-02 2.20534732877682e-04
8.45666666666667e+00 1.85730943724638e-02 2.19255654444405e-04
8.49761904761905e+00 1.84206073646479e-02 2.17981438487827e-04
8.53857142857143e+00 1.82693722908072e-02 2.16712110979932e-04
8.57952380952381e+00 1.81193788724350e-02 2.15447696794178e-04
8.62047619047619e+00 1.79706169154124e-02 2.14188219728840e-04
8.66142857142857e+00 1.78230763093149e-02 2.12933702529735e-04
8.70238095238095e+00 1.76767470267258e-02 2.11684166912620e-04
8.74333333333333e+00 1.75316191225546e-02 2.10439633585160e-04
8.78428571428572e+00 1.73876827333611e-02 2.09200122268354e-04
8.82523809523810e+00 1.72449280766848e-02 2.07965651774848e-04
8.86619047619048e+00 1.71033454502218e-02 2.06736239856668e-04
8.90714285714286e+00 1.69629252316441e-02 2.05511903341180e-04
8.94809523809524e+00 1.68236578774637e-02 2.04292658268247e-04
8.98904761904762e+00 1.66855339225452e-02 2.03078519732774e-04
9.03000000000000e+00 1.65485439794632e-02 2.01869501963074e-04
9.07095238095238e+00 1.64126787378639e-02 2.00665618339418e-04
9.11190476190476e+00 1.62779289638325e-02 1.99466881412304e-04
9.15285714285714e+00 1.61442854992657e-02 1.98273302920385e-04
9.19380952380952e+00 1.60117392612489e-02 1.97084893808011e-04
9.23476190476191e+00 1.58802812414396e-02 1.95901664293963e-04
9.27571428571429e+00 1.57499025053147e-02 1.94723623732652e-04
9.31666666666667e+00 1.56205941919859e-02 1.93550780734886e-04
9.35761904761905e+00 1.54923475131719e-02 1.92383143289741e-04
9.39857142857143e+00 1.53651537527441e-02 1.91220718621170e-04
9.43952380952381e+00 1.52390042661346e-02 1.90063513257005e-04
9.48047619047619e+00 1.51138904797478e-02 1.88911533044249e-04
9.52142857142857e+00 1.49898038903785e-02 1.87764783163957e-04
9.56238095238095e+00 1.48667360646337e-02 1.86623268145937e-04
9.60333333333333e+00 1.47446786383591e-02 1.85486991883165e-04
9.64428571428572e+00 1.46236233160715e-02 1.84355957645856e-04
9.68523809523810e+00 1.45035618703940e-02 1.83230168141279e-04
9.72619047619048e+00 1.43844861413762e-02 1.82109625388520e-04
9.76714285714286e+00 1.42663880363061e-02 1.80994330824722e-04
9.80809523809524e+00 1.41492595287905e-02 1.79884285412350e-04
9.84904761904762e+00 1.40330926583339e-02 1.78779489509983e-04
9.89000000000000e+00 1.39178795297973e-02 1.77679942932509e-04
9.93095238095238e+00 1.38036123128615e-02 1.76585644963394e-04
9.97190476190476e+00 1.36902832414949e-02 1.75496594366734e-04
1.00128571428571e+01 1.35778846134262e-02 1.74412789272463e-04
1.00538095238095e+01 1.34664087899494e-02 1.73334227653766e-04
1.00947619047619e+01 1.33558481941941e-02 1.72260906913192e-04
1.01357142857143e+01 1.32461953120516e-02 1.71192823635313e-04
1.01766666666667e+01 1.31374426911042e-02 1.70129974160381e-04
1.02176190476190e+01 1.30295829401204e-02 1.69072353974194e-04
1.02585714285714e+01 1.29226087295868e-02 1.68019958933706e-04
1.02995238095238e+01 1.28165127880832e-02 1.66972784464718e-04
1.03404761904762e+01 1.27112879049355e-02 1.65930824747138e-04
1.03814285714286e+01 1.26069269286690e-02 1.64894073966015e-04
1.04223809523810e+01 1.25034227665242e-02 1.63862525522569e-04
1.04633333333333e+01 1.24007683849484e-02 1.62836173198297e-04
1.05042857142857e+01 1.22989568061753e-02 1.61815010392286e-04
1.05452380952381e+01 1.21979811107121e-02 1.60799029346786e-04
1.05861904761905e+01 1.20978344358747e-02 1.59788222335475e-04
1.06271428571429e+01 1.19985099753231e-02 1.58782580913310e-04
1.06680952380952e+01 1.19000009795145e-02 1.57782097021897e-04
1.07090476190476e+01 1.18023007524774e-02 1.56786762264835e-04
1.07500000000000e+01 1.17054026541414e-02 1.55796567171342e-04
1.07909523809524e+01 1.16093000989513e-02 1.54811502325121e-04
1.08319047619048e+01 1.15139865554201e-02 1.53831557996231e-04
1.08728571428571e+01 1.14194555456850e-02 1.52856723807285e-04
1.09138095238095e+01 1.13257006459209e-02 1.51886989773514e-04
1.09547619047619e+01 1.12327154833264e-02 1.50922345619951e-04
1.09957142857143e+01 1.11404937382841e-02 1.49962780087568e-04
1.10366666666667e+01 1.10490291430608e-02 1.49008281995548e-04
1.10776190476190e+01 1.09583154813827e-02 1.48058839569627e-04
1.11185714285714e+01 1.08683465888158e-02 1.47114441430594e-04
1.11595238095238e+01 1.07791163499206e-02 1.46175075944798e-04
1.12004761904762e+01 1.06906187002783e-02 1.45240730564581e-04
1.12414285714286e+01 1.06028476252588e-02 1.44311392837493e-04
1.12823809523810e+01 1.05157971596137e-02 1.43387049767358e-04
1.13233333333333e+01 1.04294613878265e-02 1.42467688753894e-04
1.13642857142857e+01 1.03438344414256e-02 1.41553296974961e-04
1.14052380952381e+01 1.02589105008853e-02 1.40643860759182e-04
1.14461904761905e+01 1.01746837944584e-02 1.39739366545271e-04
1.14871428571429e+01 1.00911485977843e-02 1.38839800274186e-04
1.15280952380952e+01 1.00082992342138e-02 1.37945148282051e-04
1.15690476190476e+01 9.92613007226886e-03 1.37055396712790e-04
1.16100000000000e+01 9.84463552742773e-03 1.36170530921220e-04
1.16509523809524e+01 9.76381006101762e-03 1.35290536385099e-04
1.16919047619048e+01 9.68364817983880e-03 1.34415398406237e-04
1.17328571428571e+01 9.60414443579154e-03 1.33545101839072e-04
1.17738095238095e+01 9.52529342617078e-03 1.32679631931629e-04
1.18147619047619e+01 9.44708979129057e-03 1.31818973771650e-04
1.18557142857143e+01 9.36952821614074e-03 1.30963111723744e-04
1.18966666666667e+01 9.29260342934752e-03 1.30112030288423e-04
1.19376190476190e+01 9.21631020281610e-03 1.29265713557088e-04
1.19785714285714e+01 9.14064335200211e-03 1.28424146011842e-04
1.20195238095238e+01 9.06559773366551e-03 1.27587311998360e-04
1.20604761904762e+01 8.99116824742678e-03 1.26755195190530e-04
1.21014285714286e+01 8.91734983478038e-03 1.25927779407136e-04
1.21423809523810e+01 8.84413747875219e-03 1.25105048093140e-04
1.21833333333333e+01 8.77152620414956e-03 1.24286985080467e-04
1.22242857142857e+01 8.69951107543706e-03 1.23473574086305e-04
1.22652380952381e+01 8.62808719819843e-03 1.22664798203614e-04
1.23061904761905e+01 8.55724971820064e-03 1.21860640677953e-04
1.23471428571429e+01 8.48699382106464e-03 1.21061084413684e-04
1.23880952380952e+01 8.41731473249624e-03 1.20266112697516e-04
1.24290476190476e+01 8.34820771627631e-03 1.19475708721172e-04
1.24700000000000e+01 8.27966807563469e-03 1.18689855096321e-04
1.25109523809524e+01 8.21169115236189e-03 1.17908534593661e-04
1.25519047619048e+01 8.14427232649278e-03 1.17131729899679e-04
1.25928571428571e+01 8.07740701599280e-03 1.16359423395525e-04
1.26338095238095e+01 8.01109067696766e-03 1.15591597838897e-04
1.26747619047619e+01 7.94531880178075e-03 1.14828235913694e-04
1.27157142857143e+01 7.88008692033032e-03 1.14069319772356e-04
1.27566666666667e+01 7.81539059921432e-03 1.13314831732474e-04
1.27976190476190e+01 7.75122544142974e-03 1.12564753833527e-04
1.28385714285714e+01 7.68758708656547e-03 1.11819068485820e-04
1.28795238095238e+01 7.62447120902040e-03 1.11077758041627e-04
1.29204761904762e+01 7.56187351920430e-03 1.10340804359642e-04
