Energy (eV)          EEDF (eV^-(3/2))     First Anisotropy
1.69491525423729e-03 6.15025990466928e-01 4.57109776185053e-08
5.08474576271186e-03 6.15025951486677e-01 1.43285437810327e-07
8.47457627118644e-03 6.15025849178758e-01 3.53974651703063e-07
1.18644067796610e-02 6.15025680792871e-01 6.25027025474051e-07
1.52542372881356e-02 6.15025444744543e-01 9.36390608497642e-07
1.86440677966102e-02 6.15025145788723e-01 1.26059059373712e-06
2.20338983050847e-02 6.15024792488374e-01 1.58642636131927e-06
2.54237288135593e-02 6.15024389822314e-01 1.92302885526782e-06
2.88135593220339e-02 6.15023938379806e-01 2.27461101353906e-06
3.22033898305085e-02 6.15023439689276e-01 2.63073522957574e-06
3.55932203389831e-02 6.15022897695223e-01 2.99568634222615e-06
3.89830508474576e-02 6.15022311164519e-01 3.38201551122290e-06
4.23728813559322e-02 6.15021678838220e-01 3.79400589193818e-06
4.57627118644068e-02 6.15020998046539e-01 4.23379300119099e-06
4.91525423728814e-02 6.15020267031071e-01 4.69446382115508e-06
5.25423728813559e-02 6.15019485635358e-01 5.16157879079868e-06
5.59322033898305e-02 6.15018656684196e-01 5.63843596789057e-06
5.93220338983051e-02 6.15017778614715e-01 6.13856797329122e-06
6.27118644067797e-02 6.15016849942161e-01 6.66236732958721e-06
6.61016949152542e-02 6.15015869098990e-01 7.21085564035103e-06
6.94915254237288e-02 6.15014834413833e-01 7.77543811825495e-06
7.28813559322034e-02 6.15013746832682e-01 8.33752020800261e-06
7.62711864406780e-02 6.15012609720334e-01 8.90434784796012e-06
7.96610169491525e-02 6.15011421725131e-01 9.49298535971683e-06
8.30508474576271e-02 6.15010181523115e-01 1.01037345802710e-05
8.64406779661017e-02 6.15008887763560e-01 1.07370091124320e-05
8.98305084745763e-02 6.15007539092038e-01 1.13928839772320e-05
9.32203389830508e-02 6.15006134208516e-01 1.20713590691352e-05
9.66101694915254e-02 6.15004671821467e-01 1.27726427110078e-05
1.00000000000000e-01 6.15003150637839e-01 1.34802272775979e-05
1.03389830508475e-01 6.15001573349934e-01 1.41746047289596e-05
1.06779661016949e-01 6.14999943117677e-01 1.48683510657616e-05
1.10169491525424e-01 6.14998259409058e-01 1.55769657968559e-05
1.13559322033898e-01 6.14996521681941e-01 1.63005304808040e-05
1.16949152542373e-01 6.14994729384958e-01 1.70391249662000e-05
1.20338983050847e-01 6.14992881958254e-01 1.77928277354860e-05
1.23728813559322e-01 6.14990978834127e-01 1.85617161969545e-05
1.27118644067797e-01 6.14989019437571e-01 1.93458669357832e-05
1.30508474576271e-01 6.14987003186731e-01 2.01453559164837e-05
1.33898305084746e-01 6.14984929493301e-01 2.09602586517365e-05
1.37288135593220e-01 6.14982797762858e-01 2.17906503567260e-05
1.40677966101695e-01 6.14980607395152e-01 2.26366060664699e-05
1.44067796610169e-01 6.14978357784350e-01 2.34982007347217e-05
1.47457627118644e-01 6.14976048319251e-01 2.43755093277017e-05
1.50847457627119e-01 6.14973678383467e-01 2.52686068938147e-05
1.54237288135593e-01 6.14971247355579e-01 2.61775686200175e-05
1.57627118644068e-01 6.14968754609271e-01 2.71024698831247e-05
1.61016949152542e-01 6.14966199513448e-01 2.80433862918489e-05
1.64406779661017e-01 6.14963581432333e-01 2.90003937210417e-05
1.67796610169492e-01 6.14960899725553e-01 2.99735683276847e-05
1.71186440677966e-01 6.14958153748211e-01 3.09629860128908e-05
1.74576271186441e-01 6.14955342851056e-01 3.19687168383730e-05
1.77966101694915e-01 6.14952466381524e-01 3.29908120874642e-05
1.81355932203390e-01 6.14949523686148e-01 3.40292571577796e-05
1.84745762711864e-01 6.14946514119718e-01 3.50838867821062e-05
1.88135593220339e-01 6.14943437061964e-01 3.61543558691441e-05
1.91525423728814e-01 6.14940291930744e-01 3.72401320289624e-05
1.94915254237288e-01 6.14937078198733e-01 3.83405811462640e-05
1.98305084745763e-01 6.14933795390824e-01 3.94552404743034e-05
2.01694915254237e-01 6.14930443054381e-01 4.05119113274875e-05
2.05084745762712e-01 6.14927033554246e-01 4.15074385969514e-05
2.08474576271186e-01 6.14923566753346e-01 4.25110813564342e-05
2.11864406779661e-01 6.14920042584838e-01 4.35223485882746e-05
2.15254237288136e-01 6.14916460981279e-01 4.45411760294934e-05
2.18644067796610e-01 6.14912821874515e-01 4.55675023049877e-05
2.22033898305085e-01 6.14909125195601e-01 4.66012687867781e-05
2.25423728813559e-01 6.14905370874711e-01 4.76424194741044e-05
2.28813559322034e-01 6.14901558841064e-01 4.86909008828250e-05
2.32203389830508e-01 6.14897689022856e-01 4.97466619403758e-05
2.35593220338983e-01 6.14893761347199e-01 5.08096538808820e-05
2.38983050847458e-01 6.14889775740059e-01 5.18798301641336e-05
2.42372881355932e-01 6.14885732126206e-01 5.29571463761861e-05
2.45762711864407e-01 6.14881630429168e-01 5.40415601514336e-05
2.49152542372881e-01 6.14877470571182e-01 5.51330310944319e-05
2.52542372881356e-01 6.14873252473158e-01 5.62315206970195e-05
2.55932203389831e-01 6.14868976054642e-01 5.73369922808236e-05
2.59322033898305e-01 6.14864641233779e-01 5.84494109185808e-05
2.62711864406780e-01 6.14860247927289e-01 5.95687433655135e-05
2.66101694915254e-01 6.14855796050431e-01 6.06949580041508e-05
2.69491525423729e-01 6.14851285516985e-01 6.18280247053089e-05
2.72881355932203e-01 6.14846716239238e-01 6.29679137779627e-05
2.76271186440678e-01 6.14842088128108e-01 6.41145929496083e-05
2.79661016949153e-01 6.14837401093570e-01 6.52680176063551e-05
2.83050847457627e-01 6.14832655046179e-01 6.64281090175246e-05
2.86440677966102e-01 6.14827849900591e-01 6.75947353775496e-05
2.89830508474576e-01 6.14822985579686e-01 6.87677058064212e-05
2.93220338983051e-01 6.14818062018727e-01 6.99467843109098e-05
2.96610169491525e-01 6.14813079167228e-01 7.11317521259668e-05
3.00000000000000e-01 6.14808036984102e-01 7.23188486648990e-05
3.03389830508475e-01 6.14802936288167e-01 7.35497085283093e-05
3.06779661016949e-01 6.14797771584952e-01 7.49170904478375e-05
3.10169491525424e-01 6.14792530553183e-01 7.64638854399228e-05
3.13559322033898e-01 6.14787201672239e-01 7.81811481297553e-05
3.16949152542373e-01 6.14781774178983e-01 8.00602973182091e-05
3.20338983050847e-01 6.14776238027112e-01 8.20930992981924e-05
3.23728813559322e-01 6.14770583848856e-01 8.42716520845421e-05
3.27118644067797e-01 6.14764802918869e-01 8.65883704602515e-05
3.30508474576271e-01 6.14758887120180e-01 8.90359717985959e-05
3.33898305084746e-01 6.14752828912069e-01 9.16074626184871e-05
3.37288135593220e-01 6.14746621299748e-01 9.42961258112787e-05
3.40677966101695e-01 6.14740257805734e-01 9.70955085040478e-05
3.44067796610170e-01 6.14733732442814e-01 9.99994105335279e-05
3.47457627118644e-01 6.14727039688494e-01 1.03001873471870e-04
3.50847457627119e-01 6.14720174460858e-01 1.06097170186170e-04
3.54237288135593e-01 6.14713132095742e-01 1.09279794902882e-04
3.57627118644068e-01 6.14705908325139e-01 1.12544453749351e-04
3.61016949152542e-01 6.14698499256783e-01 1.15886055736769e-04
3.64406779661017e-01 6.14690901354816e-01 1.19299704156486e-04
3.67796610169492e-01 6.14683111421502e-01 1.22780688386384e-04
3.71186440677966e-01 6.14675126579900e-01 1.26324475978769e-04
3.74576271186441e-01 6.14666944257483e-01 1.29926704316178e-04
3.77966101694915e-01 6.14658562170710e-01 1.33583171335964e-04
3.81355932203390e-01 6.14649978310597e-01 1.37289820969433e-04
3.84745762711864e-01 6.14641190929867e-01 1.41042723107456e-04
3.88135593220339e-01 6.14632198531713e-01 1.44838062834746e-04
3.91525423728814e-01 6.14622999858895e-01 1.48672134605631e-04
3.94915254237288e-01 6.14613593883706e-01 1.52541353189716e-04
3.98305084745763e-01 6.14603979796118e-01 1.56442292975630e-04
4.01694915254237e-01 6.14594156989350e-01 1.60305863364084e-04
4.05084745762712e-01 6.14584134893317e-01 1.64232481283630e-04
4.08474576271186e-01 6.14573900538755e-01 1.68385134242541e-04
4.11864406779661e-01 6.14563441708178e-01 1.72753149868504e-04
4.15254237288136e-01 6.14552746991519e-01 1.77325528665423e-04
4.18644067796610e-01 6.14541805745494e-01 1.82091720453010e-04
4.22033898305085e-01 6.14530608054925e-01 1.87041607263472e-04
4.25423728813559e-01 6.14519144695914e-01 1.92165486998460e-04
4.28813559322034e-01 6.14507407100769e-01 1.97454057781629e-04
4.32203389830508e-01 6.14495387324590e-01 2.02898402950160e-04
4.35593220338983e-01 6.14483078013443e-01 2.08489976665984e-04
4.38983050847458e-01 6.14470472374029e-01 2.14220590129811e-04
4.42372881355932e-01 6.14457564144774e-01 2.20082398348235e-04
4.45762711864407e-01 6.14444347568279e-01 2.26067887426757e-04
4.49152542372881e-01 6.14430817365050e-01 2.32169862381358e-04
4.52542372881356e-01 6.14416968708453e-01 2.38381435427826e-04
4.55932203389830e-01 6.14402797200832e-01 2.44696014754457e-04
4.59322033898305e-01 6.14388298850731e-01 2.51107293738355e-04
4.62711864406780e-01 6.14373470051163e-01 2.57609240577268e-04
4.66101694915254e-01 6.14358307558892e-01 2.64196088339159e-04
4.69491525423729e-01 6.14342808474646e-01 2.70862325377005e-04
4.72881355932203e-01 6.14326970224262e-01 2.77602685844486e-04
4.76271186440678e-01 6.14310790540704e-01 2.84412139964757e-04
4.79661016949153e-01 6.14294267446993e-01 2.91285882662359e-04
4.83050847457627e-01 6.14277399240171e-01 2.98219319043378e-04
4.86440677966102e-01 6.14260184476484e-01 3.05208050613796e-04
4.89830508474576e-01 6.14242621957487e-01 3.12247867235756e-04
4.93220338983051e-01 6.14224710716619e-01 3.19334746237696e-04
4.96610169491525e-01 6.14206450005812e-01 3.26464865538865e-04
5.00000000000000e-01 6.14187839280974e-01 3.33581509389587e-04
5.03389830508475e-01 6.14168884820148e-01 3.40636361459547e-04
5.06779661016949e-01 6.14149592144105e-01 3.47696135653024e-04
5.10169491525424e-01 6.14129959351711e-01 3.54818069990917e-04
5.13559322033898e-01 6.14109984875977e-01 3.61996398462763e-04
5.16949152542373e-01 6.14089667467406e-01 3.69225581571213e-04
5.20338983050847e-01 6.14069006178032e-01 3.76500299086976e-04
5.23728813559322e-01 6.14048000346112e-01 3.83815443085851e-04
5.27118644067797e-01 6.14026649581442e-01 3.91166111238940e-04
5.30508474576271e-01 6.14004953751282e-01 3.98547600313672e-04
5.33898305084746e-01 6.13982912966846e-01 4.05955399887418e-04
5.37288135593220e-01 6.13960527570348e-01 4.13385186294272e-04
5.40677966101695e-01 6.13937798122573e-01 4.20832816763281e-04
5.44067796610169e-01 6.13914725390958e-01 4.28294323720351e-04
5.47457627118644e-01 6.13891310338152e-01 4.35765909298836e-04
5.50847457627119e-01 6.13867554111050e-01 4.43243940022086e-04
5.54237288135593e-01 6.13843458030264e-01 4.50724941649950e-04
5.57627118644068e-01 6.13819023580031e-01 4.58205594196144e-04
5.61016949152542e-01 6.13794252398527e-01 4.65682727112869e-04
5.64406779661017e-01 6.13769146268574e-01 4.73153314604280e-04
5.67796610169491e-01 6.13743707108730e-01 4.80614471105610e-04
5.71186440677966e-01 6.13717936964742e-01 4.88063446851443e-04
5.74576271186441e-01 6.13691838001347e-01 4.95497623261713e-04
5.77966101694915e-01 6.13665412494453e-01 5.02914507872220e-04
5.81355932203390e-01 6.13638662823704e-01 5.10311727149711e-04
5.84745762711864e-01 6.13611591465633e-01 5.17687017309065e-04
5.88135593220339e-01 6.13584200987405e-01 5.25038219108100e-04
5.91525423728814e-01 6.13556494040698e-01 5.32363275748506e-04
5.94915254237288e-01 6.13528473355795e-01 5.39660238760781e-04
5.98305084745763e-01 6.13500141734911e-01 5.46927280947742e-04
6.01694915254237e-01 6.13471502045064e-01 5.54312429684514e-04
6.05084745762712e-01 6.13442541653110e-01 5.62245293720929e-04
6.08474576271186e-01 6.13413218950881e-01 5.71125147512977e-04
6.11864406779661e-01 6.13383480393706e-01 5.81045361642252e-04
6.15254237288136e-01 6.13353275409409e-01 5.91956442122127e-04
6.18644067796610e-01 6.13322556273319e-01 6.03810694265185e-04
6.22033898305085e-01 6.13291277988386e-01 6.16562158780040e-04
6.25423728813559e-01 6.13259398170173e-01 6.30166550265860e-04
6.28813559322034e-01 6.13226876936526e-01 6.44581197961975e-04
6.32203389830508e-01 6.13193676801725e-01 6.59764988620436e-04
6.35593220338983e-01 6.13159762574925e-01 6.75678311383609e-04
6.38983050847458e-01 6.13125101262727e-01 6.92283004612933e-04
6.42372881355932e-01 6.13089661975698e-01 7.09542304590400e-04
6.45762711864407e-01 6.13053415838676e-01 7.27420795983954e-04
6.49152542372881e-01 6.13016335904728e-01 7.45884364075056e-04
6.52542372881356e-01 6.12978397072583e-01 7.64900148626038e-04
6.55932203389830e-01 6.12939576007429e-01 7.84436499365802e-04
6.59322033898305e-01 6.12899851064915e-01 8.04462933023342e-04
6.62711864406780e-01 6.12859202218242e-01 8.24950091829812e-04
6.66101694915254e-01 6.12817610988217e-01 8.45869703492550e-04
6.69491525423729e-01 6.12775060376147e-01 8.67194542502440e-04
6.72881355932203e-01 6.12731534799465e-01 8.88898392636047e-04
6.76271186440678e-01 6.12687020029992e-01 9.10956010438182e-04
6.79661016949152e-01 6.12641503134747e-01 9.33343088979732e-04
6.83050847457627e-01 6.12594972419289e-01 9.56036221148356e-04
6.86440677966102e-01 6.12547417373585e-01 9.79012863532717e-04
6.89830508474576e-01 6.12498828620273e-01 1.00225130584986e-03
6.93220338983051e-01 6.12449197864779e-01 1.02573064755101e-03
6.96610169491525e-01 6.12398517847001e-01 1.04943077473095e-03
7.00000000000000e-01 6.12346782294842e-01 1.07357640813919e-03
7.03389830508475e-01 6.12293962726325e-01 1.09887189748894e-03
7.06779661016949e-01 6.12239985269577e-01 1.12599658480882e-03
7.10169491525424e-01 6.12184755599213e-01 1.15511328725064e-03
7.13559322033898e-01 6.12128184470874e-01 1.18612991194757e-03
7.16949152542373e-01 6.12070187540301e-01 1.21895714719531e-03
7.20338983050847e-01 6.12010685188502e-01 1.25350838296918e-03
7.23728813559322e-01 6.11949602352760e-01 1.28969963380231e-03
7.27118644067797e-01 6.11886868363320e-01 1.32744946383111e-03
7.30508474576271e-01 6.11822416785541e-01 1.36667891391995e-03
7.33898305084746e-01 6.11756185267346e-01 1.40731143071168e-03
7.37288135593220e-01 6.11688115391785e-01 1.44927279759263e-03
7.40677966101695e-01 6.11618152534567e-01 1.49249106748130e-03
7.44067796610169e-01 6.11546245726373e-01 1.53689649736302e-03
7.47457627118644e-01 6.11472347519817e-01 1.58242148456331e-03
7.50847457627119e-01 6.11396413860898e-01 1.62900050471444e-03
7.54237288135593e-01 6.11318403964794e-01 1.67657005132358e-03
7.57627118644068e-01 6.11238280195865e-01 1.72506857694908e-03
7.61016949152542e-01 6.11156007951726e-01 1.77443643589924e-03
7.64406779661017e-01 6.11071555551267e-01 1.82461582841781e-03
7.67796610169492e-01 6.10984894126478e-01 1.87555074637142e-03
7.71186440677966e-01 6.10895997517980e-01 1.92718692023871e-03
7.74576271186441e-01 6.10804842174128e-01 1.97947176729177e-03
7.77966101694915e-01 6.10711407053603e-01 2.03235434051568e-03
7.81355932203390e-01 6.10615673531423e-01 2.08578527695169e-03
7.84745762711864e-01 6.10517625308412e-01 2.13971674599257e-03
7.88135593220339e-01 6.10417248324000e-01 2.19410240139356e-03
7.91525423728814e-01 6.10314530672032e-01 2.24889733905345e-03
7.94915254237288e-01 6.10209462519225e-01 2.30405806683743e-03
7.98305084745763e-01 6.10102036025302e-01 2.35954247721097e-03
8.01694915254237e-01 6.09992245265522e-01 2.41510145054192e-03
8.05084745762712e-01 6.09880105303850e-01 2.47025301208678e-03
8.08474576271186e-01 6.09765654313877e-01 2.52470604786084e-03
8.11864406779661e-01 6.09648933666348e-01 2.57842520507893e-03
8.15254237288136e-01 6.09529984280559e-01 2.63141492822420e-03
8.18644067796610e-01 6.09408846625237e-01 2.68367974572166e-03
8.22033898305085e-01 6.09285560719228e-01 2.73522427308994e-03
8.25423728813559e-01 6.09160166132004e-01 2.78605321565365e-03
8.28813559322034e-01 6.09032701984013e-01 2.83617137088806e-03
8.32203389830508e-01 6.08903206946905e-01 2.88558363042351e-03
8.35593220338983e-01 6.08771719243620e-01 2.93429498177210e-03
8.38983050847458e-01 6.08638276648380e-01 2.98231050977350e-03
8.42372881355932e-01 6.08502916486592e-01 3.02963539779635e-03
8.45762711864407e-01 6.08365675634656e-01 3.07627492870382e-03
8.49152542372881e-01 6.08226590519716e-01 3.12223448559243e-03
8.52542372881356e-01 6.08085697119345e-01 3.16751955233760e-03
8.55932203389830e-01 6.07943030961188e-01 3.21213571395707e-03
8.59322033898305e-01 6.07798627122554e-01 3.25608865679683e-03
8.62711864406780e-01 6.07652520229989e-01 3.29938416855321e-03
8.66101694915254e-01 6.07504744458811e-01 3.34202813814376e-03
8.69491525423729e-01 6.07355333532637e-01 3.38402655545054e-03
8.72881355932203e-01 6.07204320722898e-01 3.42538551080090e-03
8.76271186440678e-01 6.07051738848354e-01 3.46611119395339e-03
8.79661016949153e-01 6.06897620274659e-01 3.50620989220965e-03
8.83050847457627e-01 6.06741996914008e-01 3.54568798646050e-03
8.86440677966102e-01 6.06584900225032e-01 3.58455194926006e-03
8.89830508474576e-01 6.06426361212567e-01 3.62280834710789e-03
8.93220338983051e-01 6.06266410427251e-01 3.66046384310451e-03
8.96610169491525e-01 6.06105077964964e-01 3.69752520992611e-03
9.00000000000000e-01 6.05942393465058e-01 3.73398791008745e-03
9.03389830508475e-01 6.05778387109546e-01 3.77006473784017e-03
9.06779661016949e-01 6.05613069640629e-01 3.80620071259034e-03
9.10169491525424e-01 6.05446432209828e-01 3.84261299913153e-03
9.13559322033898e-01 6.05278466616659e-01 3.87928752271570e-03
9.16949152542373e-01 6.05109165293586e-01 3.91621045907248e-03
9.20338983050847e-01 6.04938521291096e-01 3.95336823474661e-03
9.23728813559322e-01 6.04766528262908e-01 3.99074752739343e-03
9.27118644067797e-01 6.04593180451304e-01 4.02833526597160e-03
9.30508474576271e-01 6.04418472672589e-01 4.06611863082773e-03
9.33898305084746e-01 6.04242400302691e-01 4.10408505359450e-03
9.37288135593220e-01 6.04064959262892e-01 4.14222221693996e-03
9.40677966101695e-01 6.03886146005710e-01 4.18051805417807e-03
9.44067796610169e-01 6.03705957500919e-01 4.21896074870763e-03
9.47457627118644e-01 6.03524391221729e-01 4.25753873332572e-03
9.50847457627119e-01 6.03341445131117e-01 4.29624068940240e-03
9.54237288135593e-01 6.03157117668314e-01 4.33505554591900e-03
9.57627118644068e-01 6.02971407735457e-01 4.37397247835275e-03
9.61016949152542e-01 6.02784314684406e-01 4.41298090745815e-03
9.64406779661017e-01 6.02595838303728e-01 4.45207049795172e-03
9.67796610169491e-01 6.02405978805848e-01 4.49123115705861e-03
9.71186440677966e-01 6.02214736814378e-01 4.53045303277114e-03
9.74576271186441e-01 6.02022113351631e-01 4.56972651146916e-03
9.77966101694915e-01 6.01828109826373e-01 4.60904221384268e-03
9.81355932203390e-01 6.01632728021916e-01 4.64839098718132e-03
9.84745762711864e-01 6.01435970084781e-01 4.68776389545024e-03
9.88135593220339e-01 6.01237838513903e-01 4.72715220881341e-03
9.91525423728814e-01 6.01038336150466e-01 4.76654742395841e-03
9.94915254237288e-01 6.00837466165177e-01 4.80594128749352e-03
9.98305084745763e-01 6.00635232045929e-01 4.84532581112324e-03
1.00169491525424e+00 6.00431637583870e-01 4.88631336559263e-03
1.00508474576271e+00 6.00226540129983e-01 4.93165881501141e-03
1.00847457627119e+00 6.00019713599728e-01 4.98335569564926e-03
1.01186440677966e+00 5.99810861622405e-01 5.04214963944772e-03
1.01525423728814e+00 5.99599698089050e-01 5.10782388108812e-03
1.01864406779661e+00 5.99385946977382e-01 5.18016440994628e-03
1.02203389830508e+00 5.99169342177423e-01 5.25895999188660e-03
1.02542372881356e+00 5.98949627317741e-01 5.34400219213666e-03
1.02881355932203e+00 5.98726555592250e-01 5.43508539884781e-03
1.03220338983051e+00 5.98499889587534e-01 5.53200684696030e-03
1.03559322033898e+00 5.98269401110674e-01 5.63456664211899e-03
1.03898305084746e+00 5.98034871017563e-01 5.74256778454696e-03
1.04237288135593e+00 5.97796089041693e-01 5.85581619275242e-03
1.04576271186441e+00 5.97552853623417e-01 5.97412072697088e-03
1.04915254237288e+00 5.97304971739669e-01 6.09729321228824e-03
1.05254237288136e+00 5.97052258734158e-01 6.22514846134232e-03
1.05593220338983e+00 5.96794538148028e-01 6.35750429657236e-03
1.05932203389831e+00 5.96531641550995e-01 6.49418157192992e-03
1.06271186440678e+00 5.96263408372965e-01 6.63500419401408e-03
1.06610169491525e+00 5.95989685736153e-01 6.77979914250885e-03
1.06949152542373e+00 5.95710328287704e-01 6.92839648996849e-03
