Energy (eV)          EEDF (eV^-(3/2))     First Anisotropy
1.25945945945946e-02 2.53473114175043e-01 1.55626852731231e-04
3.77837837837838e-02 2.51117300602167e-01 2.56652761038301e-04
6.29729729729730e-02 2.48783382280985e-01 3.37933911260259e-04
8.81621621621622e-02 2.46471155714225e-01 3.99152791781338e-04
1.13351351351351e-01 2.44180419290006e-01 4.49772508391751e-04
1.38540540540541e-01 2.41910973287055e-01 4.93383813759529e-04
1.63729729729730e-01 2.39662619826584e-01 5.31851276590681e-04
1.88918918918919e-01 2.37435162870625e-01 5.66304605983160e-04
2.14108108108108e-01 2.35228408192882e-01 5.97495503677312e-04
2.39297297297297e-01 2.33042163395736e-01 6.25956983688623e-04
2.64486486486486e-01 2.30876237856949e-01 6.52084883031965e-04
2.89675675675676e-01 2.28730442726048e-01 6.76183716971888e-04
3.14864864864865e-01 2.26604590907899e-01 6.98494363376362e-04
3.40054054054054e-01 2.24498497046450e-01 7.19211712821329e-04
3.65243243243243e-01 2.22411977502654e-01 7.38496421385443e-04
3.90432432432432e-01 2.20344850356308e-01 7.56483024769149e-04
4.15621621621622e-01 2.18296935371640e-01 7.73285708929330e-04
4.40810810810811e-01 2.16268053987997e-01 7.89002516941420e-04
4.66000000000000e-01 2.14258029304399e-01 8.03718487387368e-04
4.91189189189189e-01 2.12266686059947e-01 8.17508036924783e-04
5.16378378378378e-01 2.10293850631103e-01 8.30436802789640e-04
5.41567567567568e-01 2.08339351003615e-01 8.42563087615063e-04
5.66756756756757e-01 2.06403016761930e-01 8.53939005326296e-04
5.91945945945946e-01 2.04484679074412e-01 8.64611404194872e-04
6.17135135135135e-01 2.02584170675490e-01 8.74622615195626e-04
6.42324324324324e-01 2.00701325860561e-01 8.84011067616137e-04
6.67513513513514e-01 1.98835980461814e-01 8.92811798773721e-04
6.92702702702703e-01 1.96987971837226e-01 9.01056877697400e-04
7.17891891891892e-01 1.95157138856404e-01 9.08775762650746e-04
7.43081081081081e-01 1.93343321886542e-01 9.15995603791895e-04
7.68270270270270e-01 1.91546362776162e-01 9.22741499902326e-04
7.93459459459460e-01 1.89766104848434e-01 9.29036719784497e-04
8.18648648648649e-01 1.88002392880255e-01 9.34902893141772e-04
8.43837837837838e-01 1.86255073091181e-01 9.40360174485549e-04
8.69027027027027e-01 1.84523993130043e-01 9.45427387177689e-04
8.94216216216216e-01 1.82809002059740e-01 9.50122148091950e-04
9.19405405405405e-01 1.81109950349901e-01 9.54460978296702e-04
9.44594594594595e-01 1.79426689857916e-01 9.58459400695830e-04
9.69783783783784e-01 1.77759073818024e-01 9.62132025144425e-04
9.94972972972973e-01 1.76106956828538e-01 9.65492625741963e-04
1.02016216216216e+00 1.74470194834294e-01 9.68554206930477e-04
1.04535135135135e+00 1.72848645127323e-01 9.71329065248756e-04
1.07054054054054e+00 1.71242166322637e-01 9.73828845292347e-04
1.09572972972973e+00 1.69650618349294e-01 9.76064584867632e-04
1.12091891891892e+00 1.68073862452248e-01 9.78046766147703e-04
1.14610810810811e+00 1.66511761137527e-01 9.79785351270067e-04
1.17129729729730e+00 1.64964178203526e-01 9.81289814149179e-04
1.19648648648649e+00 1.63430978714511e-01 9.82569180021787e-04
1.22167567567568e+00 1.61912028988854e-01 9.83632053157900e-04
1.24686486486486e+00 1.60407196587380e-01 9.84486644192657e-04
1.27205405405405e+00 1.58916350301797e-01 9.85140795111130e-04
1.29724324324324e+00 1.57439360143288e-01 9.85602002142006e-04
1.32243243243243e+00 1.55976097331179e-01 9.85877436783023e-04
1.34762162162162e+00 1.54526434281695e-01 9.85973965131408e-04
1.37281081081081e+00 1.53090244596842e-01 9.85898165691899e-04
1.39800000000000e+00 1.51667403053380e-01 9.85656344121661e-04
1.42318918918919e+00 1.50257785601775e-01 9.85254553540973e-04
1.44837837837838e+00 1.48861269325451e-01 9.84698605162276e-04
1.47356756756757e+00 1.47477732460349e-01 9.83994077855640e-04
1.49875675675676e+00 1.46107054374100e-01 9.83146335519827e-04
1.52394594594595e+00 1.44749115555505e-01 9.82160536578344e-04
1.54913513513514e+00 1.43403797604117e-01 9.81041644469409e-04
1.57432432432432e+00 1.42070983219912e-01 9.79794437426120e-04
1.59951351351351e+00 1.40750556193059e-01 9.78423517603868e-04
1.62470270270270e+00 1.39442401393811e-01 9.76933319617820e-04
1.64989189189189e+00 1.38146404762447e-01 9.75328118534134e-04
1.67508108108108e+00 1.36862453299333e-01 9.73612037352580e-04
1.70027027027027e+00 1.35590435055067e-01 9.71789052656243e-04
1.72545945945946e+00 1.34330239127974e-01 9.69863005350266e-04
1.75064864864865e+00 1.33081755632442e-01 9.67837604075826e-04
1.77583783783784e+00 1.31844875711569e-01 9.65716428221535e-04
1.80102702702703e+00 1.30619491520184e-01 9.63502937675048e-04
1.82621621621622e+00 1.29405496215441e-01 9.61200476569791e-04
1.85140540540541e+00 1.28202783947504e-01 9.58812278171445e-04
1.87659459459459e+00 1.27011249850321e-01 9.56341469495386e-04
1.90178378378378e+00 1.25830790032465e-01 9.53791075665500e-04
1.92697297297297e+00 1.24661301568104e-01 9.51164024042556e-04
1.95216216216216e+00 1.23502682488007e-01 9.48463148137406e-04
1.97735135135135e+00 1.22354831770661e-01 9.45691191313295e-04
2.00254054054054e+00 1.21217649333459e-01 9.42850810299387e-04
2.02772972972973e+00 1.20091036023974e-01 9.39944577411980e-04
2.05291891891892e+00 1.18974893616716e-01 9.36974987088703e-04
2.07810810810811e+00 1.17869124788205e-01 9.33944456640887e-04
2.10329729729730e+00 1.16773633125009e-01 9.30855326826896e-04
2.12848648648649e+00 1.15688323109777e-01 9.27709868035594e-04
2.15367567567568e+00 1.14613100112906e-01 9.24510281721071e-04
2.17886486486486e+00 1.13547870384293e-01 9.21258702878130e-04
2.20405405405405e+00 1.12492541045158e-01 9.17957202400786e-04
2.22924324324324e+00 1.11447020079948e-01 9.14607789333400e-04
2.25443243243243e+00 1.10411216328319e-01 9.11212413022900e-04
2.27962162162162e+00 1.09385039477183e-01 9.07772965173099e-04
2.30481081081081e+00 1.08368400052831e-01 9.04291281808101e-04
2.33000000000000e+00 1.07361209413137e-01 9.00769144222203e-04
2.35518918918919e+00 1.06363379744028e-01 8.97208283583843e-04
2.38037837837838e+00 1.05374824039103e-01 8.93610380774794e-04
2.40556756756757e+00 1.04395456104892e-01 8.89977066128995e-04
2.43075675675676e+00 1.03425190549020e-01 8.86309923894586e-04
2.45594594594595e+00 1.02463942772758e-01 8.82610492781123e-04
2.48113513513514e+00 1.01511628963649e-01 8.78880267413665e-04
2.50632432432432e+00 1.00568166088199e-01 8.75120699728229e-04
2.53151351351351e+00 9.96334718846356e-02 8.71333200310131e-04
2.55670270270270e+00 9.87074648557432e-02 8.67519139681942e-04
2.58189189189189e+00 9.77900642617501e-02 8.63679849541685e-04
2.60708108108108e+00 9.68811901132916e-02 8.59816623951557e-04
2.63227027027027e+00 9.59807631644341e-02 8.55930719701300e-04
2.65745945945946e+00 9.50887049090922e-02 8.52023359768946e-04
2.68264864864865e+00 9.42049375641166e-02 8.48095732798969e-04
2.70783783783784e+00 9.33293840726699e-02 8.44148992516791e-04
2.73302702702703e+00 9.24619680940911e-02 8.40184261134700e-04
2.75821621621622e+00 9.16026139972395e-02 8.36202629485977e-04
2.78340540540541e+00 9.07512468539001e-02 8.32205157938611e-04
2.80859459459459e+00 8.99077924322504e-02 8.28192877277248e-04
2.83378378378378e+00 8.90721771903855e-02 8.24166789551729e-04
2.85897297297297e+00 8.82443282699115e-02 8.20127868897514e-04
2.88416216216216e+00 8.74241734895905e-02 8.16077062329459e-04
2.90935135135135e+00 8.66116413390461e-02 8.12015290505825e-04
2.93454054054054e+00 8.58066609725292e-02 8.07943448467277e-04
2.95972972972973e+00 8.50091622027401e-02 8.03862405698117e-04
2.98491891891892e+00 8.42190754973323e-02 7.99773008788960e-04
3.01010810810811e+00 8.34363319649127e-02 7.95676080782310e-04
3.03529729729730e+00 8.26608633570413e-02 7.91572420475049e-04
3.06048648648649e+00 8.18926020595881e-02 7.87462805067704e-04
3.08567567567568e+00 8.11314810868377e-02 7.83347990088744e-04
3.11086486486486e+00 8.03774340756491e-02 7.79228709979852e-04
3.13605405405405e+00 7.96303952796671e-02 7.75105678661585e-04
3.16124324324324e+00 7.88902995635933e-02 7.70979590081372e-04
3.18643243243243e+00 7.81570823975057e-02 7.66851118745661e-04
3.21162162162162e+00 7.74306798512322e-02 7.62720920234584e-04
3.23681081081081e+00 7.67110285887762e-02 7.58589631700678e-04
3.26200000000000e+00 7.59980658627944e-02 7.54457871796873e-04
3.28718918918919e+00 7.52917295112527e-02 7.50326242824496e-04
3.31237837837838e+00 7.45919579455708e-02 7.46195330063077e-04
3.33756756756757e+00 7.38986901517427e-02 7.42065701068241e-04
3.36275675675676e+00 7.32118656828348e-02 7.37937907823421e-04
3.38794594594595e+00 7.25314246537150e-02 7.33812486576531e-04
3.41313513513514e+00 7.18573077358320e-02 7.29689958243321e-04
3.43832432432432e+00 7.11894561520413e-02 7.25570828798939e-04
3.46351351351351e+00 7.05278116714802e-02 7.21455589657570e-04
3.48870270270270e+00 6.98723166044929e-02 7.17344718041865e-04
3.51389189189189e+00 6.92229137975989e-02 7.13238677342193e-04
3.53908108108108e+00 6.85795466285097e-02 7.09137917464952e-04
3.56427027027027e+00 6.79421590011919e-02 7.05042874695894e-04
3.58945945945946e+00 6.73106953427167e-02 7.00953973465164e-04
3.61464864864865e+00 6.66851005931497e-02 6.96871625705651e-04
3.63983783783784e+00 6.60653202060585e-02 6.92796230186412e-04
3.66502702702703e+00 6.54513001419727e-02 6.88728174288944e-04
3.69021621621622e+00 6.48429868636718e-02 6.84667833806725e-04
3.71540540540541e+00 6.42403273315176e-02 6.80615573231603e-04
3.74059459459459e+00 6.36432689988292e-02 6.76571746032776e-04
3.76578378378378e+00 6.30517598073004e-02 6.72536694927037e-04
3.79097297297297e+00 6.24657481824631e-02 6.68510752142674e-04
3.81616216216216e+00 6.18851830291893e-02 6.64494239676994e-04
3.84135135135135e+00 6.13100137272359e-02 6.60487469545951e-04
3.86654054054054e+00 6.07401901268310e-02 6.56490744027616e-04
3.89172972972973e+00 6.01756625443016e-02 6.52504355496096e-04
3.91691891891892e+00 5.96163817591545e-02 6.48528587870123e-04
3.94210810810811e+00 5.90622990055109e-02 6.44563716022409e-04
3.96729729729730e+00 5.85133659721634e-02 6.40610005169464e-04
3.99248648648649e+00 5.79695347969151e-02 6.36667712334654e-04
4.01767567567568e+00 5.74307580624071e-02 6.32737086136721e-04
4.04286486486486e+00 5.68969887919835e-02 6.28818366992760e-04
4.06805405405405e+00 5.63681804455952e-02 6.24911787315327e-04
4.09324324324324e+00 5.58442869157431e-02 6.21017571704906e-04
4.11843243243243e+00 5.53252625234573e-02 6.17135937138087e-04
4.14362162162162e+00 5.48110620143148e-02 6.13267093150541e-04
4.16881081081081e+00 5.43016405544930e-02 6.09411242015445e-04
4.19400000000000e+00 5.37969537268609e-02 6.05568578570512e-04
4.21918918918919e+00 5.32969575282785e-02 6.01739291436143e-04
4.24437837837838e+00 5.28016083622156e-02 5.97923562478941e-04
4.26956756756757e+00 5.23108630385233e-02 5.94121566259235e-04
4.29475675675676e+00 5.18246787684679e-02 5.90333471264667e-04
4.31994594594595e+00 5.13430131609998e-02 5.86559439702741e-04
4.34513513513514e+00 5.08658242190576e-02 5.82799627650938e-04
4.37032432432432e+00 5.03930703359058e-02 5.79054185203198e-04
4.39551351351351e+00 4.99247102915075e-02 5.75323256612500e-04
4.42070270270270e+00 4.94607032489307e-02 5.71606980430525e-04
4.44589189189189e+00 4.90010087507873e-02 5.67905489644048e-04
4.47108108108108e+00 4.85455867157059e-02 5.64218911807713e-04
4.49627027027027e+00 4.80943974348364e-02 5.60547368874263e-04
4.52145945945946e+00 4.76474015693656e-02 5.56890978226242e-04
4.54664864864865e+00 4.72045601441320e-02 5.53249852193651e-04
4.57183783783784e+00 4.67658345472058e-02 5.49624097558500e-04
4.59702702702703e+00 4.63311865255216e-02 5.46013816601502e-04
4.62221621621622e+00 4.59005781815434e-02 5.42419106905545e-04
4.64740540540541e+00 4.54739719699597e-02 5.38840061468279e-04
4.67259459459460e+00 4.50513306944104e-02 5.35276768812265e-04
4.69778378378378e+00 4.46326175042427e-02 5.31729313092093e-04
4.72297297297297e+00 4.42177958912992e-02 5.28197774199237e-04
4.74816216216216e+00 4.38068296867345e-02 5.24682227864999e-04
4.77335135135135e+00 4.33996830578610e-02 5.21182745760513e-04
4.79854054054054e+00 4.29963205050252e-02 5.17699395594614e-04
4.82372972972973e+00 4.25967068585120e-02 5.14232240953198e-04
4.84891891891892e+00 4.22008072762858e-02 5.10781342166967e-04
4.87410810810811e+00 4.18085872385116e-02 5.07346755884376e-04
4.89929729729730e+00 4.14200125470051e-02 5.03928534633545e-04
4.92448648648649e+00 4.10350493214246e-02 5.00526727704079e-04
4.94967567567568e+00 4.06536639963168e-02 4.97141380965702e-04
4.97486486486487e+00 4.02758233181902e-02 4.93772536951705e-04
5.00005405405405e+00 3.99014943426156e-02 4.90420234940350e-04
5.02524324324324e+00 3.95306444313537e-02 4.87084511034480e-04
5.05043243243243e+00 3.91632412495097e-02 4.83765398239608e-04
5.07562162162162e+00 3.87992527627135e-02 4.80462926540093e-04
5.10081081081081e+00 3.84386472343270e-02 4.77177122973564e-04
5.12600000000000e+00 3.80813932226765e-02 4.73908011481513e-04
5.15118918918919e+00 3.77274595789907e-02 4.70655613651882e-04
5.17637837837838e+00 3.73768154426316e-02 4.67419948339134e-04
5.20156756756757e+00 3.70294302404726e-02 4.64201031275134e-04
5.22675675675676e+00 3.66852736835379e-02 4.60998875824660e-04
5.25194594594595e+00 3.63443157643616e-02 4.57813492819222e-04
5.27713513513514e+00 3.60065267543710e-02 4.54644890620846e-04
5.30232432432432e+00 3.56718772012950e-02 4.51493075184397e-04
5.32751351351351e+00 3.53403379265954e-02 4.48358050118332e-04
5.35270270270270e+00 3.50118800229237e-02 4.45239816744334e-04
5.37789189189189e+00 3.46864748516002e-02 4.42138374155746e-04
5.40308108108108e+00 3.43640940401169e-02 4.39053719274533e-04
5.42827027027027e+00 3.40447094796638e-02 4.35985846714025e-04
5.45345945945946e+00 3.37282933232510e-02 4.32934749416509e-04
5.47864864864865e+00 3.34148179815485e-02 4.29900418316322e-04
5.50383783783784e+00 3.31042561222259e-02 4.26882841994809e-04
5.52902702702703e+00 3.27965806669832e-02 4.23882007329731e-04
5.55421621621622e+00 3.24917647891900e-02 4.20897899344449e-04
5.57940540540541e+00 3.21897819115461e-02 4.17930501256791e-04
5.60459459459459e+00 3.18906057037643e-02 4.14979794527003e-04
5.62978378378378e+00 3.15942100802743e-02 4.12045758904288e-04
5.65497297297297e+00 3.13005691979489e-02 4.09128372472625e-04
5.68016216216216e+00 3.10096574538506e-02 4.06227611695757e-04
5.70535135135135e+00 3.07214494829990e-02 4.03343451460942e-04
5.73054054054054e+00 3.04359201561590e-02 4.00475865121806e-04
5.75572972972973e+00 3.01530445776502e-02 3.97624824374161e-04
5.78091891891892e+00 2.98727980836552e-02 3.94790299798800e-04
5.80610810810811e+00 2.95951562386209e-02 3.91972260565797e-04
5.83129729729730e+00 2.93200948345868e-02 3.89170674132061e-04
5.85648648648649e+00 2.90475898885848e-02 3.86385506794595e-04
5.88167567567568e+00 2.87776176405473e-02 3.83616723555258e-04
5.90686486486486e+00 2.85101545512365e-02 3.80864288157696e-04
5.93205405405405e+00 2.82451773001908e-02 3.78128163123320e-04
5.95724324324324e+00 2.79826627836925e-02 3.75408309786421e-04
5.98243243243243e+00 2.77225881127530e-02 3.72704688328812e-04
6.00762162162162e+00 2.74649306111170e-02 3.70017257813583e-04
6.03281081081081e+00 2.72096678132853e-02 3.67345976218085e-04
6.05800000000000e+00 2.69567774625564e-02 3.64690800321485e-04
6.08318918918919e+00 2.67062375094922e-02 3.62051686173541e-04
6.10837837837838e+00 2.64580261087660e-02 3.59428588832934e-04
6.13356756756757e+00 2.62121216184968e-02 3.56821462099733e-04
6.15875675675676e+00 2.59685025979463e-02 3.54230258993544e-04
6.18394594594595e+00 2.57271478056491e-02 3.51654931631971e-04
6.20913513513513e+00 2.54880361975609e-02 3.49095431258960e-04
6.23432432432432e+00 2.52511469252237e-02 3.46551708272557e-04
6.25951351351351e+00 2.50164593339476e-02 3.44023712251997e-04
6.28470270270270e+00 2.47839529610105e-02 3.41511391984272e-04
6.30989189189189e+00 2.45536075338734e-02 3.39014695490183e-04
6.33508108108108e+00 2.43254029684132e-02 3.36533570049716e-04
6.36027027027027e+00 2.40993193671712e-02 3.34067962100679e-04
6.38545945945946e+00 2.38753370179650e-02 3.31617817644378e-04
6.41064864864865e+00 2.36534363911224e-02 3.29183082014163e-04
6.43583783783784e+00 2.34335981388336e-02 3.26763699638927e-04
6.46102702702703e+00 2.32158030931099e-02 3.24359614457165e-04
6.48621621621622e+00 2.30000322641127e-02 3.21970769807963e-04
6.51140540540541e+00 2.27862668384971e-02 3.19597108452818e-04
6.53659459459459e+00 2.25744881777725e-02 3.17238572597006e-04
6.56178378378378e+00 2.23646778166763e-02 3.14895103910330e-04
6.58697297297297e+00 2.21568174615651e-02 3.12566643547572e-04
6.61216216216216e+00 2.19508889888188e-02 3.10253132168539e-04
6.63735135135135e+00 2.17468744432609e-02 3.07954509957527e-04
6.66254054054054e+00 2.15447560365925e-02 3.05670716642460e-04
6.68772972972973e+00 2.13445161458418e-02 3.03401691404454e-04
6.71291891891892e+00 2.11461373121192e-02 3.01147373225573e-04
6.73810810810811e+00 2.09496022382125e-02 2.98907700686194e-04
6.76329729729730e+00 2.07548937879682e-02 2.96682611757987e-04
6.78848648648649e+00 2.05619949844983e-02 2.94472044159069e-04
6.81367567567568e+00 2.03708890087004e-02 2.92275935257295e-04
6.83886486486487e+00 2.01815591977909e-02 2.90094222086595e-04
6.86405405405405e+00 1.99939890438526e-02 2.87926841362911e-04
6.88924324324324e+00 1.98081621923948e-02 2.85773729499800e-04
6.91443243243243e+00 1.96240624409281e-02 2.83634822623767e-04
6.93962162162162e+00 1.94416737375509e-02 2.81510056589205e-04
6.96481081081081e+00 1.92609801795503e-02 2.79399366992975e-04
6.99000000000000e+00 1.90819660120153e-02 2.77302689093289e-04
7.01518918918919e+00 1.89046156267128e-02 2.75219958111740e-04
7.04037837837838e+00 1.87289135599725e-02 2.73151109054138e-04
7.06556756756757e+00 1.85548444920981e-02 2.71096076527561e-04
7.09075675675676e+00 1.83823932457767e-02 2.69054795048966e-04
7.11594594594595e+00 1.82115447847554e-02 2.67027198958718e-04
7.14113513513514e+00 1.80422842125304e-02 2.65013222433039e-04
7.16632432432432e+00 1.78745967710479e-02 2.63012799496179e-04
7.19151351351351e+00 1.77084678394173e-02 2.61025864032233e-04
7.21670270270270e+00 1.75438829326367e-02 2.59052349796779e-04
7.24189189189189e+00 1.73808277003299e-02 2.57092190428240e-04
7.26708108108108e+00 1.72192879254947e-02 2.55145319458927e-04
7.29227027027027e+00 1.70592495232641e-02 2.53211670242398e-04
7.31745945945946e+00 1.69006985398913e-02 2.51291176216133e-04
7.34264864864865e+00 1.67436211508871e-02 2.49383770743119e-04
7.36783783783784e+00 1.65880036604658e-02 2.47489386950191e-04
7.39302702702703e+00 1.64338325001318e-02 2.45607957996481e-04
7.41821621621622e+00 1.62810942274973e-02 2.43739416996246e-04
7.44340540540541e+00 1.61297755251096e-02 2.41883697028284e-04
7.46859459459459e+00 1.59798631992903e-02 2.40040731145077e-04
7.49378378378378e+00 1.58313441789849e-02 2.38210452381702e-04
7.51897297297297e+00 1.56842055146229e-02 2.36392793764537e-04
7.54416216216216e+00 1.55384343769890e-02 2.34587688319829e-04
7.56935135135135e+00 1.53940180561043e-02 2.32795069082008e-04
7.59454054054054e+00 1.52509439601182e-02 2.31014869101772e-04
7.61972972972973e+00 1.51091996142105e-02 2.29247021381630e-04
7.64491891891892e+00 1.49687726596849e-02 2.27491459102150e-04
7.67010810810811e+00 1.48296508523437e-02 2.25748115483248e-04
7.69529729729730e+00 1.46918220619720e-02 2.24016923642648e-04
7.72048648648649e+00 1.45552742710946e-02 2.22297816827231e-04
7.74567567567568e+00 1.44199955739286e-02 2.20590728344784e-04
7.77086486486486e+00 1.42859741753448e-02 2.18895591570822e-04
7.79605405405405e+00 1.41531983898397e-02 2.17212339955177e-04
7.82124324324324e+00 1.40216566405164e-02 2.15540907028458e-04
7.84643243243243e+00 1.38913374580752e-02 2.13881226408402e-04
7.87162162162162e+00 1.37622294798137e-02 2.12233231805988e-04
7.89681081081081e+00 1.36343214486360e-02 2.10596857031409e-04
7.92200000000000e+00 1.35076022120710e-02 2.08972035936479e-04
7.94718918918919e+00 1.33820607214565e-02 2.07358702611859e-04
