Energy (eV)          EEDF (eV^-(3/2))     First Anisotropy
2.23255813953488e-02 8.55804562761672e-02 4.88560829790409e-05
6.69767441860465e-02 8.48966677174964e-02 8.06240234653525e-05
1.11627906976744e-01 8.42183426349049e-02 1.06297148455701e-04
1.56279069767442e-01 8.35454373770464e-02 1.25718827807559e-04
2.00930232558140e-01 8.28779086368039e-02 1.41848703717844e-04
2.45581395348837e-01 8.22157134560760e-02 1.55807613688471e-04
2.90232558139535e-01 8.15588092198024e-02 1.68176495226630e-04
3.34883720930233e-01 8.09071536534797e-02 1.79306691730987e-04
3.79534883720930e-01 8.02607048221717e-02 1.89431569509057e-04
4.24186046511628e-01 7.96194211220457e-02 1.98716311993630e-04
4.68837209302326e-01 7.89832612837134e-02 2.07283376639848e-04
5.13488372093023e-01 7.83521843675175e-02 2.15226807437946e-04
5.58139534883721e-01 7.77261497620856e-02 2.22620869102644e-04
6.02790697674419e-01 7.71051171781140e-02 2.29525547638944e-04
6.47441860465116e-01 7.64890466494473e-02 2.35990211000246e-04
6.92093023255814e-01 7.58778985292398e-02 2.42056134449552e-04
7.36744186046512e-01 7.52716334874297e-02 2.47758294808000e-04
7.81395348837209e-01 7.46702125089954e-02 2.53126678675991e-04
8.26046511627907e-01 7.40735968890217e-02 2.58187256677824e-04
8.70697674418605e-01 7.34817482326737e-02 2.62962723117895e-04
9.15348837209302e-01 7.28946284518798e-02 2.67473067383748e-04
9.60000000000000e-01 7.23121997629000e-02 2.71736021287629e-04
1.00465116279070e+00 7.17344246844734e-02 2.75767414280175e-04
1.04930232558140e+00 7.11612660357579e-02 2.79581459927642e-04
1.09395348837209e+00 7.05926869255365e-02 2.83190985415191e-04
1.13860465116279e+00 7.00286507686649e-02 2.86607622551283e-04
1.18325581395349e+00 6.94691212666947e-02 2.89841967125696e-04
1.22790697674419e+00 6.89140624067354e-02 2.92903706077345e-04
1.27255813953488e+00 6.83634384730413e-02 2.95801729524739e-04
1.31720930232558e+00 6.78172140303793e-02 2.98544225095638e-04
1.36186046511628e+00 6.72753539266423e-02 3.01138755868954e-04
1.40651162790698e+00 6.67378232868168e-02 3.03592327291874e-04
1.45116279069767e+00 6.62045875223945e-02 3.05911446759277e-04
1.49581395348837e+00 6.56756123171659e-02 3.08102175287701e-04
1.54046511627907e+00 6.51508636291437e-02 3.10170170334146e-04
1.58511627906977e+00 6.46303076850890e-02 3.12120723352777e-04
1.62976744186047e+00 6.41139109882947e-02 3.13958794521388e-04
1.67441860465116e+00 6.36016403062465e-02 3.15689043881046e-04
1.71906976744186e+00 6.30934626690378e-02 3.17315854712533e-04
1.76372093023256e+00 6.25893453762420e-02 3.18843358303930e-04
1.80837209302326e+00 6.20892559856001e-02 3.20275455621696e-04
1.85302325581395e+00 6.15931623140786e-02 3.21615834831570e-04
1.89767441860465e+00 6.11010324332212e-02 3.22867987118306e-04
1.94232558139535e+00 6.06128346749518e-02 3.24035222463583e-04
1.98697674418605e+00 6.01285376215095e-02 3.25120684320990e-04
2.03162790697674e+00 5.96481101038238e-02 3.26127359243808e-04
2.07627906976744e+00 5.91715212066921e-02 3.27058089136582e-04
2.12093023255814e+00 5.86987402594559e-02 3.27915582031995e-04
2.16558139534884e+00 5.82297368365165e-02 3.28702420287274e-04
2.21023255813954e+00 5.77644807532928e-02 3.29421068162657e-04
2.25488372093023e+00 5.73029420706511e-02 3.30073880132511e-04
2.29953488372093e+00 5.68450910864831e-02 3.30663108891820e-04
2.34418604651163e+00 5.63908983340759e-02 3.31190909496511e-04
2.38883720930233e+00 5.59403345861051e-02 3.31659346296723e-04
2.43348837209302e+00 5.54933708467621e-02 3.32070399012617e-04
2.47813953488372e+00 5.50499783519104e-02 3.32425966911534e-04
2.52279069767442e+00 5.46101285655135e-02 3.32727872758514e-04
2.56744186046512e+00 5.41737931830723e-02 3.32977867709251e-04
2.61209302325581e+00 5.37409441244373e-02 3.33177635882362e-04
2.65674418604651e+00 5.33115535338252e-02 3.33328797279669e-04
2.70139534883721e+00 5.28855937764596e-02 3.33432910584558e-04
2.74604651162791e+00 5.24630374415484e-02 3.33491476919807e-04
2.79069767441860e+00 5.20438573356871e-02 3.33505943674620e-04
2.83534883720930e+00 5.16280264812952e-02 3.33477705410694e-04
2.88000000000000e+00 5.12155181193136e-02 3.33408107321753e-04
2.92465116279070e+00 5.08063057029764e-02 3.33298448203321e-04
2.96930232558140e+00 5.04003628976279e-02 3.33149982048769e-04
3.01395348837209e+00 4.99976635777035e-02 3.32963919620330e-04
3.05860465116279e+00 4.95981818290781e-02 3.32741430964037e-04
3.10325581395349e+00 4.92018919433063e-02 3.32483648060510e-04
3.14790697674419e+00 4.88087684161149e-02 3.32191664922475e-04
3.19255813953488e+00 4.84187859495385e-02 3.31866540040306e-04
3.23720930232558e+00 4.80319194464587e-02 3.31509298445564e-04
3.28186046511628e+00 4.76481440102822e-02 3.31120932589689e-04
3.32651162790698e+00 4.72674349422061e-02 3.30702403240435e-04
3.37116279069767e+00 4.68897677430800e-02 3.30254641270600e-04
3.41581395348837e+00 4.65151181083275e-02 3.29778549372931e-04
3.46046511627907e+00 4.61434619275700e-02 3.29275002681835e-04
3.50511627906977e+00 4.57747752820288e-02 3.28744849425078e-04
3.54976744186047e+00 4.54090344461513e-02 3.28188912426283e-04
3.59441860465116e+00 4.50462158828775e-02 3.27607990774448e-04
3.63906976744186e+00 4.46862962422290e-02 3.27002859370857e-04
3.68372093023256e+00 4.43292523627886e-02 3.26374270505680e-04
3.72837209302326e+00 4.39750612671862e-02 3.25722955148060e-04
3.77302325581395e+00 4.36237001616429e-02 3.25049623265761e-04
3.81767441860465e+00 4.32751464335976e-02 3.24354964185853e-04
3.86232558139535e+00 4.29293776530000e-02 3.23639647744329e-04
3.90697674418605e+00 4.25863715680827e-02 3.22904325600894e-04
3.95162790697674e+00 4.22461061040172e-02 3.22149630641787e-04
3.99627906976744e+00 4.19085593640893e-02 3.21376178235968e-04
4.04093023255814e+00 4.15737096256595e-02 3.20584567243653e-04
4.08558139534884e+00 4.12415353396525e-02 3.19775380154248e-04
4.13023255813953e+00 4.09120151283796e-02 3.18949183269259e-04
4.17488372093023e+00 4.05851277865651e-02 3.18106527612728e-04
4.21953488372093e+00 4.02608522775487e-02 3.17247950001031e-04
4.26418604651163e+00 3.99391677320047e-02 3.16373972380149e-04
4.30883720930233e+00 3.96200534488743e-02 3.15485102855852e-04
4.35348837209302e+00 3.93034888917311e-02 3.14581836507351e-04
4.39813953488372e+00 3.89894536882334e-02 3.13664655413784e-04
4.44279069767442e+00 3.86779276281201e-02 3.12734028725990e-04
4.48744186046512e+00 3.83688906640205e-02 3.11790413408072e-04
4.53209302325581e+00 3.80623229080279e-02 3.10834254963094e-04
4.57674418604651e+00 3.77582046311414e-02 3.09865987417938e-04
4.62139534883721e+00 3.74565162613481e-02 3.08886033352498e-04
4.66604651162791e+00 3.71572383843256e-02 3.07894804564411e-04
4.71069767441861e+00 3.68603517402080e-02 3.06892702879812e-04
4.75534883720930e+00 3.65658372224022e-02 3.05880119472478e-04
4.80000000000000e+00 3.62736758782226e-02 3.04857435652500e-04
4.84465116279070e+00 3.59838489057852e-02 3.03825023473116e-04
4.88930232558140e+00 3.56963376534335e-02 3.02783245663235e-04
4.93395348837209e+00 3.54111236179650e-02 3.01732455601981e-04
4.97860465116279e+00 3.51281884451785e-02 3.00672997878677e-04
5.02325581395349e+00 3.48475139269348e-02 2.99605208989102e-04
5.06790697674419e+00 3.45690820000330e-02 2.98529416667834e-04
5.11255813953488e+00 3.42928747467026e-02 2.97445940568484e-04
5.15720930232558e+00 3.40188743917775e-02 2.96355092780404e-04
5.20186046511628e+00 3.37470633021148e-02 2.95257177729149e-04
5.24651162790698e+00 3.34774239849514e-02 2.94152492116512e-04
5.29116279069767e+00 3.32099390883233e-02 2.93041325399822e-04
5.33581395348837e+00 3.29445913983863e-02 2.91923960265087e-04
5.38046511627907e+00 3.26813638388364e-02 2.90800672516506e-04
5.42511627906977e+00 3.24202394693321e-02 2.89671731004042e-04
5.46976744186047e+00 3.21612014858499e-02 2.88537398063248e-04
5.51441860465116e+00 3.19042332181425e-02 2.87397930077471e-04
5.55906976744186e+00 3.16493181287036e-02 2.86253576852182e-04
5.60372093023256e+00 3.13964398130825e-02 2.85104582166875e-04
5.64837209302326e+00 3.11455819974344e-02 2.83951184186374e-04
5.69302325581395e+00 3.08967285379431e-02 2.82793615336828e-04
5.73767441860465e+00 3.06498634193555e-02 2.81632102216895e-04
5.78232558139535e+00 3.04049707552426e-02 2.80466865981843e-04
5.82697674418605e+00 3.01620347856717e-02 2.79298122840749e-04
5.87162790697674e+00 2.99210398762253e-02 2.78126083461806e-04
5.91627906976744e+00 2.96819705182291e-02 2.76950953461905e-04
5.96093023255814e+00 2.94448113265071e-02 2.75772933767846e-04
6.00558139534884e+00 2.92095470388105e-02 2.74592220485612e-04
6.05023255813953e+00 2.89761625144540e-02 2.73409004802180e-04
6.09488372093023e+00 2.87446427344999e-02 2.72223473323953e-04
6.13953488372093e+00 2.85149727996204e-02 2.71035808520179e-04
6.18418604651163e+00 2.82871379291684e-02 2.69846188160809e-04
6.22883720930233e+00 2.80611234613337e-02 2.68654785753677e-04
6.27348837209302e+00 2.78369148510809e-02 2.67461770864698e-04
6.31813953488372e+00 2.76144976695891e-02 2.66267308984834e-04
6.36279069767442e+00 2.73938576029802e-02 2.65071561427209e-04
6.40744186046512e+00 2.71749804524393e-02 2.63874685627638e-04
6.45209302325581e+00 2.69578521322487e-02 2.62676835443484e-04
6.49674418604651e+00 2.67424586692364e-02 2.61478161021495e-04
6.54139534883721e+00 2.65287862015521e-02 2.60278808694290e-04
6.58604651162791e+00 2.63168209787561e-02 2.59078921261310e-04
6.63069767441861e+00 2.61065493599438e-02 2.57878638363248e-04
6.67534883720930e+00 2.58979578128923e-02 2.56678095972385e-04
6.72000000000000e+00 2.56910329141277e-02 2.55477426762693e-04
6.76465116279070e+00 2.54857613471133e-02 2.54276760377346e-04
6.80930232558140e+00 2.52821299017117e-02 2.53076223298461e-04
6.85395348837209e+00 2.50801254730428e-02 2.51875938743262e-04
6.89860465116279e+00 2.48797350615244e-02 2.50676026916106e-04
6.94325581395349e+00 2.46809457711431e-02 2.49476605347068e-04
6.98790697674419e+00 2.44837448086447e-02 2.48277788413751e-04
7.03255813953488e+00 2.42881194835593e-02 2.47079687676339e-04
7.07720930232558e+00 2.40940572065283e-02 2.45882412118361e-04
7.12186046511628e+00 2.39015454887822e-02 2.44686068019887e-04
7.16651162790698e+00 2.37105719410726e-02 2.43490758855117e-04
7.21116279069767e+00 2.35211242736750e-02 2.42296585519468e-04
7.25581395348837e+00 2.33331902947905e-02 2.41103646556209e-04
7.30046511627907e+00 2.31467579100330e-02 2.39912038032580e-04
7.34511627906977e+00 2.29618151214013e-02 2.38721853439144e-04
7.38976744186047e+00 2.27783500272617e-02 2.37533183903624e-04
7.43441860465116e+00 2.25963508208205e-02 2.36346118482065e-04
7.47906976744186e+00 2.24158057893810e-02 2.35160743728191e-04
7.52372093023256e+00 2.22367033143149e-02 2.33977143981788e-04
7.56837209302326e+00 2.20590318695824e-02 2.32795401574011e-04
7.61302325581395e+00 2.18827800212371e-02 2.31615596708245e-04
7.65767441860465e+00 2.17079364264640e-02 2.30437807362418e-04
7.70232558139535e+00 2.15344898335335e-02 2.29262109483000e-04
7.74697674418605e+00 2.13624290803872e-02 2.28088577250634e-04
7.79162790697674e+00 2.11917430939343e-02 2.26917282677256e-04
7.83627906976744e+00 2.10224208899968e-02 2.25748295869431e-04
7.88093023255814e+00 2.08544515719394e-02 2.24581685214995e-04
7.92558139534884e+00 2.06878243301906e-02 2.23417517269115e-04
7.97023255813953e+00 2.05225284413422e-02 2.22255856660135e-04
8.01488372093023e+00 2.03585532680808e-02 2.21096766266096e-04
8.05953488372093e+00 2.01958882578762e-02 2.19940307457806e-04
8.10418604651163e+00 2.00345229423149e-02 2.18786539722137e-04
8.14883720930233e+00 1.98744469370256e-02 2.17635520902985e-04
8.19348837209302e+00 1.97156499404069e-02 2.16487307371509e-04
8.23813953488372e+00 1.95581217331669e-02 2.15341953917587e-04
8.28279069767442e+00 1.94018521774793e-02 2.14199513659595e-04
8.32744186046512e+00 1.92468312168966e-02 2.13060038205448e-04
8.37209302325581e+00 1.90930488751317e-02 2.11923577813841e-04
8.41674418604651e+00 1.89404952556087e-02 2.10790181289191e-04
8.46139534883721e+00 1.87891605406476e-02 2.09659895894001e-04
8.50604651162791e+00 1.86390349913698e-02 2.08532767501496e-04
8.55069767441860e+00 1.84901089465297e-02 2.07408840807719e-04
8.59534883720930e+00 1.83423728219049e-02 2.06288158993318e-04
8.64000000000000e+00 1.81958171101951e-02 2.05170763933982e-04
8.68465116279070e+00 1.80504323798897e-02 2.04056696348044e-04
8.72930232558140e+00 1.79062092748363e-02 2.02945995696814e-04
8.77395348837209e+00 1.77631385134763e-02 2.01838700101034e-04
8.81860465116279e+00 1.76212108887372e-02 2.00734846480727e-04
8.86325581395349e+00 1.74804172669463e-02 1.99634470750215e-04
8.90790697674419e+00 1.73407485872538e-02 1.98537607502058e-04
8.95255813953488e+00 1.72021958615198e-02 1.97444290200666e-04
8.99720930232558e+00 1.70647501732617e-02 1.96354551317671e-04
9.04186046511628e+00 1.69284026772396e-02 1.95268422237609e-04
9.08651162790698e+00 1.67931445987394e-02 1.94185933178507e-04
9.13116279069767e+00 1.66589672334551e-02 1.93107113320170e-04
9.17581395348837e+00 1.65258619464778e-02 1.92031990932938e-04
9.22046511627907e+00 1.63938201718917e-02 1.90960593286550e-04
9.26511627906977e+00 1.62628334120827e-02 1.89892946573322e-04
9.30976744186047e+00 1.61328932376153e-02 1.88829076030109e-04
9.35441860465116e+00 1.60039912862626e-02 1.87769006109660e-04
9.39906976744186e+00 1.58761192624772e-02 1.86712760196996e-04
9.44372093023256e+00 1.57492689372655e-02 1.85660360779523e-04
9.48837209302326e+00 1.56234321472461e-02 1.84611829565393e-04
9.53302325581395e+00 1.54986007942635e-02 1.83567187397475e-04
9.57767441860465e+00 1.53747668447380e-02 1.82526454180506e-04
9.62232558139535e+00 1.52519223295372e-02 1.81489648993395e-04
9.66697674418605e+00 1.51300593430712e-02 1.80456790247363e-04
9.71162790697674e+00 1.50091700427928e-02 1.79427895420856e-04
9.75627906976744e+00 1.48892466490659e-02 1.78402981216650e-04
9.80093023255814e+00 1.47702814442880e-02 1.77382063670861e-04
9.84558139534884e+00 1.46522667725206e-02 1.76365158071803e-04
9.89023255813954e+00 1.45351950388786e-02 1.75352278891066e-04
9.93488372093023e+00 1.44190587093969e-02 1.74343439886954e-04
9.97953488372093e+00 1.43038503101875e-02 1.73338654377959e-04
1.00241860465116e+01 1.41895624266247e-02 1.72337934359681e-04
1.00688372093023e+01 1.40761877049115e-02 1.71341291830732e-04
1.01134883720930e+01 1.39637188477552e-02 1.70348738311698e-04
1.01581395348837e+01 1.38521486172987e-02 1.69360283414535e-04
1.02027906976744e+01 1.37414698345972e-02 1.68375937375253e-04
1.02474418604651e+01 1.36316753758934e-02 1.67395709417205e-04
1.02920930232558e+01 1.35227581764917e-02 1.66419608128861e-04
1.03367441860465e+01 1.34147112260303e-02 1.65447641929884e-04
1.03813953488372e+01 1.33075275712202e-02 1.64479817460823e-04
1.04260465116279e+01 1.32012003153454e-02 1.63516141985503e-04
1.04706976744186e+01 1.30957226147558e-02 1.62556622215897e-04
1.05153488372093e+01 1.29910876815045e-02 1.61601263155531e-04
1.05600000000000e+01 1.28872887828612e-02 1.60650070432230e-04
1.06046511627907e+01 1.27843192379218e-02 1.59703048789211e-04
1.06493023255814e+01 1.26821724211042e-02 1.58760202432456e-04
1.06939534883721e+01 1.25808417578499e-02 1.57821535459078e-04
1.07386046511628e+01 1.24803207270918e-02 1.56887050372557e-04
1.07832558139535e+01 1.23806028607873e-02 1.55956750296428e-04
1.08279069767442e+01 1.22816817407249e-02 1.55030637890122e-04
1.08725581395349e+01 1.21835510009020e-02 1.54108714281948e-04
1.09172093023256e+01 1.20862043270692e-02 1.53190981219032e-04
1.09618604651163e+01 1.19896354536438e-02 1.52277439675437e-04
1.10065116279070e+01 1.18938381668655e-02 1.51368090171917e-04
1.10511627906977e+01 1.17988063008852e-02 1.50462933169866e-04
1.10958139534884e+01 1.17045337399904e-02 1.49561967701548e-04
1.11404651162791e+01 1.16110144181689e-02 1.48665193411169e-04
1.11851162790698e+01 1.15182423161989e-02 1.47772609554161e-04
1.12297674418605e+01 1.14262114637930e-02 1.46884214012276e-04
1.12744186046512e+01 1.13349159391740e-02 1.46000005276229e-04
1.13190697674419e+01 1.12443498662597e-02 1.45119981161083e-04
1.13637209302326e+01 1.11545074175163e-02 1.44244139100764e-04
1.14083720930233e+01 1.10653828103945e-02 1.43372476510686e-04
1.14530232558140e+01 1.09769703093395e-02 1.42504989523377e-04
1.14976744186047e+01 1.08892642253826e-02 1.41641674871503e-04
1.15423255813953e+01 1.08022589134861e-02 1.40782528963660e-04
1.15869767441860e+01 1.07159487744806e-02 1.39927546974863e-04
1.16316279069767e+01 1.06303282546675e-02 1.39076724675917e-04
1.16762790697674e+01 1.05453918432504e-02 1.38230057535456e-04
1.17209302325581e+01 1.04611340742028e-02 1.37387539836167e-04
1.17655813953488e+01 1.03775495258799e-02 1.36549166452183e-04
1.18102325581395e+01 1.02946328185337e-02 1.35714931695604e-04
1.18548837209302e+01 1.02123786168045e-02 1.34884829580588e-04
1.18995348837209e+01 1.01307816265766e-02 1.34058854148107e-04
1.19441860465116e+01 1.00498365967292e-02 1.33236998330493e-04
1.19888372093023e+01 9.96953831876545e-03 1.32419255640319e-04
1.20334883720930e+01 9.88988162446522e-03 1.31605619340632e-04
1.20781395348837e+01 9.81086138757445e-03 1.30796081628301e-04
1.21227906976744e+01 9.73247252344222e-03 1.29990635275128e-04
1.21674418604651e+01 9.65470998675011e-03 1.29189272562124e-04
1.22120930232558e+01 9.57756877376925e-03 1.28391985523079e-04
1.22567441860465e+01 9.50104391948975e-03 1.27598766243930e-04
1.23013953488372e+01 9.42513049920474e-03 1.26809605813595e-04
1.23460465116279e+01 9.34982362816311e-03 1.26024495883832e-04
1.23906976744186e+01 9.27511845942405e-03 1.25243427902181e-04
1.24353488372093e+01 9.20101018538537e-03 1.24466392357085e-04
1.24800000000000e+01 9.12749403744455e-03 1.23693380293797e-04
1.25246511627907e+01 9.05456528392192e-03 1.22924382329361e-04
1.25693023255814e+01 8.98221923210742e-03 1.22159388877392e-04
1.26139534883721e+01 8.91045122563716e-03 1.21398390424151e-04
1.26586046511628e+01 8.83925664592797e-03 1.20641376558715e-04
1.27032558139535e+01 8.76863091185250e-03 1.19888337414332e-04
1.27479069767442e+01 8.69856947777605e-03 1.19139262959077e-04
1.27925581395349e+01 8.62906783494066e-03 1.18394142297713e-04
1.28372093023256e+01 8.56012151114845e-03 1.17652965072651e-04
1.28818604651163e+01 8.49172606886044e-03 1.16915720553116e-04
1.29265116279070e+01 8.42387710705410e-03 1.16182397842682e-04
1.29711627906977e+01 8.35657025882394e-03 1.15452986134030e-04
1.30158139534884e+01 8.28980119268164e-03 1.14727473812069e-04
1.30604651162791e+01 8.22356561225194e-03 1.14005849786382e-04
1.31051162790698e+01 8.15785925447494e-03 1.13288102834970e-04
1.31497674418605e+01 8.09267789086058e-03 1.12574220958374e-04
1.31944186046512e+01 8.02801732719263e-03 1.11864192674947e-04
1.32390697674419e+01 7.96387340178699e-03 1.11158006178286e-04
1.32837209302326e+01 7.90024198717885e-03 1.10455649528907e-04
1.33283720930233e+01 7.83711898792647e-03 1.09757110889485e-04
1.33730232558140e+01 7.77450034179029e-03 1.09062377695112e-04
1.34176744186047e+01 7.71238201944839e-03 1.08371437885556e-04
1.34623255813953e+01 7.65076002284898e-03 1.07684279297903e-04
1.35069767441860e+01 7.58963038634823e-03 1.07000889068818e-04
1.35516279069767e+01 7.52898917643351e-03 1.06321254832553e-04
1.35962790697674e+01 7.46883249012670e-03 1.05645364130443e-04
1.36409302325581e+01 7.40915645608328e-03 1.04973203829746e-04
1.36855813953488e+01 7.34995723432159e-03 1.04304761288389e-04
1.37302325581395e+01 7.29123101467626e-03 1.03640023596379e-04
1.37748837209302e+01 7.23297401827987e-03 1.02978977748244e-04
1.38195348837209e+01 7.17518249561413e-03 1.02321610854440e-04
1.38641860465116e+01 7.11785272754282e-03 1.01667909394243e-04
1.39088372093023e+01 7.06098102505272e-03 1.01017860324214e-04
1.39534883720930e+01 7.00456372778894e-03 1.00371450531462e-04
1.39981395348837e+01 6.94859720505274e-03 9.97286662955346e-05
1.40427906976744e+01 6.89307785554839e-03 9.90894943662521e-05
1.40874418604651e+01 6.83800210596401e-03 9.84539212613994e-05
