Energy (eV)          EEDF (eV^-(3/2))     First Anisotropy
7.76250000000000e-04 1.47424442501214e+01 8.09684146984643e-03
2.32875000000000e-03 1.46156587787593e+01 1.33576002613427e-02
3.88125000000000e-03 1.44899636663218e+01 1.76002341015617e-02
5.43375000000000e-03 1.43653495356934e+01 2.08031934689726e-02
6.98625000000000e-03 1.42418070903985e+01 2.34578341144673e-02
8.53875000000000e-03 1.41193271139107e+01 2.57504053581262e-02
1.00912500000000e-02 1.39979004689659e+01 2.77775249349435e-02
1.16437500000000e-02 1.38775180968807e+01 2.95976752818984e-02
1.31962500000000e-02 1.37581710168765e+01 3.12497333513773e-02
1.47487500000000e-02 1.36398503254100e+01 3.27612400100772e-02
1.63012500000000e-02 1.35225471955082e+01 3.41526291464820e-02
1.78537500000000e-02 1.34062528761107e+01 3.54396060897758e-02
1.94062500000000e-02 1.32909586914162e+01 3.66345828896461e-02
2.09587500000000e-02 1.31766560402357e+01 3.77475930353942e-02
2.25112500000000e-02 1.30633363953507e+01 3.87869004153870e-02
2.40637500000000e-02 1.29509913028770e+01 3.97594194774337e-02
2.56162500000000e-02 1.28396123816340e+01 4.06710139143297e-02
2.71687500000000e-02 1.27291913225196e+01 4.15267144480288e-02
2.87212500000000e-02 1.26197198878903e+01 4.23308811275025e-02
3.02737500000000e-02 1.25111899109464e+01 4.30873265943664e-02
3.18262500000000e-02 1.24035932951230e+01 4.37994112773361e-02
3.33787500000000e-02 1.22969220134859e+01 4.44701180018081e-02
3.49312500000000e-02 1.21911681081330e+01 4.51021112414430e-02
3.64837500000000e-02 1.20863236895999e+01 4.56977847332119e-02
3.80362500000000e-02 1.19823809362724e+01 4.62593001523770e-02
3.95887500000000e-02 1.18793320938021e+01 4.67886188322626e-02
4.11412500000000e-02 1.17771694745281e+01 4.72875280108922e-02
4.26937500000000e-02 1.16758854569041e+01 4.77576627256502e-02
4.42462500000000e-02 1.15754724849288e+01 4.82005242142279e-02
4.57987500000000e-02 1.14759230675832e+01 4.86174954860767e-02
4.73512500000000e-02 1.13772297782709e+01 4.90098545836390e-02
4.89037500000000e-02 1.12793852542647e+01 4.93787859430720e-02
5.04562500000000e-02 1.11823821961570e+01 4.97253901805588e-02
5.20087500000000e-02 1.10862133673154e+01 5.00506925658127e-02
5.35612500000000e-02 1.09908715933426e+01 5.03556503942445e-02
5.51137500000000e-02 1.08963497615415e+01 5.06411594299246e-02
5.66662500000000e-02 1.08026408203844e+01 5.09080595603557e-02
5.82187500000000e-02 1.07097377789868e+01 5.11571397793121e-02
5.97712500000000e-02 1.06176337065862e+01 5.13891425941425e-02
6.13237500000000e-02 1.05263217320248e+01 5.16047679378889e-02
6.28762500000000e-02 1.04357950432368e+01 5.18046766535582e-02
6.44287500000000e-02 1.03460468867408e+01 5.19894936072498e-02
6.59812500000000e-02 1.02570705671351e+01 5.21598104780967e-02
6.75337500000000e-02 1.01688594465989e+01 5.23161882657810e-02
6.90862500000000e-02 1.00814069443967e+01 5.24591595503879e-02
7.06387500000000e-02 9.99470653638780e+00 5.25892305343702e-02
7.21912500000000e-02 9.90875175453903e+00 5.27068828922383e-02
7.37437500000000e-02 9.82353618644263e+00 5.28125754500620e-02
7.52962500000000e-02 9.73905347483774e+00 5.29067457139049e-02
7.68487500000000e-02 9.65529731713611e+00 5.29898112638141e-02
7.84012500000000e-02 9.57226146495196e+00 5.30621710278415e-02
7.99537500000000e-02 9.48993972363581e+00 5.31242064487358e-02
8.15062500000000e-02 9.40832595181236e+00 5.31762825544131e-02
8.30587500000000e-02 9.32741406092233e+00 5.32187489419377e-02
8.46112500000000e-02 9.24719801476821e+00 5.32519406835919e-02
8.61637500000000e-02 9.16767182906401e+00 5.32761791626561e-02
8.77162500000000e-02 9.08882957098875e+00 5.32917728455873e-02
8.92687500000000e-02 9.01066535874392e+00 5.32990179965608e-02
9.08212500000000e-02 8.93317336111465e+00 5.32981993397014e-02
9.23737500000000e-02 8.85634779703467e+00 5.32895906737193e-02
9.39262500000000e-02 8.78018293515509e+00 5.32734554431802e-02
9.54787500000000e-02 8.70467309341678e+00 5.32500472702035e-02
9.70312500000000e-02 8.62981263862649e+00 5.32196104499676e-02
9.85837500000000e-02 8.55559598603661e+00 5.31823804130856e-02
1.00136250000000e-01 8.48201759892853e+00 5.31385841576109e-02
1.01688750000000e-01 8.40907198819959e+00 5.30884406531220e-02
1.03241250000000e-01 8.33675371195359e+00 5.30321612191435e-02
1.04793750000000e-01 8.26505737509477e+00 5.29699498799341e-02
1.06346250000000e-01 8.19397762892540e+00 5.29020036974687e-02
1.07898750000000e-01 8.12350917074668e+00 5.28285130842885e-02
1.09451250000000e-01 8.05364674346321e+00 5.27496620977403e-02
1.11003750000000e-01 7.98438513519075e+00 5.26656287169767e-02
1.12556250000000e-01 7.91571917886745e+00 5.25765851039776e-02
1.14108750000000e-01 7.84764375186831e+00 5.24826978497566e-02
1.15661250000000e-01 7.78015377562310e+00 5.23841282067898e-02
1.17213750000000e-01 7.71324421523742e+00 5.22810323086384e-02
1.18766250000000e-01 7.64691007911714e+00 5.21735613776463e-02
1.20318750000000e-01 7.58114641859596e+00 5.20618619215207e-02
1.21871250000000e-01 7.51594832756631e+00 5.19460759195488e-02
1.23423750000000e-01 7.45131094211325e+00 5.18263409991258e-02
1.24976250000000e-01 7.38722944015168e+00 5.17027906032329e-02
1.26528750000000e-01 7.32369904106658e+00 5.15755541494453e-02
1.28081250000000e-01 7.26071500535636e+00 5.14447571810101e-02
1.29633750000000e-01 7.19827263427928e+00 5.13105215104902e-02
1.31186250000000e-01 7.13636726950294e+00 5.11729653564223e-02
1.32738750000000e-01 7.07499429275673e+00 5.10322034734430e-02
1.34291250000000e-01 7.01414912548731e+00 5.08883472762508e-02
1.35843750000000e-01 6.95382722851704e+00 5.07415049577796e-02
1.37396250000000e-01 6.89402410170534e+00 5.05917816019227e-02
1.38948750000000e-01 6.83473528361299e+00 5.04392792911292e-02
1.40501250000000e-01 6.77595635116927e+00 5.02840972091659e-02
1.42053750000000e-01 6.71768291934201e+00 5.01263317393065e-02
1.43606250000000e-01 6.65991064081046e+00 4.99660765582168e-02
1.45158750000000e-01 6.60263520564094e+00 4.98034227257715e-02
1.46711250000000e-01 6.54585234096534e+00 4.96384587710211e-02
1.48263750000000e-01 6.48955781066237e+00 4.94712707745188e-02
1.49816250000000e-01 6.43374741504147e+00 4.93019424472047e-02
1.51368750000000e-01 6.37841699052959e+00 4.91305552060258e-02
1.52921250000000e-01 6.32356240936050e+00 4.89571882464572e-02
1.54473750000000e-01 6.26917957926690e+00 4.87819186120869e-02
1.56026250000000e-01 6.21526444317512e+00 4.86048212614375e-02
1.57578750000000e-01 6.16181297890244e+00 4.84259691321228e-02
1.59131250000000e-01 6.10882119885705e+00 4.82454332024952e-02
1.60683750000000e-01 6.05628514974052e+00 4.80632825509140e-02
1.62236250000000e-01 6.00420091225293e+00 4.78795844127342e-02
1.63788750000000e-01 5.95256460080046e+00 4.76944042351415e-02
1.65341250000000e-01 5.90137236320550e+00 4.75078057299186e-02
1.66893750000000e-01 5.85062038041931e+00 4.73198509242655e-02
1.68446250000000e-01 5.80030486623706e+00 4.71306002097394e-02
1.69998750000000e-01 5.75042206701542e+00 4.69401123894105e-02
1.71551250000000e-01 5.70096826139249e+00 4.67484447233274e-02
1.73103750000000e-01 5.65193976001020e+00 4.65556529723491e-02
1.74656250000000e-01 5.60333290523908e+00 4.63617914404313e-02
1.76208750000000e-01 5.55514407090538e+00 4.61669130154367e-02
1.77761250000000e-01 5.50736966202055e+00 4.59710692085170e-02
1.79313750000000e-01 5.46000611451306e+00 4.57743101921451e-02
1.80866250000000e-01 5.41304989496250e+00 4.55766848368573e-02
1.82418750000000e-01 5.36649750033599e+00 4.53782407467450e-02
1.83971250000000e-01 5.32034545772682e+00 4.51790242937682e-02
1.85523750000000e-01 5.27459032409542e+00 4.49790806509266e-02
1.87076250000000e-01 5.22922868601243e+00 4.47784538243368e-02
1.88628750000000e-01 5.18425715940410e+00 4.45771866842680e-02
1.90181250000000e-01 5.13967238929982e+00 4.43753209951721e-02
1.91733750000000e-01 5.09547104958183e+00 4.41728974447528e-02
1.93286250000000e-01 5.05164984273708e+00 4.39699556721143e-02
1.94838750000000e-01 5.00820549961124e+00 4.37665342950123e-02
1.96391250000000e-01 4.96513477916480e+00 4.35626709362641e-02
1.97943750000000e-01 4.92243446823129e+00 4.33584022493339e-02
1.99496250000000e-01 4.88010138127758e+00 4.31537639431274e-02
2.01048750000000e-01 4.83813236016621e+00 4.29487908060369e-02
2.02601250000000e-01 4.79652427391979e+00 4.27435167292531e-02
2.04153750000000e-01 4.75527401848747e+00 4.25379747293802e-02
2.05706250000000e-01 4.71437851651328e+00 4.23321969703680e-02
2.07258750000000e-01 4.67383471710665e+00 4.21262147848013e-02
2.08811250000000e-01 4.63363959561473e+00 4.19200586945625e-02
2.10363750000000e-01 4.59379015339680e+00 4.17137584308896e-02
2.11916250000000e-01 4.55428341760053e+00 4.15073429538520e-02
2.13468750000000e-01 4.51511644094022e+00 4.13008404712684e-02
2.15021250000000e-01 4.47628630147690e+00 4.10942784570781e-02
2.16573750000000e-01 4.43779010240039e+00 4.08876836692020e-02
2.18126250000000e-01 4.39962497181314e+00 4.06810821668929e-02
2.19678750000000e-01 4.36178806251602e+00 4.04744993275961e-02
2.21231250000000e-01 4.32427655179590e+00 4.02679598633476e-02
2.22783750000000e-01 4.28708764121507e+00 4.00614878367188e-02
2.24336250000000e-01 4.25021855640246e+00 3.98551066763221e-02
2.25888750000000e-01 4.21366654684669e+00 3.96488391918895e-02
2.27441250000000e-01 4.17742888569085e+00 3.94427075889513e-02
2.28993750000000e-01 4.14150286952909e+00 3.92367334831129e-02
2.30546250000000e-01 4.10588581820493e+00 3.90309379139484e-02
2.32098750000000e-01 4.07057507461132e+00 3.88253413585295e-02
2.33651250000000e-01 4.03556800449240e+00 3.86199637445942e-02
2.35203750000000e-01 4.00086199624702e+00 3.84148244633658e-02
2.36756250000000e-01 3.96645446073385e+00 3.82099423820439e-02
2.38308750000000e-01 3.93234283107827e+00 3.80053358559669e-02
2.39861250000000e-01 3.89852456248085e+00 3.78010227404555e-02
2.41413750000000e-01 3.86499713202753e+00 3.75970204023602e-02
2.42966250000000e-01 3.83175803850136e+00 3.73933457313073e-02
2.44518750000000e-01 3.79880480219597e+00 3.71900151506620e-02
2.46071250000000e-01 3.76613496473050e+00 3.69870446282133e-02
2.47623750000000e-01 3.73374608886628e+00 3.67844496865900e-02
2.49176250000000e-01 3.70163575832493e+00 3.65822454134204e-02
2.50728750000000e-01 3.66980157760816e+00 3.63804464712299e-02
2.52281250000000e-01 3.63824117181904e+00 3.61790671070981e-02
2.53833750000000e-01 3.60695218648482e+00 3.59781211620811e-02
2.55386250000000e-01 3.57593228738128e+00 3.57776220804012e-02
2.56938750000000e-01 3.54517916035861e+00 3.55775829184070e-02
2.58491250000000e-01 3.51469051116876e+00 3.53780163533223e-02
2.60043750000000e-01 3.48446406529428e+00 3.51789346917823e-02
2.61596250000000e-01 3.45449756777864e+00 3.49803498781573e-02
2.63148750000000e-01 3.42478878305800e+00 3.47822735026886e-02
2.64701250000000e-01 3.39533549479445e+00 3.45847168094253e-02
2.66253750000000e-01 3.36613550571065e+00 3.43876907039665e-02
2.67806250000000e-01 3.33718663742589e+00 3.41912057610269e-02
2.69358750000000e-01 3.30848673029363e+00 3.39952722318263e-02
2.70911250000000e-01 3.28003364324034e+00 3.37999000513011e-02
2.72463750000000e-01 3.25182525360580e+00 3.36050988451487e-02
2.74016250000000e-01 3.22385945698473e+00 3.34108779367113e-02
2.75568750000000e-01 3.19613416706978e+00 3.32172463536933e-02
2.77121250000000e-01 3.16864731549594e+00 3.30242128347311e-02
2.78673750000000e-01 3.14139685168617e+00 3.28317858358107e-02
2.80226250000000e-01 3.11438074269848e+00 3.26399735365309e-02
2.81778750000000e-01 3.08759697307423e+00 3.24487838462345e-02
2.83331250000000e-01 3.06104354468780e+00 3.22582244099957e-02
2.84883750000000e-01 3.03471847659748e+00 3.20683026144683e-02
2.86436250000000e-01 3.00861980489775e+00 3.18790255936078e-02
2.87988750000000e-01 2.98274558257273e+00 3.16904002342628e-02
2.89541250000000e-01 2.95709387935094e+00 3.15024331816408e-02
2.91093750000000e-01 2.93166278156128e+00 3.13151308446495e-02
2.92646250000000e-01 2.90645039199028e+00 3.11284994011247e-02
2.94198750000000e-01 2.88145482974059e+00 3.09425448029420e-02
2.95751250000000e-01 2.85667423009060e+00 3.07572727810098e-02
2.97303750000000e-01 2.83210674435539e+00 3.05726888501562e-02
2.98856250000000e-01 2.80775053974876e+00 3.03887983139051e-02
3.00408750000000e-01 2.78360379924657e+00 3.02056062691592e-02
3.01961250000000e-01 2.75966472145109e+00 3.00231176107702e-02
3.03513750000000e-01 2.73593152045670e+00 2.98413370360039e-02
3.05066250000000e-01 2.71240242571663e+00 2.96602690489260e-02
3.06618750000000e-01 2.68907568191083e+00 2.94799179646812e-02
3.08171250000000e-01 2.66594954881509e+00 2.93002879136781e-02
3.09723750000000e-01 2.64302230117116e+00 2.91213828456942e-02
3.11276250000000e-01 2.62029222855808e+00 2.89432065338827e-02
3.12828750000000e-01 2.59775763526455e+00 2.87657625786997e-02
3.14381250000000e-01 2.57541684016245e+00 2.85890544117483e-02
3.15933750000000e-01 2.55326817658140e+00 2.84130852995340e-02
3.17486250000000e-01 2.53130999218445e+00 2.82378583471458e-02
3.19038750000000e-01 2.50954064884479e+00 2.80633765018607e-02
3.20591250000000e-01 2.48795852252355e+00 2.78896425566690e-02
3.22143750000000e-01 2.46656200314866e+00 2.77166591537247e-02
3.23696250000000e-01 2.44534949449468e+00 2.75444287877234e-02
3.25248750000000e-01 2.42431941406381e+00 2.73729538092146e-02
3.26801250000000e-01 2.40347019296773e+00 2.72022364278375e-02
3.28353750000000e-01 2.38280027581065e+00 2.70322787154921e-02
3.29906250000000e-01 2.36230812057320e+00 2.68630826094463e-02
3.31458750000000e-01 2.34199219849743e+00 2.66946499153749e-02
3.33011250000000e-01 2.32185099397278e+00 2.65269823103378e-02
3.34563750000000e-01 2.30188300442295e+00 2.63600813456955e-02
3.36116250000000e-01 2.28208674019386e+00 2.61939484499656e-02
3.37668750000000e-01 2.26246072444251e+00 2.60285849316155e-02
3.39221250000000e-01 2.24300349302678e+00 2.58639919818023e-02
3.40773750000000e-01 2.22371359439623e+00 2.57001706770607e-02
3.42326250000000e-01 2.20458958948377e+00 2.55371219819243e-02
3.43878750000000e-01 2.18563005159838e+00 2.53748467515000e-02
3.45431250000000e-01 2.16683356631857e+00 2.52133457339911e-02
3.46983750000000e-01 2.14819873138696e+00 2.50526195731642e-02
3.48536250000000e-01 2.12972415660561e+00 2.48926688107685e-02
3.50088750000000e-01 2.11140846373233e+00 2.47334938889067e-02
3.51641250000000e-01 2.09325028637785e+00 2.45750951523535e-02
3.53193750000000e-01 2.07524826990390e+00 2.44174728508346e-02
3.54746250000000e-01 2.05740107132211e+00 2.42606271412490e-02
3.56298750000000e-01 2.03970735919389e+00 2.41045580898542e-02
3.57851250000000e-01 2.02216581353104e+00 2.39492656744070e-02
3.59403750000000e-01 2.00477512569731e+00 2.37947497862555e-02
3.60956250000000e-01 1.98753399831076e+00 2.36410102323940e-02
3.62508750000000e-01 1.97044114514695e+00 2.34880467374728e-02
3.64061250000000e-01 1.95349529104305e+00 2.33358589457711e-02
3.65613750000000e-01 1.93669517180265e+00 2.31844464231292e-02
3.67166250000000e-01 1.92003953410146e+00 2.30338086588376e-02
3.68718750000000e-01 1.90352713539382e+00 2.28839450674939e-02
3.70271250000000e-01 1.88715674382001e+00 2.27348549908211e-02
3.71823750000000e-01 1.87092713811434e+00 2.25865376994449e-02
3.73376250000000e-01 1.85483710751404e+00 2.24389923946418e-02
3.74928750000000e-01 1.83888545166892e+00 2.22922182100475e-02
3.76481250000000e-01 1.82307098055188e+00 2.21462142133333e-02
3.78033750000000e-01 1.80739251437004e+00 2.20009794078496e-02
3.79586250000000e-01 1.79184888347681e+00 2.18565127342329e-02
3.81138750000000e-01 1.77643892828458e+00 2.17128130719863e-02
3.82691250000000e-01 1.76116149917824e+00 2.15698792410232e-02
3.84243750000000e-01 1.74601545642939e+00 2.14277100031824e-02
3.85796250000000e-01 1.73099967011135e+00 2.12863040637130e-02
3.87348750000000e-01 1.71611302001481e+00 2.11456600727298e-02
3.88901250000000e-01 1.70135439556435e+00 2.10057766266407e-02
3.90453750000000e-01 1.68672269573547e+00 2.08666522695425e-02
3.92006250000000e-01 1.67221682897255e+00 2.07282854945901e-02
3.93558750000000e-01 1.65783571310738e+00 2.05906747453413e-02
3.95111250000000e-01 1.64357827527842e+00 2.04538184170715e-02
3.96663750000000e-01 1.62944345185078e+00 2.03177148580639e-02
3.98216250000000e-01 1.61543018833685e+00 2.01823623708716e-02
3.99768750000000e-01 1.60153743931767e+00 2.00477592135580e-02
4.01321250000000e-01 1.58776416836489e+00 1.99139036009112e-02
4.02873750000000e-01 1.57410934796349e+00 1.97807937056330e-02
4.04426250000000e-01 1.56057195943510e+00 1.96484276595053e-02
4.05978750000000e-01 1.54715099286202e+00 1.95168035545315e-02
4.07531250000000e-01 1.53384544701188e+00 1.93859194440595e-02
4.09083750000000e-01 1.52065432926294e+00 1.92557733438787e-02
4.10636250000000e-01 1.50757665553002e+00 1.91263632332944e-02
4.12188750000000e-01 1.49461145019111e+00 1.89976870561843e-02
4.13741250000000e-01 1.48175774601459e+00 1.88697427220298e-02
4.15293750000000e-01 1.46901458408705e+00 1.87425281069301e-02
4.16846250000000e-01 1.45638101374177e+00 1.86160410545946e-02
4.18398750000000e-01 1.44385609248779e+00 1.84902793773165e-02
4.19951250000000e-01 1.43143888593961e+00 1.83652408569261e-02
4.21503750000000e-01 1.41912846774745e+00 1.82409232457232e-02
4.23056250000000e-01 1.40692391952820e+00 1.81173242673936e-02
4.24608750000000e-01 1.39482433079684e+00 1.79944416179063e-02
4.26161250000000e-01 1.38282879889858e+00 1.78722729663929e-02
4.27713750000000e-01 1.37093642894146e+00 1.77508159560099e-02
4.29266250000000e-01 1.35914633372964e+00 1.76300682047832e-02
4.30818750000000e-01 1.34745763369718e+00 1.75100273064340e-02
4.32371250000000e-01 1.33586945684243e+00 1.73906908311886e-02
4.33923750000000e-01 1.32438093866300e+00 1.72720563265749e-02
4.35476250000000e-01 1.31299122209123e+00 1.71541213182010e-02
4.37028750000000e-01 1.30169945743028e+00 1.70368833105154e-02
4.38581250000000e-01 1.29050480229070e+00 1.69203397875568e-02
4.40133750000000e-01 1.27940642152766e+00 1.68044882136844e-02
4.41686250000000e-01 1.26840348717857e+00 1.66893260342959e-02
4.43238750000000e-01 1.25749517840134e+00 1.65748506765315e-02
4.44791250000000e-01 1.24668068141317e+00 1.64610595499610e-02
4.46343750000000e-01 1.23595918942981e+00 1.63479500472566e-02
4.47896250000000e-01 1.22532990260536e+00 1.62355195448563e-02
4.49448750000000e-01 1.21479202797265e+00 1.61237654036122e-02
4.51001250000000e-01 1.20434477938402e+00 1.60126849694213e-02
4.52553750000000e-01 1.19398737745273e+00 1.59022755738478e-02
4.54106250000000e-01 1.18371904949477e+00 1.57925345347320e-02
4.55658750000000e-01 1.17353902947126e+00 1.56834591567866e-02
4.57211250000000e-01 1.16344655793125e+00 1.55750467321792e-02
4.58763750000000e-01 1.15344088195511e+00 1.54672945411040e-02
4.60316250000000e-01 1.14352125509834e+00 1.53601998523430e-02
4.61868750000000e-01 1.13368693733588e+00 1.52537599238119e-02
4.63421250000000e-01 1.12393719500690e+00 1.51479720030980e-02
4.64973750000000e-01 1.11427130076010e+00 1.50428333279877e-02
4.66526250000000e-01 1.10468853349940e+00 1.49383411269789e-02
4.68078750000000e-01 1.09518817833018e+00 1.48344926197859e-02
4.69631250000000e-01 1.08576952650594e+00 1.47312850178338e-02
4.71183750000000e-01 1.07643187537540e+00 1.46287155247390e-02
4.72736250000000e-01 1.06717452833013e+00 1.45267813367856e-02
4.74288750000000e-01 1.05799679475254e+00 1.44254796433866e-02
4.75841250000000e-01 1.04889798996437e+00 1.43248076275361e-02
4.77393750000000e-01 1.03987743517561e+00 1.42247624662557e-02
4.78946250000000e-01 1.03093445743389e+00 1.41253413310273e-02
4.80498750000000e-01 1.02206838957422e+00 1.40265413882183e-02
4.82051250000000e-01 1.01327857016926e+00 1.39283597994967e-02
4.83603750000000e-01 1.00456434347998e+00 1.38307937222403e-02
4.85156250000000e-01 9.95925059406702e-01 1.37338403099335e-02
4.86708750000000e-01 9.87360073440643e-01 1.36374967125567e-02
4.88261250000000e-01 9.78868746615808e-01 1.35417600769687e-02
4.89813750000000e-01 9.70450445461329e-01 1.34466275472797e-02
