Energy (eV)          EEDF (eV^-(3/2))     First Anisotropy
2.21951219512195e-02 9.30704086290655e-02 5.44642183565910e-05
6.65853658536585e-02 9.22886434978054e-02 8.98602794413156e-05
1.10975609756098e-01 9.15134449727061e-02 1.18425576510228e-04
1.55365853658537e-01 9.07447578938562e-02 1.40005408197423e-04
1.99756097560976e-01 8.99825275694424e-02 1.57903027014594e-04
2.44146341463415e-01 8.92266997644620e-02 1.73370162005135e-04
2.88536585365854e-01 8.84772207024220e-02 1.87055969108293e-04
3.32926829268293e-01 8.77340370523546e-02 1.99353271606907e-04
3.77317073170732e-01 8.69970959346614e-02 2.10523132153931e-04
4.21707317073171e-01 8.62663449138925e-02 2.20750440579726e-04
4.66097560975610e-01 8.55417319950244e-02 2.30172338796517e-04
5.10487804878049e-01 8.48232056197518e-02 2.38894205124403e-04
5.54878048780488e-01 8.41107146628531e-02 2.46999299152417e-04
5.99268292682927e-01 8.34042084285424e-02 2.54554907858360e-04
6.43658536585366e-01 8.27036366468587e-02 2.61616436850038e-04
6.88048780487805e-01 8.20089494700911e-02 2.68230232781153e-04
7.32439024390244e-01 8.13200974702013e-02 2.74435589902186e-04
7.76829268292683e-01 8.06370316323352e-02 2.80266212560144e-04
8.21219512195122e-01 7.99597033543800e-02 2.85751304921298e-04
8.65609756097561e-01 7.92880644424648e-02 2.90916398969376e-04
9.10000000000000e-01 7.86220671075323e-02 2.95783993546665e-04
9.54390243902439e-01 7.79616639619358e-02 3.00374055230491e-04
9.98780487804878e-01 7.73068080160709e-02 3.04704416061850e-04
1.04317073170732e+00 7.66574526750345e-02 3.08791092849754e-04
1.08756097560976e+00 7.60135517376427e-02 3.12648547977636e-04
1.13195121951220e+00 7.53750593826035e-02 3.16289900150763e-04
1.17634146341463e+00 7.47419301851194e-02 3.19727102001401e-04
1.22073170731707e+00 7.41141190907279e-02 3.22971086655335e-04
1.26512195121951e+00 7.34915814342147e-02 3.26031890391652e-04
1.30951219512195e+00 7.28742729199325e-02 3.28918759752682e-04
1.35390243902439e+00 7.22621496198864e-02 3.31640236558985e-04
1.39829268292683e+00 7.16551679843618e-02 3.34204236071759e-04
1.44268292682927e+00 7.10532848246311e-02 3.36618114365437e-04
1.48707317073171e+00 7.04564573108483e-02 3.38888721555340e-04
1.53146341463415e+00 6.98646429810451e-02 3.41022453548248e-04
1.57585365853659e+00 6.92777997220428e-02 3.43025294715173e-04
1.62024390243902e+00 6.86958857820561e-02 3.44902855168087e-04
1.66463414634146e+00 6.81188597560454e-02 3.46660406314803e-04
1.70902439024390e+00 6.75466805835055e-02 3.48302907190756e-04
1.75341463414634e+00 6.69793075556052e-02 3.49835032755087e-04
1.79780487804878e+00 6.64167002988548e-02 3.51261196767601e-04
1.84219512195122e+00 6.58588187853203e-02 3.52585572084345e-04
1.88658536585366e+00 6.53056233199726e-02 3.53812111290405e-04
1.93097560975610e+00 6.47570745384405e-02 3.54944560608907e-04
1.97536585365854e+00 6.42131334127560e-02 3.55986476915399e-04
2.01975609756098e+00 6.36737612371548e-02 3.56941240987754e-04
2.06414634146341e+00 6.31389196364710e-02 3.57812069383427e-04
2.10853658536585e+00 6.26085705550652e-02 3.58602027450056e-04
2.15292682926829e+00 6.20826762545564e-02 3.59314036939541e-04
2.19731707317073e+00 6.15611993185091e-02 3.59950887043615e-04
2.24170731707317e+00 6.10441026399295e-02 3.60515242537043e-04
2.28609756097561e+00 6.05313494282426e-02 3.61009651121911e-04
2.33048780487805e+00 6.00229031994847e-02 3.61436552203784e-04
2.37487804878049e+00 5.95187277740517e-02 3.61798281087820e-04
2.41926829268293e+00 5.90187872805474e-02 3.62097076232217e-04
2.46365853658537e+00 5.85230461466789e-02 3.62335085945160e-04
2.50804878048780e+00 5.80314690970309e-02 3.62514371306320e-04
2.55243902439024e+00 5.75440211564332e-02 3.62636912406864e-04
2.59682926829268e+00 5.70606676396375e-02 3.62704612449441e-04
2.64121951219512e+00 5.65813741565232e-02 3.62719301462481e-04
2.68560975609756e+00 5.61061066039019e-02 3.62682741509891e-04
2.73000000000000e+00 5.56348311633499e-02 3.62596628183817e-04
2.77439024390244e+00 5.51675143039839e-02 3.62462595262027e-04
2.81878048780488e+00 5.47041227731621e-02 3.62282217495020e-04
2.86317073170732e+00 5.42446236008969e-02 3.62057013129129e-04
2.90756097560976e+00 5.37889840924324e-02 3.61788447889549e-04
2.95195121951219e+00 5.33371718261350e-02 3.61477935607826e-04
2.99634146341463e+00 5.28891546557880e-02 3.61126841833365e-04
3.04073170731707e+00 5.24449007021654e-02 3.60736485778079e-04
3.08512195121951e+00 5.20043783567876e-02 3.60308142069410e-04
3.12951219512195e+00 5.15675562751643e-02 3.59843043902999e-04
3.17390243902439e+00 5.11344033747434e-02 3.59342383134804e-04
3.21829268292683e+00 5.07048888368110e-02 3.58807312901271e-04
3.26268292682927e+00 5.02789821001192e-02 3.58238950089476e-04
3.30707317073171e+00 4.98566528588709e-02 3.57638375221482e-04
3.35146341463415e+00 4.94378710643894e-02 3.57006635008456e-04
3.39585365853659e+00 4.90226069178845e-02 3.56344743492871e-04
3.44024390243902e+00 4.86108308733373e-02 3.55653683065546e-04
3.48463414634146e+00 4.82025136316492e-02 3.54934406753700e-04
3.52902439024390e+00 4.77976261386979e-02 3.54187837850737e-04
3.57341463414634e+00 4.73961395867093e-02 3.53414872045192e-04
3.61780487804878e+00 4.69980254076239e-02 3.52616378254072e-04
3.66219512195122e+00 4.66032552755702e-02 3.51793199357062e-04
3.70658536585366e+00 4.62118011014732e-02 3.50946154127061e-04
3.75097560975610e+00 4.58236350311803e-02 3.50076036701435e-04
3.79536585365854e+00 4.54387294465838e-02 3.49183618391912e-04
3.83975609756098e+00 4.50570569595161e-02 3.48269648299053e-04
3.88414634146341e+00 4.46785904138723e-02 3.47334853845141e-04
3.92853658536585e+00 4.43033028806295e-02 3.46379942432870e-04
3.97292682926829e+00 4.39311676560370e-02 3.45405600820430e-04
4.01731707317073e+00 4.35621582625310e-02 3.44412496684423e-04
4.06170731707317e+00 4.31962484430984e-02 3.43401279077056e-04
4.10609756097561e+00 4.28334121630999e-02 3.42372578813513e-04
4.15048780487805e+00 4.24736236056552e-02 3.41327009917844e-04
4.19487804878049e+00 4.21168571698974e-02 3.40265168943200e-04
4.23926829268293e+00 4.17630874717110e-02 3.39187636145410e-04
4.28365853658537e+00 4.14122893393309e-02 3.38094976603713e-04
4.32804878048780e+00 4.10644378116361e-02 3.36987739528187e-04
4.37243902439024e+00 4.07195081387813e-02 3.35866459525392e-04
4.41682926829268e+00 4.03774757772288e-02 3.34731656886308e-04
4.46121951219512e+00 4.00383163911597e-02 3.33583837819565e-04
4.50560975609756e+00 3.97020058483766e-02 3.32423495635204e-04
4.55000000000000e+00 3.93685202186642e-02 3.31251110035981e-04
4.59439024390244e+00 3.90378357742825e-02 3.30067148244782e-04
4.63878048780488e+00 3.87099289853513e-02 3.28872065219468e-04
4.68317073170732e+00 3.83847765210595e-02 3.27666303819752e-04
4.72756097560976e+00 3.80623552458452e-02 3.26450295867235e-04
4.77195121951219e+00 3.77426422178179e-02 3.25224461435452e-04
4.81634146341463e+00 3.74256146891359e-02 3.23989209862245e-04
4.86073170731707e+00 3.71112501017092e-02 3.22744939909434e-04
4.90512195121951e+00 3.67995260882330e-02 3.21492039879484e-04
4.94951219512195e+00 3.64904204686209e-02 3.20230888572133e-04
4.99390243902439e+00 3.61839112484864e-02 3.18961854583057e-04
5.03829268292683e+00 3.58799766194215e-02 3.17685297065973e-04
5.08268292682927e+00 3.55785949555783e-02 3.16401566464214e-04
5.12707317073171e+00 3.52797448121855e-02 3.15111003822092e-04
5.17146341463415e+00 3.49834049257672e-02 3.13813941645860e-04
5.21585365853659e+00 3.46895542103061e-02 3.12510704001770e-04
5.26024390243902e+00 3.43981717580337e-02 3.11201606577514e-04
5.30463414634146e+00 3.41092368362272e-02 3.09886957501015e-04
5.34902439024390e+00 3.38227288857845e-02 3.08567056669510e-04
5.39341463414634e+00 3.35386275213659e-02 3.07242196535418e-04
5.43780487804878e+00 3.32569125278063e-02 3.05912662176050e-04
5.48219512195122e+00 3.29775638607840e-02 3.04578731330475e-04
5.52658536585366e+00 3.27005616438158e-02 3.03240675148877e-04
5.57097560975610e+00 3.24258861668892e-02 3.01898757542569e-04
5.61536585365854e+00 3.21535178865372e-02 3.00553235904641e-04
5.65975609756098e+00 3.18834374224790e-02 2.99204361157773e-04
5.70414634146341e+00 3.16156255581824e-02 2.97852377771813e-04
5.74853658536585e+00 3.13500632380428e-02 2.96497524452770e-04
5.79292682926829e+00 3.10867315660679e-02 2.95140033515973e-04
5.83731707317073e+00 3.08256118058976e-02 2.93780131549073e-04
5.88170731707317e+00 3.05666853776530e-02 2.92418039442939e-04
5.92609756097561e+00 3.03099338584071e-02 2.91053972394391e-04
5.97048780487805e+00 3.00553389795320e-02 2.89688140541931e-04
6.01487804878049e+00 2.98028826254359e-02 2.88320748363171e-04
6.05926829268293e+00 2.95525468335346e-02 2.86951995171706e-04
6.10365853658537e+00 2.93043137916982e-02 2.85582075596210e-04
6.14804878048780e+00 2.90581658370191e-02 2.84211178995275e-04
6.19243902439024e+00 2.88140854557530e-02 2.82839490039782e-04
6.23682926829268e+00 2.85720552804767e-02 2.81467188724488e-04
6.28121951219512e+00 2.83320580904277e-02 2.80094450354806e-04
6.32560975609756e+00 2.80940768090983e-02 2.78721446106885e-04
6.37000000000000e+00 2.78580945030534e-02 2.77348342467096e-04
6.41439024390244e+00 2.76240943818347e-02 2.75975301772344e-04
6.45878048780488e+00 2.73920597952878e-02 2.74602482212319e-04
6.50317073170732e+00 2.71619742338366e-02 2.73230037808951e-04
6.54756097560976e+00 2.69338213262155e-02 2.71858118936774e-04
6.59195121951219e+00 2.67075848383339e-02 2.70486871786840e-04
6.63634146341463e+00 2.64832486731500e-02 2.69116438868986e-04
6.68073170731707e+00 2.62607968681544e-02 2.67746959006995e-04
6.72512195121951e+00 2.60402135955874e-02 2.66378567312364e-04
6.76951219512195e+00 2.58214831602997e-02 2.65011395668825e-04
6.81390243902439e+00 2.56045899986621e-02 2.63645572220357e-04
6.85829268292683e+00 2.53895186784128e-02 2.62281221746011e-04
6.90268292682927e+00 2.51762538965945e-02 2.60918466022087e-04
6.94707317073171e+00 2.49647804784899e-02 2.59557423326173e-04
6.99146341463415e+00 2.47550833774530e-02 2.58198208884373e-04
7.03585365853658e+00 2.45471476726251e-02 2.56840934858643e-04
7.08024390243902e+00 2.43409585690712e-02 2.55485710314913e-04
7.12463414634146e+00 2.41365013958300e-02 2.54132641655519e-04
7.16902439024390e+00 2.39337616048927e-02 2.52781832146123e-04
7.21341463414634e+00 2.37327247710149e-02 2.51433382333592e-04
7.25780487804878e+00 2.35333765895622e-02 2.50087390029464e-04
7.30219512195122e+00 2.33357028766062e-02 2.48743950275606e-04
7.34658536585366e+00 2.31396895670806e-02 2.47403155748526e-04
7.39097560975610e+00 2.29453227138021e-02 2.46065096308433e-04
7.43536585365854e+00 2.27525884872656e-02 2.44729859390268e-04
7.47975609756098e+00 2.25614731736107e-02 2.43397529984233e-04
7.52414634146341e+00 2.23719631746821e-02 2.42068190599611e-04
7.56853658536585e+00 2.21840450062862e-02 2.40741921643462e-04
7.61292682926829e+00 2.19977052972508e-02 2.39418800991041e-04
7.65731707317073e+00 2.18129307892075e-02 2.38098904351980e-04
7.70170731707317e+00 2.16297083346706e-02 2.36782305248752e-04
7.74609756097561e+00 2.14480248970672e-02 2.35469074979259e-04
7.79048780487805e+00 2.12678675490867e-02 2.34159282971930e-04
7.83487804878049e+00 2.10892234717788e-02 2.32852996376674e-04
7.87926829268293e+00 2.09120799543248e-02 2.31550280336788e-04
7.92365853658537e+00 2.07364243924432e-02 2.30251198252217e-04
7.96804878048780e+00 2.05622442875085e-02 2.28955811383647e-04
8.01243902439024e+00 2.03895272463169e-02 2.27664179182174e-04
8.05682926829268e+00 2.02182609793329e-02 2.26376359265705e-04
8.10121951219512e+00 2.00484333006753e-02 2.25092407381098e-04
8.14560975609756e+00 1.98800321266059e-02 2.23812377724169e-04
8.19000000000000e+00 1.97130454746849e-02 2.22536322562826e-04
8.23439024390244e+00 1.95474614635292e-02 2.21264292546829e-04
8.27878048780488e+00 1.93832683111532e-02 2.19996336683192e-04
8.32317073170732e+00 1.92204543349344e-02 2.18732502298243e-04
8.36756097560976e+00 1.90590079501802e-02 2.17472835338467e-04
8.41195121951220e+00 1.88989176693179e-02 2.16217380011825e-04
8.45634146341463e+00 1.87401721016478e-02 2.14966179079011e-04
8.50073170731707e+00 1.85827599517727e-02 2.13719273828272e-04
8.54512195121951e+00 1.84266700195451e-02 2.12476704037586e-04
8.58951219512195e+00 1.82718911987080e-02 2.11238508257807e-04
8.63390243902439e+00 1.81184124761179e-02 2.10004723471318e-04
8.67829268292683e+00 1.79662229314941e-02 2.08775385307547e-04
8.72268292682927e+00 1.78153117361039e-02 2.07550528251988e-04
8.76707317073171e+00 1.76656681520040e-02 2.06330185315849e-04
8.81146341463415e+00 1.75172815317877e-02 2.05114388299625e-04
8.85585365853659e+00 1.73701413171467e-02 2.03903167767767e-04
8.90024390243902e+00 1.72242370387922e-02 2.02696553011842e-04
8.94463414634146e+00 1.70795583152065e-02 2.01494572307059e-04
8.98902439024390e+00 1.69360948519161e-02 2.00297252597948e-04
9.03341463414634e+00 1.67938364412368e-02 1.99104619746715e-04
9.07780487804878e+00 1.66527729609111e-02 1.97916698507886e-04
9.12219512195122e+00 1.65128943740169e-02 1.96733512492119e-04
9.16658536585366e+00 1.63741907277821e-02 1.95555084407953e-04
9.21097560975610e+00 1.62366521528878e-02 1.94381435762765e-04
9.25536585365854e+00 1.61002688632126e-02 1.93212587096970e-04
9.29975609756097e+00 1.59650311545409e-02 1.92048557958764e-04
9.34414634146341e+00 1.58309294044614e-02 1.90889366868659e-04
9.38853658536585e+00 1.56979540712410e-02 1.89735031547516e-04
9.43292682926829e+00 1.55660956931563e-02 1.88585568632070e-04
9.47731707317073e+00 1.54353448882392e-02 1.87440993895781e-04
9.52170731707317e+00 1.53056923530511e-02 1.86301322223893e-04
9.56609756097561e+00 1.51771288625726e-02 1.85166567578787e-04
9.61048780487805e+00 1.50496452691344e-02 1.84036743215213e-04
9.65487804878049e+00 1.49232325017751e-02 1.82911861409594e-04
9.69926829268293e+00 1.47978815659889e-02 1.81791933622913e-04
9.74365853658536e+00 1.46735835426889e-02 1.80676970658851e-04
9.78804878048780e+00 1.45503295875819e-02 1.79566982401697e-04
9.83243902439024e+00 1.44281109309153e-02 1.78461978017297e-04
9.87682926829268e+00 1.43069188763517e-02 1.77361965928884e-04
9.92121951219512e+00 1.41867448008459e-02 1.76266953784030e-04
9.96560975609756e+00 1.40675801536600e-02 1.75176948650564e-04
1.00100000000000e+01 1.39494164557632e-02 1.74091956682947e-04
1.00543902439024e+01 1.38322452998126e-02 1.73011983775838e-04
1.00987804878049e+01 1.37160583478153e-02 1.71937034572308e-04
1.01431707317073e+01 1.36008473338822e-02 1.70867113428735e-04
1.01875609756098e+01 1.34866040592808e-02 1.69802224008237e-04
1.02319512195122e+01 1.33733203963923e-02 1.68742368920039e-04
1.02763414634146e+01 1.32609882847344e-02 1.67687551403299e-04
1.03207317073171e+01 1.31495997304640e-02 1.66637772876963e-04
1.03651219512195e+01 1.30391468090377e-02 1.65593034570132e-04
1.04095121951220e+01 1.29296216603482e-02 1.64553337174109e-04
1.04539024390244e+01 1.28210164924132e-02 1.63518680797307e-04
1.04982926829268e+01 1.27133235766234e-02 1.62489065035618e-04
1.05426829268293e+01 1.26065352513405e-02 1.61464488555577e-04
1.05870731707317e+01 1.25006439182462e-02 1.60444950655896e-04
1.06314634146341e+01 1.23956420418707e-02 1.59430448993109e-04
1.06758536585366e+01 1.22915221520091e-02 1.58420981093416e-04
1.07202439024390e+01 1.21882768392582e-02 1.57416544029289e-04
1.07646341463415e+01 1.20858987583747e-02 1.56417134376865e-04
1.08090243902439e+01 1.19843806239129e-02 1.55422748280393e-04
1.08534146341463e+01 1.18837152135007e-02 1.54433381410351e-04
1.08978048780488e+01 1.17838953635761e-02 1.53449029026428e-04
1.09421951219512e+01 1.16849139725828e-02 1.52469685597326e-04
1.09865853658537e+01 1.15867639976906e-02 1.51495346221024e-04
1.10309756097561e+01 1.14894384543554e-02 1.50526004553696e-04
1.10753658536585e+01 1.13929304184613e-02 1.49561654185353e-04
1.11197560975610e+01 1.12972330223135e-02 1.48602288344208e-04
1.11641463414634e+01 1.12023394576230e-02 1.47647899857258e-04
1.12085365853659e+01 1.11082429715896e-02 1.46698481208030e-04
1.12529268292683e+01 1.10149368698136e-02 1.45754024497780e-04
1.12973170731707e+01 1.09224145124669e-02 1.44814521502009e-04
1.13417073170732e+01 1.08306693171341e-02 1.43879963323233e-04
1.13860975609756e+01 1.07396947558635e-02 1.42950341684065e-04
1.14304878048780e+01 1.06494843547558e-02 1.42025647040106e-04
1.14748780487805e+01 1.05600316958656e-02 1.41105869832059e-04
1.15192682926829e+01 1.04713304135999e-02 1.40191000215740e-04
1.15636585365854e+01 1.03833741973734e-02 1.39281028025568e-04
1.16080487804878e+01 1.02961567880869e-02 1.38375942826410e-04
1.16524390243902e+01 1.02096719807193e-02 1.37475733590715e-04
1.16968292682927e+01 1.01239136216119e-02 1.36580389899438e-04
1.17412195121951e+01 1.00388756080796e-02 1.35689900187830e-04
1.17856097560976e+01 9.95455189014185e-03 1.34804252908620e-04
1.18300000000000e+01 9.87093646720907e-03 1.33923436280642e-04
1.18743902439024e+01 9.78802339050589e-03 1.33047438254494e-04
1.19187804878049e+01 9.70580675983003e-03 1.32176246560179e-04
1.19631707317073e+01 9.62428072591822e-03 1.31309848673339e-04
1.20075609756098e+01 9.54343948727606e-03 1.30448231861874e-04
1.20519512195122e+01 9.46327729248767e-03 1.29591382890967e-04
1.20963414634146e+01 9.38378843776802e-03 1.28739289117559e-04
1.21407317073171e+01 9.30496726660060e-03 1.27891936890326e-04
1.21851219512195e+01 9.22680817127702e-03 1.27049312609815e-04
1.22295121951220e+01 9.14930558991174e-03 1.26211402498562e-04
1.22739024390244e+01 9.07245400860324e-03 1.25378192569382e-04
1.23182926829268e+01 8.99624795851376e-03 1.24549668668223e-04
1.23626829268293e+01 8.92068201797948e-03 1.23725816199572e-04
1.24070731707317e+01 8.84575081025333e-03 1.22906621144022e-04
1.24514634146341e+01 8.77144900316183e-03 1.22092068569707e-04
1.24958536585366e+01 8.69777131050966e-03 1.21282143617860e-04
1.25402439024390e+01 8.62471248932818e-03 1.20476831288810e-04
1.25846341463415e+01 8.55226734185076e-03 1.19676116412086e-04
1.26290243902439e+01 8.48043071282107e-03 1.18879983685917e-04
1.26734146341463e+01 8.40919749142198e-03 1.18088417647933e-04
1.27178048780488e+01 8.33856260864201e-03 1.17301402713745e-04
1.27621951219512e+01 8.26852103915906e-03 1.16518922926029e-04
1.28065853658537e+01 8.19906779930214e-03 1.15740962882662e-04
1.28509756097561e+01 8.13019794673217e-03 1.14967506377772e-04
1.28953658536585e+01 8.06190658169285e-03 1.14198537301016e-04
1.29397560975610e+01 7.99418884452785e-03 1.13434039441644e-04
1.29841463414634e+01 7.92703991744532e-03 1.12673996460938e-04
1.30285365853659e+01 7.86045502208842e-03 1.11918391927838e-04
1.30729268292683e+01 7.79442942125866e-03 1.11167209291843e-04
1.31173170731707e+01 7.72895841653854e-03 1.10420431917884e-04
1.31617073170732e+01 7.66403734997469e-03 1.09678042856738e-04
1.32060975609756e+01 7.59966160223594e-03 1.08940025692244e-04
1.32504878048780e+01 7.53582659231579e-03 1.08206363300174e-04
1.32948780487805e+01 7.47252777864788e-03 1.07477038668899e-04
1.33392682926829e+01 7.40976065686339e-03 1.06752034720129e-04
1.33836585365854e+01 7.34752076136869e-03 1.06031334283489e-04
1.34280487804878e+01 7.28580366315050e-03 1.05314920128664e-04
1.34724390243902e+01 7.22460497131704e-03 1.04602774751522e-04
1.35168292682927e+01 7.16392033139561e-03 1.03894881162615e-04
1.35612195121951e+01 7.10374542505132e-03 1.03191221731284e-04
1.36056097560976e+01 7.04407597110659e-03 1.02491778949598e-04
1.36500000000000e+01 6.98490772346981e-03 1.01796535265219e-04
1.36943902439024e+01 6.92623647258036e-03 1.01105473057526e-04
1.37387804878049e+01 6.86805804338124e-03 1.00418574667245e-04
1.37831707317073e+01 6.81036829673081e-03 9.97358223729958e-05
1.38275609756098e+01 6.75316312741828e-03 9.90571984203485e-05
1.38719512195122e+01 6.69643846554294e-03 9.83826848260903e-05
1.39163414634146e+01 6.64019027497315e-03 9.77122640984844e-05
1.39607317073171e+01 6.58441455308463e-03 9.70459181807619e-05
1.40051219512195e+01 6.52910733167068e-03 9.63836291489742e-05
