Energy (eV)          EEDF (eV^-(3/2))     First Anisotropy
2.55882352941176e-02 5.40274645427320e-02 2.83555721039470e-05
7.67647058823529e-02 5.36632866415435e-02 4.68227097180548e-05
1.27941176470588e-01 5.33015635209556e-02 6.18102250994374e-05
1.79117647058824e-01 5.29422786325262e-02 7.31957168320742e-05
2.30294117647059e-01 5.25854155435468e-02 8.26908298944568e-05
2.81470588235294e-01 5.22309579277576e-02 9.09425839780846e-05
3.32647058823529e-01 5.18788895709041e-02 9.82857476006362e-05
3.83823529411765e-01 5.15291943691673e-02 1.04922439605080e-04
4.35000000000000e-01 5.11818563249478e-02 1.10986683587546e-04
4.86176470588235e-01 5.08368595504266e-02 1.16573186884695e-04
5.37352941176471e-01 5.04941882632624e-02 1.21752043688073e-04
5.88529411764706e-01 5.01538267888954e-02 1.26576995628448e-04
6.39705882352941e-01 4.98157595572017e-02 1.31090411912354e-04
6.90882352941177e-01 4.94799711036097e-02 1.35326459830575e-04
7.42058823529412e-01 4.91464460682812e-02 1.39313213877023e-04
7.93235294117647e-01 4.88151691939294e-02 1.43074109140009e-04
8.44411764705882e-01 4.84861253270046e-02 1.46628973652819e-04
8.95588235294118e-01 4.81592994152877e-02 1.49994780428323e-04
9.46764705882353e-01 4.78346765084211e-02 1.53186207111069e-04
9.97941176470588e-01 4.75122417571720e-02 1.56216060931639e-04
1.04911764705882e+00 4.71919804123098e-02 1.59095606482078e-04
1.10029411764706e+00 4.68738778234229e-02 1.61834822142744e-04
1.15147058823529e+00 4.65579194391716e-02 1.64442603617705e-04
1.20264705882353e+00 4.62440908063027e-02 1.66926927463949e-04
1.25382352941176e+00 4.59323775689882e-02 1.69294983649373e-04
1.30500000000000e+00 4.56227654681687e-02 1.71553284508039e-04
1.35617647058824e+00 4.53152403386066e-02 1.73707753569188e-04
1.40735294117647e+00 4.50097881152421e-02 1.75763801040630e-04
1.45852941176471e+00 4.47063948254143e-02 1.77726387277419e-04
1.50970588235294e+00 4.44050465906479e-02 1.79600074890438e-04
1.56088235294118e+00 4.41057296260185e-02 1.81389074254399e-04
1.61205882352941e+00 4.38084302395218e-02 1.83097282163581e-04
1.66323529411765e+00 4.35131348314466e-02 1.84728315092887e-04
1.71441176470588e+00 4.32198298937534e-02 1.86285537964169e-04
1.76558823529412e+00 4.29285020094555e-02 1.87772089145425e-04
1.81676470588235e+00 4.26391378520018e-02 1.89190902271602e-04
1.86794117647059e+00 4.23517241846753e-02 1.90544725374735e-04
1.91911764705882e+00 4.20662478599830e-02 1.91836137722210e-04
1.97029411764706e+00 4.17826958190544e-02 1.93067564690247e-04
2.02147058823529e+00 4.15010550910443e-02 1.94241290950931e-04
2.07264705882353e+00 4.12213127925391e-02 1.95359472202664e-04
2.12382352941176e+00 4.09434561269675e-02 1.96424145638125e-04
2.17500000000000e+00 4.06674723840153e-02 1.97437239534812e-04
2.22617647058824e+00 4.03933489378074e-02 1.98400580996766e-04
2.27735294117647e+00 4.01210732500863e-02 1.99315903975701e-04
2.32852941176471e+00 3.98506328658335e-02 2.00184856553341e-04
2.37970588235294e+00 3.95820154139850e-02 2.01009006437694e-04
2.43088235294118e+00 3.93152086068656e-02 2.01789846797553e-04
2.48205882352941e+00 3.90502002396269e-02 2.02528801356202e-04
2.53323529411765e+00 3.87869781896888e-02 2.03227229030857e-04
2.58441176470588e+00 3.85255304161849e-02 2.03886428167232e-04
2.63558823529412e+00 3.82658449594119e-02 2.04507640412575e-04
2.68676470588235e+00 3.80079099402807e-02 2.05092054263488e-04
2.73794117647059e+00 3.77517135597764e-02 2.05640808323402e-04
2.78911764705882e+00 3.74972440984167e-02 2.06154994298714e-04
2.84029411764706e+00 3.72444899157161e-02 2.06635659757758e-04
2.89147058823529e+00 3.69934394496529e-02 2.07083810676664e-04
2.94264705882353e+00 3.67440812161409e-02 2.07500413791951e-04
2.99382352941176e+00 3.64964038085034e-02 2.07886398777952e-04
3.04500000000000e+00 3.62503958969519e-02 2.08242660431604e-04
3.09617647058824e+00 3.60060462272778e-02 2.08570060041530e-04
3.14735294117647e+00 3.57633436227317e-02 2.08869427468060e-04
3.19852941176471e+00 3.55222769810928e-02 2.09141563103622e-04
3.24970588235294e+00 3.52828352749758e-02 2.09387238867619e-04
3.30088235294118e+00 3.50450075513270e-02 2.09607199788090e-04
3.35205882352941e+00 3.48087829309228e-02 2.09802165317430e-04
3.40323529411765e+00 3.45741506078725e-02 2.09972830562944e-04
3.45441176470588e+00 3.43410998491237e-02 2.10119867438901e-04
3.50558823529412e+00 3.41096199939713e-02 2.10243925746411e-04
3.55676470588235e+00 3.38797004535691e-02 2.10345634186115e-04
3.60794117647059e+00 3.36513307104472e-02 2.10425601309635e-04
3.65911764705882e+00 3.34245003180297e-02 2.10484416414435e-04
3.71029411764706e+00 3.31991989001574e-02 2.10522650385388e-04
3.76147058823529e+00 3.29754161506124e-02 2.10540856487571e-04
3.81264705882353e+00 3.27531418326471e-02 2.10539571113739e-04
3.86382352941176e+00 3.25323657785161e-02 2.10519314489662e-04
3.91500000000000e+00 3.23130778890105e-02 2.10480591471371e-04
3.96617647058824e+00 3.20952681324477e-02 2.10423891778416e-04
4.01735294117647e+00 3.18789265458734e-02 2.10349690855667e-04
4.06852941176471e+00 3.16640432329296e-02 2.10258450704917e-04
4.11970588235294e+00 3.14506083639656e-02 2.10150620014493e-04
4.17088235294118e+00 3.12386121755886e-02 2.10026634801629e-04
4.22205882352941e+00 3.10280449702170e-02 2.09886918893124e-04
4.27323529411765e+00 3.08188971156369e-02 2.09731884381738e-04
4.32441176470588e+00 3.06111590445615e-02 2.09561932059872e-04
4.37558823529412e+00 3.04048212541933e-02 2.09377451832047e-04
4.42676470588235e+00 3.01998743057888e-02 2.09178823106979e-04
4.47794117647059e+00 2.99963088242282e-02 2.08966415171173e-04
4.52911764705882e+00 2.97941154975856e-02 2.08740587545087e-04
4.58029411764706e+00 2.95932850767031e-02 2.08501690322245e-04
4.63147058823529e+00 2.93938083747678e-02 2.08250064492855e-04
4.68264705882353e+00 2.91956762668917e-02 2.07986042252722e-04
4.73382352941177e+00 2.89988796896939e-02 2.07709947298217e-04
4.78500000000000e+00 2.88034096408863e-02 2.07422095213959e-04
4.83617647058824e+00 2.86092571784611e-02 2.07122793422638e-04
4.88735294117647e+00 2.84164134214935e-02 2.06812341657235e-04
4.93852941176471e+00 2.82248695485136e-02 2.06491032423773e-04
4.98970588235294e+00 2.80346167975136e-02 2.06159150911365e-04
5.04088235294118e+00 2.78456464655469e-02 2.05816975327973e-04
5.09205882352941e+00 2.76579499083301e-02 2.05464777117335e-04
5.14323529411765e+00 2.74715185398476e-02 2.05102821166951e-04
5.19441176470588e+00 2.72863438319587e-02 2.04731366007704e-04
5.24558823529412e+00 2.71024173140076e-02 2.04350664005497e-04
5.29676470588235e+00 2.69197305724355e-02 2.03960961545015e-04
5.34794117647059e+00 2.67382752503966e-02 2.03562499206512e-04
5.39911764705882e+00 2.65580430473753e-02 2.03155511935862e-04
5.45029411764706e+00 2.63790257188064e-02 2.02740229207776e-04
5.50147058823529e+00 2.62012150756981e-02 2.02316875182923e-04
5.55264705882353e+00 2.60246029842576e-02 2.01885668859171e-04
5.60382352941176e+00 2.58491813655187e-02 2.01446824217158e-04
5.65500000000000e+00 2.56749421949722e-02 2.01000550447316e-04
5.70617647058824e+00 2.55018775018967e-02 2.00547051822809e-04
5.75735294117647e+00 2.53299793699082e-02 2.00086528005518e-04
5.80852941176471e+00 2.51592399356764e-02 1.99619174348798e-04
5.85970588235294e+00 2.49896513888745e-02 1.99145181751186e-04
5.91088235294118e+00 2.48212059718222e-02 1.98664736862914e-04
5.96205882352941e+00 2.46538959791308e-02 1.98178022198672e-04
6.01323529411765e+00 2.44877137573503e-02 1.97685216246518e-04
6.06441176470588e+00 2.43226517046199e-02 1.97186493573037e-04
6.11558823529412e+00 2.41587022703197e-02 1.96682024925007e-04
6.16676470588235e+00 2.39958579547258e-02 1.96171977327499e-04
6.21794117647059e+00 2.38341113086667e-02 1.95656514178832e-04
6.26911764705882e+00 2.36734549331832e-02 1.95135795342535e-04
6.32029411764706e+00 2.35138814791894e-02 1.94609977236117e-04
6.37147058823529e+00 2.33553836471370e-02 1.94079212916998e-04
6.42264705882353e+00 2.31979541866807e-02 1.93543652165777e-04
6.47382352941176e+00 2.30415858963471e-02 1.93003441566770e-04
6.52500000000000e+00 2.28862716232054e-02 1.92458724658148e-04
6.57617647058824e+00 2.27320042623055e-02 1.91909641790001e-04
6.62735294117647e+00 2.25787767570608e-02 1.91356330343382e-04
6.67852941176471e+00 2.24265820982125e-02 1.90798924948458e-04
6.72970588235294e+00 2.22754133237486e-02 1.90237557331520e-04
6.78088235294118e+00 2.21252635185854e-02 1.89672356456159e-04
6.83205882352941e+00 2.19761258142509e-02 1.89103448588052e-04
6.88323529411765e+00 2.18279933885710e-02 1.88530957357833e-04
6.93441176470588e+00 2.16808594653571e-02 1.87955003822088e-04
6.98558823529412e+00 2.15347173140960e-02 1.87375706522640e-04
7.03676470588235e+00 2.13895602496425e-02 1.86793181543988e-04
7.08794117647059e+00 2.12453816319133e-02 1.86207542569165e-04
7.13911764705882e+00 2.11021748655833e-02 1.85618900934090e-04
7.19029411764706e+00 2.09599333997840e-02 1.85027365680262e-04
7.24147058823529e+00 2.08186507278035e-02 1.84433043606015e-04
7.29264705882353e+00 2.06783203867893e-02 1.83836039316313e-04
7.34382352941176e+00 2.05389359574525e-02 1.83236455271256e-04
7.39500000000000e+00 2.04004910637739e-02 1.82634391893529e-04
7.44617647058824e+00 2.02629793725288e-02 1.82029947432044e-04
7.49735294117647e+00 2.01263945935527e-02 1.81423218128623e-04
7.54852941176471e+00 1.99907304788939e-02 1.80814298384595e-04
7.59970588235294e+00 1.98559808227161e-02 1.80203280617256e-04
7.65088235294118e+00 1.97221394610136e-02 1.79590255363310e-04
7.70205882352941e+00 1.95892002713302e-02 1.78975311318903e-04
7.75323529411765e+00 1.94571571724786e-02 1.78358535378567e-04
7.80441176470588e+00 1.93260041242626e-02 1.77740012673242e-04
7.85558823529412e+00 1.91957351272004e-02 1.77119826607313e-04
7.90676470588235e+00 1.90663442222502e-02 1.76498058894589e-04
7.95794117647059e+00 1.89378254905382e-02 1.75874789593438e-04
8.00911764705882e+00 1.88101730530870e-02 1.75250097141101e-04
8.06029411764706e+00 1.86833810705474e-02 1.74624058387061e-04
8.11147058823529e+00 1.85574437429308e-02 1.73996748625588e-04
8.16264705882353e+00 1.84323553093441e-02 1.73368241627512e-04
8.21382352941177e+00 1.83081100477261e-02 1.72738609671193e-04
8.26500000000000e+00 1.81847022745858e-02 1.72107923623642e-04
8.31617647058824e+00 1.80621263445955e-02 1.71476252816403e-04
8.36735294117647e+00 1.79403766507761e-02 1.70843665177177e-04
8.41852941176471e+00 1.78194476237941e-02 1.70210227361845e-04
8.46970588235294e+00 1.76993337318568e-02 1.69576004625278e-04
8.52088235294118e+00 1.75800294804590e-02 1.68941060900579e-04
8.57205882352941e+00 1.74615294121318e-02 1.68305458825226e-04
8.62323529411765e+00 1.73438281061931e-02 1.67669259766586e-04
8.67441176470588e+00 1.72269201784994e-02 1.67032523846841e-04
8.72558823529412e+00 1.71108002811996e-02 1.66395309967353e-04
8.77676470588235e+00 1.69954631024903e-02 1.65757675832393e-04
8.82794117647059e+00 1.68809033663730e-02 1.65119677972410e-04
8.87911764705882e+00 1.67671158324126e-02 1.64481371766780e-04
8.93029411764706e+00 1.66540952954977e-02 1.63842811465957e-04
8.98147058823529e+00 1.65418365856024e-02 1.63204050213199e-04
9.03264705882353e+00 1.64303345675503e-02 1.62565140065760e-04
9.08382352941176e+00 1.63195841407788e-02 1.61926132015644e-04
9.13500000000000e+00 1.62095802391064e-02 1.61287076053080e-04
9.18617647058823e+00 1.61003178303822e-02 1.60648021056057e-04
9.23735294117647e+00 1.59917919166135e-02 1.60009014896973e-04
9.28852941176471e+00 1.58839975333772e-02 1.59370104549735e-04
9.33970588235294e+00 1.57769297497132e-02 1.58731335975538e-04
9.39088235294118e+00 1.56705836678995e-02 1.58092754185551e-04
9.44205882352941e+00 1.55649544232272e-02 1.57454403258677e-04
9.49323529411765e+00 1.54600371837788e-02 1.56816326358951e-04
9.54441176470588e+00 1.53558271502069e-02 1.56178565752559e-04
9.59558823529412e+00 1.52523195555145e-02 1.55541162824538e-04
9.64676470588235e+00 1.51495096648369e-02 1.54904158095046e-04
9.69794117647059e+00 1.50473927752255e-02 1.54267591235322e-04
9.74911764705882e+00 1.49459642154325e-02 1.53631501083370e-04
9.80029411764706e+00 1.48452193456968e-02 1.52995925659249e-04
9.85147058823529e+00 1.47451535575326e-02 1.52360902180080e-04
9.90264705882353e+00 1.46457622735176e-02 1.51726467074722e-04
9.95382352941177e+00 1.45470409470844e-02 1.51092655998179e-04
1.00050000000000e+01 1.44489850623122e-02 1.50459503735727e-04
1.00561764705882e+01 1.43515901340084e-02 1.49827044657260e-04
1.01073529411765e+01 1.42548517063486e-02 1.49195312288922e-04
1.01585294117647e+01 1.41587653541252e-02 1.48564338744262e-04
1.02097058823529e+01 1.40633266828909e-02 1.47934156377009e-04
1.02608823529412e+01 1.39685313259493e-02 1.47304796848150e-04
1.03120588235294e+01 1.38743749469773e-02 1.46676290407492e-04
1.03632352941176e+01 1.37808532388806e-02 1.46048666657823e-04
1.04144117647059e+01 1.36879619244878e-02 1.45421955240409e-04
1.04655882352941e+01 1.35956967536711e-02 1.44796185152661e-04
1.05167647058824e+01 1.35040535058468e-02 1.44171383717276e-04
1.05679411764706e+01 1.34130279897406e-02 1.43547578664762e-04
1.06191176470588e+01 1.33226160406053e-02 1.42924797115673e-04
1.06702941176471e+01 1.32328135226319e-02 1.42303064905109e-04
1.07214705882353e+01 1.31436163278895e-02 1.41682407298918e-04
1.07726470588235e+01 1.30550203769580e-02 1.41062849636459e-04
1.08238235294118e+01 1.29670216162663e-02 1.40444416688850e-04
1.08750000000000e+01 1.28796160203940e-02 1.39827131691624e-04
1.09261764705882e+01 1.27927995918473e-02 1.39211018298073e-04
1.09773529411765e+01 1.27065683584869e-02 1.38596099623248e-04
1.10285294117647e+01 1.26209183757462e-02 1.37982397303107e-04
1.10797058823529e+01 1.25358457264125e-02 1.37369933392770e-04
1.11308823529412e+01 1.24513465181417e-02 1.36758729436687e-04
1.11820588235294e+01 1.23674168855975e-02 1.36148805852285e-04
1.12332352941176e+01 1.22840529894978e-02 1.35540182581965e-04
1.12844117647059e+01 1.22012510171721e-02 1.34932879678552e-04
1.13355882352941e+01 1.21190071801796e-02 1.34326916719433e-04
1.13867647058824e+01 1.20373177163529e-02 1.33722311922449e-04
1.14379411764706e+01 1.19561788895915e-02 1.33119083927859e-04
1.14891176470588e+01 1.18755869875590e-02 1.32517250925029e-04
1.15402941176471e+01 1.17955383236546e-02 1.31916830072424e-04
1.15914705882353e+01 1.17160292361277e-02 1.31317838109643e-04
1.16426470588235e+01 1.16370560885868e-02 1.30720291907151e-04
1.16938235294118e+01 1.15586152677926e-02 1.30124207914807e-04
1.17450000000000e+01 1.14807031855431e-02 1.29529601331280e-04
1.17961764705882e+01 1.14033162784777e-02 1.28936487777689e-04
1.18473529411765e+01 1.13264510059414e-02 1.28344882476495e-04
1.18985294117647e+01 1.12501038518041e-02 1.27754799443182e-04
1.19497058823529e+01 1.11742713242691e-02 1.27166253113764e-04
1.20008823529412e+01 1.10989499538073e-02 1.26579257545742e-04
1.20520588235294e+01 1.10241362949133e-02 1.25993825887997e-04
1.21032352941176e+01 1.09498269253064e-02 1.25409970939166e-04
1.21544117647059e+01 1.08760184463799e-02 1.24827705649449e-04
1.22055882352941e+01 1.08027074812196e-02 1.24247042616401e-04
1.22567647058824e+01 1.07298906762837e-02 1.23667993324649e-04
1.23079411764706e+01 1.06575647012213e-02 1.23090569675516e-04
1.23591176470588e+01 1.05857262469544e-02 1.22514783235760e-04
1.24102941176471e+01 1.05143720273000e-02 1.21940644738347e-04
1.24614705882353e+01 1.04434987782262e-02 1.21368164607241e-04
1.25126470588235e+01 1.03731032582638e-02 1.20797353429172e-04
1.25638235294118e+01 1.03031822466662e-02 1.20228221478679e-04
1.26150000000000e+01 1.02337325449616e-02 1.19660778003122e-04
1.26661764705882e+01 1.01647509767813e-02 1.19095032660932e-04
1.27173529411765e+01 1.00962343860773e-02 1.18530994814608e-04
1.27685294117647e+01 1.00281796386219e-02 1.17968672834628e-04
1.28197058823529e+01 9.96058362183925e-03 1.17408075498801e-04
1.28708823529412e+01 9.89344324307996e-03 1.16849211303943e-04
1.29220588235294e+01 9.82675543107014e-03 1.16292088008967e-04
1.29732352941176e+01 9.76051713523794e-03 1.15736713114555e-04
1.30244117647059e+01 9.69472532607801e-03 1.15183094294524e-04
1.30755882352941e+01 9.62937699349451e-03 1.14631238960984e-04
1.31267647058824e+01 9.56446914818842e-03 1.14081153609027e-04
1.31779411764706e+01 9.49999882149836e-03 1.13532845133270e-04
1.32291176470588e+01 9.43596306379490e-03 1.12986320180113e-04
1.32802941176471e+01 9.37235894582183e-03 1.12441584717110e-04
1.33314705882353e+01 9.30918355806806e-03 1.11898644484263e-04
1.33826470588235e+01 9.24643401110195e-03 1.11357505400026e-04
1.34338235294118e+01 9.18410743402939e-03 1.10818173151349e-04
1.34850000000000e+01 9.12220097577886e-03 1.10280652576880e-04
1.35361764705882e+01 9.06071180494974e-03 1.09744948906072e-04
1.35873529411765e+01 8.99963710831795e-03 1.09211067149085e-04
1.36385294117647e+01 8.93897409207800e-03 1.08679011496054e-04
1.36897058823529e+01 8.87871998169484e-03 1.08148786523211e-04
1.37408823529412e+01 8.81887202045560e-03 1.07620396598709e-04
1.37920588235294e+01 8.75942747067094e-03 1.07093845488011e-04
1.38432352941176e+01 8.70038361310504e-03 1.06569136767001e-04
1.38944117647059e+01 8.64173774727225e-03 1.06046274193775e-04
1.39455882352941e+01 8.58348719004510e-03 1.05525261332876e-04
1.39967647058824e+01 8.52562927680556e-03 1.05006100989283e-04
1.40479411764706e+01 8.46816136130461e-03 1.04488796344206e-04
1.40991176470588e+01 8.41108081431247e-03 1.03973350395474e-04
1.41502941176471e+01 8.35438502473235e-03 1.03459765585342e-04
1.42014705882353e+01 8.29807139906796e-03 1.02948044189555e-04
1.42526470588235e+01 8.24213736169601e-03 1.02438188667563e-04
1.43038235294118e+01 8.18658035356879e-03 1.01930201308051e-04
1.43550000000000e+01 8.13139783328224e-03 1.01424083695767e-04
1.44061764705882e+01 8.07658727694219e-03 1.00919837781393e-04
1.44573529411765e+01 8.02214617690601e-03 1.00417465354090e-04
1.45085294117647e+01 7.96807204281580e-03 9.99169675220251e-05
1.45597058823529e+01 7.91436240146758e-03 9.94183457542377e-05
1.46108823529412e+01 7.86101479559097e-03 9.89216013667115e-05
1.46620588235294e+01 7.80802678484913e-03 9.84267351809035e-05
1.47132352941176e+01 7.75539594535445e-03 9.79337478804179e-05
1.47644117647059e+01 7.70311986991076e-03 9.74426403321310e-05
1.48155882352941e+01 7.65119616683940e-03 9.69534132608809e-05
1.48667647058824e+01 7.59962246093831e-03 9.64660667597141e-05
1.49179411764706e+01 7.54839639335799e-03 9.59806012717150e-05
1.49691176470588e+01 7.49751562046247e-03 9.54970171056697e-05
1.50202941176471e+01 7.44697781475772e-03 9.50153141138153e-05
1.50714705882353e+01 7.39678066443853e-03 9.45354920279735e-05
1.51226470588235e+01 7.34692187361128e-03 9.40575507622867e-05
1.51738235294118e+01 7.29739916119817e-03 9.35814901061463e-05
1.52250000000000e+01 7.24821026182828e-03 9.31073092625628e-05
1.52761764705882e+01 7.19935292571944e-03 9.26350077736917e-05
1.53273529411765e+01 7.15082491761475e-03 9.21645850639870e-05
1.53785294117647e+01 7.10262401764508e-03 9.16960399902781e-05
1.54297058823529e+01 7.05474802121357e-03 9.12293717433895e-05
1.54808823529412e+01 7.00719473796363e-03 9.07645794028884e-05
1.55320588235294e+01 6.95996199261417e-03 9.03016616411805e-05
1.55832352941176e+01 6.91304762454673e-03 8.98406170319833e-05
1.56344117647059e+01 6.86644948800378e-03 8.93814443282093e-05
1.56855882352941e+01 6.82016545109530e-03 8.89241421799384e-05
1.57367647058824e+01 6.77419339660042e-03 8.84687087099370e-05
1.57879411764706e+01 6.72853122185790e-03 8.80151423639179e-05
1.58391176470588e+01 6.68317683780150e-03 8.75634414906488e-05
1.58902941176471e+01 6.63812816973663e-03 8.71136040625182e-05
1.59414705882353e+01 6.59338315695345e-03 8.66656279664907e-05
1.59926470588235e+01 6.54893975290951e-03 8.62195112662527e-05
1.60438235294118e+01 6.50479592430122e-03 8.57752519358318e-05
1.60950000000000e+01 6.46094965180962e-03 8.53328474592447e-05
1.61461764705882e+01 6.41739892999597e-03 8.48922956325186e-05
