Energy (eV)          EEDF (eV^-(3/2))     First Anisotropy
3.22500000000000e-03 1.73559916886422e+00 1.01120586373806e-03
9.67500000000000e-03 1.72070331566289e+00 1.66823104774652e-03
1.61250000000000e-02 1.70593530675257e+00 2.19813247380355e-03
2.25750000000000e-02 1.69129404490308e+00 2.59820304118350e-03
2.90250000000000e-02 1.67677844230220e+00 2.92980455882687e-03
3.54750000000000e-02 1.66238742047403e+00 3.21619572675599e-03
4.19250000000000e-02 1.64811991019880e+00 3.46944180789493e-03
4.83750000000000e-02 1.63397485143337e+00 3.69684569410093e-03
5.48250000000000e-02 1.61995119323247e+00 3.90326196074052e-03
6.12750000000000e-02 1.60604789367063e+00 4.09212956192373e-03
6.77250000000000e-02 1.59226391976472e+00 4.26599996283268e-03
7.41750000000000e-02 1.57859824739727e+00 4.42683415463771e-03
8.06250000000000e-02 1.56504986124032e+00 4.57618188932691e-03
8.70750000000000e-02 1.55161775468001e+00 4.71529590690689e-03
9.35250000000000e-02 1.53830092974179e+00 4.84520797960562e-03
9.99750000000000e-02 1.52509839701627e+00 4.96678137917957e-03
1.06425000000000e-01 1.51200917558570e+00 5.08074817476677e-03
1.12875000000000e-01 1.49903229295110e+00 5.18773642806006e-03
1.19325000000000e-01 1.48616678496002e+00 5.28829045959438e-03
1.25775000000000e-01 1.47341169573486e+00 5.38288624089525e-03
1.32225000000000e-01 1.46076607760190e+00 5.47194328127215e-03
1.38675000000000e-01 1.44822899102087e+00 5.55583394411738e-03
1.45125000000000e-01 1.43579950451514e+00 5.63489084541966e-03
1.51575000000000e-01 1.42347669460252e+00 5.70941279921084e-03
1.58025000000000e-01 1.41125964572663e+00 5.77966964666195e-03
1.64475000000000e-01 1.39914745018891e+00 5.84590621668715e-03
1.70925000000000e-01 1.38713920808116e+00 5.90834560312730e-03
1.77375000000000e-01 1.37523402721867e+00 5.96719189851034e-03
1.83825000000000e-01 1.36343102307395e+00 6.02263249156383e-03
1.90275000000000e-01 1.35172931871099e+00 6.07484001142190e-03
1.96725000000000e-01 1.34012804472016e+00 6.12397398336539e-03
2.03175000000000e-01 1.32862633915352e+00 6.17018224725795e-03
2.09625000000000e-01 1.31722334746088e+00 6.21360217939523e-03
2.16075000000000e-01 1.30591822242624e+00 6.25436175043573e-03
2.22525000000000e-01 1.29471012410486e+00 6.29258044581789e-03
2.28975000000000e-01 1.28359821976090e+00 6.32837007015438e-03
2.35425000000000e-01 1.27258168380547e+00 6.36183545321570e-03
2.41875000000000e-01 1.26165969773534e+00 6.39307507201778e-03
2.48325000000000e-01 1.25083145007213e+00 6.42218160104734e-03
2.54775000000000e-01 1.24009613630201e+00 6.44924240066293e-03
2.61225000000000e-01 1.22945295881590e+00 6.47433995207619e-03
2.67675000000000e-01 1.21890112685026e+00 6.49755224599348e-03
2.74125000000000e-01 1.20843985642831e+00 6.51895313090882e-03
2.80575000000000e-01 1.19806837030175e+00 6.53861262613328e-03
2.87025000000000e-01 1.18778589789309e+00 6.55659720390357e-03
2.93475000000000e-01 1.17759167523833e+00 6.57297004428965e-03
2.99925000000000e-01 1.16748494493024e+00 6.58779126609484e-03
3.06375000000000e-01 1.15746495606203e+00 6.60111813650789e-03
3.12825000000000e-01 1.14753096417165e+00 6.61300526189697e-03
3.19275000000000e-01 1.13768223118641e+00 6.62350476181782e-03
3.25725000000000e-01 1.12791802536813e+00 6.63266642804386e-03
3.32175000000000e-01 1.11823762125884e+00 6.64053787019700e-03
3.38625000000000e-01 1.10864029962684e+00 6.64716464936697e-03
3.45075000000000e-01 1.09912534741325e+00 6.65259040093278e-03
3.51525000000000e-01 1.08969205767905e+00 6.65685694765807e-03
3.57975000000000e-01 1.08033972955257e+00 6.66000440401024e-03
3.64425000000000e-01 1.07106766817739e+00 6.66207127254080e-03
3.70875000000000e-01 1.06187518466072e+00 6.66309453307143e-03
3.77325000000000e-01 1.05276159602224e+00 6.66310972534776e-03
3.83775000000000e-01 1.04372622514330e+00 6.66215102575242e-03
3.90225000000000e-01 1.03476840071670e+00 6.66025131860601e-03
3.96675000000000e-01 1.02588745719673e+00 6.65744226252662e-03
4.03125000000000e-01 1.01708273474975e+00 6.65375435227194e-03
4.09575000000000e-01 1.00835357920518e+00 6.64921697644599e-03
4.16025000000000e-01 9.99699342006901e-01 6.64385847141428e-03
4.22475000000000e-01 9.91119380165033e-01 6.63770617173410e-03
4.28925000000000e-01 9.82613056208191e-01 6.63078645738146e-03
4.35375000000000e-01 9.74179738136116e-01 6.62312479802850e-03
4.41825000000000e-01 9.65818799372718e-01 6.61474579459726e-03
4.48275000000000e-01 9.57529618719521e-01 6.60567321830293e-03
4.54725000000000e-01 9.49311580309513e-01 6.59593004737176e-03
4.61175000000000e-01 9.41164073561386e-01 6.58553850160848e-03
4.67625000000000e-01 9.33086493134171e-01 6.57452007497053e-03
4.74075000000000e-01 9.25078238882265e-01 6.56289556629030e-03
4.80525000000000e-01 9.17138715810839e-01 6.55068510827974e-03
4.86975000000000e-01 9.09267334031634e-01 6.53790819493639e-03
4.93425000000000e-01 9.01463508719129e-01 6.52458370746015e-03
4.99875000000000e-01 8.93726660067093e-01 6.51072993878301e-03
5.06325000000000e-01 8.86056213245510e-01 6.49636461680561e-03
5.12775000000000e-01 8.78451598357863e-01 6.48150492642461e-03
5.19225000000000e-01 8.70912250398798e-01 6.46616753042960e-03
5.25675000000000e-01 8.63437609212143e-01 6.45036858934352e-03
5.32125000000000e-01 8.56027119449289e-01 6.43412378027390e-03
5.38575000000000e-01 8.48680230527932e-01 6.41744831483553e-03
5.45025000000000e-01 8.41396396591161e-01 6.40035695620200e-03
5.51475000000000e-01 8.34175076466908e-01 6.38286403534096e-03
5.57925000000000e-01 8.27015733627735e-01 6.36498346648131e-03
5.64375000000000e-01 8.19917836150975e-01 6.34672876185738e-03
5.70825000000000e-01 8.12880856679208e-01 6.32811304577325e-03
5.77275000000000e-01 8.05904272381083e-01 6.30914906802711e-03
5.83725000000000e-01 7.98987564912469e-01 6.28984921673169e-03
5.90175000000000e-01 7.92130220377948e-01 6.27022553056519e-03
5.96625000000000e-01 7.85331729292630e-01 6.25028971048464e-03
6.03075000000000e-01 7.78591586544300e-01 6.23005313093155e-03
6.09525000000000e-01 7.71909291355891e-01 6.20952685055671e-03
6.15975000000000e-01 7.65284347248276e-01 6.18872162249148e-03
6.22425000000000e-01 7.58716262003380e-01 6.16764790418959e-03
6.28875000000000e-01 7.52204547627612e-01 6.14631586685964e-03
6.35325000000000e-01 7.45748720315606e-01 6.12473540451377e-03
6.41775000000000e-01 7.39348300414276e-01 6.10291614265010e-03
6.48225000000000e-01 7.33002812387178e-01 6.08086744658604e-03
6.54675000000000e-01 7.26711784779181e-01 6.05859842946283e-03
6.61125000000000e-01 7.20474750181436e-01 6.03611795993754e-03
6.67575000000000e-01 7.14291245196653e-01 6.01343466957558e-03
6.74025000000000e-01 7.08160810404666e-01 5.99055695996021e-03
6.80475000000000e-01 7.02082990328303e-01 5.96749300953377e-03
6.86925000000000e-01 6.96057333399545e-01 5.94425078017981e-03
6.93375000000000e-01 6.90083391925972e-01 5.92083802356199e-03
6.99825000000000e-01 6.84160722057506e-01 5.89726228723030e-03
7.06275000000000e-01 6.78288883753430e-01 5.87353092050291e-03
7.12725000000000e-01 6.72467440749693e-01 5.84965108013757e-03
7.19175000000000e-01 6.66695960526502e-01 5.82562973580068e-03
7.25625000000000e-01 6.60974014276182e-01 5.80147367534126e-03
7.32075000000000e-01 6.55301176871318e-01 5.77718950988127e-03
7.38525000000000e-01 6.49677026833168e-01 5.75278367872926e-03
7.44975000000000e-01 6.44101146300351e-01 5.72826245412414e-03
7.51425000000000e-01 6.38573120997799e-01 5.70363194581841e-03
7.57875000000000e-01 6.33092540205974e-01 5.67889810550611e-03
7.64325000000000e-01 6.27658996730360e-01 5.65406673110223e-03
7.70775000000000e-01 6.22272086871202e-01 5.62914347088079e-03
7.77225000000000e-01 6.16931410393517e-01 5.60413382747640e-03
7.83675000000000e-01 6.11636570497355e-01 5.57904316175528e-03
7.90125000000000e-01 6.06387173788318e-01 5.55387669656164e-03
7.96575000000000e-01 6.01182830248333e-01 5.52863952034360e-03
8.03025000000000e-01 5.96023153206673e-01 5.50333659066403e-03
8.09475000000000e-01 5.90907759311228e-01 5.47797273760048e-03
8.15925000000000e-01 5.85836268500026e-01 5.45255266703926e-03
8.22375000000000e-01 5.80808303972990e-01 5.42708096386659e-03
8.28825000000000e-01 5.75823492163948e-01 5.40156209506213e-03
8.35275000000000e-01 5.70881462712874e-01 5.37600041269816e-03
8.41725000000000e-01 5.65981848438375e-01 5.35040015684715e-03
8.48175000000000e-01 5.61124285310403e-01 5.32476545840279e-03
8.54625000000000e-01 5.56308412423218e-01 5.29910034181608e-03
8.61075000000000e-01 5.51533871968567e-01 5.27340872775118e-03
8.67525000000000e-01 5.46800309209100e-01 5.24769443566173e-03
8.73975000000000e-01 5.42107372452018e-01 5.22196118629367e-03
8.80425000000000e-01 5.37454713022939e-01 5.19621260411530e-03
8.86875000000000e-01 5.32841985239993e-01 5.17045221967605e-03
8.93325000000000e-01 5.28268846388140e-01 5.14468347189868e-03
8.99775000000000e-01 5.23734956693707e-01 5.11890971030713e-03
9.06225000000000e-01 5.19239979299140e-01 5.09313419719020e-03
9.12675000000000e-01 5.14783580237983e-01 5.06736010970553e-03
9.19125000000000e-01 5.10365428410059e-01 5.04159054192571e-03
9.25575000000000e-01 5.05985195556874e-01 5.01582850682663e-03
9.32025000000000e-01 5.01642556237224e-01 4.99007693822084e-03
9.38475000000000e-01 4.97337187803018e-01 4.96433869263939e-03
9.44925000000000e-01 4.93068770375309e-01 4.93861655116329e-03
9.51375000000000e-01 4.88836986820522e-01 4.91291322120382e-03
9.57825000000000e-01 4.84641522726893e-01 4.88723133823592e-03
9.64275000000000e-01 4.80482066381115e-01 4.86157346748613e-03
9.70725000000000e-01 4.76358308745169e-01 4.83594210557482e-03
9.77175000000000e-01 4.72269943433369e-01 4.81033968211566e-03
9.83625000000000e-01 4.68216666689598e-01 4.78476856127384e-03
9.90075000000000e-01 4.64198177364739e-01 4.75923104328301e-03
9.96525000000000e-01 4.60214176894299e-01 4.73372936592341e-03
1.00297500000000e+00 4.56264369276228e-01 4.70826570596200e-03
1.00942500000000e+00 4.52348461048925e-01 4.68284218055571e-03
1.01587500000000e+00 4.48466161269438e-01 4.65746084861892e-03
1.02232500000000e+00 4.44617181491842e-01 4.63212371215647e-03
1.02877500000000e+00 4.40801235745813e-01 4.60683271756314e-03
1.03522500000000e+00 4.37018040515381e-01 4.58158975689090e-03
1.04167500000000e+00 4.33267314717860e-01 4.55639666908411e-03
1.04812500000000e+00 4.29548779682971e-01 4.53125524118444e-03
1.05457500000000e+00 4.25862159132134e-01 4.50616720950599e-03
1.06102500000000e+00 4.22207179157941e-01 4.48113426078168e-03
1.06747500000000e+00 4.18583568203807e-01 4.45615803328204e-03
1.07392500000000e+00 4.14991057043790e-01 4.43124011790601e-03
1.08037500000000e+00 4.11429378762594e-01 4.40638205924576e-03
1.08682500000000e+00 4.07898268735734e-01 4.38158535662603e-03
1.09327500000000e+00 4.04397464609875e-01 4.35685146511861e-03
1.09972500000000e+00 4.00926706283341e-01 4.33218179653259e-03
1.10617500000000e+00 3.97485735886791e-01 4.30757772038077e-03
1.11262500000000e+00 3.94074297764057e-01 4.28304056482357e-03
1.11907500000000e+00 3.90692138453150e-01 4.25857161759089e-03
1.12552500000000e+00 3.87339006667431e-01 4.23417212688188e-03
1.13197500000000e+00 3.84014653276940e-01 4.20984330224445e-03
1.13842500000000e+00 3.80718831289882e-01 4.18558631543334e-03
1.14487500000000e+00 3.77451295834282e-01 4.16140230124883e-03
1.15132500000000e+00 3.74211804139789e-01 4.13729235835684e-03
1.15777500000000e+00 3.71000115519639e-01 4.11325755008917e-03
1.16422500000000e+00 3.67815991352771e-01 4.08929890522561e-03
1.17067500000000e+00 3.64659195066100e-01 4.06541741875877e-03
1.17712500000000e+00 3.61529492116939e-01 4.04161405264093e-03
1.18357500000000e+00 3.58426649975575e-01 4.01788973651445e-03
1.19002500000000e+00 3.55350438107990e-01 3.99424536842565e-03
1.19647500000000e+00 3.52300627958734e-01 3.97068181552232e-03
1.20292500000000e+00 3.49276992933944e-01 3.94719991473597e-03
1.20937500000000e+00 3.46279308384508e-01 3.92380047344924e-03
1.21582500000000e+00 3.43307351589375e-01 3.90048427014718e-03
1.22227500000000e+00 3.40360901739007e-01 3.87725205505541e-03
1.22872500000000e+00 3.37439739918973e-01 3.85410455076391e-03
1.23517500000000e+00 3.34543649093683e-01 3.83104245283636e-03
1.24162500000000e+00 3.31672414090266e-01 3.80806643040727e-03
1.24807500000000e+00 3.28825821582581e-01 3.78517712676520e-03
1.25452500000000e+00 3.26003660075367e-01 3.76237515992317e-03
1.26097500000000e+00 3.23205719888530e-01 3.73966112317744e-03
1.26742500000000e+00 3.20431793141564e-01 3.71703558565380e-03
1.27387500000000e+00 3.17681673738108e-01 3.69449909284168e-03
1.28032500000000e+00 3.14955157350629e-01 3.67205216711700e-03
1.28677500000000e+00 3.12252041405246e-01 3.64969530825446e-03
1.29322500000000e+00 3.09572125066676e-01 3.62742899392793e-03
1.29967500000000e+00 3.06915209223313e-01 3.60525368020011e-03
1.30612500000000e+00 3.04281096472435e-01 3.58316980200263e-03
1.31257500000000e+00 3.01669591105538e-01 3.56117777360533e-03
1.31902500000000e+00 2.99080499093792e-01 3.53927798907537e-03
1.32547500000000e+00 2.96513628073631e-01 3.51747082272727e-03
1.33192500000000e+00 2.93968787332456e-01 3.49575662956317e-03
1.33837500000000e+00 2.91445787794466e-01 3.47413574570325e-03
1.34482500000000e+00 2.88944442006611e-01 3.45260848880838e-03
1.35127500000000e+00 2.86464564124668e-01 3.43117515849273e-03
1.35772500000000e+00 2.84005969899425e-01 3.40983603672808e-03
1.36417500000000e+00 2.81568476663001e-01 3.38859138824007e-03
1.37062500000000e+00 2.79151903315267e-01 3.36744146089587e-03
1.37707500000000e+00 2.76756070310394e-01 3.34638648608372e-03
1.38352500000000e+00 2.74380799643514e-01 3.32542667908462e-03
1.38997500000000e+00 2.72025914837492e-01 3.30456223943673e-03
1.39642500000000e+00 2.69691240929815e-01 3.28379335129180e-03
1.40287500000000e+00 2.67376604459596e-01 3.26312018376442e-03
1.40932500000000e+00 2.65081833454679e-01 3.24254289127405e-03
1.41577500000000e+00 2.62806757418871e-01 3.22206161387988e-03
1.42222500000000e+00 2.60551207319266e-01 3.20167647760912e-03
1.42867500000000e+00 2.58315015573691e-01 3.18138759477851e-03
1.43512500000000e+00 2.56098016038257e-01 3.16119506430882e-03
1.44157500000000e+00 2.53900043995007e-01 3.14109897203349e-03
1.44802500000000e+00 2.51720936139687e-01 3.12109939100065e-03
1.45447500000000e+00 2.49560530569606e-01 3.10119638176916e-03
1.46092500000000e+00 2.47418666771612e-01 3.08138999269876e-03
1.46737500000000e+00 2.45295185610161e-01 3.06168026023377e-03
1.47382500000000e+00 2.43189929315499e-01 3.04206720918147e-03
1.48027500000000e+00 2.41102741471937e-01 3.02255085298503e-03
1.48672500000000e+00 2.39033467006231e-01 3.00313119399062e-03
1.49317500000000e+00 2.36981952176056e-01 2.98380822370915e-03
1.49962500000000e+00 2.34948044558592e-01 2.96458192307255e-03
1.50607500000000e+00 2.32931593039191e-01 2.94545226268524e-03
1.51252500000000e+00 2.30932447800154e-01 2.92641920307040e-03
1.51897500000000e+00 2.28950460309599e-01 2.90748269491134e-03
1.52542500000000e+00 2.26985483310424e-01 2.88864267928816e-03
1.53187500000000e+00 2.25037370809368e-01 2.86989908790902e-03
1.53832500000000e+00 2.23105978066164e-01 2.85125184333750e-03
1.54477500000000e+00 2.21191161582783e-01 2.83270085921515e-03
1.55122500000000e+00 2.19292779092775e-01 2.81424604047928e-03
1.55767500000000e+00 2.17410689550698e-01 2.79588728357702e-03
1.56412500000000e+00 2.15544753121637e-01 2.77762447667473e-03
1.57057500000000e+00 2.13694831170818e-01 2.75945749986316e-03
1.57702500000000e+00 2.11860786253304e-01 2.74138622535846e-03
1.58347500000000e+00 2.10042482103786e-01 2.72341051769954e-03
1.58992500000000e+00 2.08239783626459e-01 2.70553023394143e-03
1.59637500000000e+00 2.06452556884980e-01 2.68774522384425e-03
1.60282500000000e+00 2.04680669092523e-01 2.67005533005903e-03
1.60927500000000e+00 2.02923988601911e-01 2.65246038830974e-03
1.61572500000000e+00 2.01182384895832e-01 2.63496022757129e-03
1.62217500000000e+00 1.99455728577147e-01 2.61755467024451e-03
1.62862500000000e+00 1.97743891359271e-01 2.60024353232736e-03
1.63507500000000e+00 1.96046746056645e-01 2.58302662358260e-03
1.64152500000000e+00 1.94364166575287e-01 2.56590374770253e-03
1.64797500000000e+00 1.92696027903420e-01 2.54887470247016e-03
1.65442500000000e+00 1.91042206102186e-01 2.53193927991703e-03
1.66087500000000e+00 1.89402578296437e-01 2.51509726647845e-03
1.66732500000000e+00 1.87777022665609e-01 2.49834844314536e-03
1.67377500000000e+00 1.86165418434665e-01 2.48169258561271e-03
1.68022500000000e+00 1.84567645865127e-01 2.46512946442559e-03
1.68667500000000e+00 1.82983586246175e-01 2.44865884512224e-03
1.69312500000000e+00 1.81413121885832e-01 2.43228048837404e-03
1.69957500000000e+00 1.79856136102217e-01 2.41599415012281e-03
1.70602500000000e+00 1.78312513214875e-01 2.39979958171524e-03
1.71247500000000e+00 1.76782138536185e-01 2.38369653003510e-03
1.71892500000000e+00 1.75264898362835e-01 2.36768473763268e-03
1.72537500000000e+00 1.73760679967380e-01 2.35176394285083e-03
1.73182500000000e+00 1.72269371589859e-01 2.33593387994947e-03
1.73827500000000e+00 1.70790862429499e-01 2.32019427922761e-03
1.74472500000000e+00 1.69325042636478e-01 2.30454486714231e-03
1.75117500000000e+00 1.67871803303763e-01 2.28898536642548e-03
1.75762500000000e+00 1.66431036459024e-01 2.27351549619869e-03
1.76407500000000e+00 1.65002635056604e-01 2.25813497208548e-03
1.77052500000000e+00 1.63586492969574e-01 2.24284350632107e-03
1.77697500000000e+00 1.62182504981840e-01 2.22764080786038e-03
1.78342500000000e+00 1.60790566780332e-01 2.21252658248387e-03
1.78987500000000e+00 1.59410574947250e-01 2.19750053290071e-03
1.79632500000000e+00 1.58042426952382e-01 2.18256235885039e-03
1.80277500000000e+00 1.56686021145487e-01 2.16771175720241e-03
1.80922500000000e+00 1.55341256748741e-01 2.15294842205353e-03
1.81567500000000e+00 1.54008033849248e-01 2.13827204482319e-03
1.82212500000000e+00 1.52686253391621e-01 2.12368231434710e-03
1.82857500000000e+00 1.51375817170620e-01 2.10917891696893e-03
1.83502500000000e+00 1.50076627823853e-01 2.09476153663007e-03
1.84147500000000e+00 1.48788588824548e-01 2.08042985495763e-03
1.84792500000000e+00 1.47511604474377e-01 2.06618355135066e-03
1.85437500000000e+00 1.46245579896345e-01 2.05202230306481e-03
1.86082500000000e+00 1.44990421027747e-01 2.03794578529487e-03
1.86727500000000e+00 1.43746034613171e-01 2.02395367125588e-03
1.87372500000000e+00 1.42512328197575e-01 2.01004563226253e-03
1.88017500000000e+00 1.41289210119418e-01 1.99622133780695e-03
1.88662500000000e+00 1.40076589503846e-01 1.98248045563508e-03
1.89307500000000e+00 1.38874376255942e-01 1.96882265182120e-03
1.89952500000000e+00 1.37682481054034e-01 1.95524759084095e-03
1.90597500000000e+00 1.36500815343056e-01 1.94175493564306e-03
1.91242500000000e+00 1.35329291327970e-01 1.92834434771943e-03
1.91887500000000e+00 1.34167821967242e-01 1.91501548717403e-03
1.92532500000000e+00 1.33016320966377e-01 1.90176801279008e-03
1.93177500000000e+00 1.31874702771505e-01 1.88860158209571e-03
1.93822500000000e+00 1.30742882563026e-01 1.87551585142866e-03
1.94467500000000e+00 1.29620776249308e-01 1.86251047599959e-03
1.95112500000000e+00 1.28508300460438e-01 1.84958510995388e-03
1.95757500000000e+00 1.27405372542031e-01 1.83673940643199e-03
1.96402500000000e+00 1.26311910549083e-01 1.82397301762893e-03
1.97047500000000e+00 1.25227833239891e-01 1.81128559485230e-03
1.97692500000000e+00 1.24153060070009e-01 1.79867678857916e-03
1.98337500000000e+00 1.23087511186269e-01 1.78614624851172e-03
1.98982500000000e+00 1.22031107420845e-01 1.77369362363172e-03
1.99627500000000e+00 1.20983770285373e-01 1.76131856225368e-03
2.00272500000000e+00 1.19945421965118e-01 1.74902071207718e-03
2.00917500000000e+00 1.18915985313193e-01 1.73679972023792e-03
2.01562500000000e+00 1.17895383844829e-01 1.72465523335765e-03
2.02207500000000e+00 1.16883541731690e-01 1.71258689759309e-03
2.02852500000000e+00 1.15880383796238e-01 1.70059435868387e-03
2.03497500000000e+00 1.14885835506153e-01 1.68867726199921e-03
