Energy (eV)          EEDF (eV^-(3/2))     First Anisotropy
4.28947368421053e-04 3.88184888573099e+01 2.01453694749228e-02
1.28684210526316e-03 3.84667490294327e+01 3.32267198823562e-02
2.14473684210526e-03 3.81181963664581e+01 4.37598102111619e-02
3.00263157894737e-03 3.77728019881960e+01 5.16993343374922e-02
3.86052631578947e-03 3.74305372770602e+01 5.82694356449773e-02
4.71842105263158e-03 3.70913738754127e+01 6.39344493215484e-02
5.57631578947368e-03 3.67552836812390e+01 6.89354099891517e-02
6.43421052631579e-03 3.64222388477972e+01 7.34183087162584e-02
7.29210526315789e-03 3.60922117810262e+01 7.74802562354555e-02
8.15000000000000e-03 3.57651751361634e+01 8.11900897811718e-02
9.00789473684211e-03 3.54411018165869e+01 8.45989144621929e-02
9.86578947368421e-03 3.51199649711990e+01 8.77460331409171e-02
1.07236842105263e-02 3.48017379932800e+01 9.06625259607070e-02
1.15815789473684e-02 3.44863945137562e+01 9.33735317458059e-02
1.24394736842105e-02 3.41739084069202e+01 9.58997675930949e-02
1.32973684210526e-02 3.38642537798260e+01 9.82585774203115e-02
1.41552631578947e-02 3.35574049778720e+01 1.00464677482258e-01
1.50131578947368e-02 3.32533365769485e+01 1.02530700488996e-01
1.58710526315789e-02 3.29520233819680e+01 1.04467600452109e-01
1.67289473684211e-02 3.26534404290827e+01 1.06284960891047e-01
1.75868421052632e-02 3.23575629790827e+01 1.07991232909646e-01
1.84447368421053e-02 3.20643665158171e+01 1.09593921241492e-01
1.93026315789474e-02 3.17738267476827e+01 1.11099732618636e-01
2.01605263157895e-02 3.14859196019248e+01 1.12514695030528e-01
2.10184210526316e-02 3.12006212229618e+01 1.13844254075748e-01
2.18763157894737e-02 3.09179079733928e+01 1.15093352590908e-01
2.27342105263158e-02 3.06377564280482e+01 1.16266496279217e-01
2.35921052631579e-02 3.03601433758975e+01 1.17367808463224e-01
2.44500000000000e-02 3.00850458152491e+01 1.18401076394431e-01
2.53078947368421e-02 2.98124409520656e+01 1.19369789914934e-01
2.61657894736842e-02 2.95423062004689e+01 1.20277174863775e-01
2.70236842105263e-02 2.92746191783921e+01 1.21126221702300e-01
2.78815789473684e-02 2.90093577059019e+01 1.21919709735252e-01
2.87394736842105e-02 2.87464998054533e+01 1.22660228570041e-01
2.95973684210526e-02 2.84860236972693e+01 1.23350196562617e-01
3.04552631578947e-02 2.82279078002546e+01 1.23991876933613e-01
3.13131578947368e-02 2.79721307281765e+01 1.24587392152230e-01
3.21710526315789e-02 2.77186712880189e+01 1.25138736166448e-01
3.30289473684211e-02 2.74675084799784e+01 1.25647785617197e-01
3.38868421052632e-02 2.72186214939235e+01 1.26116309794497e-01
3.47447368421053e-02 2.69719897077810e+01 1.26545979133776e-01
3.56026315789474e-02 2.67275926873894e+01 1.26938373176228e-01
3.64605263157895e-02 2.64854101832026e+01 1.27294987703944e-01
3.73184210526316e-02 2.62454221287000e+01 1.27617240805546e-01
3.81763157894737e-02 2.60076086401332e+01 1.27906478723401e-01
3.90342105263158e-02 2.57719500129994e+01 1.28163980958348e-01
3.98921052631579e-02 2.55384267222429e+01 1.28390964886337e-01
4.07500000000000e-02 2.53070194192639e+01 1.28588590138522e-01
4.16078947368421e-02 2.50777089303877e+01 1.28757962231923e-01
4.24657894736842e-02 2.48504762564919e+01 1.28900136195771e-01
4.33236842105263e-02 2.46253025701883e+01 1.29016119886062e-01
4.41815789473684e-02 2.44021692143254e+01 1.29106876721444e-01
4.50394736842105e-02 2.41810577015505e+01 1.29173328520900e-01
4.58973684210526e-02 2.39619497112995e+01 1.29216357957359e-01
4.67552631578947e-02 2.37448270897250e+01 1.29236810809607e-01
4.76131578947368e-02 2.35296718471108e+01 1.29235498202210e-01
4.84710526315789e-02 2.33164661564302e+01 1.29213198366746e-01
4.93289473684210e-02 2.31051923528421e+01 1.29170658544127e-01
5.01868421052632e-02 2.28958329312346e+01 1.29108596747583e-01
5.10447368421053e-02 2.26883705448212e+01 1.29027703138366e-01
5.19026315789474e-02 2.24827880045956e+01 1.28928641561834e-01
5.27605263157895e-02 2.22790682769980e+01 1.28812050976997e-01
5.36184210526316e-02 2.20771944825420e+01 1.28678546542185e-01
5.44763157894737e-02 2.18771498952408e+01 1.28528720897183e-01
5.53342105263158e-02 2.16789179401231e+01 1.28363145233646e-01
5.61921052631579e-02 2.14824821929360e+01 1.28182370289467e-01
5.70500000000000e-02 2.12878263779786e+01 1.27986927414247e-01
5.79078947368421e-02 2.10949343667866e+01 1.27777329313014e-01
5.87657894736842e-02 2.09037901775289e+01 1.27554070969796e-01
5.96236842105263e-02 2.07143779729375e+01 1.27317630515173e-01
6.04815789473684e-02 2.05266820590257e+01 1.27068469825335e-01
6.13394736842105e-02 2.03406868844673e+01 1.26807035322717e-01
6.21973684210526e-02 2.01563770384019e+01 1.26533758618056e-01
6.30552631578947e-02 1.99737372500475e+01 1.26249057109651e-01
6.39131578947368e-02 1.97927523867701e+01 1.25953334667551e-01
6.47710526315790e-02 1.96134074528542e+01 1.25646982054827e-01
6.56289473684211e-02 1.94356875888711e+01 1.25330377524887e-01
6.64868421052631e-02 1.92595780698272e+01 1.25003887386619e-01
6.73447368421053e-02 1.90850643039683e+01 1.24667866347976e-01
6.82026315789474e-02 1.89121318321382e+01 1.24322658030986e-01
6.90605263157895e-02 1.87407663260039e+01 1.23968595460146e-01
6.99184210526316e-02 1.85709535868888e+01 1.23606001343469e-01
7.07763157894737e-02 1.84026795451282e+01 1.23235188538689e-01
7.16342105263158e-02 1.82359302581949e+01 1.22856460401948e-01
7.24921052631579e-02 1.80706919102406e+01 1.22470111113927e-01
7.33500000000000e-02 1.79069508104296e+01 1.22076426090266e-01
7.42078947368421e-02 1.77446933918233e+01 1.21675682182304e-01
7.50657894736842e-02 1.75839062107362e+01 1.21268148036569e-01
7.59236842105263e-02 1.74245759451346e+01 1.20854084437497e-01
7.67815789473684e-02 1.72666893935500e+01 1.20433744472053e-01
7.76394736842105e-02 1.71102334744352e+01 1.20007373864212e-01
7.84973684210526e-02 1.69551952244805e+01 1.19575211210320e-01
7.93552631578947e-02 1.68015617981298e+01 1.19137488198994e-01
8.02131578947368e-02 1.66493204660747e+01 1.18694429910613e-01
8.10710526315789e-02 1.64984586142145e+01 1.18246254934342e-01
8.19289473684210e-02 1.63489637430200e+01 1.17793175630048e-01
8.27868421052632e-02 1.62008234660831e+01 1.17335398379067e-01
8.36447368421053e-02 1.60540255091045e+01 1.16873123679516e-01
8.45026315789474e-02 1.59085577092608e+01 1.16406546380967e-01
8.53605263157895e-02 1.57644080138078e+01 1.15935855909411e-01
8.62184210526316e-02 1.56215644790932e+01 1.15461236344493e-01
8.70763157894737e-02 1.54800152699301e+01 1.14982866645053e-01
8.79342105263158e-02 1.53397486581339e+01 1.14500920793854e-01
8.87921052631579e-02 1.52007530220248e+01 1.14015567932263e-01
8.96500000000000e-02 1.50630168451099e+01 1.13526972565940e-01
9.05078947368421e-02 1.49265287151404e+01 1.13035294617565e-01
9.13657894736842e-02 1.47912773234961e+01 1.12540689605887e-01
9.22236842105263e-02 1.46572514639140e+01 1.12043308817930e-01
9.30815789473684e-02 1.45244400315698e+01 1.11543299350511e-01
9.39394736842105e-02 1.43928320224703e+01 1.11040804285943e-01
9.47973684210526e-02 1.42624165321253e+01 1.10535962796858e-01
9.56552631578947e-02 1.41331827550544e+01 1.10028910243202e-01
9.65131578947368e-02 1.40051199835844e+01 1.09519778334243e-01
9.73710526315789e-02 1.38782176069718e+01 1.09008695154551e-01
9.82289473684211e-02 1.37524651108098e+01 1.08495785304257e-01
9.90868421052632e-02 1.36278520758670e+01 1.07981170034335e-01
9.99447368421053e-02 1.35043681772333e+01 1.07464967242066e-01
1.00802631578947e-01 1.33820031839096e+01 1.06947291705360e-01
1.01660526315789e-01 1.32607469568985e+01 1.06428255077470e-01
1.02518421052632e-01 1.31405894495169e+01 1.05907965771916e-01
1.03376315789474e-01 1.30215207069548e+01 1.05386529547245e-01
1.04234210526316e-01 1.29035308629194e+01 1.04864049296476e-01
1.05092105263158e-01 1.27866101413645e+01 1.04340624886517e-01
1.05950000000000e-01 1.26707488548258e+01 1.03816353480942e-01
1.06807894736842e-01 1.25559374044006e+01 1.03291329818203e-01
1.07665789473684e-01 1.24421662765901e+01 1.02765646064997e-01
1.08523684210526e-01 1.23294260448892e+01 1.02239391658251e-01
1.09381578947368e-01 1.22177073682080e+01 1.01712653606493e-01
1.10239473684211e-01 1.21070009908283e+01 1.01185516749237e-01
1.11097368421053e-01 1.19972977394289e+01 1.00658063612909e-01
1.11955263157895e-01 1.18885885245479e+01 1.00130374256098e-01
1.12813157894737e-01 1.17808643390853e+01 9.96025265515655e-02
1.13671052631579e-01 1.16741162582389e+01 9.90745964285854e-02
1.14528947368421e-01 1.15683354367002e+01 9.85466577320198e-02
1.15386842105263e-01 1.14635131099993e+01 9.80187819781784e-02
1.16244736842105e-01 1.13596405937327e+01 9.74910389930494e-02
1.17102631578947e-01 1.12567092808820e+01 9.69634966726248e-02
1.17960526315789e-01 1.11547106430749e+01 9.64362208359652e-02
1.18818421052632e-01 1.10536362292147e+01 9.59092754762233e-02
1.19676315789474e-01 1.09534776653897e+01 9.53827229759040e-02
1.20534210526316e-01 1.08542266523429e+01 9.48566239733738e-02
1.21392105263158e-01 1.07558749666324e+01 9.43310372201058e-02
1.22250000000000e-01 1.06584144593298e+01 9.38060198166931e-02
1.23107894736842e-01 1.05618370559157e+01 9.32816274150115e-02
1.23965789473684e-01 1.04661347538883e+01 9.27579140885966e-02
1.24823684210526e-01 1.03712996238337e+01 9.22349321942554e-02
1.25681578947368e-01 1.02773238081880e+01 9.17127325942658e-02
1.26539473684211e-01 1.01841995211203e+01 9.11913648465260e-02
1.27397368421053e-01 1.00919190462726e+01 9.06708770789237e-02
1.28255263157895e-01 1.00004747377460e+01 9.01513158554137e-02
1.29113157894737e-01 9.90985901892301e+00 8.96327263854731e-02
1.29971052631579e-01 9.82006438234106e+00 8.91151527031777e-02
1.30828947368421e-01 9.73108338755317e+00 8.85986375456587e-02
1.31686842105263e-01 9.64290866203857e+00 8.80832221503249e-02
1.32544736842105e-01 9.55553290055902e+00 8.75689467468662e-02
1.33402631578947e-01 9.46894886310798e+00 8.70558503589486e-02
1.34260526315789e-01 9.38314937576546e+00 8.65439706788574e-02
1.35118421052632e-01 9.29812732961460e+00 8.60333442561369e-02
1.35976315789474e-01 9.21387568060368e+00 8.55240066585850e-02
1.36834210526316e-01 9.13038744760351e+00 8.50159923586188e-02
1.37692105263158e-01 9.04765571319658e+00 8.45093346123305e-02
1.38550000000000e-01 8.96567362264483e+00 8.40040656378109e-02
1.39407894736842e-01 8.88443438374530e+00 8.35002167672592e-02
1.40265789473684e-01 8.80393126498908e+00 8.29978183373531e-02
1.41123684210526e-01 8.72415759628995e+00 8.24968995726576e-02
1.41981578947368e-01 8.64510676800049e+00 8.19974887543675e-02
1.42839473684211e-01 8.56677223076256e+00 8.14996133641254e-02
1.43697368421053e-01 8.48914749376146e+00 8.10032999783495e-02
1.44555263157895e-01 8.41222612539906e+00 8.05085741559380e-02
1.45413157894737e-01 8.33600175235531e+00 8.00154605980472e-02
1.46271052631579e-01 8.26046805943479e+00 7.95239832842026e-02
1.47128947368421e-01 8.18561878791028e+00 7.90341653705032e-02
1.47986842105263e-01 8.11144773614457e+00 7.85460290233317e-02
1.48844736842105e-01 8.03794875905304e+00 7.80595958042834e-02
1.49702631578947e-01 7.96511576651226e+00 7.75748865078757e-02
1.50560526315789e-01 7.89294272394447e+00 7.70919210570229e-02
1.51418421052632e-01 7.82142365145152e+00 7.66107186480076e-02
1.52276315789474e-01 7.75055262365797e+00 7.61312978738055e-02
1.53134210526316e-01 7.68032376819995e+00 7.56536766293884e-02
1.53992105263158e-01 7.61073126626522e+00 7.51778720111739e-02
1.54850000000000e-01 7.54176935176643e+00 7.47039004545670e-02
1.55707894736842e-01 7.47343231118224e+00 7.42317778509032e-02
1.56565789473684e-01 7.40571448212176e+00 7.37615194563447e-02
1.57423684210526e-01 7.33861025382363e+00 7.32931397952010e-02
1.58281578947368e-01 7.27211406636650e+00 7.28266527904936e-02
1.59139473684211e-01 7.20622041050886e+00 7.23620718749008e-02
1.59997368421053e-01 7.14092382632468e+00 7.18994099031632e-02
1.60855263157895e-01 7.07621890366467e+00 7.14386790591466e-02
1.61713157894737e-01 7.01210028140203e+00 7.09798909798458e-02
1.62571052631579e-01 6.94856264727156e+00 7.05230568607199e-02
1.63428947368421e-01 6.88560073657249e+00 7.00681873714744e-02
1.64286842105263e-01 6.82320933259475e+00 6.96152925203031e-02
1.65144736842105e-01 6.76138326616940e+00 6.91643819581082e-02
1.66002631578947e-01 6.70011741442027e+00 6.87154648461848e-02
1.66860526315789e-01 6.63940670116471e+00 6.82685497699108e-02
1.67718421052632e-01 6.57924609621571e+00 6.78236448518082e-02
1.68576315789474e-01 6.51963061522218e+00 6.73807578474943e-02
1.69434210526316e-01 6.46055531848124e+00 6.69398960674925e-02
1.70292105263158e-01 6.40201531130850e+00 6.65010662943235e-02
1.71150000000000e-01 6.34400574337090e+00 6.60642748900315e-02
1.72007894736842e-01 6.28652180852745e+00 6.56295278873879e-02
1.72865789473684e-01 6.22955874369880e+00 6.51968309147874e-02
1.73723684210526e-01 6.17311182920942e+00 6.47661891165988e-02
1.74581578947368e-01 6.11717638814951e+00 6.43376072554659e-02
1.75439473684211e-01 6.06174778621666e+00 6.39110897990614e-02
1.76297368421053e-01 6.00682143063953e+00 6.34866408479276e-02
1.77155263157895e-01 5.95239277049404e+00 6.30642640589897e-02
1.78013157894737e-01 5.89845729609290e+00 6.26439627429226e-02
1.78871052631579e-01 5.84501053882856e+00 6.22257399466853e-02
1.79728947368421e-01 5.79204807014800e+00 6.18095983842227e-02
1.80586842105263e-01 5.73956550184490e+00 6.13955403257461e-02
1.81444736842105e-01 5.68755848568308e+00 6.09835678399636e-02
1.82302631578947e-01 5.63602271240863e+00 6.05736826862688e-02
1.83160526315789e-01 5.58495391202438e+00 6.01658862437641e-02
1.84018421052632e-01 5.53434785322399e+00 5.97601796003622e-02
1.84876315789474e-01 5.48420034323836e+00 5.93565636282457e-02
1.85734210526316e-01 5.43450722689425e+00 5.89550389195651e-02
1.86592105263158e-01 5.38526438686777e+00 5.85556057182922e-02
1.87450000000000e-01 5.33646774314255e+00 5.81582640051124e-02
1.88307894736842e-01 5.28811325285816e+00 5.77630135692896e-02
1.89165789473684e-01 5.24019690941262e+00 5.73698539469134e-02
1.90023684210526e-01 5.19271474269647e+00 5.69787843554777e-02
1.90881578947368e-01 5.14566281857403e+00 5.65898037747816e-02
1.91739473684211e-01 5.09903723873372e+00 5.62029110153892e-02
1.92597368421053e-01 5.05283413983250e+00 5.58181046593450e-02
1.93455263157895e-01 5.00704969371170e+00 5.54353829973630e-02
1.94313157894737e-01 4.96168010690031e+00 5.50547441059369e-02
1.95171052631579e-01 4.91672162046760e+00 5.46761859125951e-02
1.96028947368421e-01 4.87217050920695e+00 5.42997061389653e-02
1.96886842105263e-01 4.82802308183507e+00 5.39253022104645e-02
1.97744736842105e-01 4.78427568067642e+00 5.35529714502715e-02
1.98602631578947e-01 4.74092468087583e+00 5.31827109914181e-02
1.99460526315789e-01 4.69796649058552e+00 5.28145177185142e-02
2.00318421052632e-01 4.65539755050372e+00 5.24483883384997e-02
2.01176315789474e-01 4.61321433373212e+00 5.20843194404676e-02
2.02034210526316e-01 4.57141334502455e+00 5.17223074428549e-02
2.02892105263158e-01 4.52999112095932e+00 5.13623485374961e-02
2.03750000000000e-01 4.48894422949723e+00 5.10044387571178e-02
2.04607894736842e-01 4.44826926984143e+00 5.06485740323953e-02
2.05465789473684e-01 4.40796287172041e+00 5.02947501412499e-02
2.06323684210526e-01 4.36802169554674e+00 4.99429626551396e-02
2.07181578947368e-01 4.32844243199349e+00 4.95932070034663e-02
2.08039473684211e-01 4.28922180185672e+00 4.92454785279996e-02
2.08897368421053e-01 4.25035655537094e+00 4.88997724341922e-02
2.09755263157895e-01 4.21184347235532e+00 4.85560837396383e-02
2.10613157894737e-01 4.17367936180762e+00 4.82144073355302e-02
2.11471052631579e-01 4.13586106176941e+00 4.78747380385846e-02
2.12328947368421e-01 4.09838543867241e+00 4.75370705443145e-02
2.13186842105263e-01 4.06124938747299e+00 4.72013993532721e-02
2.14044736842105e-01 4.02444983138740e+00 4.68677189270792e-02
2.14902631578947e-01 3.98798372126070e+00 4.65360236166742e-02
2.15760526315789e-01 3.95184803569261e+00 4.62063076144662e-02
2.16618421052632e-01 3.91603978066008e+00 4.58785650108463e-02
2.17476315789474e-01 3.88055598938760e+00 4.55527898419079e-02
2.18334210526316e-01 3.84539372174436e+00 4.52289760460781e-02
2.19192105263158e-01 3.81055006435994e+00 4.49071174181915e-02
2.20050000000000e-01 3.77602213026230e+00 4.45872076634516e-02
2.20907894736842e-01 3.74180705875099e+00 4.42692404429876e-02
2.21765789473684e-01 3.70790201482106e+00 4.39532093322228e-02
2.22623684210526e-01 3.67430418926932e+00 4.36391077767818e-02
2.23481578947368e-01 3.64101079834719e+00 4.33269291440338e-02
2.24339473684211e-01 3.60801908363666e+00 4.30166667665888e-02
2.25197368421053e-01 3.57532631149975e+00 4.27083139023289e-02
2.26055263157895e-01 3.54292977317605e+00 4.24018636920846e-02
2.26913157894737e-01 3.51082678444967e+00 4.20973092088646e-02
2.27771052631579e-01 3.47901468552804e+00 4.17946434994036e-02
2.28628947368421e-01 3.44749084051571e+00 4.14938595457867e-02
2.29486842105263e-01 3.41625263750370e+00 4.11949502051426e-02
2.30344736842105e-01 3.38529748834731e+00 4.08979083356067e-02
2.31202631578947e-01 3.35462282815772e+00 4.06027267376792e-02
2.32060526315789e-01 3.32422611538529e+00 4.03093981149267e-02
2.32918421052632e-01 3.29410483150961e+00 4.00179151193253e-02
2.33776315789474e-01 3.26425648092349e+00 3.97282703895070e-02
2.34634210526316e-01 3.23467859044686e+00 3.94404565151303e-02
2.35492105263158e-01 3.20536870940290e+00 3.91544659991581e-02
2.36350000000000e-01 3.17632440932069e+00 3.88702913011936e-02
2.37207894736842e-01 3.14754328382197e+00 3.85879248740167e-02
2.38065789473684e-01 3.11902294815628e+00 3.83073591293835e-02
2.38923684210526e-01 3.09076103927048e+00 3.80285864018059e-02
2.39781578947368e-01 3.06275521552344e+00 3.77515989899731e-02
2.40639473684211e-01 3.03500315657553e+00 3.74763891916724e-02
2.41497368421053e-01 3.00750256294401e+00 3.72029492709422e-02
2.42355263157895e-01 2.98025115606649e+00 3.69312714233047e-02
2.43213157894737e-01 2.95324667802699e+00 3.66613478153637e-02
2.44071052631579e-01 2.92648689144830e+00 3.63931706181779e-02
2.44928947368421e-01 2.89996957906660e+00 3.61267319757226e-02
2.45786842105263e-01 2.87369254378926e+00 3.58620239555162e-02
2.46644736842105e-01 2.84765360850832e+00 3.55990386506315e-02
2.47502631578947e-01 2.82185061568919e+00 3.53377681316870e-02
2.48360526315789e-01 2.79628142742429e+00 3.50782044145479e-02
2.49218421052632e-01 2.77094392517784e+00 3.48203394968497e-02
2.50076315789474e-01 2.74583600968315e+00 3.45641653887634e-02
2.50934210526316e-01 2.72095560054913e+00 3.43096740837051e-02
2.51792105263158e-01 2.69630063630883e+00 3.40568575273284e-02
2.52650000000000e-01 2.67186907417455e+00 3.38057076524486e-02
2.53507894736842e-01 2.64765888993775e+00 3.35562164084584e-02
2.54365789473684e-01 2.62366807759247e+00 3.33083757332039e-02
2.55223684210526e-01 2.59989464937931e+00 3.30621775232082e-02
2.56081578947368e-01 2.57633663555025e+00 3.28176136670772e-02
2.56939473684210e-01 2.55299208427127e+00 3.25746760736298e-02
2.57797368421053e-01 2.52985906126186e+00 3.23333566448875e-02
2.58655263157895e-01 2.50693564983474e+00 3.20936472474823e-02
2.59513157894737e-01 2.48421995067007e+00 3.18555397446108e-02
2.60371052631579e-01 2.46171008172066e+00 3.16190260229406e-02
2.61228947368421e-01 2.43940417786683e+00 3.13840979666712e-02
2.62086842105263e-01 2.41730039095228e+00 3.11507474170496e-02
2.62944736842105e-01 2.39539688962746e+00 3.09189662551943e-02
2.63802631578947e-01 2.37369185901570e+00 3.06887463627466e-02
2.64660526315789e-01 2.35218350074614e+00 3.04600795952984e-02
2.65518421052632e-01 2.33087003274312e+00 3.02329578118982e-02
2.66376315789474e-01 2.30974968913609e+00 3.00073728998828e-02
2.67234210526316e-01 2.28882071993989e+00 2.97833167507751e-02
2.68092105263158e-01 2.26808139108420e+00 2.95607812347683e-02
2.68950000000000e-01 2.24752998421135e+00 2.93397582289588e-02
2.69807894736842e-01 2.22716479658862e+00 2.91202396411015e-02
2.70665789473684e-01 2.20698414080211e+00 2.89022173864608e-02
