Energy (eV)          EEDF (eV^-(3/2))     First Anisotropy
1.68518518518519e-02 9.31662776952014e-02 4.75546264879278e-05
5.05555555555555e-02 9.25715025057511e-02 7.85395831148500e-05
8.42592592592593e-02 9.19805243720309e-02 1.03716597386098e-04
1.17962962962963e-01 9.13933190538502e-02 1.22865369622821e-04
1.51666666666667e-01 9.08098624634872e-02 1.38853573756867e-04
1.85370370370370e-01 9.02301306695275e-02 1.52764656568018e-04
2.19074074074074e-01 8.96540998962525e-02 1.65158918777416e-04
2.52777777777778e-01 8.90817465130200e-02 1.76374482965197e-04
2.86481481481481e-01 8.85130470434073e-02 1.86635448811741e-04
3.20185185185185e-01 8.79479781628441e-02 1.96100101286745e-04
3.53888888888889e-01 8.73865166916473e-02 2.04885534124476e-04
3.87592592592593e-01 8.68286396000899e-02 2.13081481266087e-04
4.21296296296296e-01 8.62743240068843e-02 2.20758654988660e-04
4.55000000000000e-01 8.57235471739824e-02 2.27974052712554e-04
4.88703703703704e-01 8.51762865099141e-02 2.34774485832762e-04
5.22407407407407e-01 8.46325195674300e-02 2.41199012153125e-04
5.56111111111111e-01 8.40922240436132e-02 2.47280663065947e-04
5.89814814814815e-01 8.35553777758370e-02 2.53047701062900e-04
6.23518518518518e-01 8.30219587440036e-02 2.58524555594144e-04
6.57222222222222e-01 8.24919450694405e-02 2.63732533933928e-04
6.90925925925926e-01 8.19653150114526e-02 2.68690368687145e-04
7.24629629629630e-01 8.14420469689837e-02 2.73414646333782e-04
7.58333333333333e-01 8.09221194795837e-02 2.77920147975662e-04
7.92037037037037e-01 8.04055112164034e-02 2.82220122074642e-04
8.25740740740741e-01 7.98922009894578e-02 2.86326505753427e-04
8.59444444444444e-01 7.93821677440350e-02 2.90250106421894e-04
8.93148148148148e-01 7.88753905604236e-02 2.94000751871618e-04
9.26851851851852e-01 7.83718486512839e-02 2.97587415028777e-04
9.60555555555555e-01 7.78715213625706e-02 3.01018318555430e-04
9.94259259259259e-01 7.73743881726099e-02 3.04301023874400e-04
1.02796296296296e+00 7.68804286901825e-02 3.07442506235776e-04
1.06166666666667e+00 7.63896226556227e-02 3.10449220170768e-04
1.09537037037037e+00 7.59019499327264e-02 3.13327152920273e-04
1.12907407407407e+00 7.54173905228663e-02 3.16081874074634e-04
1.16277777777778e+00 7.49359245463013e-02 3.18718576826212e-04
1.19648148148148e+00 7.44575322587570e-02 3.21242113584118e-04
1.23018518518519e+00 7.39821940375848e-02 3.23657030586468e-04
1.26388888888889e+00 7.35098903817436e-02 3.25967591902322e-04
1.29759259259259e+00 7.30406019223194e-02 3.28177806257272e-04
1.33129629629630e+00 7.25743094101143e-02 3.30291450856517e-04
1.36500000000000e+00 7.21109937154992e-02 3.32312087133363e-04
1.39870370370370e+00 7.16506358378394e-02 3.34243080660805e-04
1.43240740740741e+00 7.11932168910824e-02 3.36087616180913e-04
1.46611111111111e+00 7.07387181163082e-02 3.37848710950885e-04
1.49981481481481e+00 7.02871208709848e-02 3.39529229683764e-04
1.53351851851852e+00 6.98384066287069e-02 3.41131892435831e-04
1.56722222222222e+00 6.93925569873049e-02 3.42659286635771e-04
1.60092592592593e+00 6.89495536590250e-02 3.44113878018239e-04
1.63462962962963e+00 6.85093784702230e-02 3.45498015815387e-04
1.66833333333333e+00 6.80720133687200e-02 3.46813942620931e-04
1.70203703703704e+00 6.76374404122419e-02 3.48063800933496e-04
1.73574074074074e+00 6.72056417782879e-02 3.49249639023874e-04
1.76944444444444e+00 6.67765997554654e-02 3.50373418877943e-04
1.80314814814815e+00 6.63502967431078e-02 3.51437018570765e-04
1.83685185185185e+00 6.59267152577227e-02 3.52442238764808e-04
1.87055555555556e+00 6.55058379249664e-02 3.53390808711709e-04
1.90425925925926e+00 6.50876474792566e-02 3.54284387599528e-04
1.93796296296296e+00 6.46721267696716e-02 3.55124569903121e-04
1.97166666666667e+00 6.42592587525157e-02 3.55912890348535e-04
2.00537037037037e+00 6.38490264908893e-02 3.56650824526054e-04
2.03907407407407e+00 6.34414131601306e-02 3.57339793790486e-04
2.07277777777778e+00 6.30364020389473e-02 3.57981167736411e-04
2.10648148148148e+00 6.26339765167659e-02 3.58576266410952e-04
2.14018518518519e+00 6.22341200870286e-02 3.59126364536341e-04
2.17388888888889e+00 6.18368163467530e-02 3.59632691288924e-04
2.20759259259259e+00 6.14420490013655e-02 3.60096433760791e-04
2.24129629629630e+00 6.10498018584347e-02 3.60518740204616e-04
2.27500000000000e+00 6.06600588272160e-02 3.60900719504216e-04
2.30870370370370e+00 6.02728039231320e-02 3.61243444562824e-04
2.34240740740741e+00 5.98880212602624e-02 3.61547953611913e-04
2.37611111111111e+00 5.95056950574365e-02 3.61815251362597e-04
2.40981481481481e+00 5.91258096325341e-02 3.62046312026421e-04
2.44351851851852e+00 5.87483494020218e-02 3.62242078420925e-04
2.47722222222222e+00 5.83732988849717e-02 3.62403464426931e-04
2.51092592592593e+00 5.80006426976968e-02 3.62531357309093e-04
2.54462962962963e+00 5.76303655532866e-02 3.62626616693843e-04
2.57833333333333e+00 5.72624522653480e-02 3.62690077108748e-04
2.61203703703704e+00 5.68968877415551e-02 3.62722548691555e-04
2.64574074074074e+00 5.65336569887696e-02 3.62724817793166e-04
2.67944444444444e+00 5.61727451081288e-02 3.62697649297796e-04
2.71314814814815e+00 5.58141372945739e-02 3.62641785445481e-04
2.74685185185185e+00 5.54578188402308e-02 3.62557947699693e-04
2.78055555555556e+00 5.51037751297625e-02 3.62446838521137e-04
2.81425925925926e+00 5.47519916399042e-02 3.62309140145375e-04
2.84796296296296e+00 5.44024539426207e-02 3.62145516288205e-04
2.88166666666667e+00 5.40551477007099e-02 3.61956613767985e-04
2.91537037037037e+00 5.37100586673312e-02 3.61743061256174e-04
2.94907407407407e+00 5.33671726889679e-02 3.61505471139210e-04
2.98277777777778e+00 5.30264757001215e-02 3.61244439818780e-04
3.01648148148148e+00 5.26879537273937e-02 3.60960547941362e-04
3.05018518518518e+00 5.23515928854216e-02 3.60654362138539e-04
3.08388888888889e+00 5.20173793764158e-02 3.60326433743783e-04
3.11759259259259e+00 5.16852994928515e-02 3.59977300175698e-04
3.15129629629630e+00 5.13553396136069e-02 3.59607486259084e-04
3.18500000000000e+00 5.10274862035022e-02 3.59217502944808e-04
3.21870370370370e+00 5.07017258158296e-02 3.58807848867513e-04
3.25240740740741e+00 5.03780450876893e-02 3.58379010490753e-04
3.28611111111111e+00 5.00564307434991e-02 3.57931462195371e-04
3.31981481481481e+00 4.97368695914102e-02 3.57465667751835e-04
3.35351851851852e+00 4.94193485228530e-02 3.56982079045029e-04
3.38722222222222e+00 4.91038545148482e-02 3.56481137233008e-04
3.42092592592593e+00 4.87903746265888e-02 3.55963273857283e-04
3.45462962962963e+00 4.84788959989923e-02 3.55428909585459e-04
3.48833333333333e+00 4.81694058568767e-02 3.54878455548119e-04
3.52203703703704e+00 4.78618915048315e-02 3.54312313390821e-04
3.55574074074074e+00 4.75563403302559e-02 3.53730875278855e-04
3.58944444444444e+00 4.72527398001762e-02 3.53134525171203e-04
3.62314814814815e+00 4.69510774608036e-02 3.52523637587259e-04
3.65685185185185e+00 4.66513409395298e-02 3.51898578601113e-04
3.69055555555556e+00 4.63535179418839e-02 3.51259706796552e-04
3.72425925925926e+00 4.60575962510983e-02 3.50607372058624e-04
3.75796296296296e+00 4.57635637299912e-02 3.49941916515292e-04
3.79166666666667e+00 4.54714083180578e-02 3.49263675442551e-04
3.82537037037037e+00 4.51811180310384e-02 3.48572976081938e-04
3.85907407407407e+00 4.48926809626991e-02 3.47870138752212e-04
3.89277777777778e+00 4.46060852813163e-02 3.47155476830852e-04
3.92648148148148e+00 4.43213192321817e-02 3.46429296697082e-04
3.96018518518519e+00 4.40383711348789e-02 3.45691898799641e-04
3.99388888888889e+00 4.37572293828633e-02 3.44943576509460e-04
4.02759259259259e+00 4.34778824450991e-02 3.44184616946400e-04
4.06129629629630e+00 4.32003188634495e-02 3.43415301775556e-04
4.09500000000000e+00 4.29245272522618e-02 3.42635906087685e-04
4.12870370370370e+00 4.26504962999169e-02 3.41846699388633e-04
4.16240740740741e+00 4.23782147656777e-02 3.41047945551663e-04
4.19611111111111e+00 4.21076714818839e-02 3.40239902735746e-04
4.22981481481481e+00 4.18388553515044e-02 3.39422824339870e-04
4.26351851851852e+00 4.15717553477308e-02 3.38596957921540e-04
4.29722222222222e+00 4.13063605154075e-02 3.37762545931276e-04
4.33092592592593e+00 4.10426599686806e-02 3.36919826421365e-04
4.36462962962963e+00 4.07806428905981e-02 3.36069031992245e-04
4.39833333333333e+00 4.05202985344657e-02 3.35210390681218e-04
4.43203703703704e+00 4.02616162210077e-02 3.34344125897108e-04
4.46574074074074e+00 4.00045853402996e-02 3.33470456324527e-04
4.49944444444444e+00 3.97491953495573e-02 3.32589596783755e-04
4.53314814814815e+00 3.94954357727468e-02 3.31701757215662e-04
4.56685185185185e+00 3.92432962018372e-02 3.30807143340382e-04
4.60055555555556e+00 3.89927662946739e-02 3.29905957293684e-04
4.63425925925926e+00 3.87438357745958e-02 3.28998396638928e-04
4.66796296296296e+00 3.84964944316238e-02 3.28084654999598e-04
4.70166666666667e+00 3.82507321204159e-02 3.27164922670691e-04
4.73537037037037e+00 3.80065387598886e-02 3.26239385657151e-04
4.76907407407407e+00 3.77639043343464e-02 3.25308226447073e-04
4.80277777777778e+00 3.75228188910156e-02 3.24371623934422e-04
4.83648148148148e+00 3.72832725416688e-02 3.23429753315409e-04
4.87018518518518e+00 3.70452554606957e-02 3.22482786839153e-04
4.90388888888889e+00 3.68087578847356e-02 3.21530892883069e-04
4.93759259259259e+00 3.65737701137234e-02 3.20574236525430e-04
4.97129629629630e+00 3.63402825090311e-02 3.19612980099524e-04
5.00500000000000e+00 3.61082854931057e-02 3.18647282294201e-04
5.03870370370370e+00 3.58777695504640e-02 3.17677298858506e-04
5.07240740740741e+00 3.56487252254532e-02 3.16703182520259e-04
5.10611111111111e+00 3.54211431236924e-02 3.15725082880634e-04
5.13981481481481e+00 3.51950139103163e-02 3.14743147099499e-04
5.17351851851852e+00 3.49703283096236e-02 3.13757519031300e-04
5.20722222222222e+00 3.47470771059992e-02 3.12768339746116e-04
5.24092592592593e+00 3.45252511422212e-02 3.11775748034421e-04
5.27462962962963e+00 3.43048413191141e-02 3.10779879566581e-04
5.30833333333333e+00 3.40858385964273e-02 3.09780867537746e-04
5.34203703703704e+00 3.38682339907967e-02 3.08778842584861e-04
5.37574074074074e+00 3.36520185770257e-02 3.07773932681882e-04
5.40944444444444e+00 3.34371834864840e-02 3.06766263767951e-04
5.44314814814815e+00 3.32237199067694e-02 3.05755958940308e-04
5.47685185185185e+00 3.30116190825245e-02 3.04743138930405e-04
5.51055555555556e+00 3.28008723138891e-02 3.03727922565608e-04
5.54425925925926e+00 3.25914709561693e-02 3.02710425984217e-04
5.57796296296296e+00 3.23834064206149e-02 3.01690763095586e-04
5.61166666666667e+00 3.21766701729248e-02 3.00669046026381e-04
5.64537037037037e+00 3.19712537329213e-02 2.99645384357039e-04
5.67907407407407e+00 3.17671486752909e-02 2.98619885694152e-04
5.71277777777778e+00 3.15643466277885e-02 2.97592655588945e-04
5.74648148148148e+00 3.13628392723292e-02 2.96563797436253e-04
5.78018518518518e+00 3.11626183435714e-02 2.95533413033033e-04
5.81388888888889e+00 3.09636756286011e-02 2.94501601845405e-04
5.84759259259259e+00 3.07660029676203e-02 2.93468461431044e-04
5.88129629629630e+00 3.05695922525776e-02 2.92434087849245e-04
5.91500000000000e+00 3.03744354268572e-02 2.91398574947904e-04
5.94870370370370e+00 3.01805244859361e-02 2.90362014891010e-04
5.98240740740741e+00 2.99878514757396e-02 2.89324498078962e-04
6.01611111111111e+00 2.97964084936182e-02 2.88286113050878e-04
6.04981481481481e+00 2.96061876870469e-02 2.87246946999908e-04
6.08351851851852e+00 2.94171812533234e-02 2.86207085088783e-04
6.11722222222222e+00 2.92293814401801e-02 2.85166610838649e-04
6.15092592592593e+00 2.90427805445261e-02 2.84125606506826e-04
6.18462962962963e+00 2.88573709121504e-02 2.83084152420939e-04
6.21833333333333e+00 2.86731449383059e-02 2.82042327466174e-04
6.25203703703704e+00 2.84900950662010e-02 2.81000209008019e-04
6.28574074074074e+00 2.83082137878740e-02 2.79957872798440e-04
6.31944444444444e+00 2.81274936429981e-02 2.78915393452238e-04
6.35314814814815e+00 2.79479272185930e-02 2.77872843807869e-04
6.38685185185185e+00 2.77695071495691e-02 2.76830295286185e-04
6.42055555555555e+00 2.75922261175697e-02 2.75787818239236e-04
6.45425925925926e+00 2.74160768506888e-02 2.74745481328325e-04
6.48796296296296e+00 2.72410521239898e-02 2.73703351871852e-04
6.52166666666667e+00 2.70671447583853e-02 2.72661496183561e-04
6.55537037037037e+00 2.68943476203582e-02 2.71619978967317e-04
6.58907407407407e+00 2.67226536224583e-02 2.70578863754183e-04
6.62277777777778e+00 2.65520557219607e-02 2.69538212829613e-04
6.65648148148148e+00 2.63825469216175e-02 2.68498087145761e-04
6.69018518518519e+00 2.62141202685908e-02 2.67458546749229e-04
6.72388888888889e+00 2.60467688541836e-02 2.66419650200024e-04
6.75759259259259e+00 2.58804858143016e-02 2.65381454893322e-04
6.79129629629630e+00 2.57152643284199e-02 2.64344017372592e-04
6.82500000000000e+00 2.55510976193183e-02 2.63307392764051e-04
6.85870370370370e+00 2.53879789535224e-02 2.62271635181975e-04
6.89240740740741e+00 2.52259016400689e-02 2.61236797659077e-04
6.92611111111111e+00 2.50648590311810e-02 2.60202932062996e-04
6.95981481481481e+00 2.49048445212835e-02 2.59170089493277e-04
6.99351851851852e+00 2.47458515467463e-02 2.58138319738307e-04
7.02722222222222e+00 2.45878735862964e-02 2.57107671573498e-04
7.06092592592593e+00 2.44309041600631e-02 2.56078193051576e-04
7.09462962962963e+00 2.42749368293260e-02 2.55049930973908e-04
7.12833333333333e+00 2.41199651969085e-02 2.54022931266915e-04
7.16203703703704e+00 2.39659829060390e-02 2.52997238915703e-04
7.19574074074074e+00 2.38129836409580e-02 2.51972897884710e-04
7.22944444444444e+00 2.36609611260092e-02 2.50949951486555e-04
7.26314814814815e+00 2.35099091253937e-02 2.49928441874382e-04
7.29685185185185e+00 2.33598214435384e-02 2.48908410318503e-04
7.33055555555555e+00 2.32106919242128e-02 2.47889897475904e-04
7.36425925925926e+00 2.30625144502887e-02 2.46872942895924e-04
7.39796296296296e+00 2.29152829440918e-02 2.45857585289084e-04
7.43166666666667e+00 2.27689913665453e-02 2.44843862788955e-04
7.46537037037037e+00 2.26236337169330e-02 2.43831812470791e-04
7.49907407407407e+00 2.24792040332362e-02 2.42821470691452e-04
7.53277777777778e+00 2.23356963911128e-02 2.41812873027696e-04
7.56648148148148e+00 2.21931049044231e-02 2.40806054202816e-04
7.60018518518518e+00 2.20514237244124e-02 2.39801048419903e-04
7.63388888888889e+00 2.19106470394821e-02 2.38797888899499e-04
7.66759259259259e+00 2.17707690755031e-02 2.37796608129477e-04
7.70129629629630e+00 2.16317840950230e-02 2.36797238108501e-04
7.73500000000000e+00 2.14936863970407e-02 2.35799809895750e-04
7.76870370370370e+00 2.13564703173065e-02 2.34804353927354e-04
7.80240740740741e+00 2.12201302273784e-02 2.33810899957842e-04
7.83611111111111e+00 2.10846605350964e-02 2.32819476990715e-04
7.86981481481481e+00 2.09500556838246e-02 2.31830113588879e-04
7.90351851851852e+00 2.08163101522329e-02 2.30842837442050e-04
7.93722222222222e+00 2.06834184545781e-02 2.29857675599183e-04
7.97092592592593e+00 2.05513751399672e-02 2.28874654695143e-04
8.00462962962963e+00 2.04201747921437e-02 2.27893800529274e-04
8.03833333333333e+00 2.02898120297559e-02 2.26915138360330e-04
8.07203703703704e+00 2.01602815054823e-02 2.25938692850944e-04
8.10574074074074e+00 2.00315779064601e-02 2.24964488001976e-04
8.13944444444444e+00 1.99036959535823e-02 2.23992547441960e-04
8.17314814814815e+00 1.97766304012893e-02 2.23022894022141e-04
8.20685185185185e+00 1.96503760378204e-02 2.22055550032953e-04
8.24055555555555e+00 1.95249276845300e-02 2.21090537415230e-04
8.27425925925926e+00 1.94002801956840e-02 2.20127877365635e-04
8.30796296296296e+00 1.92764284586995e-02 2.19167590547293e-04
8.34166666666667e+00 1.91533673934810e-02 2.18209697295292e-04
8.37537037037037e+00 1.90310919522199e-02 2.17254217232230e-04
8.40907407407407e+00 1.89095971196239e-02 2.16301169535720e-04
8.44277777777778e+00 1.87888779121302e-02 2.15350572887119e-04
8.47648148148148e+00 1.86689293782768e-02 2.14402445411011e-04
8.51018518518518e+00 1.85497465980682e-02 2.13456804937876e-04
8.54388888888889e+00 1.84313246827804e-02 2.12513668634585e-04
8.57759259259259e+00 1.83136587751766e-02 2.11573053200783e-04
8.61129629629630e+00 1.81967440488887e-02 2.10634975060590e-04
8.64500000000000e+00 1.80805757082274e-02 2.09699450002440e-04
8.67870370370370e+00 1.79651489883873e-02 2.08766493428878e-04
8.71240740740741e+00 1.78504591547158e-02 2.07836120308037e-04
8.74611111111111e+00 1.77365015030498e-02 2.06908345116506e-04
8.77981481481481e+00 1.76232713591251e-02 2.05983182084662e-04
8.81351851851852e+00 1.75107640783914e-02 2.05060644850474e-04
8.84722222222222e+00 1.73989750462045e-02 2.04140746642778e-04
8.88092592592593e+00 1.72878996772514e-02 2.03223500460177e-04
8.91462962962963e+00 1.71775334153696e-02 2.02308918733593e-04
8.94833333333333e+00 1.70678717337302e-02 2.01397013559620e-04
8.98203703703704e+00 1.69589101341585e-02 2.00487796654658e-04
9.01574074074074e+00 1.68506441474393e-02 1.99581279301037e-04
9.04944444444444e+00 1.67430693327664e-02 1.98677472576239e-04
9.08314814814815e+00 1.66361812775674e-02 1.97776387028430e-04
9.11685185185185e+00 1.65299755976749e-02 1.96878032847634e-04
9.15055555555555e+00 1.64244479367915e-02 1.95982420032837e-04
9.18425925925926e+00 1.63195939663175e-02 1.95089558075680e-04
9.21796296296296e+00 1.62154093855151e-02 1.94199456127132e-04
9.25166666666667e+00 1.61118899209876e-02 1.93312123160271e-04
9.28537037037037e+00 1.60090313265100e-02 1.92427567661912e-04
9.31907407407407e+00 1.59068293831864e-02 1.91545797844938e-04
9.35277777777778e+00 1.58052798988353e-02 1.90666821606039e-04
9.38648148148148e+00 1.57043787082551e-02 1.89790646476123e-04
9.42018518518518e+00 1.56041216727259e-02 1.88917279828993e-04
9.45388888888889e+00 1.55045046798448e-02 1.88046728584775e-04
9.48759259259259e+00 1.54055236436732e-02 1.87178999365701e-04
9.52129629629630e+00 1.53071745042510e-02 1.86314098648276e-04
9.55500000000000e+00 1.52094532274358e-02 1.85452032474100e-04
9.58870370370370e+00 1.51123558050434e-02 1.84592806648485e-04
9.62240740740741e+00 1.50158782542754e-02 1.83736426700556e-04
9.65611111111111e+00 1.49200166179604e-02 1.82882897836487e-04
9.68981481481481e+00 1.48247669640885e-02 1.82032225134771e-04
9.72351851851852e+00 1.47301253856554e-02 1.81184413268042e-04
9.75722222222222e+00 1.46360880007937e-02 1.80339466648771e-04
9.79092592592593e+00 1.45426509523199e-02 1.79497389571584e-04
9.82462962962963e+00 1.44498104075813e-02 1.78658185941960e-04
9.85833333333333e+00 1.43575625585814e-02 1.77821859462200e-04
9.89203703703704e+00 1.42659036214472e-02 1.76988413593714e-04
9.92574074074074e+00 1.41748298366472e-02 1.76157851512925e-04
9.95944444444444e+00 1.40843374685577e-02 1.75330176294089e-04
9.99314814814815e+00 1.39944228053138e-02 1.74505390648317e-04
1.00268518518519e+01 1.39050821589272e-02 1.73683497059850e-04
1.00605555555556e+01 1.38163118648632e-02 1.72864497877339e-04
1.00942592592593e+01 1.37281082819816e-02 1.72048395185707e-04
1.01279629629630e+01 1.36404677923876e-02 1.71235190854316e-04
1.01616666666667e+01 1.35533868012828e-02 1.70424886540565e-04
1.01953703703704e+01 1.34668617368183e-02 1.69617483693575e-04
1.02290740740741e+01 1.33808890499477e-02 1.68812983557748e-04
1.02627777777778e+01 1.32954652142821e-02 1.68011387176351e-04
1.02964814814815e+01 1.32105867259449e-02 1.67212695395008e-04
1.03301851851852e+01 1.31262501034285e-02 1.66416908865127e-04
1.03638888888889e+01 1.30424518874511e-02 1.65624028047285e-04
1.03975925925926e+01 1.29591886408152e-02 1.64834053214566e-04
1.04312962962963e+01 1.28764569482664e-02 1.64046984455862e-04
1.04650000000000e+01 1.27942534163534e-02 1.63262822059977e-04
1.04987037037037e+01 1.27125746725157e-02 1.62481565370589e-04
1.05324074074074e+01 1.26314173672768e-02 1.61703213557412e-04
1.05661111111111e+01 1.25507781717627e-02 1.60927766395935e-04
1.05998148148148e+01 1.24706537783511e-02 1.60155223101598e-04
1.06335185185185e+01 1.23910409005355e-02 1.59385582724341e-04
