Energy (eV)          EEDF (eV^-(3/2))     First Anisotropy
3.77631578947368e-02 4.69556774817955e-02 2.85528561479849e-05
1.13289473684211e-01 4.65304362864537e-02 4.70937054981933e-05
1.88815789473684e-01 4.61090461694527e-02 6.20230297948039e-05
2.64342105263158e-01 4.56914722587938e-02 7.32764891510996e-05
3.39868421052632e-01 4.52776799912051e-02 8.25890876426803e-05
4.15394736842105e-01 4.48676351193825e-02 9.06189321917101e-05
4.90921052631579e-01 4.44613037061103e-02 9.77076412287846e-05
5.66447368421053e-01 4.40586521215379e-02 1.04062126522840e-04
6.41973684210526e-01 4.36596470410313e-02 1.09820021308184e-04
7.17500000000000e-01 4.32642554403035e-02 1.15078886677092e-04
7.93026315789474e-01 4.28724445948856e-02 1.19911151945344e-04
8.68552631578947e-01 4.24841820766666e-02 1.24372519250902e-04
9.44078947368421e-01 4.20994357516397e-02 1.28507036628249e-04
1.01960526315789e+00 4.17181737759297e-02 1.32350331785711e-04
1.09513157894737e+00 4.13403645948347e-02 1.35931765673699e-04
1.17065789473684e+00 4.09659769373651e-02 1.39275918134642e-04
1.24618421052632e+00 4.05949798207335e-02 1.42403645438992e-04
1.32171052631579e+00 4.02273425363461e-02 1.45332850488353e-04
1.39723684210526e+00 3.98630346595850e-02 1.48079057331156e-04
1.47276315789474e+00 3.95020260359650e-02 1.50655847980160e-04
1.54828947368421e+00 3.91442867867529e-02 1.53075198441260e-04
1.62381578947368e+00 3.87897873061524e-02 1.55347744569833e-04
1.69934210526316e+00 3.84384982518124e-02 1.57482991037214e-04
1.77486842105263e+00 3.80903905514793e-02 1.59489480259043e-04
1.85039473684211e+00 3.77454353921010e-02 1.61374929604207e-04
1.92592105263158e+00 3.74036042254011e-02 1.63146343788305e-04
2.00144736842105e+00 3.70648687580280e-02 1.64810108253166e-04
2.07697368421053e+00 3.67292009546630e-02 1.66372065985241e-04
2.15250000000000e+00 3.63965730354954e-02 1.67837584063509e-04
2.22802631578947e+00 3.60669574690671e-02 1.69211608147251e-04
2.30355263157895e+00 3.57403269763128e-02 1.70498709714256e-04
2.37907894736842e+00 3.54166545223075e-02 1.71703126656692e-04
2.45460526315789e+00 3.50959133184090e-02 1.72828797291371e-04
2.53013157894737e+00 3.47780768198900e-02 1.73879391572360e-04
2.60565789473684e+00 3.44631187197917e-02 1.74858336598019e-04
2.68118421052632e+00 3.41510129519076e-02 1.75768839659017e-04
2.75671052631579e+00 3.38417336836957e-02 1.76613908408783e-04
2.83223684210526e+00 3.35352553188532e-02 1.77396368543211e-04
2.90776315789474e+00 3.32315524906878e-02 1.78118879686468e-04
2.98328947368421e+00 3.29306000633278e-02 1.78783948681029e-04
3.05881578947368e+00 3.26323731295462e-02 1.79393942922682e-04
3.13434210526316e+00 3.23368470056662e-02 1.79951100858149e-04
3.20986842105263e+00 3.20439972334887e-02 1.80457542045299e-04
3.28539473684210e+00 3.17537995744523e-02 1.80915276135093e-04
3.36092105263158e+00 3.14662300112970e-02 1.81326210891340e-04
3.43644736842105e+00 3.11812647425426e-02 1.81692159641157e-04
3.51197368421053e+00 3.08988801831237e-02 1.82014847328828e-04
3.58750000000000e+00 3.06190529623647e-02 1.82295917306251e-04
3.66302631578947e+00 3.03417599196417e-02 1.82536936278367e-04
3.73855263157895e+00 3.00669781056216e-02 1.82739399385745e-04
3.81407894736842e+00 2.97946847773162e-02 1.82904734907297e-04
3.88960526315789e+00 2.95248573984478e-02 1.83034307932570e-04
3.96513157894737e+00 2.92574736375229e-02 1.83129424914052e-04
4.04065789473684e+00 2.89925113639020e-02 1.83191336718588e-04
4.11618421052632e+00 2.87299486487072e-02 1.83221241964982e-04
4.19171052631579e+00 2.84697637603552e-02 1.83220290045064e-04
4.26723684210526e+00 2.82119351653266e-02 1.83189583860352e-04
4.34276315789474e+00 2.79564415238959e-02 1.83130182511496e-04
4.41828947368421e+00 2.77032616902039e-02 1.83043103235126e-04
4.49381578947368e+00 2.74523747104628e-02 1.82929324241809e-04
4.56934210526316e+00 2.72037598195067e-02 1.82789786353720e-04
4.64486842105263e+00 2.69573964413304e-02 1.82625394995981e-04
4.72039473684210e+00 2.67132641851956e-02 1.82437021999220e-04
4.79592105263158e+00 2.64713428460703e-02 1.82225507235633e-04
4.87144736842105e+00 2.62316124008900e-02 1.81991660283349e-04
4.94697368421053e+00 2.59940530084316e-02 1.81736261493531e-04
5.02250000000000e+00 2.57586450076336e-02 1.81460063910980e-04
5.09802631578947e+00 2.55253689145367e-02 1.81163794185571e-04
5.17355263157895e+00 2.52942054225598e-02 1.80848153844802e-04
5.24907894736842e+00 2.50651353990649e-02 1.80513820523369e-04
5.32460526315789e+00 2.48381398851348e-02 1.80161448666762e-04
5.40013157894737e+00 2.46132000939718e-02 1.79791671046433e-04
5.47565789473684e+00 2.43902974080667e-02 1.79405099363048e-04
5.55118421052632e+00 2.41694133793418e-02 1.79002325203360e-04
5.62671052631579e+00 2.39505297259841e-02 1.78583920896247e-04
5.70223684210526e+00 2.37336283325293e-02 1.78150440285877e-04
5.77776315789474e+00 2.35186912468064e-02 1.77702419572952e-04
5.85328947368421e+00 2.33057006796058e-02 1.77240377707013e-04
5.92881578947368e+00 2.30946390031820e-02 1.76764817520472e-04
6.00434210526316e+00 2.28854887487071e-02 1.76276226065273e-04
6.07986842105263e+00 2.26782326062604e-02 1.75775075280199e-04
6.15539473684210e+00 2.24728534219958e-02 1.75261822581149e-04
6.23092105263158e+00 2.22693341980873e-02 1.74736911390978e-04
6.30644736842105e+00 2.20676580899901e-02 1.74200771740604e-04
6.38197368421053e+00 2.18678084060355e-02 1.73653820479562e-04
6.45750000000000e+00 2.16697686060282e-02 1.73096462160750e-04
6.53302631578947e+00 2.14735222989434e-02 1.72529089219051e-04
6.60855263157895e+00 2.12790532428039e-02 1.71952082455448e-04
6.68407894736842e+00 2.10863453421310e-02 1.71365811521261e-04
6.75960526315789e+00 2.08953826475071e-02 1.70770635043772e-04
6.83513157894737e+00 2.07061493542361e-02 1.70166901383900e-04
6.91065789473684e+00 2.05186298001910e-02 1.69554948740556e-04
6.98618421052632e+00 2.03328084656338e-02 1.68935105543724e-04
7.06171052631579e+00 2.01486699708400e-02 1.68307690792673e-04
7.13723684210526e+00 1.99661990758922e-02 1.67673014354682e-04
7.21276315789474e+00 1.97853806783759e-02 1.67031377332014e-04
7.28828947368421e+00 1.96061998129046e-02 1.66383072110123e-04
7.36381578947368e+00 1.94286416498648e-02 1.65728382979630e-04
7.43934210526316e+00 1.92526914934559e-02 1.65067586172867e-04
7.51486842105263e+00 1.90783347814427e-02 1.64400950164206e-04
7.59039473684210e+00 1.89055570830021e-02 1.63728735923818e-04
7.66592105263158e+00 1.87343440984568e-02 1.63051197139251e-04
7.74144736842105e+00 1.85646816571831e-02 1.62368580500890e-04
7.81697368421053e+00 1.83965557171140e-02 1.61681125702332e-04
7.89250000000000e+00 1.82299523635631e-02 1.60989065961822e-04
7.96802631578947e+00 1.80648578074324e-02 1.60292628016374e-04
8.04355263157895e+00 1.79012583849183e-02 1.59592032356958e-04
8.11907894736842e+00 1.77391405555511e-02 1.58887493470777e-04
8.19460526315789e+00 1.75784909016916e-02 1.58179219818211e-04
8.27013157894737e+00 1.74192961274076e-02 1.57467414298336e-04
8.34565789473684e+00 1.72615430567884e-02 1.56752274222260e-04
8.42118421052631e+00 1.71052186336292e-02 1.56033991513353e-04
8.49671052631579e+00 1.69503099195912e-02 1.55312752870248e-04
8.57223684210526e+00 1.67968040938742e-02 1.54588739905867e-04
8.64776315789474e+00 1.66446884514275e-02 1.53862129342872e-04
8.72328947368421e+00 1.64939504024397e-02 1.53133092969627e-04
8.79881578947368e+00 1.63445774712866e-02 1.52401798040838e-04
8.87434210526316e+00 1.61965572949835e-02 1.51668407232483e-04
8.94986842105263e+00 1.60498776228434e-02 1.50933078803758e-04
9.02539473684210e+00 1.59045263147951e-02 1.50195966726026e-04
9.10092105263158e+00 1.57604913410335e-02 1.49457220791238e-04
9.17644736842105e+00 1.56177607803815e-02 1.48716986772127e-04
9.25197368421053e+00 1.54763228197814e-02 1.47975406365732e-04
9.32750000000000e+00 1.53361657533085e-02 1.47232617542098e-04
9.40302631578947e+00 1.51972779807466e-02 1.46488754488113e-04
9.47855263157895e+00 1.50596480072306e-02 1.45743947740597e-04
9.55407894736842e+00 1.49232644417044e-02 1.44998324326743e-04
9.62960526315789e+00 1.47881159964177e-02 1.44252007701709e-04
9.70513157894737e+00 1.46541914859836e-02 1.43505118066816e-04
9.78065789473684e+00 1.45214798260338e-02 1.42757772308155e-04
9.85618421052632e+00 1.43899700328562e-02 1.42010084113325e-04
9.93171052631579e+00 1.42596512219412e-02 1.41262164060633e-04
1.00072368421053e+01 1.41305126076152e-02 1.40514119691945e-04
1.00827631578947e+01 1.40025435016236e-02 1.39766055563256e-04
1.01582894736842e+01 1.38757333128845e-02 1.39018073348322e-04
1.02338157894737e+01 1.37500715459756e-02 1.38270272017459e-04
1.03093421052632e+01 1.36255478005241e-02 1.37522748057667e-04
1.03848684210526e+01 1.35021517691633e-02 1.36775594631440e-04
1.04603947368421e+01 1.33798732402574e-02 1.36028902301638e-04
1.05359210526316e+01 1.32587020934463e-02 1.35282759763361e-04
1.06114473684211e+01 1.31386283000211e-02 1.34537252899773e-04
1.06869736842105e+01 1.30196419220957e-02 1.33792465181230e-04
1.07625000000000e+01 1.29017331117850e-02 1.33048478026368e-04
1.08380263157895e+01 1.27848921093158e-02 1.32305369950592e-04
1.09135526315789e+01 1.26691092454658e-02 1.31563217232330e-04
1.09890789473684e+01 1.25543749374880e-02 1.30822094586185e-04
1.10646052631579e+01 1.24406796894182e-02 1.30082074282780e-04
1.11401315789474e+01 1.23280140912895e-02 1.29343226513534e-04
1.12156578947368e+01 1.22163688183551e-02 1.28605619720588e-04
1.12911842105263e+01 1.21057346293400e-02 1.27869319802375e-04
1.13667105263158e+01 1.19961023686278e-02 1.27134390727236e-04
1.14422368421053e+01 1.18874629625252e-02 1.26400895153733e-04
1.15177631578947e+01 1.17798074195123e-02 1.25668893610126e-04
1.15932894736842e+01 1.16731268294974e-02 1.24938444828596e-04
1.16688157894737e+01 1.15674123630819e-02 1.24209605788199e-04
1.17443421052632e+01 1.14626552708284e-02 1.23482432013293e-04
1.18198684210526e+01 1.13588468816635e-02 1.22756976840748e-04
1.18953947368421e+01 1.12559786048020e-02 1.22033291978203e-04
1.19709210526316e+01 1.11540419263708e-02 1.21311428068643e-04
1.20464473684211e+01 1.10530284095996e-02 1.20591433934335e-04
1.21219736842105e+01 1.09529296941240e-02 1.19873356879855e-04
1.21975000000000e+01 1.08537374952935e-02 1.19157242966171e-04
1.22730263157895e+01 1.07554436026886e-02 1.18443136326866e-04
1.23485526315789e+01 1.06580398818519e-02 1.17731079684097e-04
1.24240789473684e+01 1.05615182711833e-02 1.17021114870591e-04
1.24996052631579e+01 1.04658707820905e-02 1.16313282124512e-04
1.25751315789474e+01 1.03710894983270e-02 1.15607620368348e-04
1.26506578947368e+01 1.02771665753387e-02 1.14904167461136e-04
1.27261842105263e+01 1.01840942388859e-02 1.14202959560330e-04
1.28017105263158e+01 1.00918647866014e-02 1.13504031599232e-04
1.28772368421053e+01 1.00004705851330e-02 1.12807417770247e-04
1.29527631578947e+01 9.90990407025762e-03 1.12113150867083e-04
1.30282894736842e+01 9.82015774625470e-03 1.11421262541838e-04
1.31038157894737e+01 9.73122418528775e-03 1.10731783331625e-04
1.31793421052632e+01 9.64309602678849e-03 1.10044742888328e-04
1.32548684210526e+01 9.55576597619270e-03 1.09360169389618e-04
1.33303947368421e+01 9.46922680631790e-03 1.08678089975446e-04
1.34059210526316e+01 9.38347135476701e-03 1.07998531189985e-04
1.34814473684211e+01 9.29849252400675e-03 1.07321518374917e-04
1.35569736842105e+01 9.21428328078111e-03 1.06647075903940e-04
1.36325000000000e+01 9.13083665552915e-03 1.05975227394902e-04
1.37080263157895e+01 9.04814574120804e-03 1.05305995159853e-04
1.37835526315789e+01 8.96620369453601e-03 1.04639400609916e-04
1.38590789473684e+01 8.88500373359612e-03 1.03975464665340e-04
1.39346052631579e+01 8.80453913788981e-03 1.03314207189178e-04
1.40101315789474e+01 8.72480324778073e-03 1.02655647204098e-04
1.40856578947368e+01 8.64578946394425e-03 1.01999803088514e-04
1.41611842105263e+01 8.56749124627071e-03 1.01346692062938e-04
1.42367105263158e+01 8.48990211498791e-03 1.00696330565868e-04
1.43122368421053e+01 8.41301564844720e-03 1.00048734634598e-04
1.43877631578947e+01 8.33682548315589e-03 9.94039193764151e-05
1.44632894736842e+01 8.26132531324993e-03 9.87618991692966e-05
1.45388157894737e+01 8.18650888997334e-03 9.81226876789863e-05
1.46143421052632e+01 8.11237002116031e-03 9.74862980384748e-05
1.46898684210526e+01 8.03890257022566e-03 9.68527423734925e-05
1.47653947368421e+01 7.96610045716035e-03 9.62220321473401e-05
1.48409210526316e+01 7.89395765651249e-03 9.55941785102991e-05
1.49164473684211e+01 7.82246819739771e-03 9.49691918113616e-05
1.49919736842105e+01 7.75162616300556e-03 9.43470817820529e-05
1.50675000000000e+01 7.68142569010984e-03 9.37278577027530e-05
1.51430263157895e+01 7.61186096812629e-03 9.31115279592551e-05
1.52185526315789e+01 7.54292624001312e-03 9.24981003634395e-05
1.52940789473684e+01 7.47461580040186e-03 9.18875824783120e-05
1.53696052631579e+01 7.40692399559301e-03 9.12799811617882e-05
1.54451315789474e+01 7.33984522308813e-03 9.06753027371999e-05
1.55206578947368e+01 7.27337393112669e-03 9.00735531475575e-05
1.55961842105263e+01 7.20750461780609e-03 8.94747375410446e-05
1.56717105263158e+01 7.14223183189670e-03 8.88788605694410e-05
1.57472368421053e+01 7.07755017111001e-03 8.82859266906488e-05
1.58227631578947e+01 7.01345428208190e-03 8.76959397423219e-05
1.58982894736842e+01 6.94993885992913e-03 8.71089031001466e-05
1.59738157894737e+01 6.88699864781116e-03 8.65248196890582e-05
1.60493421052632e+01 6.82462843649464e-03 8.59436921248670e-05
1.61248684210526e+01 6.76282306354133e-03 8.53655223309406e-05
1.62003947368421e+01 6.70157741403268e-03 8.47903118126875e-05
1.62759210526316e+01 6.64088641898540e-03 8.42180619358416e-05
1.63514473684211e+01 6.58074505532183e-03 8.36487735323171e-05
1.64269736842105e+01 6.52114834545460e-03 8.30824470456228e-05
1.65025000000000e+01 6.46209135687469e-03 8.25190826624652e-05
1.65780263157895e+01 6.40356920139208e-03 8.19586799542253e-05
1.66535526315789e+01 6.34557703579233e-03 8.14012381326966e-05
1.67290789473684e+01 6.28811006036613e-03 8.08467563094591e-05
1.68046052631579e+01 6.23116351887133e-03 8.02952331272751e-05
1.68801315789474e+01 6.17473269813931e-03 7.97466668952945e-05
1.69556578947368e+01 6.11881292768523e-03 7.92010557114043e-05
1.70311842105263e+01 6.06339957899771e-03 7.86583971268067e-05
1.71067105263158e+01 6.00848806613400e-03 7.81186883844460e-05
1.71822368421053e+01 5.95407384435444e-03 7.75819266608559e-05
1.72577631578947e+01 5.90015241007755e-03 7.70481087213492e-05
1.73332894736842e+01 5.84671930050703e-03 7.65172310458041e-05
1.74088157894737e+01 5.79377009326302e-03 7.59892898361169e-05
1.74843421052632e+01 5.74130040601578e-03 7.54642811288117e-05
1.75598684210526e+01 5.68930589582870e-03 7.49422004845625e-05
1.76353947368421e+01 5.63778225968849e-03 7.44230432079202e-05
1.77109210526316e+01 5.58672523325246e-03 7.39068045702145e-05
1.77864473684211e+01 5.53613059079656e-03 7.33934794904792e-05
1.78619736842105e+01 5.48599414486602e-03 7.28830626512693e-05
1.79375000000000e+01 5.43631174592871e-03 7.23755486035034e-05
1.80130263157895e+01 5.38707928175995e-03 7.18709314758403e-05
1.80885526315789e+01 5.33829267792352e-03 7.13692051797219e-05
1.81640789473684e+01 5.28994789660665e-03 7.08703636174223e-05
1.82396052631579e+01 5.24204093656384e-03 7.03744003833991e-05
1.83151315789474e+01 5.19456783278573e-03 6.98813088721900e-05
1.83906578947368e+01 5.14752465617118e-03 6.93910823760574e-05
1.84661842105263e+01 5.10090751295087e-03 6.89037138128679e-05
1.85417105263158e+01 5.05471254512392e-03 6.84191959175372e-05
1.86172368421053e+01 5.00893592937379e-03 6.79375214362955e-05
1.86927631578947e+01 4.96357387700877e-03 6.74586828470786e-05
1.87682894736842e+01 4.91862263364821e-03 6.69826724600762e-05
1.88438157894737e+01 4.87407847891223e-03 6.65094824227183e-05
1.89193421052632e+01 4.82993772611356e-03 6.60391048097159e-05
1.89948684210526e+01 4.78619672172364e-03 6.55715313709601e-05
1.90703947368421e+01 4.74285184576188e-03 6.51067537082194e-05
1.91459210526316e+01 4.69989951079903e-03 6.46447634544692e-05
1.92214473684210e+01 4.65733616189429e-03 6.41855520149206e-05
1.92969736842105e+01 4.61515827630131e-03 6.37291106597637e-05
1.93725000000000e+01 4.57336236317661e-03 6.32754306081245e-05
1.94480263157895e+01 4.53194496307893e-03 6.28245027919077e-05
1.95235526315789e+01 4.49090264832275e-03 6.23763180209021e-05
1.95990789473684e+01 4.45023202204985e-03 6.19308671503574e-05
1.96746052631579e+01 4.40992971816464e-03 6.14881408384057e-05
1.97501315789474e+01 4.36999240105566e-03 6.10481296325811e-05
1.98256578947368e+01 4.33041676531959e-03 6.06108240481328e-05
1.99011842105263e+01 4.29119953529176e-03 6.01762143467525e-05
1.99767105263158e+01 4.25233746536710e-03 5.97442906908954e-05
2.00522368421053e+01 4.21382733913492e-03 5.93150433004363e-05
2.01277631578947e+01 4.17566596931303e-03 5.88884622253912e-05
2.02032894736842e+01 4.13785019748389e-03 5.84645374266582e-05
2.02788157894737e+01 4.10037689383345e-03 5.80432587793385e-05
2.03543421052632e+01 4.06324295689199e-03 5.76246161450613e-05
2.04298684210526e+01 4.02644531309847e-03 5.72085991668230e-05
2.05053947368421e+01 3.98998091708704e-03 5.67951974116077e-05
2.05809210526316e+01 3.95384675088997e-03 5.63844005151828e-05
2.06564473684211e+01 3.91803982387086e-03 5.59761979714189e-05
2.07319736842105e+01 3.88255717247724e-03 5.55705792068700e-05
2.08075000000000e+01 3.84739585999531e-03 5.51675336482938e-05
2.08830263157895e+01 3.81255297614100e-03 5.47670505303306e-05
2.09585526315789e+01 3.77802563732033e-03 5.43691190289080e-05
2.10340789473684e+01 3.74381098588569e-03 5.39737283966896e-05
2.11096052631579e+01 3.70990619006896e-03 5.35808677655824e-05
2.11851315789474e+01 3.67630844374714e-03 5.31905262163993e-05
2.12606578947368e+01 3.64301496621019e-03 5.28026928419207e-05
2.13361842105263e+01 3.61002300177712e-03 5.24173565665699e-05
2.14117105263158e+01 3.57732982003249e-03 5.20345062712298e-05
2.14872368421053e+01 3.54493271513234e-03 5.16541309199786e-05
2.15627631578947e+01 3.51282900573744e-03 5.12762193749407e-05
2.16382894736842e+01 3.48101603479130e-03 5.09007604613645e-05
2.17138157894737e+01 3.44949116930042e-03 5.05277429698122e-05
2.17893421052632e+01 3.41825180011634e-03 5.01571557144679e-05
2.18648684210526e+01 3.38729534157896e-03 4.97889873658286e-05
2.19403947368421e+01 3.35661923172770e-03 4.94232265661807e-05
2.20159210526316e+01 3.32622093166114e-03 4.90598620468717e-05
2.20914473684211e+01 3.29609792547065e-03 4.86988824565462e-05
2.21669736842105e+01 3.26624772003229e-03 4.83402764213299e-05
2.22425000000000e+01 3.23666784480047e-03 4.79840325993213e-05
2.23180263157895e+01 3.20735585147291e-03 4.76301395236569e-05
2.23935526315789e+01 3.17830931418245e-03 4.72785857106170e-05
2.24690789473684e+01 3.14952582889890e-03 4.69293597694202e-05
2.25446052631579e+01 3.12100301336346e-03 4.65824502411169e-05
2.26201315789474e+01 3.09273850689162e-03 4.62378456548558e-05
2.26956578947368e+01 3.06472997017780e-03 4.58955345788238e-05
2.27711842105263e+01 3.03697508498058e-03 4.55555054730235e-05
2.28467105263158e+01 3.00947155429696e-03 4.52177467904960e-05
2.29222368421053e+01 2.98221710180334e-03 4.48822470801360e-05
2.29977631578947e+01 2.95520947179105e-03 4.45489948355657e-05
2.30732894736842e+01 2.92844642897954e-03 4.42179785477477e-05
2.31488157894737e+01 2.90192575833156e-03 4.38891867064020e-05
2.32243421052632e+01 2.87564526486974e-03 4.35626078471541e-05
2.32998684210526e+01 2.84960277338393e-03 4.32382304148442e-05
2.33753947368421e+01 2.82379612858665e-03 4.29160428572661e-05
2.34509210526316e+01 2.79822319459672e-03 4.25960337203952e-05
2.35264473684210e+01 2.77288185487593e-03 4.22781915080905e-05
2.36019736842105e+01 2.74777001205395e-03 4.19625047307951e-05
2.36775000000000e+01 2.72288558775477e-03 4.16489619496398e-05
2.37530263157895e+01 2.69822652232144e-03 4.13375516481616e-05
2.38285526315789e+01 2.67379077495740e-03 4.10282623201260e-05
