Energy (eV)          EEDF (eV^-(3/2))     First Anisotropy
1.32926829268293e-02 2.01718210080717e-01 1.18024432243450e-04
3.98780487804878e-02 2.00018719444891e-01 1.94725523256038e-04
6.64634146341463e-02 1.98333547146962e-01 2.56619418514473e-04
9.30487804878049e-02 1.96662572547364e-01 3.03373551161166e-04
1.19634146341463e-01 1.95005676037138e-01 3.42146619421554e-04
1.46219512195122e-01 1.93362738998325e-01 3.75651431651294e-04
1.72804878048780e-01 1.91733643822130e-01 4.05294919855358e-04
1.99390243902439e-01 1.90118273890276e-01 4.31928489837254e-04
2.25975609756098e-01 1.88516513566737e-01 4.56117989414389e-04
2.52560975609756e-01 1.86928248189871e-01 4.78264176817665e-04
2.79146341463415e-01 1.85353364063970e-01 4.98664323855526e-04
3.05731707317073e-01 1.83791748456544e-01 5.17546859317288e-04
3.32317073170732e-01 1.82243289573667e-01 5.35092271232982e-04
3.58902439024390e-01 1.80707876569107e-01 5.51446426554608e-04
3.85487804878049e-01 1.79185399530470e-01 5.66729439631726e-04
4.12073170731707e-01 1.77675749471354e-01 5.81041789175493e-04
4.38658536585366e-01 1.76178818323601e-01 5.94468666643542e-04
4.65243902439024e-01 1.74694498929525e-01 6.07083146217655e-04
4.91829268292683e-01 1.73222685037312e-01 6.18948548104798e-04
5.18414634146341e-01 1.71763271284011e-01 6.30120231928730e-04
5.45000000000000e-01 1.70316153197599e-01 6.40646981435449e-04
5.71585365853658e-01 1.68881227186215e-01 6.50572091150630e-04
5.98170731707317e-01 1.67458390530768e-01 6.59934228155738e-04
6.24756097560976e-01 1.66047541377590e-01 6.68768124564600e-04
6.51341463414634e-01 1.64648578733301e-01 6.77105140910170e-04
6.77926829268293e-01 1.63261402450971e-01 6.84973727002102e-04
7.04512195121951e-01 1.61885913229670e-01 6.92399803134616e-04
7.31097560975610e-01 1.60522012605085e-01 6.99407079290825e-04
7.57682926829268e-01 1.59169602942456e-01 7.06017322441331e-04
7.84268292682927e-01 1.57828587429611e-01 7.12250582944508e-04
8.10853658536585e-01 1.56498870070028e-01 7.18125387127309e-04
8.37439024390244e-01 1.55180355677545e-01 7.23658903072889e-04
8.64024390243902e-01 1.53872949864729e-01 7.28867082427926e-04
8.90609756097561e-01 1.52576559041002e-01 7.33764783112610e-04
9.17195121951219e-01 1.51291090404297e-01 7.38365877111230e-04
9.43780487804878e-01 1.50016451934397e-01 7.42683343863008e-04
9.70365853658537e-01 1.48752552386373e-01 7.46729352415247e-04
9.96951219512195e-01 1.47499301284037e-01 7.50515333272682e-04
1.02353658536585e+00 1.46256608917071e-01 7.54052044740572e-04
1.05012195121951e+00 1.45024386318973e-01 7.57349625476185e-04
1.07670731707317e+00 1.43802545292786e-01 7.60417649220527e-04
1.10329268292683e+00 1.42590998361731e-01 7.63265169665149e-04
1.12987804878049e+00 1.41389658797438e-01 7.65900754405010e-04
1.15646341463415e+00 1.40198440612795e-01 7.68332531661571e-04
1.18304878048780e+00 1.39017258524028e-01 7.70568216430342e-04
1.20963414634146e+00 1.37846027986220e-01 7.72615141438562e-04
1.23621951219512e+00 1.36684665147161e-01 7.74480285933142e-04
1.26280487804878e+00 1.35533086870901e-01 7.76170293589376e-04
1.28939024390244e+00 1.34391210730959e-01 7.77691504062870e-04
1.31597560975610e+00 1.33258954977155e-01 7.79049967142007e-04
1.34256097560976e+00 1.32136238565618e-01 7.80251462458146e-04
1.36914634146341e+00 1.31022981118314e-01 7.81301516783546e-04
1.39573170731707e+00 1.29919102950806e-01 7.82205419183759e-04
1.42231707317073e+00 1.28824525034133e-01 7.82968236956960e-04
1.44890243902439e+00 1.27739169013092e-01 7.83594823139784e-04
1.47548780487805e+00 1.26662957200033e-01 7.84089836812580e-04
1.50207317073171e+00 1.25595812547009e-01 7.84457748986783e-04
1.52865853658537e+00 1.24537658669574e-01 7.84702854044474e-04
1.55524390243902e+00 1.23488419812902e-01 7.84829280861813e-04
1.58182926829268e+00 1.22448020867371e-01 7.84840996545064e-04
1.60841463414634e+00 1.21416387362673e-01 7.84741822235244e-04
1.63500000000000e+00 1.20393445442870e-01 7.84535435924233e-04
1.66158536585366e+00 1.19379121886943e-01 7.84225380641773e-04
1.68817073170732e+00 1.18373344078457e-01 7.83815071428760e-04
1.71475609756098e+00 1.17376040024738e-01 7.83307801320035e-04
1.74134146341463e+00 1.16387138328023e-01 7.82706748532259e-04
1.76792682926829e+00 1.15406568197904e-01 7.82014977368580e-04
1.79451219512195e+00 1.14434259445853e-01 7.81235450029522e-04
1.82109756097561e+00 1.13470142463735e-01 7.80371027096120e-04
1.84768292682927e+00 1.12514148240527e-01 7.79424472959743e-04
1.87426829268293e+00 1.11566208336256e-01 7.78398461315439e-04
1.90085365853659e+00 1.10626254892750e-01 7.77295574934058e-04
1.92743902439024e+00 1.09694220628431e-01 7.76118315621200e-04
1.95402439024390e+00 1.08770038818787e-01 7.74869103759450e-04
1.98060975609756e+00 1.07853643311006e-01 7.73550282511939e-04
2.00719512195122e+00 1.06944968500319e-01 7.72164121211686e-04
2.03378048780488e+00 1.06043949343749e-01 7.70712818155344e-04
2.06036585365854e+00 1.05150521337466e-01 7.69198504540691e-04
2.08695121951220e+00 1.04264620525523e-01 7.67623243373085e-04
2.11353658536585e+00 1.03386183494979e-01 7.65989037555202e-04
2.14012195121951e+00 1.02515147358783e-01 7.64297828703355e-04
2.16670731707317e+00 1.01651449767881e-01 7.62551500204989e-04
2.19329268292683e+00 1.00795028890540e-01 7.60751880421969e-04
2.21987804878049e+00 9.99458234199563e-02 7.58900741239385e-04
2.24646341463415e+00 9.91037725696120e-02 7.56999805196512e-04
2.27304878048780e+00 9.82688160575612e-02 7.55050744010819e-04
2.29963414634146e+00 9.74408941171231e-02 7.53055181077888e-04
2.32621951219512e+00 9.66199474779410e-02 7.51014694125875e-04
2.35280487804878e+00 9.58059173726305e-02 7.48930813558247e-04
2.37939024390244e+00 9.49987455323380e-02 7.46805028816291e-04
2.40597560975610e+00 9.41983741722816e-02 7.44638786728414e-04
2.43256097560976e+00 9.34047460012200e-02 7.42433493595430e-04
2.45914634146341e+00 9.26178042040450e-02 7.40190516700353e-04
2.48573170731707e+00 9.18374924507260e-02 7.37911185451653e-04
2.51231707317073e+00 9.10637548795505e-02 7.35596793476668e-04
2.53890243902439e+00 9.02965361025838e-02 7.33248596841149e-04
2.56548780487805e+00 8.95357812015133e-02 7.30867819535745e-04
2.59207317073171e+00 8.87814357147542e-02 7.28455651733757e-04
2.61865853658537e+00 8.80334456454011e-02 7.26013251441615e-04
2.64524390243902e+00 8.72917574457641e-02 7.23541746299413e-04
2.67182926829268e+00 8.65563180221587e-02 7.21042231767775e-04
2.69841463414634e+00 8.58270747309302e-02 7.18515776122449e-04
2.72500000000000e+00 8.51039753665099e-02 7.15963418689926e-04
2.75158536585366e+00 8.43869681684957e-02 7.13386171270642e-04
2.77817073170732e+00 8.36760018073499e-02 7.10785019087217e-04
2.80475609756098e+00 8.29710253911043e-02 7.08160921450355e-04
2.83134146341463e+00 8.22719884515478e-02 7.05514813240039e-04
2.85792682926829e+00 8.15788409481799e-02 7.02847603117175e-04
2.88451219512195e+00 8.08915332644784e-02 7.00160177926635e-04
2.91109756097561e+00 8.02100161971631e-02 6.97453400965483e-04
2.93768292682927e+00 7.95342409621811e-02 6.94728113155784e-04
2.96426829268293e+00 7.88641591818960e-02 6.91985134352180e-04
2.99085365853659e+00 7.81997228885572e-02 6.89225261585790e-04
3.01743902439024e+00 7.75408845207335e-02 6.86449273121742e-04
3.04402439024390e+00 7.68875969133154e-02 6.83657926763230e-04
3.07060975609756e+00 7.62398133028657e-02 6.80851960886872e-04
3.09719512195122e+00 7.55974873157132e-02 6.78032095076809e-04
3.12378048780488e+00 7.49605729730269e-02 6.75199030533274e-04
3.15036585365854e+00 7.43290246792899e-02 6.72353451180065e-04
3.17695121951219e+00 7.37027972251676e-02 6.69496021987037e-04
3.20353658536585e+00 7.30818457841523e-02 6.66627392597156e-04
3.23012195121951e+00 7.24661259035206e-02 6.63748195707777e-04
3.25670731707317e+00 7.18555935088760e-02 6.60859047948930e-04
3.28329268292683e+00 7.12502048934141e-02 6.57960550879267e-04
3.30987804878049e+00 7.06499167204358e-02 6.55053289363758e-04
3.33646341463415e+00 7.00546860201419e-02 6.52137834942323e-04
3.36304878048780e+00 6.94644701811787e-02 6.49214744267991e-04
3.38963414634146e+00 6.88792269547090e-02 6.46284559895068e-04
3.41621951219512e+00 6.82989144443968e-02 6.43347811178369e-04
3.44280487804878e+00 6.77234911086148e-02 6.40405012712475e-04
3.46939024390244e+00 6.71529157573713e-02 6.37456667468176e-04
3.49597560975610e+00 6.65871475444021e-02 6.34503265288677e-04
3.52256097560976e+00 6.60261459708193e-02 6.31545283602384e-04
3.54914634146341e+00 6.54698708757557e-02 6.28583187811200e-04
3.57573170731707e+00 6.49182824398313e-02 6.25617431507455e-04
3.60231707317073e+00 6.43713411760737e-02 6.22648457258159e-04
3.62890243902439e+00 6.38290079317318e-02 6.19676695139276e-04
3.65548780487805e+00 6.32912438853879e-02 6.16702565573452e-04
3.68207317073171e+00 6.27580105397518e-02 6.13726477919393e-04
3.70865853658537e+00 6.22292697247703e-02 6.10748831092377e-04
3.73524390243902e+00 6.17049835891317e-02 6.07770014280787e-04
3.76182926829268e+00 6.11851146018500e-02 6.04790405543357e-04
3.78841463414634e+00 6.06696255495000e-02 6.01810374463287e-04
3.81500000000000e+00 6.01584795294543e-02 5.98830280798052e-04
3.84158536585366e+00 5.96516399526749e-02 5.95850475046371e-04
3.86817073170732e+00 5.91490705357531e-02 5.92871298734651e-04
3.89475609756098e+00 5.86507353035618e-02 5.89893084560260e-04
3.92134146341463e+00 5.81565985815193e-02 5.86916157024422e-04
3.94792682926829e+00 5.76666249968827e-02 5.83940831122125e-04
3.97451219512195e+00 5.71807794761453e-02 5.80967414757194e-04
4.00109756097561e+00 5.66990272388525e-02 5.77996207481304e-04
4.02768292682927e+00 5.62213337999814e-02 5.75027500994459e-04
4.05426829268293e+00 5.57476649626845e-02 5.72061579728186e-04
4.08085365853659e+00 5.52779868194098e-02 5.69098719595119e-04
4.10743902439024e+00 5.48122657494108e-02 5.66139190255291e-04
4.13402439024390e+00 5.43504684129278e-02 5.63183253913030e-04
4.16060975609756e+00 5.38925617533242e-02 5.60231165777619e-04
4.18719512195122e+00 5.34385129902716e-02 5.57283174280222e-04
4.21378048780488e+00 5.29882896217791e-02 5.54339521170036e-04
4.24036585365854e+00 5.25418594175612e-02 5.51400442034331e-04
4.26695121951219e+00 5.20991904199417e-02 5.48466165133986e-04
4.29353658536585e+00 5.16602509415077e-02 5.45536913474374e-04
4.32012195121951e+00 5.12250095597726e-02 5.42612903684187e-04
4.34670731707317e+00 5.07934351189962e-02 5.39694346426322e-04
4.37329268292683e+00 5.03654967239504e-02 5.36781446880228e-04
4.39987804878049e+00 4.99411637406929e-02 5.33874403632065e-04
4.42646341463415e+00 4.95204057943222e-02 5.30973410622807e-04
4.45304878048780e+00 4.91031927639465e-02 5.28078656080507e-04
4.47963414634146e+00 4.86894947843159e-02 5.25190322900483e-04
4.50621951219512e+00 4.82792822399557e-02 5.22308589092941e-04
4.53280487804878e+00 4.78725257658278e-02 5.19433626726636e-04
4.55939024390244e+00 4.74691962451781e-02 5.16565603762917e-04
4.58597560975610e+00 4.70692648047930e-02 5.13704683038463e-04
4.61256097560976e+00 4.66727028164612e-02 5.10851022618579e-04
4.63914634146341e+00 4.62794818914499e-02 5.08004775948700e-04
4.66573170731707e+00 4.58895738818931e-02 5.05166091909348e-04
4.69231707317073e+00 4.55029508754093e-02 5.02335115219636e-04
4.71890243902439e+00 4.51195851956149e-02 4.99511985454720e-04
4.74548780487805e+00 4.47394494000996e-02 4.96696838728951e-04
4.77207317073171e+00 4.43625162760568e-02 4.93889806749925e-04
4.79865853658537e+00 4.39887588415258e-02 4.91091017136449e-04
4.82524390243902e+00 4.36181503403191e-02 4.88300593794687e-04
4.85182926829268e+00 4.32506642424504e-02 4.85518655983181e-04
4.87841463414634e+00 4.28862742421944e-02 4.82745319900349e-04
4.90500000000000e+00 4.25249542539599e-02 4.79980697784107e-04
4.93158536585366e+00 4.21666784134001e-02 4.77224898208251e-04
4.95817073170732e+00 4.18114210726280e-02 4.74478026202308e-04
4.98475609756098e+00 4.14591568012693e-02 4.71740183288605e-04
5.01134146341463e+00 4.11098603817967e-02 4.69011467823097e-04
5.03792682926829e+00 4.07635068098474e-02 4.66291974126170e-04
5.06451219512195e+00 4.04200712923968e-02 4.63581793942884e-04
5.09109756097561e+00 4.00795292439496e-02 4.60881015605804e-04
5.11768292682927e+00 3.97418562874787e-02 4.58189724303263e-04
5.14426829268293e+00 3.94070282500215e-02 4.55508002398234e-04
5.17085365853659e+00 3.90750211629331e-02 4.52835928601357e-04
5.19743902439024e+00 3.87458112601371e-02 4.50173579350147e-04
5.22402439024390e+00 3.84193749745221e-02 4.47521028012460e-04
5.25060975609756e+00 3.80956889387786e-02 4.44878345137288e-04
5.27719512195122e+00 3.77747299812395e-02 4.42245598550823e-04
5.30378048780488e+00 3.74564751266717e-02 4.39622853381148e-04
5.33036585365854e+00 3.71409015922167e-02 4.37010172348050e-04
5.35695121951219e+00 3.68279867875622e-02 4.34407614994441e-04
5.38353658536585e+00 3.65177083132933e-02 4.31815238957582e-04
5.41012195121951e+00 3.62100439575625e-02 4.29233099228205e-04
5.43670731707317e+00 3.59049716967914e-02 4.26661248378614e-04
5.46329268292683e+00 3.56024696918355e-02 4.24099736834793e-04
5.48987804878049e+00 3.53025162881066e-02 4.21548612144994e-04
5.51646341463415e+00 3.50050900139944e-02 4.19007920181663e-04
5.54304878048780e+00 3.47101695777121e-02 4.16477704436957e-04
5.56963414634146e+00 3.44177338679185e-02 4.13958006236314e-04
5.59621951219512e+00 3.41277619500917e-02 4.11448864993737e-04
5.62280487804878e+00 3.38402330666090e-02 4.08950317516289e-04
5.64939024390244e+00 3.35551266352344e-02 4.06462399141019e-04
5.67597560975610e+00 3.32724222461303e-02 4.03985143064484e-04
5.70256097560976e+00 3.29920996624080e-02 4.01518580543328e-04
5.72914634146341e+00 3.27141388166957e-02 3.99062740965717e-04
5.75573170731707e+00 3.24385198116571e-02 3.96617651864297e-04
5.78231707317073e+00 3.21652229166397e-02 3.94183339149403e-04
5.80890243902439e+00 3.18942285677012e-02 3.91759826462245e-04
5.83548780487805e+00 3.16255173661844e-02 3.89347136225125e-04
5.86207317073171e+00 3.13590700759488e-02 3.86945289017941e-04
5.88865853658537e+00 3.10948676238254e-02 3.84554303761255e-04
5.91524390243902e+00 3.08328910964450e-02 3.82174197935697e-04
5.94182926829268e+00 3.05731217402330e-02 3.79804986966606e-04
5.96841463414634e+00 3.03155409600442e-02 3.77446685218377e-04
5.99500000000000e+00 3.00601303165371e-02 3.75099305401172e-04
6.02158536585366e+00 2.98068715265729e-02 3.72762858743105e-04
6.04817073170732e+00 2.95557464602116e-02 3.70437355048643e-04
6.07475609756098e+00 2.93067371410857e-02 3.68122802706251e-04
6.10134146341463e+00 2.90598257434647e-02 3.65819208889341e-04
6.12792682926829e+00 2.88149945922104e-02 3.63526578983865e-04
6.15451219512195e+00 2.85722261614906e-02 3.61244917507992e-04
6.18109756097561e+00 2.83315030723429e-02 3.58974227560115e-04
6.20768292682927e+00 2.80928080929997e-02 3.56714510976412e-04
6.23426829268293e+00 2.78561241361073e-02 3.54465768520257e-04
6.26085365853659e+00 2.76214342586580e-02 3.52227999337519e-04
6.28743902439024e+00 2.73887216607581e-02 3.50001201827954e-04
6.31402439024390e+00 2.71579696833155e-02 3.47785373119979e-04
6.34060975609756e+00 2.69291618083210e-02 3.45580509219075e-04
6.36719512195122e+00 2.67022816562120e-02 3.43386605055909e-04
6.39378048780488e+00 2.64773129861338e-02 3.41203654490172e-04
6.42036585365854e+00 2.62542396933629e-02 3.39031650484291e-04
6.44695121951219e+00 2.60330458092101e-02 3.36870584596665e-04
6.47353658536585e+00 2.58137154998599e-02 3.34720447788556e-04
6.50012195121951e+00 2.55962330642226e-02 3.32581229935150e-04
6.52670731707317e+00 2.53805829341576e-02 3.30452919961719e-04
6.55329268292683e+00 2.51667496720298e-02 3.28335506007595e-04
6.57987804878049e+00 2.49547179705968e-02 3.26228974943755e-04
6.60646341463415e+00 2.47444726518973e-02 3.24133313137894e-04
6.63304878048780e+00 2.45359986652105e-02 3.22048505989203e-04
6.65963414634146e+00 2.43292810872454e-02 3.19974538056678e-04
6.68621951219512e+00 2.41243051198229e-02 3.17911393213746e-04
6.71280487804878e+00 2.39210560897498e-02 3.15859054189283e-04
6.73939024390244e+00 2.37195194477525e-02 3.13817503293205e-04
6.76597560975610e+00 2.35196807665397e-02 3.11786721973543e-04
6.79256097560976e+00 2.33215257409596e-02 3.09766690937568e-04
6.81914634146341e+00 2.31250401858017e-02 3.07757390188643e-04
6.84573170731707e+00 2.29302100359401e-02 3.05758799026482e-04
6.87231707317073e+00 2.27370213441827e-02 3.03770896189476e-04
6.89890243902439e+00 2.25454602811276e-02 3.01793659427266e-04
6.92548780487805e+00 2.23555131341588e-02 2.99827066173457e-04
6.95207317073171e+00 2.21671663056436e-02 2.97871093133295e-04
6.97865853658537e+00 2.19804063130496e-02 2.95925716394952e-04
7.00524390243902e+00 2.17952197869036e-02 2.93990911563957e-04
7.03182926829268e+00 2.16115934706379e-02 2.92066653356370e-04
7.05841463414634e+00 2.14295142196290e-02 2.90152916237179e-04
7.08500000000000e+00 2.12489689994832e-02 2.88249674027668e-04
7.11158536585366e+00 2.10699448861303e-02 2.86356900010593e-04
7.13817073170732e+00 2.08924290638852e-02 2.84474566960850e-04
7.16475609756098e+00 2.07164088255304e-02 2.82602647144103e-04
7.19134146341463e+00 2.05418715704195e-02 2.80741112440654e-04
7.21792682926829e+00 2.03688048043126e-02 2.78889933966502e-04
7.24451219512195e+00 2.01971961384696e-02 2.77049082665737e-04
7.27109756097561e+00 2.00270332880545e-02 2.75218528944743e-04
7.29768292682927e+00 1.98583040721977e-02 2.73398242769045e-04
7.32426829268293e+00 1.96909964121947e-02 2.71588193780469e-04
7.35085365853659e+00 1.95250983313357e-02 2.69788350936285e-04
7.37743902439024e+00 1.93605979540366e-02 2.67998683071653e-04
7.40402439024390e+00 1.91974835043218e-02 2.66219158551348e-04
7.43060975609756e+00 1.90357433058679e-02 2.64449745361277e-04
7.45719512195122e+00 1.88753657802922e-02 2.62690411134100e-04
7.48378048780488e+00 1.87163394471882e-02 2.60941123146777e-04
7.51036585365854e+00 1.85586529224507e-02 2.59201848428588e-04
7.53695121951220e+00 1.84022949180981e-02 2.57472553424927e-04
7.56353658536585e+00 1.82472542414543e-02 2.55753204519602e-04
7.59012195121951e+00 1.80935197937342e-02 2.54043767710217e-04
7.61670731707317e+00 1.79410805700636e-02 2.52344208692578e-04
7.64329268292683e+00 1.77899256578873e-02 2.50654492962973e-04
7.66987804878049e+00 1.76400442367888e-02 2.48974585497943e-04
7.69646341463415e+00 1.74914255777063e-02 2.47304451250366e-04
7.72304878048780e+00 1.73440590415860e-02 2.45644054840374e-04
7.74963414634146e+00 1.71979340793891e-02 2.43993360635154e-04
7.77621951219512e+00 1.70530402305780e-02 2.42352332845651e-04
7.80280487804878e+00 1.69093671229341e-02 2.40720935221701e-04
7.82939024390244e+00 1.67669044718063e-02 2.39099131523321e-04
7.85597560975610e+00 1.66256420788293e-02 2.37486885226195e-04
7.88256097560976e+00 1.64855698319185e-02 2.35884159597278e-04
7.90914634146341e+00 1.63466777038303e-02 2.34290917714712e-04
7.93573170731707e+00 1.62089557521509e-02 2.32707122464346e-04
7.96231707317073e+00 1.60723941178867e-02 2.31132736629166e-04
7.98890243902439e+00 1.59369830252805e-02 2.29567722604933e-04
8.01548780487805e+00 1.58027127811023e-02 2.28012042838283e-04
8.04207317073171e+00 1.56695737734549e-02 2.26465659552175e-04
8.06865853658537e+00 1.55375564717513e-02 2.24928534815588e-04
8.09524390243902e+00 1.54066514253751e-02 2.23400630628246e-04
8.12182926829268e+00 1.52768492634955e-02 2.21881908649759e-04
8.14841463414634e+00 1.51481406943881e-02 2.20372330615948e-04
8.17500000000000e+00 1.50205165042973e-02 2.18871858077295e-04
8.20158536585366e+00 1.48939675574051e-02 2.17380452464972e-04
8.22817073170732e+00 1.47684847945562e-02 2.15898075107602e-04
8.25475609756097e+00 1.46440592332226e-02 2.14424687227389e-04
8.28134146341463e+00 1.45206819662553e-02 2.12960250018402e-04
8.30792682926829e+00 1.43983441616991e-02 2.11504724394016e-04
8.33451219512195e+00 1.42770370621529e-02 2.10058071374087e-04
8.36109756097561e+00 1.41567519837074e-02 2.08620251840943e-04
8.38768292682927e+00 1.40374803159023e-02 2.07191226600444e-04
