Energy (eV)          EEDF (eV^-(3/2))     First Anisotropy
6.54166666666667e-03 3.64298169553343e+00 3.80000556926959e-03
1.96250000000000e-02 3.53934042328134e+00 6.20649534187960e-03
3.27083333333333e-02 3.43864770059181e+00 8.01406538759076e-03
4.57916666666667e-02 3.34081964302889e+00 9.28284055365684e-03
5.88750000000000e-02 3.24577475194396e+00 1.02578239137135e-02
7.19583333333333e-02 3.15343384729345e+00 1.10348858485486e-02
8.50416666666667e-02 3.06372000196963e+00 1.16652423778975e-02
9.81250000000000e-02 2.97655847723239e+00 1.21807566903137e-02
1.11208333333333e-01 2.89187666032152e+00 1.26031593974311e-02
1.24291666666667e-01 2.80960400518961e+00 1.29482146359294e-02
1.37375000000000e-01 2.72967197211287e+00 1.32278769693080e-02
1.50458333333333e-01 2.65201397086219e+00 1.34515192334172e-02
1.63541666666667e-01 2.57656530673918e+00 1.36266828307112e-02
1.76625000000000e-01 2.50326312499351e+00 1.37595619135030e-02
1.89708333333333e-01 2.43204635873890e+00 1.38553296737881e-02
2.02791666666667e-01 2.36285567917683e+00 1.39183665268296e-02
2.15875000000000e-01 2.29563344497447e+00 1.39524244581319e-02
2.28958333333333e-01 2.23032365441722e+00 1.39607483286816e-02
2.42041666666667e-01 2.16687189958615e+00 1.39461676222627e-02
2.55125000000000e-01 2.10522532013761e+00 1.39111670871979e-02
2.68208333333333e-01 2.04533255938186e+00 1.38579419416342e-02
2.81291666666667e-01 1.98714372214791e+00 1.37884418545740e-02
2.94375000000000e-01 1.93061033252492e+00 1.37044063698071e-02
3.07458333333333e-01 1.87568529355961e+00 1.36073936858296e-02
3.20541666666667e-01 1.82232284853891e+00 1.34988044577517e-02
3.33625000000000e-01 1.77047854232211e+00 1.33799015993334e-02
3.46708333333333e-01 1.72010918436638e+00 1.32518268224377e-02
3.59791666666667e-01 1.67117281316620e+00 1.31156147101661e-02
3.72875000000000e-01 1.62362866085270e+00 1.29722047126602e-02
3.85958333333333e-01 1.57743711927645e+00 1.28224513710579e-02
3.99041666666667e-01 1.53255970735665e+00 1.26671332149530e-02
4.12125000000000e-01 1.48895903865996e+00 1.25069604896817e-02
4.25208333333333e-01 1.44659879029016e+00 1.23425818412892e-02
4.38291666666667e-01 1.40544367291577e+00 1.21745902421485e-02
4.51375000000000e-01 1.36545940107014e+00 1.20035282134568e-02
4.64458333333333e-01 1.32661266461698e+00 1.18298923933395e-02
4.77541666666667e-01 1.28887110124148e+00 1.16541376489290e-02
4.90625000000000e-01 1.25220326923802e+00 1.14766807432248e-02
5.03708333333333e-01 1.21657862133926e+00 1.12979035683762e-02
5.16791666666667e-01 1.18196747947155e+00 1.11181560948124e-02
5.29875000000000e-01 1.14834100981833e+00 1.09377590260045e-02
5.42958333333333e-01 1.11567119881757e+00 1.07570061527285e-02
5.56041666666667e-01 1.08393082999744e+00 1.05761665252428e-02
5.69125000000000e-01 1.05309346112257e+00 1.03954864236885e-02
5.82208333333333e-01 1.02313340218063e+00 1.02151911121960e-02
5.95291666666667e-01 9.94025694128454e-01 1.00354864738980e-02
6.08375000000000e-01 9.65746087945398e-01 9.85656050336536e-03
6.21458333333333e-01 9.38271024444461e-01 9.67858463832556e-03
6.34541666666667e-01 9.11577614772625e-01 9.50171501241047e-03
6.47625000000000e-01 8.85643621210770e-01 9.32609360453262e-03
6.60708333333333e-01 8.60447438658299e-01 9.15184926559433e-03
6.73791666666667e-01 8.35968076743880e-01 8.97909869245701e-03
6.86875000000000e-01 8.12185142225259e-01 8.80794732530444e-03
6.99958333333333e-01 7.89078822008815e-01 8.63849014923989e-03
7.13041666666667e-01 7.66629866738430e-01 8.47081246066038e-03
7.26125000000000e-01 7.44819574661109e-01 8.30499057578762e-03
7.39208333333333e-01 7.23629776054330e-01 8.14109246299677e-03
7.52291666666667e-01 7.03042818171457e-01 7.97917835182061e-03
7.65375000000000e-01 6.83041550450502e-01 7.81930129757156e-03
7.78458333333333e-01 6.63609310232629e-01 7.66150768434682e-03
7.91541666666667e-01 6.44729908952414e-01 7.50583771289880e-03
8.04625000000000e-01 6.26387618577475e-01 7.35232585397968e-03
8.17708333333333e-01 6.08567158511131e-01 7.20100125118186e-03
8.30791666666667e-01 5.91253682924925e-01 7.05188811433574e-03
8.43875000000000e-01 5.74432768326322e-01 6.90500608572985e-03
8.56958333333333e-01 5.58090401547391e-01 6.76037056445659e-03
8.70041666666667e-01 5.42212968125375e-01 6.61799302529549e-03
8.83125000000000e-01 5.26787240904326e-01 6.47788131598497e-03
8.96208333333333e-01 5.11800369019805e-01 6.34003991943432e-03
9.09291666666667e-01 4.97239867240980e-01 6.20447021326319e-03
9.22375000000000e-01 4.83093605520014e-01 6.07117071200504e-03
9.35458333333333e-01 4.69349798890183e-01 5.94013727971149e-03
9.48541666666667e-01 4.55996997690138e-01 5.81136334183633e-03
9.61625000000000e-01 4.43024077982030e-01 5.68484008310842e-03
9.74708333333333e-01 4.30420232287351e-01 5.56055662023792e-03
9.87791666666667e-01 4.18174960620461e-01 5.43850017525798e-03
1.00087500000000e+00 4.06278061703103e-01 5.31865624081157e-03
1.01395833333333e+00 3.94719624436188e-01 5.20100870710462e-03
1.02704166666667e+00 3.83490019805876e-01 5.08554001761793e-03
1.04012500000000e+00 3.72579892660683e-01 4.97223131776189e-03
1.05320833333333e+00 3.61980153906211e-01 4.86106252333407e-03
1.06629166666667e+00 3.51681973221143e-01 4.75201246313432e-03
1.07937500000000e+00 3.41676771404234e-01 4.64505901504441e-03
1.09245833333333e+00 3.31956213246631e-01 4.54017914428402e-03
1.10554166666667e+00 3.22512200842486e-01 4.43734902566964e-03
1.11862500000000e+00 3.13336866580645e-01 4.33654415725201e-03
1.13170833333333e+00 3.04422566607335e-01 4.23773938638596e-03
1.14479166666667e+00 2.95761874683472e-01 4.14090901192854e-03
1.15787500000000e+00 2.87347575766117e-01 4.04602687916687e-03
1.17095833333333e+00 2.79172660012686e-01 3.95306639626145e-03
1.18404166666667e+00 2.71230317140799e-01 3.86200061967701e-03
1.19712500000000e+00 2.63513930549345e-01 3.77280233346263e-03
1.21020833333333e+00 2.56017071819416e-01 3.68544405811035e-03
1.22329166666667e+00 2.48733495536000e-01 3.59989812193158e-03
1.23637500000000e+00 2.41657133902872e-01 3.51613672721564e-03
1.24945833333333e+00 2.34782091699134e-01 3.43413195313886e-03
1.26254166666667e+00 2.28102641525293e-01 3.35385581533280e-03
1.27562500000000e+00 2.21613218870132e-01 3.27528032101562e-03
1.28870833333333e+00 2.15308417485155e-01 3.19837746726531e-03
1.30179166666667e+00 2.09182985020554e-01 3.12311929064802e-03
1.31487500000000e+00 2.03231818505835e-01 3.04947791306641e-03
1.32795833333333e+00 1.97449960107557e-01 2.97742553645419e-03
1.34104166666667e+00 1.91832593123471e-01 2.90693448402531e-03
1.35412500000000e+00 1.86375037841937e-01 2.83797723829710e-03
1.36720833333333e+00 1.81072747651237e-01 2.77052643305852e-03
1.38029166666667e+00 1.75921305362670e-01 2.70455488754806e-03
1.39337500000000e+00 1.70916419416829e-01 2.64003563787476e-03
1.40645833333333e+00 1.66053920315349e-01 2.57694192694729e-03
1.41954166666667e+00 1.61329757246137e-01 2.51524723268030e-03
1.43262500000000e+00 1.56739994607260e-01 2.45492529384228e-03
1.44570833333333e+00 1.52280808734436e-01 2.39595009849955e-03
1.45879166666667e+00 1.47948484803710e-01 2.33829590717805e-03
1.47187500000000e+00 1.43739413646220e-01 2.28193727400584e-03
1.48495833333333e+00 1.39650088746930e-01 2.22684903411807e-03
1.49804166666667e+00 1.35677103402064e-01 2.17300632255757e-03
1.51112500000000e+00 1.31817147800287e-01 2.12038459144557e-03
1.52420833333333e+00 1.28067006270211e-01 2.06895959670593e-03
1.53729166666667e+00 1.24423554671734e-01 2.01870741336777e-03
1.55037500000000e+00 1.20883757721251e-01 1.96960444938551e-03
1.56345833333333e+00 1.17444666467317e-01 1.92162743196936e-03
1.57654166666667e+00 1.14103415896736e-01 1.87475341985231e-03
1.58962500000000e+00 1.10857222483308e-01 1.82895981428636e-03
1.60270833333333e+00 1.07703381872743e-01 1.78422434520773e-03
1.61579166666667e+00 1.04639266685904e-01 1.74052508094578e-03
1.62887500000000e+00 1.01662324272321e-01 1.69784043684283e-03
1.64195833333333e+00 9.87700745870327e-02 1.65614916143496e-03
1.65504166666667e+00 9.59601081747900e-02 1.61543034400881e-03
1.66812500000000e+00 9.32300841111871e-02 1.57566342122511e-03
1.68120833333333e+00 9.05777280555102e-02 1.53682816345714e-03
1.69429166666667e+00 8.80008304010596e-02 1.49890468054050e-03
1.70737500000000e+00 8.54972443881661e-02 1.46187342672397e-03
1.72045833333333e+00 8.30648843184651e-02 1.42571518727538e-03
1.73354166666667e+00 8.07017238576917e-02 1.39041108271851e-03
1.74662500000000e+00 7.84057943061873e-02 1.35594257238628e-03
1.75970833333333e+00 7.61751829612193e-02 1.32229144137802e-03
1.77279166666667e+00 7.40080315597200e-02 1.28943980353357e-03
1.78587500000000e+00 7.19025346930997e-02 1.25737010382309e-03
1.79895833333333e+00 6.98569383053407e-02 1.22606510571832e-03
1.81204166666667e+00 6.78695382641758e-02 1.19550789311687e-03
1.82512500000000e+00 6.59386789081315e-02 1.16568187176796e-03
1.83820833333333e+00 6.40627516691441e-02 1.13657075710266e-03
1.85129166666667e+00 6.22401937616119e-02 1.10815857528995e-03
1.86437500000000e+00 6.04694868506098e-02 1.08042966386765e-03
1.87745833333333e+00 5.87491557887057e-02 1.05336866006287e-03
1.89054166666667e+00 5.70777674131870e-02 1.02696050113391e-03
1.90362500000000e+00 5.54539293253164e-02 1.00119042435060e-03
1.91670833333333e+00 5.38762887318816e-02 9.76043955824387e-04
1.92979166666667e+00 5.23435313416918e-02 9.51506910267254e-04
1.94287500000000e+00 5.08543802465942e-02 9.27565390443781e-04
1.95595833333333e+00 4.94075948590757e-02 9.04205776521260e-04
1.96904166666667e+00 4.80019698998542e-02 8.81414725356906e-04
1.98212500000000e+00 4.66363343721549e-02 8.59179169525386e-04
1.99520833333333e+00 4.53095505874003e-02 8.37486307191803e-04
2.00829166666667e+00 4.40205132363936e-02 8.16323601021671e-04
2.02137500000000e+00 4.27681484490647e-02 7.95678776871725e-04
2.03445833333333e+00 4.15514129009478e-02 7.75539814182802e-04
2.04754166666667e+00 4.03692929610665e-02 7.55894944592408e-04
2.06062500000000e+00 3.92208038300158e-02 7.36732650363049e-04
2.07370833333333e+00 3.81049887205276e-02 7.18041655287410e-04
2.08679166666667e+00 3.70209180757371e-02 6.99810923070940e-04
2.09987500000000e+00 3.59676887790610e-02 6.82029655560239e-04
2.11295833333333e+00 3.49444234027099e-02 6.64687284149324e-04
2.12604166666667e+00 3.39502694905320e-02 6.47773467989025e-04
2.13912500000000e+00 3.29843988336971e-02 6.31278092068032e-04
2.15220833333333e+00 3.20460067815225e-02 6.15191259106208e-04
2.16529166666667e+00 3.11343115835683e-02 5.99503287638509e-04
2.17837500000000e+00 3.02485537256375e-02 5.84204709992732e-04
2.19145833333333e+00 2.93879952977491e-02 5.69286264653795e-04
2.20454166666667e+00 2.85519193905971e-02 5.54738894262102e-04
2.21762500000000e+00 2.77396294868368e-02 5.40553743524700e-04
2.23070833333333e+00 2.69504488814657e-02 5.26722152032993e-04
2.24379166666667e+00 2.61837201281625e-02 5.13235652208749e-04
2.25687500000000e+00 2.54388044812476e-02 5.00085967179145e-04
2.26995833333333e+00 2.47150813641287e-02 4.87265004029394e-04
2.28304166666667e+00 2.40119478614011e-02 4.74764851723890e-04
2.29612500000000e+00 2.33288182072599e-02 4.62577778970284e-04
2.30920833333333e+00 2.26651232980236e-02 4.50696227887844e-04
2.32229166666667e+00 2.20203102262195e-02 4.39112811926361e-04
2.33537500000000e+00 2.13938418115750e-02 4.27820313739852e-04
2.34845833333333e+00 2.07851961539648e-02 4.16811679251190e-04
2.36154166666667e+00 2.01938662060153e-02 4.06080015587243e-04
2.37462500000000e+00 1.96193593431266e-02 3.95618588978865e-04
2.38770833333333e+00 1.90611969534914e-02 3.85420819202299e-04
2.40079166666667e+00 1.85189140460380e-02 3.75480277545478e-04
2.41387500000000e+00 1.79920588562303e-02 3.65790684747676e-04
2.42695833333333e+00 1.74801924700858e-02 3.56345905798366e-04
2.44004166666667e+00 1.69828884645371e-02 3.47139947946522e-04
2.45312500000000e+00 1.64997325460310e-02 3.38166958690554e-04
2.46620833333333e+00 1.60303222057247e-02 3.29421220915550e-04
2.47929166666667e+00 1.55742663895896e-02 3.20897150954959e-04
2.49237500000000e+00 1.51311851670765e-02 3.12589296638975e-04
2.50545833333333e+00 1.47007094149056e-02 3.04492332751561e-04
2.51854166666667e+00 1.42824805144543e-02 2.96601059151716e-04
2.53162500000000e+00 1.38761500479859e-02 2.88910398886473e-04
2.54470833333333e+00 1.34813795086612e-02 2.81415393949646e-04
2.55779166666667e+00 1.30978400229574e-02 2.74111203468004e-04
2.57087500000000e+00 1.27252120721634e-02 2.66993101883429e-04
2.58395833333333e+00 1.23631852264402e-02 2.60056474995894e-04
2.59704166666667e+00 1.20114578902011e-02 2.53296818218355e-04
2.61012500000000e+00 1.16697370467712e-02 2.46709734831140e-04
2.62320833333333e+00 1.13377380145014e-02 2.40290932292358e-04
2.63629166666667e+00 1.10151842132133e-02 2.34036220564026e-04
2.64937500000000e+00 1.07018069300933e-02 2.27941510440601e-04
2.66245833333333e+00 1.03973450960326e-02 2.22002810110667e-04
2.67554166666667e+00 1.01015450713945e-02 2.16216223555782e-04
2.68862500000000e+00 9.81416043137699e-03 2.10577948954045e-04
2.70170833333333e+00 9.53495176090006e-03 2.05084275477655e-04
2.71479166666667e+00 9.26368645809951e-03 1.99731581765035e-04
2.72787500000000e+00 9.00013853753640e-03 1.94516334399549e-04
2.74095833333333e+00 8.74408844209493e-03 1.89435084928232e-04
2.75404166666667e+00 8.49532286273601e-03 1.84484468407007e-04
2.76712500000000e+00 8.25363455806927e-03 1.79661201954021e-04
2.78020833333333e+00 8.01882218185034e-03 1.74962081975548e-04
2.79329166666667e+00 7.79069011765014e-03 1.70383982783556e-04
2.80637500000000e+00 7.56904831342779e-03 1.65923855222548e-04
2.81945833333333e+00 7.35371212333365e-03 1.61578724089383e-04
2.83254166666667e+00 7.14450215606100e-03 1.57345686821956e-04
2.84562500000000e+00 6.94124412317167e-03 1.53221912198014e-04
2.85870833333333e+00 6.74376869401863e-03 1.49204637936332e-04
2.87179166666667e+00 6.55191135664840e-03 1.45291169454879e-04
2.88487500000000e+00 6.36551227873539e-03 1.41478878639753e-04
2.89795833333333e+00 6.18441617453596e-03 1.37765201615831e-04
2.91104166666667e+00 6.00847217730364e-03 1.34147637572509e-04
2.92412500000000e+00 5.83753371178318e-03 1.30623747600615e-04
2.93720833333333e+00 5.67145837219849e-03 1.27191152621342e-04
2.95029166666667e+00 5.51010780522824e-03 1.23847532277389e-04
2.96337500000000e+00 5.35334759309826e-03 1.20590623835559e-04
2.97645833333333e+00 5.20104714168817e-03 1.17418220263390e-04
2.98954166666667e+00 5.05307957319396e-03 1.14328169183390e-04
3.00262500000000e+00 4.90932161893710e-03 1.11318371838847e-04
3.01570833333333e+00 4.76965351675088e-03 1.08386781308223e-04
3.02879166666667e+00 4.63395891252846e-03 1.05531401520049e-04
3.04187500000000e+00 4.50212476194073e-03 1.02750286279393e-04
3.05495833333333e+00 4.37404123633264e-03 1.00041537610663e-04
3.06804166666667e+00 4.24960163242174e-03 9.74033048306480e-05
3.08112500000000e+00 4.12870228218384e-03 9.48337836330322e-05
3.09420833333333e+00 4.01124246655371e-03 9.23312145508436e-05
3.10729166666667e+00 3.89712433259962e-03 8.98938820850768e-05
3.12037500000000e+00 3.78625281089769e-03 8.75201138446237e-05
3.13345833333333e+00 3.67853553638977e-03 8.52082791201257e-05
3.14654166666667e+00 3.57388277241530e-03 8.29567880656211e-05
3.15962500000000e+00 3.47220733495177e-03 8.07640908912570e-05
3.17270833333333e+00 3.37342452003611e-03 7.86286765408325e-05
3.18579166666667e+00 3.27745203408658e-03 7.65490719239140e-05
3.19887500000000e+00 3.18420992443834e-03 7.45238411587234e-05
3.21195833333333e+00 3.09362051278416e-03 7.25515843461533e-05
3.22504166666667e+00 3.00560833126567e-03 7.06309368498202e-05
3.23812500000000e+00 2.92010005878078e-03 6.87605685865631e-05
3.25120833333333e+00 2.83702445994449e-03 6.69391828901783e-05
3.26429166666667e+00 2.75631232647201e-03 6.51655158369326e-05
3.27737500000000e+00 2.67789641877825e-03 6.34383355811700e-05
3.29045833333333e+00 2.60171141000089e-03 6.17564413024405e-05
3.30354166666667e+00 2.52769383223740e-03 6.01186625740574e-05
3.31662500000000e+00 2.45578202299671e-03 5.85238587413754e-05
3.32970833333333e+00 2.38591607386468e-03 5.69709179464112e-05
3.34279166666667e+00 2.31803778119332e-03 5.54587565370970e-05
3.35587500000000e+00 2.25209059700126e-03 5.39863184858638e-05
3.36895833333333e+00 2.18801958189664e-03 5.25525744862509e-05
3.38204166666667e+00 2.12577135984997e-03 5.11565214005775e-05
3.39512500000000e+00 2.06529407317366e-03 4.97971817165485e-05
3.40820833333333e+00 2.00653733934928e-03 4.84736027107152e-05
3.42129166666667e+00 1.94945220954598e-03 4.71848559323774e-05
3.43437500000000e+00 1.89399112734002e-03 4.59300366960205e-05
3.44745833333333e+00 1.84010788912268e-03 4.47082633068266e-05
3.46054166666667e+00 1.78775760605407e-03 4.35186765787055e-05
3.47362500000000e+00 1.73689666621201e-03 4.23604393604572e-05
3.48670833333333e+00 1.68748269828339e-03 4.12327358188699e-05
3.49979166666667e+00 1.63947453666923e-03 4.01347709888625e-05
3.51287500000000e+00 1.59283218677762e-03 3.90657703313597e-05
3.52595833333333e+00 1.54751679172653e-03 3.80249790698157e-05
3.53904166666667e+00 1.50349060033896e-03 3.70116617705391e-05
3.55212500000000e+00 1.46071693531888e-03 3.60251019303618e-05
3.56520833333333e+00 1.41916016271558e-03 3.50646013627146e-05
3.57829166666667e+00 1.37878566256968e-03 3.41294798062972e-05
3.59137500000000e+00 1.33955979973256e-03 3.32190745407113e-05
3.60445833333333e+00 1.30144989586311e-03 3.23327398184834e-05
3.61754166666667e+00 1.26442420250525e-03 3.14698465003306e-05
3.63062500000000e+00 1.22845187433103e-03 3.06297816970185e-05
3.64370833333333e+00 1.19350294345992e-03 2.98119482439784e-05
3.65679166666667e+00 1.15954829476640e-03 2.90157643615108e-05
3.66987500000000e+00 1.12655964134540e-03 2.82406633212154e-05
3.68295833333333e+00 1.09450950096148e-03 2.74860929600869e-05
3.69604166666667e+00 1.06337117340183e-03 2.67515153640784e-05
3.70912500000000e+00 1.03311871797941e-03 2.60364065575438e-05
3.72220833333333e+00 1.00372693193545e-03 2.53402560539127e-05
3.73529166666667e+00 9.75171329668314e-04 2.46625665611237e-05
3.74837500000000e+00 9.47428122105253e-04 2.40028536926029e-05
3.76145833333333e+00 9.20474196895984e-04 2.33606455518206e-05
3.77454166666667e+00 8.94287099362359e-04 2.27354824581890e-05
3.78762500000000e+00 8.68845013583208e-04 2.21269166781791e-05
3.80070833333333e+00 8.44126744230671e-04 2.15345120412610e-05
3.81379166666667e+00 8.20111699098008e-04 2.09578436849317e-05
3.82687500000000e+00 7.96779871755325e-04 2.03964978046554e-05
3.83995833333333e+00 7.74111824892354e-04 1.98500712988641e-05
3.85304166666667e+00 7.52088674293730e-04 1.93181715318620e-05
3.86612500000000e+00 7.30692072935095e-04 1.88004161013481e-05
3.87920833333333e+00 7.09904195707387e-04 1.82964325103214e-05
3.89229166666667e+00 6.89707724719706e-04 1.78058579466810e-05
3.90537500000000e+00 6.70085834716143e-04 1.73283390671625e-05
3.91845833333333e+00 6.51022179067001e-04 1.68635316941471e-05
3.93154166666667e+00 6.32500876289290e-04 1.64111006108446e-05
3.94462500000000e+00 6.14506496674582e-04 1.59707193605462e-05
3.95770833333333e+00 5.97024049442079e-04 1.55420699664822e-05
3.97079166666667e+00 5.80038970375897e-04 1.51248427415442e-05
3.98387500000000e+00 5.63537109563335e-04 1.47187361018205e-05
3.99695833333333e+00 5.47504719613456e-04 1.43234563077820e-05
4.01004166666667e+00 5.31928444318628e-04 1.39387172875609e-05
4.02312500000000e+00 5.16795307411006e-04 1.35642404638026e-05
4.03620833333333e+00 5.02092701758224e-04 1.31997545145827e-05
4.04929166666667e+00 4.87808378964383e-04 1.28449952093206e-05
4.06237500000000e+00 4.73930439060146e-04 1.24997052480419e-05
4.07545833333333e+00 4.60447320594527e-04 1.21636340405448e-05
4.08854166666667e+00 4.47347791097486e-04 1.18365375540872e-05
4.10162500000000e+00 4.34620937626109e-04 1.15181781642061e-05
4.11470833333333e+00 4.22256157678171e-04 1.12083244507645e-05
4.12779166666667e+00 4.10243150444964e-04 1.09067510566025e-05
