Energy (eV)          EEDF (eV^-(3/2))     First Anisotropy
2.70270270270270e-03 6.14366090124713e-01 8.25661129416088e-08
8.10810810810811e-03 6.14366000737304e-01 2.63098297778752e-07
1.35135135135135e-02 6.14365760545948e-01 6.55807819852598e-07
1.89189189189189e-02 6.14365363185955e-01 1.12696175180308e-06
2.43243243243243e-02 6.14364832841441e-01 1.62095026107934e-06
2.97297297297297e-02 6.14364184173601e-01 2.13812965073012e-06
3.51351351351351e-02 6.14363423440869e-01 2.68161439028284e-06
4.05405405405405e-02 6.14362555106990e-01 3.26741170291809e-06
4.59459459459459e-02 6.14361572042303e-01 3.91602573118582e-06
5.13513513513514e-02 6.14360466632533e-01 4.60857571539300e-06
5.67567567567568e-02 6.14359242552578e-01 5.33381602471077e-06
6.21621621621622e-02 6.14357897214235e-01 6.11053280766110e-06
6.75675675675676e-02 6.14356424417785e-01 6.94625481488901e-06
7.29729729729730e-02 6.14354818417600e-01 7.80376459054335e-06
7.83783783783784e-02 6.14353089904196e-01 8.67988069779677e-06
8.37837837837838e-02 6.14351233428875e-01 9.61132647692514e-06
8.91891891891892e-02 6.14349243574895e-01 1.05992149802032e-05
9.45945945945946e-02 6.14347114921516e-01 1.16441726565659e-05
1.00000000000000e-01 6.14344842232270e-01 1.27216003670345e-05
1.05405405405405e-01 6.14342429843419e-01 1.37997845372230e-05
1.10810810810811e-01 6.14339884011088e-01 1.48936171190197e-05
1.16216216216216e-01 6.14337202556720e-01 1.60252175967270e-05
1.21621621621622e-01 6.14334383248520e-01 1.71948771932071e-05
1.27027027027027e-01 6.14331423801815e-01 1.84029007145381e-05
1.32432432432432e-01 6.14328321884824e-01 1.96495890896593e-05
1.37837837837838e-01 6.14325075123128e-01 2.09352411440891e-05
1.43243243243243e-01 6.14321681103159e-01 2.22601549349195e-05
1.48648648648649e-01 6.14318137374928e-01 2.36246287494049e-05
1.54054054054054e-01 6.14314441454168e-01 2.50289618496464e-05
1.59459459459459e-01 6.14310590824014e-01 2.64734550259715e-05
1.64864864864865e-01 6.14306582936335e-01 2.79584109870242e-05
1.70270270270270e-01 6.14302415212769e-01 2.94841344982647e-05
1.75675675675676e-01 6.14298085045582e-01 3.10509165586219e-05
1.81081081081081e-01 6.14293589802890e-01 3.26589421165557e-05
1.86486486486486e-01 6.14288926854968e-01 3.43078694583211e-05
1.91891891891892e-01 6.14284093694149e-01 3.59962712606259e-05
1.97297297297297e-01 6.14279088104682e-01 3.77220160746438e-05
2.02702702702703e-01 6.14273908160801e-01 3.93717215689091e-05
2.08108108108108e-01 6.14268583844909e-01 4.09371072612160e-05
2.13513513513514e-01 6.14263114601557e-01 4.25230007289671e-05
2.18918918918919e-01 6.14257500154072e-01 4.41280792352043e-05
2.24324324324324e-01 6.14251740221620e-01 4.57520952621986e-05
2.29729729729730e-01 6.14245834518254e-01 4.73948187967253e-05
2.35135135135135e-01 6.14239782752100e-01 4.90560361487595e-05
2.40540540540541e-01 6.14233584624644e-01 5.07355488908056e-05
2.45945945945946e-01 6.14227239830112e-01 5.24331728908613e-05
2.51351351351351e-01 6.14220748054942e-01 5.41487374229768e-05
2.56756756756757e-01 6.14214108977311e-01 5.58820843452691e-05
2.62162162162162e-01 6.14207322266734e-01 5.76330673400439e-05
2.67567567567568e-01 6.14200387583716e-01 5.94015512108667e-05
2.72972972972973e-01 6.14193304579448e-01 6.11874087491622e-05
2.78378378378378e-01 6.14186072896140e-01 6.29905030789261e-05
2.83783783783784e-01 6.14178692170758e-01 6.48106031970383e-05
2.89189189189189e-01 6.14171162054680e-01 6.66472191175879e-05
2.94594594594595e-01 6.14163482254241e-01 6.84995796820483e-05
3.00000000000000e-01 6.14155652552582e-01 7.03846505088309e-05
3.05405405405405e-01 6.14147669663467e-01 7.24312431787934e-05
3.10810810810811e-01 6.14139505656126e-01 7.48376296303561e-05
3.16216216216216e-01 6.14131113309898e-01 7.76730689745809e-05
3.21621621621622e-01 6.14122450267362e-01 8.09034987743521e-05
3.27027027027027e-01 6.14113478624895e-01 8.44970247549086e-05
3.32432432432432e-01 6.14104164560894e-01 8.84237634884408e-05
3.37837837837838e-01 6.14094477997091e-01 9.26557014211910e-05
3.43243243243243e-01 6.14084392289724e-01 9.71665650828380e-05
3.48648648648649e-01 6.14073883947645e-01 1.01931701418157e-04
3.54054054054054e-01 6.14062932374805e-01 1.06927967317413e-04
3.59459459459459e-01 6.14051519634804e-01 1.12133627513555e-04
3.64864864864865e-01 6.14039630235445e-01 1.17528260095249e-04
3.70270270270270e-01 6.14027250931460e-01 1.23092668950529e-04
3.75675675675676e-01 6.14014370543744e-01 1.28808799991792e-04
3.81081081081081e-01 6.14000979794157e-01 1.34659650179406e-04
3.86486486486487e-01 6.13987071156694e-01 1.40629128708430e-04
3.91891891891892e-01 6.13972638732375e-01 1.46701905988083e-04
3.97297297297297e-01 6.13957678140994e-01 1.52863430321804e-04
4.02702702702703e-01 6.13942186400829e-01 1.59046793512415e-04
4.08108108108108e-01 6.13926176630684e-01 1.65495456969642e-04
4.13513513513514e-01 6.13909598158340e-01 1.72492362841257e-04
4.18918918918919e-01 6.13892405184438e-01 1.79995298168278e-04
4.24324324324324e-01 6.13874556758974e-01 1.87962913875270e-04
4.29729729729730e-01 6.13856016396318e-01 1.96356538236921e-04
4.35135135135135e-01 6.13836751719057e-01 2.05140018228573e-04
4.40540540540541e-01 6.13816734128321e-01 2.14279571224555e-04
4.45945945945946e-01 6.13795938498517e-01 2.23743646210008e-04
4.51351351351351e-01 6.13774342894538e-01 2.33502793830837e-04
4.56756756756757e-01 6.13751928309699e-01 2.43529544680125e-04
4.62162162162162e-01 6.13728678422786e-01 2.53798295231153e-04
4.67567567567568e-01 6.13704579372756e-01 2.64285200901038e-04
4.72972972972973e-01 6.13679619549742e-01 2.74968075005301e-04
4.78378378378378e-01 6.13653789401248e-01 2.85826289417154e-04
4.83783783783784e-01 6.13627081253127e-01 2.96840660933901e-04
4.89189189189189e-01 6.13599489147317e-01 3.07993320383073e-04
4.94594594594595e-01 6.13571008696385e-01 3.19267638557219e-04
5.00000000000000e-01 6.13541636942840e-01 3.30555589000494e-04
5.05405405405405e-01 6.13511390571665e-01 3.41771532515705e-04
5.10810810810811e-01 6.13480283546416e-01 3.53036598238497e-04
5.16216216216216e-01 6.13448308968569e-01 3.64446109576859e-04
5.21621621621622e-01 6.13415461998489e-01 3.75977903815146e-04
5.27027027027027e-01 6.13381739693771e-01 3.87611198152965e-04
5.32432432432432e-01 6.13347140857079e-01 3.99326526031733e-04
5.37837837837838e-01 6.13311665893749e-01 4.11105671699707e-04
5.43243243243243e-01 6.13275316678529e-01 4.22931608185279e-04
5.48648648648649e-01 6.13238096430844e-01 4.34788438449272e-04
5.54054054054054e-01 6.13200009598049e-01 4.46661339536183e-04
5.59459459459460e-01 6.13161061746145e-01 4.58536509546495e-04
5.64864864864865e-01 6.13121259457489e-01 4.70401117278831e-04
5.70270270270270e-01 6.13080610235051e-01 4.82243254355347e-04
5.75675675675676e-01 6.13039122412807e-01 4.94051888560771e-04
5.81081081081081e-01 6.12996805072089e-01 5.05816813281794e-04
5.86486486486486e-01 6.12953667964423e-01 5.17528578274779e-04
5.91891891891892e-01 6.12909721443166e-01 5.29178422862540e-04
5.97297297297297e-01 6.12864976400658e-01 5.40758284630796e-04
6.02702702702703e-01 6.12819444200486e-01 5.52639981574685e-04
6.08108108108108e-01 6.12773073561470e-01 5.65890605814725e-04
6.13513513513514e-01 6.12725699454261e-01 5.81465820749749e-04
6.18918918918919e-01 6.12677115273908e-01 5.99532370724668e-04
6.24324324324324e-01 6.12627132687314e-01 6.19900850956357e-04
6.29729729729730e-01 6.12575580422167e-01 6.42392726657182e-04
6.35135135135135e-01 6.12522303133366e-01 6.66839726338078e-04
6.40540540540541e-01 6.12467160341887e-01 6.93083269255432e-04
6.45945945945946e-01 6.12410025441410e-01 7.20973924669358e-04
6.51351351351351e-01 6.12350784768378e-01 7.50370900928708e-04
6.56756756756757e-01 6.12289336731419e-01 7.81141562662851e-04
6.62162162162162e-01 6.12225590996368e-01 8.13160974475687e-04
6.67567567567568e-01 6.12159467723353e-01 8.46311469590493e-04
6.72972972972973e-01 6.12090896852654e-01 8.80482241637837e-04
6.78378378378378e-01 6.12019817436321e-01 9.15568956157985e-04
6.83783783783784e-01 6.11946177013034e-01 9.51473372910618e-04
6.89189189189189e-01 6.11869931024849e-01 9.88102975788616e-04
6.94594594594595e-01 6.11791042273922e-01 1.02537066115557e-03
7.00000000000000e-01 6.11709480409284e-01 1.06309162991276e-03
7.05405405405405e-01 6.11625239038278e-01 1.10159639936708e-03
7.10810810810811e-01 6.11538238345764e-01 1.14262647887045e-03
7.16216216216216e-01 6.11448201426489e-01 1.18802218450277e-03
7.21621621621622e-01 6.11354765970833e-01 1.23817446047565e-03
7.27027027027027e-01 6.11257600840945e-01 1.29273009112975e-03
7.32432432432433e-01 6.11156404320448e-01 1.35135272448241e-03
7.37837837837838e-01 6.11050902456369e-01 1.41372211293028e-03
7.43243243243243e-01 6.10940847488477e-01 1.47953338668562e-03
7.48648648648649e-01 6.10826016361522e-01 1.54849635776405e-03
7.54054054054054e-01 6.10706209316159e-01 1.62033485293846e-03
7.59459459459459e-01 6.10581248554560e-01 1.69478607436924e-03
7.64864864864865e-01 6.10450976976933e-01 1.77159998671179e-03
7.70270270270270e-01 6.10315256985375e-01 1.85053872947161e-03
7.75675675675676e-01 6.10173969351671e-01 1.93137605256889e-03
7.81081081081081e-01 6.10027012145982e-01 2.01389676902441e-03
7.86486486486487e-01 6.09874299724237e-01 2.09789621385734e-03
7.91891891891892e-01 6.09715761773009e-01 2.18317972987735e-03
7.97297297297297e-01 6.09551342406326e-01 2.26956225141813e-03
8.02702702702703e-01 6.09380999301788e-01 2.35676660924578e-03
8.08108108108108e-01 6.09204717785474e-01 2.44391334939771e-03
8.13513513513514e-01 6.09022584600868e-01 2.52977705645502e-03
8.18918918918919e-01 6.08834763267807e-01 2.61383250179700e-03
8.24324324324324e-01 6.08641414621688e-01 2.69609535742906e-03
8.29729729729730e-01 6.08442696810578e-01 2.77658195601439e-03
8.35135135135135e-01 6.08238765289900e-01 2.85530931399531e-03
8.40540540540541e-01 6.08029772815193e-01 2.93229514908419e-03
8.45945945945946e-01 6.07815869433370e-01 3.00755789310091e-03
8.51351351351351e-01 6.07597202472787e-01 3.08111670077571e-03
8.56756756756757e-01 6.07373916532449e-01 3.15299145493879e-03
8.62162162162162e-01 6.07146153470610e-01 3.22320276848104e-03
8.67567567567568e-01 6.06914052392996e-01 3.29177198350287e-03
8.72972972972973e-01 6.06677749640869e-01 3.35872116760618e-03
8.78378378378378e-01 6.06437378779143e-01 3.42407310538861e-03
8.83783783783784e-01 6.06193070585091e-01 3.48785127789752e-03
8.89189189189189e-01 6.05944953038981e-01 3.55007984046921e-03
8.94594594594595e-01 6.05693151315432e-01 3.61078363546845e-03
9.00000000000000e-01 6.05437787771040e-01 3.66999383319774e-03
9.05405405405405e-01 6.05178981145312e-01 3.72832143108840e-03
9.10810810810811e-01 6.04916766412210e-01 3.78687994008342e-03
9.16216216216216e-01 6.04651105772294e-01 3.84612763800503e-03
9.21621621621622e-01 6.04381970343344e-01 3.90597435578121e-03
9.27027027027027e-01 6.04109335177459e-01 3.96636610738911e-03
9.32432432432432e-01 6.03833179108844e-01 4.02725053917405e-03
9.37837837837838e-01 6.03553484603794e-01 4.08857692901557e-03
9.43243243243243e-01 6.03270237612998e-01 4.15029618297535e-03
9.48648648648649e-01 6.02983427426278e-01 4.21236082949300e-03
9.54054054054054e-01 6.02693046529861e-01 4.27472501125402e-03
9.59459459459460e-01 6.02399090466278e-01 4.33734447487214e-03
9.64864864864865e-01 6.02101557696969e-01 4.40017655852557e-03
9.70270270270270e-01 6.01800449467676e-01 4.46318017748573e-03
9.75675675675676e-01 6.01495769676714e-01 4.52631580505302e-03
9.81081081081081e-01 6.01187524746575e-01 4.58954543657270e-03
9.86486486486487e-01 6.00875723500897e-01 4.65283251625417e-03
9.91891891891892e-01 6.00560377050208e-01 4.71614190081492e-03
9.97297297297297e-01 6.00241498676624e-01 4.77943998200056e-03
1.00270270270270e+00 5.99919103702501e-01 4.84625613617274e-03
1.00810810810811e+00 5.99592704285070e-01 4.92359466947836e-03
1.01351351351351e+00 5.99261381708605e-01 5.01679887090864e-03
1.01891891891892e+00 5.98923972549020e-01 5.12731910310575e-03
1.02432432432432e+00 5.98579378333523e-01 5.25429694822383e-03
1.02972972972973e+00 5.98226563750054e-01 5.39689193879852e-03
1.03513513513514e+00 5.97864554865905e-01 5.55428180142955e-03
1.04054054054054e+00 5.97492437354601e-01 5.72566270446833e-03
1.04594594594595e+00 5.97109354730569e-01 5.91024950494426e-03
1.05135135135135e+00 5.96714506591357e-01 6.10727599191428e-03
1.05675675675676e+00 5.96307146867320e-01 6.31599512418056e-03
1.06216216216216e+00 5.95886582078812e-01 6.53567926054547e-03
1.06756756756757e+00 5.95452169601059e-01 6.76562038094594e-03
1.07297297297297e+00 5.95003315936988e-01 7.00513029701554e-03
1.07837837837838e+00 5.94539474998375e-01 7.25354085080843e-03
1.08378378378378e+00 5.94060146395753e-01 7.51020410046980e-03
1.08918918918919e+00 5.93564873737606e-01 7.77449249100632e-03
1.09459459459459e+00 5.93053242939532e-01 8.04579900723048e-03
1.10000000000000e+00 5.92524880544263e-01 8.32542013673405e-03
1.10540540540541e+00 5.91979160508605e-01 8.61499493247308e-03
1.11081081081081e+00 5.91415447781415e-01 8.91290650227133e-03
1.11621621621622e+00 5.90833371600737e-01 9.21751256214893e-03
1.12162162162162e+00 5.90232560455093e-01 9.52860245084858e-03
1.12702702702703e+00 5.89612673545066e-01 9.84572582305511e-03
1.13243243243243e+00 5.88973399738711e-01 1.01684451580421e-02
1.13783783783784e+00 5.88314456538746e-01 1.04963357479006e-02
1.14324324324324e+00 5.87635589062365e-01 1.08289856686126e-02
1.14864864864865e+00 5.86936569034446e-01 1.11659957352556e-02
1.15405405405405e+00 5.86217193794825e-01 1.15069794423713e-02
1.15945945945946e+00 5.85477285320247e-01 1.18515628905748e-02
1.16486486486486e+00 5.84716689261557e-01 1.21993847003574e-02
1.17027027027027e+00 5.83935273996591e-01 1.25500959140483e-02
1.17567567567568e+00 5.83132929699210e-01 1.29033598869236e-02
1.18108108108108e+00 5.82309567424837e-01 1.32588521682689e-02
1.18648648648649e+00 5.81465118212796e-01 1.36162603727815e-02
1.19189189189189e+00 5.80599532205804e-01 1.39752840390050e-02
1.19729729729730e+00 5.79712777787317e-01 1.43356344698394e-02
1.20270270270270e+00 5.78804840737687e-01 1.47057068016168e-02
1.20810810810811e+00 5.77874381626628e-01 1.50846687658690e-02
1.21351351351351e+00 5.76921474411175e-01 1.54639162123287e-02
1.21891891891892e+00 5.75946106619830e-01 1.58441154187523e-02
1.22432432432432e+00 5.74948267890468e-01 1.62252195354250e-02
1.22972972972973e+00 5.73927950565717e-01 1.66071722056652e-02
1.23513513513514e+00 5.72885150262575e-01 1.69899079196499e-02
1.24054054054054e+00 5.71819866417101e-01 1.73733523608590e-02
1.24594594594595e+00 5.70732102804783e-01 1.77574227469183e-02
1.25135135135135e+00 5.69621868037167e-01 1.81420281647204e-02
1.25675675675676e+00 5.68489176035345e-01 1.85270698996435e-02
1.26216216216216e+00 5.67334046480885e-01 1.89124417587053e-02
1.26756756756757e+00 5.66156505244811e-01 1.92980303874608e-02
1.27297297297297e+00 5.64956584795211e-01 1.96837155804078e-02
1.27837837837838e+00 5.63734324584095e-01 2.00693705846751e-02
1.28378378378378e+00 5.62489771414089e-01 2.04548623969688e-02
1.28918918918919e+00 5.61222979785571e-01 2.08400520547026e-02
1.29459459459459e+00 5.59934012224707e-01 2.12247949234437e-02
1.30000000000000e+00 5.58622939592713e-01 2.16067707683143e-02
1.30540540540541e+00 5.57290170072619e-01 2.19840563046608e-02
1.31081081081081e+00 5.55936074847675e-01 2.23608029068816e-02
1.31621621621622e+00 5.54560493446976e-01 2.27419987285273e-02
1.32162162162162e+00 5.53163124337519e-01 2.31286966052861e-02
1.32702702702703e+00 5.51743679602895e-01 2.35206774272051e-02
1.33243243243243e+00 5.50301885569612e-01 2.39177112151629e-02
1.33783783783784e+00 5.48837483353933e-01 2.43195583861626e-02
1.34324324324324e+00 5.47350229330152e-01 2.47259710100315e-02
1.34864864864865e+00 5.45839895521602e-01 2.51366940528564e-02
1.35405405405405e+00 5.44306269915833e-01 2.55514666041686e-02
1.35945945945946e+00 5.42749156705591e-01 2.59700230854419e-02
1.36486486486486e+00 5.41168376457261e-01 2.63920944377003e-02
1.37027027027027e+00 5.39563766208622e-01 2.68174092862588e-02
1.37567567567568e+00 5.37935179497796e-01 2.72456950808196e-02
1.38108108108108e+00 5.36282486325372e-01 2.76766792093447e-02
1.38648648648649e+00 5.34605573051733e-01 2.81100900843850e-02
1.39189189189189e+00 5.32904342231692e-01 2.85456582006604e-02
1.39729729729730e+00 5.31178712388554e-01 2.89831171628920e-02
1.40270270270270e+00 5.29428617729770e-01 2.94222468572367e-02
1.40810810810811e+00 5.27654002767980e-01 2.98631040164520e-02
1.41351351351351e+00 5.25854794448270e-01 3.03059360581441e-02
1.41891891891892e+00 5.24030907241183e-01 3.07507236283030e-02
1.42432432432432e+00 5.22182270047132e-01 3.11972221942443e-02
1.42972972972973e+00 5.20308826149567e-01 3.16451873016233e-02
1.43513513513514e+00 5.18410533136702e-01 3.20943751045227e-02
1.44054054054054e+00 5.16487362794048e-01 3.25445428612911e-02
1.44594594594595e+00 5.14539300969901e-01 3.29954493972425e-02
1.45135135135135e+00 5.12566347415875e-01 3.34468555355018e-02
1.45675675675676e+00 5.10568515604434e-01 3.38985244972997e-02
1.46216216216216e+00 5.08545832525313e-01 3.43502222729307e-02
1.46756756756757e+00 5.06498338462630e-01 3.48017179646615e-02
1.47297297297297e+00 5.04426086754381e-01 3.52527841027624e-02
1.47837837837838e+00 5.02329143535954e-01 3.57031969357234e-02
1.48378378378378e+00 5.00207587469210e-01 3.61527366953029e-02
1.48918918918919e+00 4.98061509458664e-01 3.66011878331126e-02
1.49459459459459e+00 4.95891012356669e-01 3.70483392198863e-02
1.50000000000000e+00 4.93696210660171e-01 3.75005892635738e-02
1.50540540540541e+00 4.91476233543180e-01 3.79657364963891e-02
1.51081081081081e+00 4.89230049022165e-01 3.84375254989981e-02
1.51621621621622e+00 4.86957732452635e-01 3.89063194080645e-02
1.52162162162162e+00 4.84659603738998e-01 3.93701711821461e-02
1.52702702702703e+00 4.82335965146706e-01 3.98293500863823e-02
1.53243243243243e+00 4.79987102894897e-01 4.02840997352881e-02
1.53783783783784e+00 4.77613288691667e-01 4.07346389537766e-02
1.54324324324324e+00 4.75214781213037e-01 4.11811626290269e-02
1.54864864864865e+00 4.72791827526376e-01 4.16238425565119e-02
1.55405405405405e+00 4.70344664458965e-01 4.20628282802003e-02
1.55945945945946e+00 4.67873519912412e-01 4.24982479262104e-02
1.56486486486486e+00 4.65378614123665e-01 4.29302090290571e-02
1.57027027027027e+00 4.62860160873412e-01 4.33587993496906e-02
1.57567567567568e+00 4.60318368642696e-01 4.37840876845329e-02
1.58108108108108e+00 4.57753441718580e-01 4.42061246642515e-02
1.58648648648649e+00 4.55165581249830e-01 4.46249435390141e-02
1.59189189189189e+00 4.52554986253809e-01 4.50405609286816e-02
1.59729729729730e+00 4.49921854578015e-01 4.54529775027292e-02
1.60270270270270e+00 4.47266383821539e-01 4.58949248617334e-02
1.60810810810811e+00 4.44583891638744e-01 4.63763806873103e-02
1.61351351351351e+00 4.41873387624625e-01 4.68785583185632e-02
1.61891891891892e+00 4.39133437731883e-01 4.74047719762043e-02
1.62432432432432e+00 4.36362666694666e-01 4.79540073204343e-02
1.62972972972973e+00 4.33559758874737e-01 4.85252355655281e-02
1.63513513513514e+00 4.30723458925119e-01 4.91174166795326e-02
1.64054054054054e+00 4.27852572271935e-01 4.97295025754225e-02
1.64594594594595e+00 4.24945965415046e-01 5.03604402896912e-02
1.65135135135135e+00 4.22002566048621e-01 5.10091751402727e-02
1.65675675675676e+00 4.19021363003132e-01 5.16746538566167e-02
1.66216216216216e+00 4.16001406010697e-01 5.23558276752076e-02
1.66756756756757e+00 4.12941805296004e-01 5.30516553943701e-02
1.67297297297297e+00 4.09841730995382e-01 5.37611063826842e-02
1.67837837837838e+00 4.06700412406902e-01 5.44831635357228e-02
1.68378378378378e+00 4.03517137074614e-01 5.52168261751539e-02
1.68918918918919e+00 4.00291249710460e-01 5.59611128744004e-02
1.69459459459459e+00 3.97022150958783e-01 5.67150641871778e-02
1.70000000000000e+00 3.93709296009642e-01 5.74941132189534e-02
1.70540540540541e+00 3.90349621581073e-01 5.83021352277352e-02
