Energy (eV)          EEDF (eV^-(3/2))     First Anisotropy
2.93750000000000e-03 2.80381634316524e+00 1.81563267454927e-03
8.81250000000000e-03 2.77364959210334e+00 2.99205562905930e-03
1.46875000000000e-02 2.74380741039351e+00 3.93380470405861e-03
2.05625000000000e-02 2.71428630594155e+00 4.63956740501268e-03
2.64375000000000e-02 2.68508282422185e+00 5.22021657377767e-03
3.23125000000000e-02 2.65619354787609e+00 5.71791651545186e-03
3.81875000000000e-02 2.62761509631374e+00 6.15460826884290e-03
4.40625000000000e-02 2.59934412531659e+00 6.54361291362107e-03
4.99375000000000e-02 2.57137732664743e+00 6.89381215264521e-03
5.58125000000000e-02 2.54371142766294e+00 7.21151631679497e-03
6.16875000000000e-02 2.51634319093073e+00 7.50142084737938e-03
6.75625000000000e-02 2.48926941385050e+00 7.76714485369129e-03
7.34375000000000e-02 2.46248692827930e+00 8.01155649316469e-03
7.93125000000000e-02 2.43599260016078e+00 8.23698058269969e-03
8.51875000000000e-02 2.40978332915844e+00 8.44533697462825e-03
9.10625000000000e-02 2.38385604829285e+00 8.63823614357494e-03
9.69375000000000e-02 2.35820772358274e+00 8.81704721813669e-03
1.02812500000000e-01 2.33283535368999e+00 8.98294764482890e-03
1.08687500000000e-01 2.30773596956839e+00 9.13696024339361e-03
1.14562500000000e-01 2.28290663411622e+00 9.27998138464567e-03
1.20437500000000e-01 2.25834444183255e+00 9.41280277818269e-03
1.26312500000000e-01 2.23404651847726e+00 9.53612856997845e-03
1.32187500000000e-01 2.21001002073465e+00 9.65058893764051e-03
1.38062500000000e-01 2.18623213588078e+00 9.75675102961616e-03
1.43937500000000e-01 2.16271008145429e+00 9.85512786197246e-03
1.49812500000000e-01 2.13944110493080e+00 9.94618562475939e-03
1.55687500000000e-01 2.11642248340084e+00 1.00303497357077e-02
1.61562500000000e-01 2.09365152325119e+00 1.01080098969447e-02
1.67437500000000e-01 2.07112555984969e+00 1.01795243505974e-02
1.73312500000000e-01 2.04884195723341e+00 1.02452234849816e-02
1.79187500000000e-01 2.02679810780022e+00 1.03054129100500e-02
1.85062500000000e-01 2.00499143200363e+00 1.03603760958123e-02
1.90937500000000e-01 1.98341937805096e+00 1.04103766483572e-02
1.96812500000000e-01 1.96207942160470e+00 1.04556602834002e-02
2.02687500000000e-01 1.94096906548713e+00 1.04964565458316e-02
2.08562500000000e-01 1.92008583938809e+00 1.05329803147443e-02
2.14437500000000e-01 1.89942729957595e+00 1.05654331263169e-02
2.20312500000000e-01 1.87899102861160e+00 1.05940043412618e-02
2.26187500000000e-01 1.85877463506557e+00 1.06188721789923e-02
2.32062500000000e-01 1.83877575323821e+00 1.06402046370062e-02
2.37937500000000e-01 1.81899204288285e+00 1.06581603109844e-02
2.43812500000000e-01 1.79942118893194e+00 1.06728891286724e-02
2.49687500000000e-01 1.78006090122615e+00 1.06845330086067e-02
2.55562500000000e-01 1.76090891424637e+00 1.06932264530916e-02
2.61437500000000e-01 1.74196298684860e+00 1.06990970834551e-02
2.67312500000000e-01 1.72322090200172e+00 1.07022661244692e-02
2.73187500000000e-01 1.70468046652803e+00 1.07028488438595e-02
2.79062500000000e-01 1.68633951084659e+00 1.07009549520160e-02
2.84937500000000e-01 1.66819588871940e+00 1.06966889663387e-02
2.90812500000000e-01 1.65024747700018e+00 1.06901505440723e-02
2.96687500000000e-01 1.63249217538597e+00 1.06814347869885e-02
3.02562500000000e-01 1.61492790617133e+00 1.06706325208539e-02
3.08437500000000e-01 1.59755261400521e+00 1.06578305522656e-02
3.14312500000000e-01 1.58036426565045e+00 1.06431119051187e-02
3.20187500000000e-01 1.56336084974585e+00 1.06265560387061e-02
3.26062500000000e-01 1.54654037657080e+00 1.06082390492215e-02
3.31937500000000e-01 1.52990087781241e+00 1.05882338562306e-02
3.37812500000000e-01 1.51344040633525e+00 1.05666103755051e-02
3.43687500000000e-01 1.49715703595345e+00 1.05434356794574e-02
3.49562500000000e-01 1.48104886120531e+00 1.05187741462853e-02
3.55437500000000e-01 1.46511399713032e+00 1.04926875988156e-02
3.61312500000000e-01 1.44935057904860e+00 1.04652354339322e-02
3.67187500000000e-01 1.43375676234268e+00 1.04364747433873e-02
3.73062500000000e-01 1.41833072224166e+00 1.04064604267113e-02
3.78937500000000e-01 1.40307065360765e+00 1.03752452968667e-02
3.84812500000000e-01 1.38797477072459e+00 1.03428801792291e-02
3.90687500000000e-01 1.37304130708922e+00 1.03094140044232e-02
3.96562500000000e-01 1.35826851520442e+00 1.02748938954924e-02
4.02437500000000e-01 1.34365466637467e+00 1.02393652498319e-02
4.08312500000000e-01 1.32919805050382e+00 1.02028718162843e-02
4.14187500000000e-01 1.31489697589492e+00 1.01654557677527e-02
4.20062500000000e-01 1.30074976905229e+00 1.01271577696580e-02
4.25937500000000e-01 1.28675477448570e+00 1.00880170445419e-02
4.31812500000000e-01 1.27291035451660e+00 1.00480714330854e-02
4.37687500000000e-01 1.25921488908654e+00 1.00073574517942e-02
4.43562500000000e-01 1.24566677556753e+00 9.96591034757938e-03
4.49437500000000e-01 1.23226442857457e+00 9.92376414944130e-03
4.55312500000000e-01 1.21900627978007e+00 9.88095171745492e-03
4.61187500000000e-01 1.20589077773036e+00 9.83750478922930e-03
4.67062500000000e-01 1.19291638766413e+00 9.79345402400526e-03
4.72937500000000e-01 1.18008159133284e+00 9.74882904454629e-03
4.78812500000000e-01 1.16738488682304e+00 9.70365847695639e-03
4.84687500000000e-01 1.15482478838065e+00 9.65796998855660e-03
4.90562500000000e-01 1.14239982623706e+00 9.61179032394161e-03
4.96437500000000e-01 1.13010854643717e+00 9.56514533931958e-03
5.02312500000000e-01 1.11794951066922e+00 9.51806003524393e-03
5.08187500000000e-01 1.10592129609653e+00 9.47055858783216e-03
5.14062500000000e-01 1.09402249519093e+00 9.42266437855370e-03
5.19937500000000e-01 1.08225171556812e+00 9.37440002267408e-03
5.25812500000000e-01 1.07060757982470e+00 9.32578739643170e-03
5.31687500000000e-01 1.05908872537700e+00 9.27684766301520e-03
5.37562500000000e-01 1.04769380430160e+00 9.22760129741007e-03
5.43437500000000e-01 1.03642148317765e+00 9.17806811017475e-03
5.49312500000000e-01 1.02527044293080e+00 9.12826727020613e-03
5.55187500000000e-01 1.01423937867887e+00 9.07821732654580e-03
5.61062500000000e-01 1.00332699957909e+00 9.02793622927868e-03
5.66937500000000e-01 9.92532028677151e-01 8.97744134957298e-03
5.72812500000000e-01 9.81853202757674e-01 8.92674949890288e-03
5.78687500000000e-01 9.71289272196456e-01 8.87587694749688e-03
5.84562500000000e-01 9.60839000814215e-01 8.82483944205074e-03
5.90437500000000e-01 9.50501165731941e-01 8.77365222274172e-03
5.96312500000000e-01 9.40274557227789e-01 8.72233003957831e-03
6.02187500000000e-01 9.30157978595528e-01 8.67088716811721e-03
6.08062500000000e-01 9.20150246004496e-01 8.61933742457931e-03
6.13937500000000e-01 9.10250188361073e-01 8.56769418039206e-03
6.19812500000000e-01 9.00456647171641e-01 8.51597037618538e-03
6.25687500000000e-01 8.90768476407016e-01 8.46417853526706e-03
6.31562500000000e-01 8.81184542368345e-01 8.41233077660225e-03
6.37437500000000e-01 8.71703723554439e-01 8.36043882731758e-03
6.43312500000000e-01 8.62324910530535e-01 8.30851403475261e-03
6.49187500000000e-01 8.53047005798473e-01 8.25656737808025e-03
6.55062500000000e-01 8.43868923668272e-01 8.20460947951292e-03
6.60937500000000e-01 8.34789590131073e-01 8.15265061511303e-03
6.66812500000000e-01 8.25807942733473e-01 8.10070072522617e-03
6.72687500000000e-01 8.16922930453187e-01 8.04876942455289e-03
6.78562500000000e-01 8.08133513576064e-01 7.99686601187216e-03
6.84437500000000e-01 7.99438663574420e-01 7.94499947943490e-03
6.90312500000000e-01 7.90837362986680e-01 7.89317852203892e-03
6.96187500000000e-01 7.82328605298316e-01 7.84141154579799e-03
7.02062500000000e-01 7.73911394824067e-01 7.78970667661976e-03
7.07937500000000e-01 7.65584746591423e-01 7.73807176840325e-03
7.13812500000000e-01 7.57347686225366e-01 7.68651441096635e-03
7.19687500000000e-01 7.49199249834351e-01 7.63504193771487e-03
7.25562500000000e-01 7.41138483897509e-01 7.58366143306343e-03
7.31437500000000e-01 7.33164445153070e-01 7.53237973961740e-03
7.37312500000000e-01 7.25276200487981e-01 7.48120346512697e-03
7.43187500000000e-01 7.17472826828719e-01 7.43013898921912e-03
7.49062500000000e-01 7.09753411033268e-01 7.37919246991757e-03
7.54937500000000e-01 7.02117049784267e-01 7.32836984995995e-03
7.60812500000000e-01 6.94562849483307e-01 7.27767686291725e-03
7.66687500000000e-01 6.87089926146358e-01 7.22711903912458e-03
7.72562500000000e-01 6.79697405300330e-01 7.17670171142971e-03
7.78437500000000e-01 6.72384421880744e-01 7.12643002076688e-03
7.84312500000000e-01 6.65150120130497e-01 7.07630892156018e-03
7.90187500000000e-01 6.57993653499730e-01 7.02634318696484e-03
7.96062500000000e-01 6.50914184546762e-01 6.97653741395136e-03
8.01937500000000e-01 6.43910884840092e-01 6.92689602823735e-03
8.07812500000000e-01 6.36982934861459e-01 6.87742328907408e-03
8.13687500000000e-01 6.30129523909944e-01 6.82812329389102e-03
8.19562500000000e-01 6.23349850007100e-01 6.77899998280398e-03
8.25437500000000e-01 6.16643119803106e-01 6.73005714299287e-03
8.31312500000000e-01 6.10008548483932e-01 6.68129841295134e-03
8.37187500000000e-01 6.03445359679499e-01 6.63272728661355e-03
8.43062500000000e-01 5.96952785372829e-01 6.58434711736318e-03
8.48937500000000e-01 5.90530065810175e-01 6.53616112192680e-03
8.54812500000000e-01 5.84176449412111e-01 6.48817238415722e-03
8.60687500000000e-01 5.77891192685588e-01 6.44038385870888e-03
8.66562500000000e-01 5.71673560136928e-01 6.39279837461003e-03
8.72437500000000e-01 5.65522824185758e-01 6.34541863873441e-03
8.78312500000000e-01 5.59438265079871e-01 6.29824723917632e-03
8.84187500000000e-01 5.53419170810997e-01 6.25128664853040e-03
8.90062500000000e-01 5.47464837031491e-01 6.20453922708182e-03
8.95937500000000e-01 5.41574566971906e-01 6.15800722590812e-03
9.01812500000000e-01 5.35747671359460e-01 6.11169278989511e-03
9.07687500000000e-01 5.29983468337377e-01 6.06559796067103e-03
9.13562500000000e-01 5.24281283385098e-01 6.01972467945964e-03
9.19437500000000e-01 5.18640449239349e-01 5.97407478985661e-03
9.25312500000000e-01 5.13060305816059e-01 5.92865004053038e-03
9.31187500000000e-01 5.07540200133114e-01 5.88345208784975e-03
9.37062500000000e-01 5.02079486233953e-01 5.83848249844114e-03
9.42937500000000e-01 4.96677525111972e-01 5.79374275167747e-03
9.48812500000000e-01 4.91333684635753e-01 5.74923424210051e-03
9.54687500000000e-01 4.86047339475088e-01 5.70495828177804e-03
9.60562500000000e-01 4.80817871027809e-01 5.66091610259889e-03
9.66437500000000e-01 4.75644667347394e-01 5.61710885850768e-03
9.72312500000000e-01 4.70527123071365e-01 5.57353762767994e-03
9.78187500000000e-01 4.65464639350441e-01 5.53020341464047e-03
9.84062500000000e-01 4.60456623778468e-01 5.48710715232547e-03
9.89937500000000e-01 4.55502490323091e-01 5.44424970409101e-03
9.95812500000000e-01 4.50601659257182e-01 5.40163186566978e-03
1.00168750000000e+00 4.45753557090998e-01 5.35925436707595e-03
1.00756250000000e+00 4.40957616505072e-01 5.31711787446055e-03
1.01343750000000e+00 4.36213276283827e-01 5.27522299191999e-03
1.01931250000000e+00 4.31519981249902e-01 5.23357026325638e-03
1.02518750000000e+00 4.26877182199188e-01 5.19216017369321e-03
1.03106250000000e+00 4.22284335836557e-01 5.15099315154711e-03
1.03693750000000e+00 4.17740904712291e-01 5.11006956985602e-03
1.04281250000000e+00 4.13246357159186e-01 5.06938974796632e-03
1.04868750000000e+00 4.08800167230339e-01 5.02895395307894e-03
1.05456250000000e+00 4.04401814637601e-01 4.98876240175634e-03
1.06043750000000e+00 4.00050784690695e-01 4.94881526139060e-03
1.06631250000000e+00 3.95746568236988e-01 4.90911265163484e-03
1.07218750000000e+00 3.91488661601906e-01 4.86965464579791e-03
1.07806250000000e+00 3.87276566530003e-01 4.83044127220377e-03
1.08393750000000e+00 3.83109790126645e-01 4.79147251551663e-03
1.08981250000000e+00 3.78987844800342e-01 4.75274831803247e-03
1.09568750000000e+00 3.74910248205684e-01 4.71426858093819e-03
1.10156250000000e+00 3.70876523186902e-01 4.67603316553866e-03
1.10743750000000e+00 3.66886197722025e-01 4.63804189445314e-03
1.11331250000000e+00 3.62938804867654e-01 4.60029455278179e-03
1.11918750000000e+00 3.59033882704314e-01 4.56279088924273e-03
1.12506250000000e+00 3.55170974282401e-01 4.52553061728043e-03
1.13093750000000e+00 3.51349627568713e-01 4.48851341614658e-03
1.13681250000000e+00 3.47569395393554e-01 4.45173893195383e-03
1.14268750000000e+00 3.43829835398403e-01 4.41520677870324e-03
1.14856250000000e+00 3.40130509984152e-01 4.37891653928585e-03
1.15443750000000e+00 3.36470986259898e-01 4.34286776645952e-03
1.16031250000000e+00 3.32850835992289e-01 4.30705998380125e-03
1.16618750000000e+00 3.29269635555409e-01 4.27149268663575e-03
1.17206250000000e+00 3.25726965881207e-01 4.23616534294070e-03
1.17793750000000e+00 3.22222412410461e-01 4.20107739422987e-03
1.18381250000000e+00 3.18755565044263e-01 4.16622825641438e-03
1.18968750000000e+00 3.15326018096029e-01 4.13161732064171e-03
1.19556250000000e+00 3.11933370244030e-01 4.09724395411405e-03
1.20143750000000e+00 3.08577224484428e-01 4.06310750088694e-03
1.20731250000000e+00 3.05257188084818e-01 4.02920728264778e-03
1.21318750000000e+00 3.01972872538272e-01 3.99554259947426e-03
1.21906250000000e+00 2.98723893517877e-01 3.96211273057479e-03
1.22493750000000e+00 2.95509870831758e-01 3.92891693501040e-03
1.23081250000000e+00 2.92330428378593e-01 3.89595445239795e-03
1.23668750000000e+00 2.89185194103601e-01 3.86322450359663e-03
1.24256250000000e+00 2.86073799955000e-01 3.83072629137689e-03
1.24843750000000e+00 2.82995881840945e-01 3.79845900107298e-03
1.25431250000000e+00 2.79951079586917e-01 3.76642180121944e-03
1.26018750000000e+00 2.76939036893580e-01 3.73461384417102e-03
1.26606250000000e+00 2.73959401295081e-01 3.70303426670738e-03
1.27193750000000e+00 2.71011824117812e-01 3.67168219062317e-03
1.27781250000000e+00 2.68095960439606e-01 3.64055672330293e-03
1.28368750000000e+00 2.65211469049371e-01 3.60965695828169e-03
1.28956250000000e+00 2.62358012407166e-01 3.57898197579117e-03
1.29543750000000e+00 2.59535256604704e-01 3.54853084329326e-03
1.30131250000000e+00 2.56742871326272e-01 3.51830261599926e-03
1.30718750000000e+00 2.53980529810083e-01 3.48829633737615e-03
1.31306250000000e+00 2.51247908810038e-01 3.45851103964062e-03
1.31893750000000e+00 2.48544688557899e-01 3.42894574424028e-03
1.32481250000000e+00 2.45870552725869e-01 3.39959946232260e-03
1.33068750000000e+00 2.43225188389580e-01 3.37047119519245e-03
1.33656250000000e+00 2.40608285991470e-01 3.34155993475783e-03
1.34243750000000e+00 2.38019539304562e-01 3.31286466396431e-03
1.34831250000000e+00 2.35458645396627e-01 3.28438435721844e-03
1.35418750000000e+00 2.32925304594739e-01 3.25611798080043e-03
1.36006250000000e+00 2.30419220450205e-01 3.22806449326640e-03
1.36593750000000e+00 2.27940099703874e-01 3.20022284584021e-03
1.37181250000000e+00 2.25487652251824e-01 3.17259198279539e-03
1.37768750000000e+00 2.23061591111409e-01 3.14517084182723e-03
1.38356250000000e+00 2.20661632387682e-01 3.11795835441535e-03
1.38943750000000e+00 2.18287495240171e-01 3.09095344617699e-03
1.39531250000000e+00 2.15938901850014e-01 3.06415503721110e-03
1.40118750000000e+00 2.13615577387452e-01 3.03756204243337e-03
1.40706250000000e+00 2.11317249979670e-01 3.01117337190297e-03
1.41293750000000e+00 2.09043650678975e-01 2.98498793114070e-03
1.41881250000000e+00 2.06794513431334e-01 2.95900462143858e-03
1.42468750000000e+00 2.04569575045234e-01 2.93322234016158e-03
1.43056250000000e+00 2.02368575160885e-01 2.90763998104126e-03
1.43643750000000e+00 2.00191256219754e-01 2.88225643446185e-03
1.44231250000000e+00 1.98037363434427e-01 2.85707058773881e-03
1.44818750000000e+00 1.95906644758791e-01 2.83208132538985e-03
1.45406250000000e+00 1.93798850858539e-01 2.80728752939892e-03
1.45993750000000e+00 1.91713735082001e-01 2.78268807947320e-03
1.46581250000000e+00 1.89651053431270e-01 2.75828185329296e-03
1.47168750000000e+00 1.87610564533659e-01 2.73406772675479e-03
1.47756250000000e+00 1.85592029613450e-01 2.71004457420859e-03
1.48343750000000e+00 1.83595212463954e-01 2.68621126868779e-03
1.48931250000000e+00 1.81619879419875e-01 2.66256668213346e-03
1.49518750000000e+00 1.79665799329958e-01 2.63910968561226e-03
1.50106250000000e+00 1.77732743529949e-01 2.61583914952841e-03
1.50693750000000e+00 1.75820485815829e-01 2.59275394383013e-03
1.51281250000000e+00 1.73928802417351e-01 2.56985293820996e-03
1.51868750000000e+00 1.72057471971849e-01 2.54713500229949e-03
1.52456250000000e+00 1.70206275498338e-01 2.52459900585898e-03
1.53043750000000e+00 1.68374996371887e-01 2.50224381896183e-03
1.53631250000000e+00 1.66563420298271e-01 2.48006831217316e-03
1.54218750000000e+00 1.64771335288894e-01 2.45807135672382e-03
1.54806250000000e+00 1.62998531635982e-01 2.43625182467937e-03
1.55393750000000e+00 1.61244801888044e-01 2.41460858910417e-03
1.55981250000000e+00 1.59509940825596e-01 2.39314052422090e-03
1.56568750000000e+00 1.57793745437147e-01 2.37184650556515e-03
1.57156250000000e+00 1.56096014895441e-01 2.35072541013570e-03
1.57743750000000e+00 1.54416550533957e-01 2.32977611654038e-03
1.58331250000000e+00 1.52755155823666e-01 2.30899750513769e-03
1.58918750000000e+00 1.51111636350023e-01 2.28838845817411e-03
1.59506250000000e+00 1.49485799790229e-01 2.26794785991724e-03
1.60093750000000e+00 1.47877455890715e-01 2.24767459678507e-03
1.60681250000000e+00 1.46286416444887e-01 2.22756755747112e-03
1.61268750000000e+00 1.44712495271096e-01 2.20762563306607e-03
1.61856250000000e+00 1.43155508190857e-01 2.18784771717541e-03
1.62443750000000e+00 1.41615273007290e-01 2.16823270603332e-03
1.63031250000000e+00 1.40091609483806e-01 2.14877949861343e-03
1.63618750000000e+00 1.38584339323011e-01 2.12948699673575e-03
1.64206250000000e+00 1.37093286145846e-01 2.11035410517001e-03
1.64793750000000e+00 1.35618275470943e-01 2.09137973173603e-03
1.65381250000000e+00 1.34159134694211e-01 2.07256278740077e-03
1.65968750000000e+00 1.32715693068637e-01 2.05390218637222e-03
1.66556250000000e+00 1.31287781684304e-01 2.03539684618995e-03
1.67143750000000e+00 1.29875233448625e-01 2.01704568781270e-03
1.67731250000000e+00 1.28477883066795e-01 1.99884763570336e-03
1.68318750000000e+00 1.27095567022443e-01 1.98080161791077e-03
1.68906250000000e+00 1.25728123558497e-01 1.96290656614851e-03
1.69493750000000e+00 1.24375392658262e-01 1.94516141587133e-03
1.70081250000000e+00 1.23037216026687e-01 1.92756510634871e-03
1.70668750000000e+00 1.21713437071847e-01 1.91011658073562e-03
1.71256250000000e+00 1.20403900886617e-01 1.89281478614111e-03
1.71843750000000e+00 1.19108454230544e-01 1.87565867369405e-03
1.72431250000000e+00 1.17826945511916e-01 1.85864719860647e-03
1.73018750000000e+00 1.16559224770024e-01 1.84177932023461e-03
1.73606250000000e+00 1.15305143657611e-01 1.82505400213759e-03
1.74193750000000e+00 1.14064555423514e-01 1.80847021213398e-03
1.74781250000000e+00 1.12837314895493e-01 1.79202692235576e-03
1.75368750000000e+00 1.11623278463241e-01 1.77572310930032e-03
1.75956250000000e+00 1.10422304061579e-01 1.75955775388052e-03
1.76543750000000e+00 1.09234251153831e-01 1.74352984147232e-03
1.77131250000000e+00 1.08058980715383e-01 1.72763836196068e-03
1.77718750000000e+00 1.06896355217409e-01 1.71188230978329e-03
1.78306250000000e+00 1.05746238610778e-01 1.69626068397254e-03
1.78893750000000e+00 1.04608496310139e-01 1.68077248819554e-03
1.79481250000000e+00 1.03482995178167e-01 1.66541673079222e-03
1.80068750000000e+00 1.02369603509983e-01 1.65019242481186e-03
1.80656250000000e+00 1.01268191017746e-01 1.63509858804758e-03
1.81243750000000e+00 1.00178628815405e-01 1.62013424306931e-03
1.81831250000000e+00 9.91007894036143e-02 1.60529841725513e-03
1.82418750000000e+00 9.80345466548181e-02 1.59059014282097e-03
1.83006250000000e+00 9.69797757984882e-02 1.57600845684868e-03
1.83593750000000e+00 9.59363534065244e-02 1.56155240131246e-03
1.84181250000000e+00 9.49041573788112e-02 1.54722102310394e-03
1.84768750000000e+00 9.38830669289294e-02 1.53301337405578e-03
1.85356250000000e+00 9.28729625700224e-02 1.51892851096385e-03
