Energy (eV)          EEDF (eV^-(3/2))     First Anisotropy
4.22058823529412e-02 4.69301708633052e-02 3.01532845384685e-05
1.26617647058824e-01 4.64554123746707e-02 4.97068950985985e-05
2.11029411764706e-01 4.59854566740276e-02 6.53946050034849e-05
2.95441176470588e-01 4.55202551735727e-02 7.71771554818003e-05
3.79852941176471e-01 4.50597597787059e-02 8.68924321963127e-05
4.64264705882353e-01 4.46039228813392e-02 9.52386862050044e-05
5.48676470588235e-01 4.41526973559131e-02 1.02578927669842e-04
6.33088235294118e-01 4.37060365515085e-02 1.09133351575740e-04
7.17500000000000e-01 4.32638942901857e-02 1.15048640377435e-04
8.01911764705882e-01 4.28262248617659e-02 1.20428919276742e-04
8.86323529411765e-01 4.23929830172459e-02 1.25351600366233e-04
9.70735294117647e-01 4.19641239659867e-02 1.29876300751161e-04
1.05514705882353e+00 4.15396033691423e-02 1.34050228345422e-04
1.13955882352941e+00 4.11193773411554e-02 1.37911618136029e-04
1.22397058823529e+00 4.07034024330585e-02 1.41492020434063e-04
1.30838235294118e+00 4.02916356429983e-02 1.44817881722753e-04
1.39279411764706e+00 3.98840343971385e-02 1.47911669277671e-04
1.47720588235294e+00 3.94805565588281e-02 1.50792691444183e-04
1.56161764705882e+00 3.90811604142443e-02 1.53477710812468e-04
1.64602941176471e+00 3.86858046693474e-02 1.55981407912966e-04
1.73044117647059e+00 3.82944484527354e-02 1.58316741846276e-04
1.81485294117647e+00 3.79070513018430e-02 1.60495232184440e-04
1.89926470588235e+00 3.75235731678155e-02 1.62527183126041e-04
1.98367647058824e+00 3.71439744027861e-02 1.64421863915289e-04
2.06808823529412e+00 3.67682157639249e-02 1.66187655396166e-04
2.15250000000000e+00 3.63962584016341e-02 1.67832170436843e-04
2.23691176470588e+00 3.60280638629104e-02 1.69362353554577e-04
2.32132352941176e+00 3.56635940803325e-02 1.70784564207518e-04
2.40573529411765e+00 3.53028113748456e-02 1.72104646757431e-04
2.49014705882353e+00 3.49456784454413e-02 1.73327989831577e-04
2.57455882352941e+00 3.45921583714508e-02 1.74459576829301e-04
2.65897058823529e+00 3.42422146028353e-02 1.75504029326565e-04
2.74338235294118e+00 3.38958109620595e-02 1.76465644411645e-04
2.82779411764706e+00 3.35529116349248e-02 1.77348427132494e-04
2.91220588235294e+00 3.32134811720815e-02 1.78156118522337e-04
2.99661764705882e+00 3.28774844814783e-02 1.78892220924220e-04
3.08102941176471e+00 3.25448868250281e-02 1.79560018753377e-04
3.16544117647059e+00 3.22156538182405e-02 1.80162598230440e-04
3.24985294117647e+00 3.18897514223662e-02 1.80702864197547e-04
3.33426470588235e+00 3.15671459450314e-02 1.81183555135946e-04
3.41867647058824e+00 3.12478040327405e-02 1.81607256621116e-04
3.50308823529412e+00 3.09316926713096e-02 1.81976413293756e-04
3.58750000000000e+00 3.06187791786976e-02 1.82293339661998e-04
3.67191176470588e+00 3.03090312052629e-02 1.82560229760054e-04
3.75632352941176e+00 3.00024167268983e-02 1.82779165921729e-04
3.84073529411765e+00 2.96989040451312e-02 1.82952126659037e-04
3.92514705882353e+00 2.93984617805403e-02 1.83080993863354e-04
4.00955882352941e+00 2.91010588727172e-02 1.83167559296229e-04
4.09397058823529e+00 2.88066645739456e-02 1.83213530556831e-04
4.17838235294118e+00 2.85152484490401e-02 1.83220536478098e-04
4.26279411764706e+00 2.82267803692702e-02 1.83190132115416e-04
4.34720588235294e+00 2.79412305120905e-02 1.83123803167907e-04
4.43161764705882e+00 2.76585693559327e-02 1.83022970592402e-04
4.51602941176471e+00 2.73787676772750e-02 1.82888993813460e-04
4.60044117647059e+00 2.71017965494730e-02 1.82723174682093e-04
4.68485294117647e+00 2.68276273373013e-02 1.82526760662598e-04
4.76926470588235e+00 2.65562316963950e-02 1.82300947838765e-04
4.85367647058824e+00 2.62875815679805e-02 1.82046883740791e-04
4.93808823529412e+00 2.60216491782527e-02 1.81765669927122e-04
5.02250000000000e+00 2.57584070332843e-02 1.81458364423674e-04
5.10691176470588e+00 2.54978279183460e-02 1.81125983954148e-04
5.19132352941176e+00 2.52398848929848e-02 1.80769506056760e-04
5.27573529411765e+00 2.49845512902942e-02 1.80389871021288e-04
5.36014705882353e+00 2.47318007121531e-02 1.79987983735723e-04
5.44455882352941e+00 2.44816070284508e-02 1.79564715377102e-04
5.52897058823529e+00 2.42339443724796e-02 1.79120905030568e-04
5.61338235294118e+00 2.39887871401203e-02 1.78657361172199e-04
5.69779411764706e+00 2.37461099853800e-02 1.78174863095123e-04
5.78220588235294e+00 2.35058878195435e-02 1.77674162141108e-04
5.86661764705882e+00 2.32680958072551e-02 1.77155983261370e-04
5.95102941176471e+00 2.30327093640140e-02 1.76621025725687e-04
6.03544117647059e+00 2.27997041548163e-02 1.76069964528364e-04
6.11985294117647e+00 2.25690560900622e-02 1.75503451365882e-04
6.20426470588235e+00 2.23407413246068e-02 1.74922115605370e-04
6.28867647058824e+00 2.21147362537883e-02 1.74326565229023e-04
6.37308823529412e+00 2.18910175124603e-02 1.73717387698665e-04
6.45750000000000e+00 2.16695619711367e-02 1.73095150802365e-04
6.54191176470588e+00 2.14503467350079e-02 1.72460403428820e-04
6.62632352941176e+00 2.12333491401974e-02 1.71813676328815e-04
6.71073529411765e+00 2.10185467527649e-02 1.71155482810994e-04
6.79514705882353e+00 2.08059173650699e-02 1.70486319428832e-04
6.87955882352941e+00 2.05954389947648e-02 1.69806666607654e-04
6.96397058823529e+00 2.03870898812608e-02 1.69116989266274e-04
7.04838235294118e+00 2.01808484847124e-02 1.68417737383582e-04
7.13279411764706e+00 1.99766934825827e-02 1.67709346562635e-04
7.21720588235294e+00 1.97746037686214e-02 1.66992238487810e-04
7.30161764705882e+00 1.95745584497984e-02 1.66266821663405e-04
7.38602941176471e+00 1.93765368441806e-02 1.65533491543695e-04
7.47044117647059e+00 1.91805184795959e-02 1.64792631216402e-04
7.55485294117647e+00 1.89864830904482e-02 1.64044611790064e-04
7.63926470588235e+00 1.87944106166691e-02 1.63289792799731e-04
7.72367647058824e+00 1.86042812006184e-02 1.62528522616225e-04
7.80808823529412e+00 1.84160751860362e-02 1.61761138816729e-04
7.89250000000000e+00 1.82297731150255e-02 1.60987968560192e-04
7.97691176470588e+00 1.80453557270061e-02 1.60209328926550e-04
8.06132352941176e+00 1.78628039557775e-02 1.59425527261788e-04
8.14573529411765e+00 1.76820989284743e-02 1.58636861489081e-04
8.23014705882353e+00 1.75032219627069e-02 1.57843620426577e-04
8.31455882352941e+00 1.73261545655206e-02 1.57046084073289e-04
8.39897058823529e+00 1.71508784306101e-02 1.56244523902342e-04
8.48338235294118e+00 1.69773754372838e-02 1.55439203124135e-04
8.56779411764706e+00 1.68056276477500e-02 1.54630376957400e-04
8.65220588235294e+00 1.66356173060869e-02 1.53818292828669e-04
8.73661764705882e+00 1.64673268357898e-02 1.53003190796494e-04
8.82102941176471e+00 1.63007388379774e-02 1.52185303517066e-04
8.90544117647059e+00 1.61358360901583e-02 1.51364856642788e-04
8.98985294117647e+00 1.59726015436976e-02 1.50542069000530e-04
9.07426470588235e+00 1.58110183227929e-02 1.49717152791275e-04
9.15867647058823e+00 1.56510697220050e-02 1.48890313798438e-04
9.24308823529412e+00 1.54927392052420e-02 1.48061751572914e-04
9.32750000000000e+00 1.53360104033516e-02 1.47231659627004e-04
9.41191176470588e+00 1.51808671131141e-02 1.46400225606159e-04
9.49632352941176e+00 1.50272932948942e-02 1.45567631469769e-04
9.58073529411765e+00 1.48752730716440e-02 1.44734053650770e-04
9.66514705882353e+00 1.47247907266119e-02 1.43899663224383e-04
9.74955882352941e+00 1.45758307023556e-02 1.43064626056625e-04
9.83397058823529e+00 1.44283775985077e-02 1.42229102961998e-04
9.91838235294118e+00 1.42824161707980e-02 1.41393249841849e-04
1.00027941176471e+01 1.41379313288741e-02 1.40557217831902e-04
1.00872058823529e+01 1.39949081353337e-02 1.39721153532873e-04
1.01716176470588e+01 1.38533318031801e-02 1.38885198642442e-04
1.02560294117647e+01 1.37131876969490e-02 1.38049490981169e-04
1.03404411764706e+01 1.35744613264828e-02 1.37214164262749e-04
1.04248529411765e+01 1.34371383495900e-02 1.36379347062405e-04
1.05092647058824e+01 1.33012045704650e-02 1.35545164927959e-04
1.05936764705882e+01 1.31666459343063e-02 1.34711739503278e-04
1.06780882352941e+01 1.30334485298029e-02 1.33879187670135e-04
1.07625000000000e+01 1.29015985876021e-02 1.33047623567354e-04
1.08469117647059e+01 1.27710824751767e-02 1.32217157447056e-04
1.09313235294118e+01 1.26418867003286e-02 1.31387896035030e-04
1.10157352941176e+01 1.25139979049818e-02 1.30559942978645e-04
1.11001470588235e+01 1.23874028673845e-02 1.29733397725116e-04
1.11845588235294e+01 1.22620885006575e-02 1.28908357387509e-04
1.12689705882353e+01 1.21380418480648e-02 1.28084915951595e-04
1.13533823529412e+01 1.20152500850722e-02 1.27263163499532e-04
1.14377941176471e+01 1.18937005179447e-02 1.26443187996943e-04
1.15222058823529e+01 1.17733805792267e-02 1.25625074528285e-04
1.16066176470588e+01 1.16542778296686e-02 1.24808904546837e-04
1.16910294117647e+01 1.15363799568695e-02 1.23994757587034e-04
1.17754411764706e+01 1.14196747709572e-02 1.23182710526753e-04
1.18598529411765e+01 1.13041502063928e-02 1.22372836863761e-04
1.19442647058824e+01 1.11897943206542e-02 1.21565208356978e-04
1.20286764705882e+01 1.10765952901073e-02 1.20759894314037e-04
1.21130882352941e+01 1.09645414116967e-02 1.19956960894047e-04
1.21975000000000e+01 1.08536211016682e-02 1.19156472681092e-04
1.22819117647059e+01 1.07438228916218e-02 1.18358491762082e-04
1.23663235294118e+01 1.06351354309702e-02 1.17563077994287e-04
1.24507352941176e+01 1.05275474821914e-02 1.16770289340762e-04
1.25351470588235e+01 1.04210479223299e-02 1.15980180966635e-04
1.26195588235294e+01 1.03156257417857e-02 1.15192806699406e-04
1.27039705882353e+01 1.02112700406607e-02 1.14408218385406e-04
1.27883823529412e+01 1.01079700301638e-02 1.13626465260057e-04
1.28727941176471e+01 1.00057150314394e-02 1.12847595349135e-04
1.29572058823529e+01 9.90449447206881e-03 1.12071654848696e-04
1.30416176470588e+01 9.80429788738611e-03 1.11298687517140e-04
1.31260294117647e+01 9.70511491934466e-03 1.10528736020302e-04
1.32104411764706e+01 9.60693531316534e-03 1.09761841333514e-04
1.32948529411765e+01 9.50974891857073e-03 1.08998042155384e-04
1.33792647058824e+01 9.41354568868555e-03 1.08237376199272e-04
1.34636764705882e+01 9.31831567682657e-03 1.07479879616143e-04
1.35480882352941e+01 9.22404903765972e-03 1.06725586429762e-04
1.36325000000000e+01 9.13073602613351e-03 1.05974529776878e-04
1.37169117647059e+01 9.03836699440366e-03 1.05226741163682e-04
1.38013235294118e+01 8.94693239357742e-03 1.04482250669519e-04
1.38857352941176e+01 8.85642277003495e-03 1.03741087203740e-04
1.39701470588235e+01 8.76682876645825e-03 1.03003277777120e-04
1.40545588235294e+01 8.67814112081934e-03 1.02268848656270e-04
1.41389705882353e+01 8.59035066352326e-03 1.01537824842259e-04
1.42233823529412e+01 8.50344831837194e-03 1.00810229560426e-04
1.43077941176471e+01 8.41742510158463e-03 1.00086085369649e-04
1.43922058823529e+01 8.33227211905762e-03 9.93654136599548e-05
1.44766176470588e+01 8.24798056726715e-03 9.86482341600798e-05
1.45610294117647e+01 8.16454173232102e-03 9.79345660036713e-05
1.46454411764706e+01 8.08194698732930e-03 9.72244272448468e-05
1.47298529411765e+01 8.00018779325123e-03 9.65178343833172e-05
1.48142647058824e+01 7.91925569797526e-03 9.58148033893859e-05
1.48986764705882e+01 7.83914233379676e-03 9.51153492363582e-05
1.49830882352941e+01 7.75983941821216e-03 9.44194854429692e-05
1.50675000000000e+01 7.68133875302650e-03 9.37272250588345e-05
1.51519117647059e+01 7.60363222193325e-03 9.30385800638581e-05
1.52363235294118e+01 7.52671179176114e-03 9.23535615259983e-05
1.53207352941176e+01 7.45056950959441e-03 9.16721798008901e-05
1.54051470588235e+01 7.37519750347877e-03 9.09944439433062e-05
1.54895588235294e+01 7.30058798157461e-03 9.03203626265382e-05
1.55739705882353e+01 7.22673322990211e-03 8.96499437196720e-05
1.56583823529412e+01 7.15362561300254e-03 8.89831938739049e-05
1.57427941176471e+01 7.08125757311806e-03 8.83201194069035e-05
1.58272058823529e+01 7.00962162802608e-03 8.76607258953785e-05
1.59116176470588e+01 6.93871037165839e-03 8.70050177757696e-05
1.59960294117647e+01 6.86851647330692e-03 8.63529991951009e-05
1.60804411764706e+01 6.79903267554298e-03 8.57046736180335e-05
1.61648529411765e+01 6.73025179479781e-03 8.50600434417252e-05
1.62492647058824e+01 6.66216672059205e-03 8.44191108145689e-05
1.63336764705882e+01 6.59477041353709e-03 8.37818772568837e-05
1.64180882352941e+01 6.52805590587908e-03 8.31483432896954e-05
1.65025000000000e+01 6.46201630075147e-03 8.25185092226010e-05
1.65869117647059e+01 6.39664477025482e-03 8.18923746675707e-05
1.66713235294118e+01 6.33193455635254e-03 8.12699386625524e-05
1.67557352941176e+01 6.26787896859771e-03 8.06511998282792e-05
1.68401470588235e+01 6.20447138461597e-03 8.00361558917303e-05
1.69245588235294e+01 6.14170524939597e-03 7.94248044224924e-05
1.70089705882353e+01 6.07957407349632e-03 7.88171424894988e-05
1.70933823529412e+01 6.01807143349734e-03 7.82131663250678e-05
1.71777941176471e+01 5.95719097131379e-03 7.76128720337906e-05
1.72622058823529e+01 5.89692639247068e-03 7.70162552615852e-05
1.73466176470588e+01 5.83727146652591e-03 7.64233108713521e-05
1.74310294117647e+01 5.77822002640438e-03 7.58340336255266e-05
1.75154411764706e+01 5.71976596673976e-03 7.52484178668143e-05
1.75998529411765e+01 5.66190324427018e-03 7.46664572052883e-05
1.76842647058824e+01 5.60462587719236e-03 7.40881451756538e-05
1.77686764705882e+01 5.54792794356697e-03 7.35134749290132e-05
1.78530882352941e+01 5.49180358168898e-03 7.29424389311581e-05
1.79375000000000e+01 5.43624698946108e-03 7.23750295955298e-05
1.80219117647059e+01 5.38125242286004e-03 7.18112388887173e-05
1.81063235294118e+01 5.32681419658213e-03 7.12510584281073e-05
1.81907352941176e+01 5.27292668223642e-03 7.06944796060361e-05
1.82751470588235e+01 5.21958430867245e-03 7.01414932030383e-05
1.83595588235294e+01 5.16678156138534e-03 6.95920899802784e-05
1.84439705882353e+01 5.11451298108093e-03 6.90462604003015e-05
1.85283823529412e+01 5.06277316398178e-03 6.85039943537025e-05
1.86127941176471e+01 5.01155676125076e-03 6.79652817298240e-05
1.86972058823529e+01 4.96085847761012e-03 6.74301121474414e-05
1.87816176470588e+01 4.91067307162709e-03 6.68984746908212e-05
1.88660294117647e+01 4.86099535515538e-03 6.63703584595777e-05
1.89504411764706e+01 4.81182019200582e-03 6.58457523087799e-05
1.90348529411765e+01 4.76314249821322e-03 6.53246445942399e-05
1.91192647058824e+01 4.71495724149460e-03 6.48070237023312e-05
1.92036764705882e+01 4.66725943996972e-03 6.42928777990170e-05
1.92880882352941e+01 4.62004416241019e-03 6.37821945841773e-05
1.93725000000000e+01 4.57330652771396e-03 6.32749618021189e-05
1.94569117647059e+01 4.52704170367364e-03 6.27711669207558e-05
1.95413235294118e+01 4.48124490744201e-03 6.22707972092711e-05
1.96257352941176e+01 4.43591140408785e-03 6.17738398370023e-05
1.97101470588235e+01 4.39103650681526e-03 6.12802815588507e-05
1.97945588235294e+01 4.34661557646456e-03 6.07901091936850e-05
1.98789705882353e+01 4.30264402035815e-03 6.03033093967392e-05
1.99633823529412e+01 4.25911729250466e-03 5.98198684368200e-05
2.00477941176471e+01 4.21603089311535e-03 5.93397726574078e-05
2.01322058823529e+01 4.17338036749235e-03 5.88630082570810e-05
2.02166176470588e+01 4.13116130621869e-03 5.83895610743320e-05
2.03010294117647e+01 4.08936934468956e-03 5.79194170320512e-05
2.03854411764706e+01 4.04800016204135e-03 5.74525619255789e-05
2.04698529411765e+01 4.00704948132854e-03 5.69889812149905e-05
2.05542647058824e+01 3.96651306906903e-03 5.65286604536004e-05
2.06386764705882e+01 3.92638673421254e-03 5.60715850832374e-05
2.07230882352941e+01 3.88666632830519e-03 5.56177402338326e-05
2.08075000000000e+01 3.84734774504841e-03 5.51671111365265e-05
2.08919117647059e+01 3.80842691930520e-03 5.47196828622141e-05
2.09763235294118e+01 3.76989982743561e-03 5.42754403836209e-05
2.10607352941176e+01 3.73176248613677e-03 5.38343686544520e-05
2.11451470588235e+01 3.69401095258649e-03 5.33964523529606e-05
2.12295588235294e+01 3.65664132402437e-03 5.29616762694662e-05
2.13139705882353e+01 3.61964973681934e-03 5.25300251205199e-05
2.13983823529412e+01 3.58303236660270e-03 5.21014833669750e-05
2.14827941176471e+01 3.54678542786214e-03 5.16760355876546e-05
2.15672058823529e+01 3.51090517304301e-03 5.12536663000175e-05
2.16516176470588e+01 3.47538789267142e-03 5.08343597844014e-05
2.17360294117647e+01 3.44022991496078e-03 5.04181004443849e-05
2.18204411764706e+01 3.40542760494544e-03 5.00048726336387e-05
2.19048529411765e+01 3.37097736459467e-03 4.95946604862212e-05
2.19892647058824e+01 3.33687563243100e-03 4.91874482641373e-05
2.20736764705882e+01 3.30311888269519e-03 4.87832201900489e-05
2.21580882352941e+01 3.26970362545160e-03 4.83819602834914e-05
2.22425000000000e+01 3.23662640621797e-03 4.79836526960843e-05
2.23269117647059e+01 3.20388380516051e-03 4.75882814980581e-05
2.24113235294118e+01 3.17147243733493e-03 4.71958307280732e-05
2.24957352941176e+01 3.13938895175090e-03 4.68062844568132e-05
2.25801470588235e+01 3.10763003146289e-03 4.64196265775711e-05
2.26645588235294e+01 3.07619239321846e-03 4.60358411209696e-05
2.27489705882353e+01 3.04507278670209e-03 4.56549121029728e-05
2.28333823529412e+01 3.01426799461864e-03 4.52768233760773e-05
2.29177941176471e+01 2.98377483235249e-03 4.49015589329016e-05
2.30022058823529e+01 2.95359014723827e-03 4.45291027594682e-05
2.30866176470588e+01 2.92371081863747e-03 4.41594386914180e-05
2.31710294117647e+01 2.89413375760803e-03 4.37925507069012e-05
2.32554411764706e+01 2.86485590620093e-03 4.34284227848826e-05
2.33398529411765e+01 2.83587423753054e-03 4.30670387662737e-05
2.34242647058824e+01 2.80718575545406e-03 4.27083826365151e-05
2.35086764705882e+01 2.77878749389323e-03 4.23524383886573e-05
2.35930882352941e+01 2.75067651689868e-03 4.19991898892998e-05
2.36775000000000e+01 2.72284991833900e-03 4.16486211512289e-05
2.37619117647059e+01 2.69530482124655e-03 4.13007161588280e-05
2.38463235294118e+01 2.66803837798987e-03 4.09554589081851e-05
2.39307352941176e+01 2.64104776951639e-03 4.06128334583522e-05
2.40151470588235e+01 2.61433020540669e-03 4.02728237600433e-05
2.40995588235294e+01 2.58788292357914e-03 3.99354139118042e-05
2.41839705882353e+01 2.56170318967466e-03 3.96005880355114e-05
2.42683823529412e+01 2.53578829710590e-03 3.92683301544673e-05
2.43527941176471e+01 2.51013556677095e-03 3.89386244405954e-05
2.44372058823529e+01 2.48474234645974e-03 3.86114550942303e-05
2.45216176470588e+01 2.45960601089843e-03 3.82868062263025e-05
2.46060294117647e+01 2.43472396147196e-03 3.79646620968985e-05
2.46904411764706e+01 2.41009362565115e-03 3.76450069991369e-05
2.47748529411765e+01 2.38571245703289e-03 3.73278251453590e-05
2.48592647058824e+01 2.36157793507089e-03 3.70131008973693e-05
2.49436764705882e+01 2.33768756452302e-03 3.67008186542040e-05
2.50280882352941e+01 2.31403887548737e-03 3.63909627422285e-05
2.51125000000000e+01 2.29062942314108e-03 3.60835176373479e-05
2.51969117647059e+01 2.26745678720708e-03 3.57784678219897e-05
2.52813235294118e+01 2.24451857207651e-03 3.54757978174802e-05
2.53657352941176e+01 2.22181240619381e-03 3.51754922254817e-05
2.54501470588235e+01 2.19933594208585e-03 3.48775355876413e-05
2.55345588235294e+01 2.17708685611383e-03 3.45819125945155e-05
2.56189705882353e+01 2.15506284797132e-03 3.42886079834391e-05
2.57033823529412e+01 2.13326164070991e-03 3.39976064385167e-05
2.57877941176471e+01 2.11168098049870e-03 3.37088927922926e-05
2.58722058823529e+01 2.09031863613983e-03 3.34224519271128e-05
2.59566176470588e+01 2.06917239909085e-03 3.31382686784528e-05
2.60410294117647e+01 2.04824008323160e-03 3.28563280296007e-05
2.61254411764706e+01 2.02751952439647e-03 3.25766150163531e-05
2.62098529411765e+01 2.00700858039392e-03 3.22991146336082e-05
2.62942647058824e+01 1.98670513078032e-03 3.20238120233108e-05
2.63786764705882e+01 1.96660707640845e-03 3.17506923823259e-05
2.64630882352941e+01 1.94671233944429e-03 3.14797408722196e-05
2.65475000000000e+01 1.92701886314767e-03 3.12109428006988e-05
2.66319117647059e+01 1.90752461143639e-03 3.09442835042875e-05
