Energy (eV)          EEDF (eV^-(3/2))     First Anisotropy
2.39423076923077e-02 5.80668445943627e-02 3.01949169227225e-05
7.18269230769231e-02 5.76825738837821e-02 4.98630385918065e-05
1.19711538461538e-01 5.73008461731738e-02 6.58318780795829e-05
1.67596153846154e-01 5.69216446341070e-02 7.79678057469767e-05
2.15480769230769e-01 5.65449525470811e-02 8.80928616408548e-05
2.63365384615385e-01 5.61707533076298e-02 9.68956722041759e-05
3.11250000000000e-01 5.57990304182766e-02 1.04732473195241e-04
3.59134615384615e-01 5.54297674899813e-02 1.11818308305062e-04
4.07019230769231e-01 5.50629482445588e-02 1.18295748134756e-04
4.54903846153846e-01 5.46985565102213e-02 1.24265523539479e-04
5.02788461538462e-01 5.43365762215813e-02 1.29802174478794e-04
5.50673076923077e-01 5.39769914210959e-02 1.34962842004297e-04
5.98557692307692e-01 5.36197862553995e-02 1.39792568062215e-04
6.46442307692308e-01 5.32649449773642e-02 1.44327669566063e-04
6.94326923076923e-01 5.29124519433565e-02 1.48597982580056e-04
7.42211538461539e-01 5.25622916128321e-02 1.52628408613327e-04
7.90096153846154e-01 5.22144485490808e-02 1.56440013184301e-04
8.37980769230769e-01 5.18689074166026e-02 1.60050825779505e-04
8.85865384615385e-01 5.15256529822790e-02 1.63476435356186e-04
9.33750000000000e-01 5.11846701133288e-02 1.66730442387331e-04
9.81634615384615e-01 5.08459437767808e-02 1.69824807035379e-04
1.02951923076923e+00 5.05094590408345e-02 1.72770122776038e-04
1.07740384615385e+00 5.01752010685929e-02 1.75575831925571e-04
1.12528846153846e+00 4.98431551270412e-02 1.78250400241050e-04
1.17317307692308e+00 4.95133065745983e-02 1.80801457602958e-04
1.22105769230769e+00 4.91856408723220e-02 1.83235913498891e-04
1.26894230769231e+00 4.88601435720362e-02 1.85560052971011e-04
1.31682692307692e+00 4.85368003238807e-02 1.87779614642733e-04
1.36471153846154e+00 4.82155968754562e-02 1.89899859710589e-04
1.41259615384615e+00 4.78965190637087e-02 1.91925626971850e-04
1.46048076923077e+00 4.75795528240574e-02 1.93861381121577e-04
1.50836538461538e+00 4.72646841804649e-02 1.95711253936393e-04
1.55625000000000e+00 4.69518992537210e-02 1.97479079532677e-04
1.60413461538462e+00 4.66411842523100e-02 1.99168425025024e-04
1.65201923076923e+00 4.63325254799709e-02 2.00782617007820e-04
1.69990384615385e+00 4.60259093272540e-02 2.02324764822585e-04
1.74778846153846e+00 4.57213222784531e-02 2.03797780807658e-04
1.79567307692308e+00 4.54187509037648e-02 2.05204398258804e-04
1.84355769230769e+00 4.51181818656716e-02 2.06547187160986e-04
1.89144230769231e+00 4.48196019116321e-02 2.07828568530519e-04
1.93932692307692e+00 4.45229978784439e-02 2.09050825740783e-04
1.98721153846154e+00 4.42283566915551e-02 2.10216117293590e-04
2.03509615384615e+00 4.39356653598641e-02 2.11326485697619e-04
2.08298076923077e+00 4.36449109812119e-02 2.12383866622570e-04
2.13086538461538e+00 4.33560807359496e-02 2.13390096996722e-04
2.17875000000000e+00 4.30691618920461e-02 2.14346922203293e-04
2.22663461538462e+00 4.27841417990351e-02 2.15256002697094e-04
2.27451923076923e+00 4.25010078927770e-02 2.16118919900703e-04
2.32240384615385e+00 4.22197476897484e-02 2.16937181662947e-04
2.37028846153846e+00 4.19403487914933e-02 2.17712227133380e-04
2.41817307692308e+00 4.16627988792230e-02 2.18445431304868e-04
2.46605769230769e+00 4.13870857179849e-02 2.19138109076538e-04
2.51394230769231e+00 4.11131971515466e-02 2.19791519277696e-04
2.56182692307692e+00 4.08411211052433e-02 2.20406867227140e-04
2.60971153846154e+00 4.05708455853815e-02 2.20985309224507e-04
2.65759615384615e+00 4.03023586755124e-02 2.21527954622534e-04
2.70548076923077e+00 4.00356485401158e-02 2.22035868710017e-04
2.75336538461538e+00 3.97707034199824e-02 2.22510075248600e-04
2.80125000000000e+00 3.95075116356830e-02 2.22951558741827e-04
2.84913461538462e+00 3.92460615831698e-02 2.23361266614497e-04
2.89701923076923e+00 3.89863417370488e-02 2.23740111160824e-04
2.94490384615385e+00 3.87283406463837e-02 2.24088971427508e-04
2.99278846153846e+00 3.84720469377866e-02 2.24408694895295e-04
3.04067307692308e+00 3.82174493114101e-02 2.24700099114880e-04
3.08855769230769e+00 3.79645365438700e-02 2.24963973165583e-04
3.13644230769231e+00 3.77132974844119e-02 2.25201079258696e-04
3.18432692307692e+00 3.74637210568953e-02 2.25412153307614e-04
3.23221153846154e+00 3.72157962592611e-02 2.25597907226015e-04
3.28009615384615e+00 3.69695121606933e-02 2.25759029368946e-04
3.32798076923077e+00 3.67248579042429e-02 2.25896185758511e-04
3.37586538461538e+00 3.64818227033145e-02 2.26010021122914e-04
3.42375000000000e+00 3.62403958441564e-02 2.26101159813694e-04
3.47163461538462e+00 3.60005666824895e-02 2.26170206726968e-04
3.51951923076923e+00 3.57623246458724e-02 2.26217748114174e-04
3.56740384615385e+00 3.55256592304632e-02 2.26244352402074e-04
3.61528846153846e+00 3.52905600032680e-02 2.26250570911788e-04
3.66317307692308e+00 3.50570165990281e-02 2.26236938591374e-04
3.71105769230769e+00 3.48250187223592e-02 2.26203974655730e-04
3.75894230769231e+00 3.45945561447560e-02 2.26152183390063e-04
3.80682692307692e+00 3.43656187060292e-02 2.26082054133200e-04
3.85471153846154e+00 3.41381963138262e-02 2.25994062745140e-04
3.90259615384615e+00 3.39122789413834e-02 2.25888671553519e-04
3.95048076923077e+00 3.36878566294667e-02 2.25766329991352e-04
3.99836538461538e+00 3.34649194835983e-02 2.25627475104358e-04
4.04625000000000e+00 3.32434576759076e-02 2.25472531985933e-04
4.09413461538462e+00 3.30234614424565e-02 2.25301914236822e-04
4.14201923076923e+00 3.28049210850059e-02 2.25116024357222e-04
4.18990384615385e+00 3.25878269684345e-02 2.24915254164478e-04
4.23778846153846e+00 3.23721695224255e-02 2.24699985147374e-04
4.28567307692308e+00 3.21579392389741e-02 2.24470588846692e-04
4.33355769230769e+00 3.19451266739992e-02 2.24227427176101e-04
4.38144230769231e+00 3.17337224449350e-02 2.23970852894528e-04
4.42932692307692e+00 3.15237172317984e-02 2.23701209397568e-04
4.47721153846154e+00 3.13151017767557e-02 2.23418831781588e-04
4.52509615384615e+00 3.11078668822941e-02 2.23124046627241e-04
4.57298076923077e+00 3.09020034126949e-02 2.22817172382515e-04
4.62086538461539e+00 3.06975022917870e-02 2.22498519643155e-04
4.66875000000000e+00 3.04943545043563e-02 2.22168391382952e-04
4.71663461538462e+00 3.02925510939718e-02 2.21827083211936e-04
4.76451923076923e+00 3.00920831643353e-02 2.21474883586883e-04
4.81240384615385e+00 2.98929418771756e-02 2.21112074049475e-04
4.86028846153846e+00 2.96951184535423e-02 2.20738929419111e-04
4.90817307692308e+00 2.94986041717648e-02 2.20355718013052e-04
4.95605769230769e+00 2.93033903686928e-02 2.19962701823258e-04
5.00394230769231e+00 2.91094684377178e-02 2.19560136827421e-04
5.05182692307692e+00 2.89168298295822e-02 2.19148272722210e-04
5.09971153846154e+00 2.87254660519840e-02 2.18727353753147e-04
5.14759615384615e+00 2.85353686680618e-02 2.18297618449976e-04
5.19548076923077e+00 2.83465292975335e-02 2.17859299881828e-04
5.24336538461538e+00 2.81589396148418e-02 2.17412625827115e-04
5.29125000000000e+00 2.79725913502467e-02 2.16957818905606e-04
5.33913461538462e+00 2.77874762880264e-02 2.16495096736765e-04
5.38701923076923e+00 2.76035862675255e-02 2.16024672061691e-04
5.43490384615385e+00 2.74209131814080e-02 2.15546752890863e-04
5.48278846153846e+00 2.72394489766647e-02 2.15061542616936e-04
5.53067307692308e+00 2.70591856529154e-02 2.14569240152843e-04
5.57855769230769e+00 2.68801152633769e-02 2.14070040036197e-04
5.62644230769231e+00 2.67022299132137e-02 2.13564132651311e-04
5.67432692307692e+00 2.65255217601576e-02 2.13051703954572e-04
5.72221153846154e+00 2.63499830141476e-02 2.12532936150125e-04
5.77009615384615e+00 2.61756059360558e-02 2.12008007420927e-04
5.81798076923077e+00 2.60023828385793e-02 2.11477092111908e-04
5.86586538461539e+00 2.58303060846878e-02 2.10940360840405e-04
5.91375000000000e+00 2.56593680884814e-02 2.10397980576485e-04
5.96163461538462e+00 2.54895613136803e-02 2.09850114746822e-04
6.00951923076923e+00 2.53208782744500e-02 2.09296923309459e-04
6.05740384615385e+00 2.51533115339319e-02 2.08738562851617e-04
6.10528846153846e+00 2.49868537050371e-02 2.08175186659328e-04
6.15317307692308e+00 2.48214974490166e-02 2.07606944809644e-04
6.20105769230769e+00 2.46572354762248e-02 2.07033984235607e-04
6.24894230769231e+00 2.44940605447274e-02 2.06456448893966e-04
6.29682692307692e+00 2.43319654607806e-02 2.05874479502429e-04
6.34471153846154e+00 2.41709430785022e-02 2.05288214104794e-04
6.39259615384615e+00 2.40109862987876e-02 2.04697787814828e-04
6.44048076923077e+00 2.38520880700166e-02 2.04103332955066e-04
6.48836538461538e+00 2.36942413867379e-02 2.03504979132608e-04
6.53625000000000e+00 2.35374392903497e-02 2.02902853290219e-04
6.58413461538462e+00 2.33816748678183e-02 2.02297079778177e-04
6.63201923076923e+00 2.32269412523335e-02 2.01687780402050e-04
6.67990384615385e+00 2.30732316220600e-02 2.01075074490831e-04
6.72778846153846e+00 2.29205392007685e-02 2.00459078941772e-04
6.77567307692308e+00 2.27688572566187e-02 1.99839908284989e-04
6.82355769230769e+00 2.26181791027676e-02 1.99217674725494e-04
6.87144230769231e+00 2.24684980961824e-02 1.98592488275256e-04
6.91932692307692e+00 2.23198076380132e-02 1.97964456509637e-04
6.96721153846154e+00 2.21721011732930e-02 1.97333685048406e-04
7.01509615384615e+00 2.20253721900061e-02 1.96700277318846e-04
7.06298076923077e+00 2.18796142196530e-02 1.96064334665094e-04
7.11086538461539e+00 2.17348208361258e-02 1.95425956402515e-04
7.15875000000000e+00 2.15909856562522e-02 1.94785239851283e-04
7.20663461538462e+00 2.14481023386984e-02 1.94142280388180e-04
7.25451923076923e+00 2.13061645844936e-02 1.93497171478191e-04
7.30240384615385e+00 2.11651661359598e-02 1.92850004723863e-04
7.35028846153846e+00 2.10251007772173e-02 1.92200869895059e-04
7.39817307692308e+00 2.08859623331402e-02 1.91549854976073e-04
7.44605769230769e+00 2.07477446698438e-02 1.90897046193634e-04
7.49394230769231e+00 2.06104416936649e-02 1.90242528123951e-04
7.54182692307692e+00 2.04740473514525e-02 1.89586383470490e-04
7.58971153846154e+00 2.03385556302929e-02 1.88928693478296e-04
7.63759615384615e+00 2.02039605567047e-02 1.88269537718040e-04
7.68548076923077e+00 2.00702561970923e-02 1.87608994174680e-04
7.73336538461538e+00 1.99374366567768e-02 1.86947139287760e-04
7.78125000000000e+00 1.98054960804343e-02 1.86284047974116e-04
7.82913461538462e+00 1.96744286511489e-02 1.85619793666449e-04
7.87701923076923e+00 1.95442285908358e-02 1.84954448334718e-04
7.92490384615385e+00 1.94148901593164e-02 1.84288082523109e-04
7.97278846153846e+00 1.92864076547259e-02 1.83620765370221e-04
8.02067307692308e+00 1.91587754126107e-02 1.82952564644505e-04
8.06855769230769e+00 1.90319878063209e-02 1.82283546763340e-04
8.11644230769231e+00 1.89060392461284e-02 1.81613776881678e-04
8.16432692307692e+00 1.87809241794538e-02 1.80943318690970e-04
8.21221153846154e+00 1.86566370906149e-02 1.80272234779088e-04
8.26009615384615e+00 1.85331725001263e-02 1.79600586434933e-04
8.30798076923077e+00 1.84105249650651e-02 1.78928433721910e-04
8.35586538461538e+00 1.82886890782314e-02 1.78255835508641e-04
8.40375000000000e+00 1.81676594685015e-02 1.77582849484522e-04
8.45163461538462e+00 1.80474308000074e-02 1.76909532189307e-04
8.49951923076923e+00 1.79279977724777e-02 1.76235939027826e-04
8.54740384615385e+00 1.78093551204351e-02 1.75562124298373e-04
8.59528846153846e+00 1.76914976135259e-02 1.74888141206710e-04
8.64317307692308e+00 1.75744200557350e-02 1.74214041893302e-04
8.69105769230769e+00 1.74581172857040e-02 1.73539877446542e-04
8.73894230769231e+00 1.73425841759636e-02 1.72865697977419e-04
8.78682692307692e+00 1.72278156331107e-02 1.72191552438244e-04
8.83471153846154e+00 1.71138065975783e-02 1.71517488937408e-04
8.88259615384615e+00 1.70005520430228e-02 1.70843554563307e-04
8.93048076923077e+00 1.68880469766199e-02 1.70169795446154e-04
8.97836538461539e+00 1.67762864383334e-02 1.69496256781910e-04
9.02625000000000e+00 1.66652655012011e-02 1.68822982843144e-04
9.07413461538462e+00 1.65549792706195e-02 1.68150017002148e-04
9.12201923076923e+00 1.64454228846197e-02 1.67477401741218e-04
9.16990384615385e+00 1.63365915131677e-02 1.66805178674910e-04
9.21778846153846e+00 1.62284803584306e-02 1.66133388559797e-04
9.26567307692308e+00 1.61210846540919e-02 1.65462071315954e-04
9.31355769230769e+00 1.60143996656089e-02 1.64791266036182e-04
9.36144230769231e+00 1.59084206895422e-02 1.64121011049598e-04
9.40932692307692e+00 1.58031430536927e-02 1.63451343758654e-04
9.45721153846154e+00 1.56985621168918e-02 1.62782300915769e-04
9.50509615384615e+00 1.55946732684628e-02 1.62113918464951e-04
9.55298076923077e+00 1.54914719284605e-02 1.61446231594420e-04
9.60086538461539e+00 1.53889535470317e-02 1.60779274755663e-04
9.64875000000000e+00 1.52871136046473e-02 1.60113081671031e-04
9.69663461538462e+00 1.51859476114754e-02 1.59447685352120e-04
9.74451923076923e+00 1.50854511076058e-02 1.58783118106994e-04
9.79240384615385e+00 1.49856196624363e-02 1.58119411557970e-04
9.84028846153846e+00 1.48864488748890e-02 1.57456596648449e-04
9.88817307692308e+00 1.47879343728098e-02 1.56794703660074e-04
9.93605769230769e+00 1.46900718131775e-02 1.56133762219264e-04
9.98394230769231e+00 1.45928568815150e-02 1.55473801275858e-04
1.00318269230769e+01 1.44962852921871e-02 1.54814849148506e-04
1.00797115384615e+01 1.44003527877245e-02 1.54156933653665e-04
1.01275961538462e+01 1.43050551388328e-02 1.53500082291321e-04
1.01754807692308e+01 1.42103881432805e-02 1.52844321216859e-04
1.02233653846154e+01 1.41163476285076e-02 1.52189675999899e-04
1.02712500000000e+01 1.40229294486301e-02 1.51536172390577e-04
1.03191346153846e+01 1.39301294852000e-02 1.50883835190432e-04
1.03670192307692e+01 1.38379436470240e-02 1.50232688643664e-04
1.04149038461538e+01 1.37463678699839e-02 1.49582756798437e-04
1.04627884615385e+01 1.36553981159914e-02 1.48934062456935e-04
1.05106730769231e+01 1.35650303754225e-02 1.48286627894022e-04
1.05585576923077e+01 1.34752606643117e-02 1.47640475583038e-04
1.06064423076923e+01 1.33860850250585e-02 1.46995627125307e-04
1.06543269230769e+01 1.32974995262518e-02 1.46352103620180e-04
1.07022115384615e+01 1.32095002624987e-02 1.45709925673681e-04
1.07500961538462e+01 1.31220833542510e-02 1.45069113737605e-04
1.07979807692308e+01 1.30352449468344e-02 1.44429687122378e-04
1.08458653846154e+01 1.29489812126935e-02 1.43791664671530e-04
1.08937500000000e+01 1.28632883487927e-02 1.43155065442958e-04
1.09416346153846e+01 1.27781625772639e-02 1.42519907702615e-04
1.09895192307692e+01 1.26936001452396e-02 1.41886209271822e-04
1.10374038461538e+01 1.26095973246885e-02 1.41253987848242e-04
1.10852884615385e+01 1.25261504115014e-02 1.40623260069312e-04
1.11331730769231e+01 1.24432557275886e-02 1.39994042151580e-04
1.11810576923077e+01 1.23609096184434e-02 1.39366350536606e-04
1.12289423076923e+01 1.22791084537435e-02 1.38740200936184e-04
1.12768269230769e+01 1.21978486271904e-02 1.38115608661189e-04
1.13247115384615e+01 1.21171265563519e-02 1.37492588628432e-04
1.13725961538462e+01 1.20369386825035e-02 1.36871155662228e-04
1.14204807692308e+01 1.19572814697777e-02 1.36251323613161e-04
1.14683653846154e+01 1.18781514071019e-02 1.35633105958774e-04
1.15162500000000e+01 1.17995450059369e-02 1.35016516410427e-04
1.15641346153846e+01 1.17214588008297e-02 1.34401568015044e-04
1.16120192307692e+01 1.16438893492604e-02 1.33788273464099e-04
1.16599038461538e+01 1.15668332314915e-02 1.33176645379392e-04
1.17077884615385e+01 1.14902870497657e-02 1.32566695476394e-04
1.17556730769231e+01 1.14142474301199e-02 1.31958435134102e-04
1.18035576923077e+01 1.13387110202606e-02 1.31351875970854e-04
1.18514423076923e+01 1.12636744900793e-02 1.30747028991548e-04
1.18993269230769e+01 1.11891345315043e-02 1.30143904880466e-04
1.19472115384615e+01 1.11150878583568e-02 1.29542514006746e-04
1.19950961538462e+01 1.10415312062050e-02 1.28942866693116e-04
1.20429807692308e+01 1.09684613316166e-02 1.28344972428146e-04
1.20908653846154e+01 1.08958750138377e-02 1.27748840402125e-04
1.21387500000000e+01 1.08237690528176e-02 1.27154480048532e-04
1.21866346153846e+01 1.07521402696827e-02 1.26561900241203e-04
1.22345192307692e+01 1.06809855065964e-02 1.25971109569734e-04
1.22824038461538e+01 1.06103016266201e-02 1.25382116594295e-04
1.23302884615385e+01 1.05400855130080e-02 1.24794929097359e-04
1.23781730769231e+01 1.04703340707797e-02 1.24209554592424e-04
1.24260576923077e+01 1.04010442248636e-02 1.23626000838123e-04
1.24739423076923e+01 1.03322129205379e-02 1.23044275075592e-04
1.25218269230769e+01 1.02638371232959e-02 1.22464384289676e-04
1.25697115384615e+01 1.01959138187128e-02 1.21886335213320e-04
1.26175961538462e+01 1.01284400123127e-02 1.21310134567437e-04
1.26654807692308e+01 1.00614127289100e-02 1.20735788355857e-04
1.27133653846154e+01 9.99482901406634e-03 1.20163302344124e-04
1.27612500000000e+01 9.92868593236309e-03 1.19592682543383e-04
1.28091346153846e+01 9.86298056780712e-03 1.19023934491878e-04
1.28570192307692e+01 9.79771002370258e-03 1.18457063500837e-04
1.29049038461538e+01 9.73287142252348e-03 1.17892074882088e-04
1.29527884615385e+01 9.66846190529184e-03 1.17328973277969e-04
1.30006730769231e+01 9.60447863294451e-03 1.16767763116153e-04
1.30485576923077e+01 9.54091878470627e-03 1.16208449069386e-04
1.30964423076923e+01 9.47777955846905e-03 1.15651035372576e-04
1.31443269230769e+01 9.41505817066803e-03 1.15095526056179e-04
1.31922115384615e+01 9.35275185615967e-03 1.14541924949754e-04
1.32400961538462e+01 9.29085786809946e-03 1.13990235896357e-04
1.32879807692308e+01 9.22937347736071e-03 1.13440462120836e-04
1.33358653846154e+01 9.16829597380258e-03 1.12892606658189e-04
1.33837500000000e+01 9.10762266475403e-03 1.12346672786541e-04
1.34316346153846e+01 9.04735087536325e-03 1.11802663383395e-04
1.34795192307692e+01 8.98747794847991e-03 1.11260581145506e-04
1.35274038461538e+01 8.92800124453818e-03 1.10720428792468e-04
1.35752884615385e+01 8.86891814100728e-03 1.10182208466008e-04
1.36231730769231e+01 8.81022603358219e-03 1.09645922137135e-04
1.36710576923077e+01 8.75192233475484e-03 1.09111572017727e-04
1.37189423076923e+01 8.69400447414057e-03 1.08579159948410e-04
1.37668269230769e+01 8.63646989836456e-03 1.08048687607355e-04
1.38147115384615e+01 8.57931607094988e-03 1.07520156513148e-04
1.38625961538462e+01 8.52254047220534e-03 1.06993568216703e-04
1.39104807692308e+01 8.46614059871129e-03 1.06468923734653e-04
1.39583653846154e+01 8.41011396442567e-03 1.05946223933054e-04
1.40062500000000e+01 8.35445809935084e-03 1.05425469915290e-04
1.40541346153846e+01 8.29917054983481e-03 1.04906662444714e-04
1.41020192307692e+01 8.24424887846325e-03 1.04389802141467e-04
1.41499038461538e+01 8.18969066395212e-03 1.03874889664818e-04
1.41977884615385e+01 8.13549350066116e-03 1.03361925174128e-04
1.42456730769231e+01 8.08165499963340e-03 1.02850908693742e-04
1.42935576923077e+01 8.02817278733760e-03 1.02341840481920e-04
1.43414423076923e+01 7.97504450594989e-03 1.01834720481580e-04
1.43893269230769e+01 7.92226781324960e-03 1.01329548507314e-04
1.44372115384615e+01 7.86984038251657e-03 1.00826324247744e-04
1.44850961538462e+01 7.81775990242822e-03 1.00325047437501e-04
1.45329807692308e+01 7.76602407660382e-03 9.98257173485090e-05
1.45808653846154e+01 7.71463062457106e-03 9.93283331340876e-05
1.46287500000000e+01 7.66357728059149e-03 9.88328941768458e-05
1.46766346153846e+01 7.61286179392059e-03 9.83393995703617e-05
1.47245192307692e+01 7.56248192870867e-03 9.78478482955740e-05
1.47724038461538e+01 7.51243546390244e-03 9.73582393842724e-05
1.48202884615385e+01 7.46272019281334e-03 9.68705714349676e-05
1.48681730769231e+01 7.41333392402688e-03 9.63848429402544e-05
1.49160576923077e+01 7.36427448029356e-03 9.59010526178310e-05
1.49639423076923e+01 7.31553969877236e-03 9.54191989172069e-05
1.50118269230769e+01 7.26712743093514e-03 9.49392801874059e-05
1.50597115384615e+01 7.21903554247240e-03 9.44612946788840e-05
1.51075961538462e+01 7.17126191319894e-03 9.39852406978302e-05
