Energy (eV)          EEDF (eV^-(3/2))     First Anisotropy
4.05000000000000e-02 1.10437472375868e-01 9.21274804905944e-05
1.21500000000000e-01 1.08542918049766e-01 1.51332522795832e-04
2.02500000000000e-01 1.06680864794336e-01 1.97678031346523e-04
2.83500000000000e-01 1.04850755053861e-01 2.31636025440023e-04
3.64500000000000e-01 1.03052040837492e-01 2.58940594460630e-04
4.45500000000000e-01 1.01284183555156e-01 2.81794448765066e-04
5.26500000000000e-01 9.95466538562957e-02 3.01354751229190e-04
6.07500000000000e-01 9.78389314713556e-02 3.18330485512833e-04
6.88500000000000e-01 9.61605050560041e-02 3.33198532420204e-04
7.69500000000000e-01 9.45108720380189e-02 3.46300587921520e-04
8.50500000000000e-01 9.28895384668019e-02 3.57892974529860e-04
9.31500000000000e-01 9.12960188654750e-02 3.68174792341887e-04
1.01250000000000e+00 8.97298360855137e-02 3.77304990163813e-04
1.09350000000000e+00 8.81905211638746e-02 3.85413298473596e-04
1.17450000000000e+00 8.66776131825726e-02 3.92607543787234e-04
1.25550000000000e+00 8.51906591306689e-02 3.98978720456072e-04
1.33650000000000e+00 8.37292137686252e-02 4.04604614302913e-04
1.41750000000000e+00 8.22928394949853e-02 4.09552458260632e-04
1.49850000000000e+00 8.08811062153438e-02 4.13880921667033e-04
1.57950000000000e+00 7.94935912135633e-02 4.17641629081456e-04
1.66050000000000e+00 7.81298790251992e-02 4.20880339482062e-04
1.74150000000000e+00 7.67895613130980e-02 4.23637875480718e-04
1.82250000000000e+00 7.54722367451279e-02 4.25950865322575e-04
1.90350000000000e+00 7.41775108740080e-02 4.27852342491114e-04
1.98450000000000e+00 7.29049960191988e-02 4.29372235490610e-04
2.06550000000000e+00 7.16543111508184e-02 4.30537771853246e-04
2.14650000000000e+00 7.04250817755511e-02 4.31373814380406e-04
2.22750000000000e+00 6.92169398245121e-02 4.31903143282937e-04
2.30850000000000e+00 6.80295235430365e-02 4.32146694712714e-04
2.38950000000000e+00 6.68624773823592e-02 4.32123763830485e-04
2.47050000000000e+00 6.57154518931524e-02 4.31852178797108e-04
2.55150000000000e+00 6.45881036208899e-02 4.31348450743466e-04
2.63250000000000e+00 6.34800950030065e-02 4.30627903755011e-04
2.71350000000000e+00 6.23910942678209e-02 4.29704788119318e-04
2.79450000000000e+00 6.13207753351937e-02 4.28592379470604e-04
2.87550000000000e+00 6.02688177188887e-02 4.27303065982123e-04
2.95650000000000e+00 5.92349064306096e-02 4.25848425374464e-04
3.03750000000000e+00 5.82187318856829e-02 4.24239293202003e-04
3.11850000000000e+00 5.72199898103586e-02 4.22485823633993e-04
3.19950000000000e+00 5.62383811507018e-02 4.20597543747821e-04
3.28050000000000e+00 5.52736119830460e-02 4.18583402189950e-04
3.36150000000000e+00 5.43253934259841e-02 4.16451812927506e-04
3.44250000000000e+00 5.33934415538683e-02 4.14210694704081e-04
3.52350000000000e+00 5.24774773117937e-02 4.11867506722981e-04
3.60450000000000e+00 5.15772264320412e-02 4.09429281005911e-04
3.68550000000000e+00 5.06924193519531e-02 4.06902651812063e-04
3.76650000000000e+00 4.98227911332178e-02 4.04293882450011e-04
3.84750000000000e+00 4.89680813825392e-02 4.01608889770092e-04
3.92850000000000e+00 4.81280341736671e-02 3.98853266587323e-04
4.00950000000000e+00 4.73023979707648e-02 3.96032302252920e-04
4.09050000000000e+00 4.64909255530918e-02 3.93151001565087e-04
4.17150000000000e+00 4.56933739409781e-02 3.90214102186412e-04
4.25250000000000e+00 4.49095043230691e-02 3.87226090715052e-04
4.33350000000000e+00 4.41390819848176e-02 3.84191217539593e-04
4.41450000000000e+00 4.33818762382035e-02 3.81113510592510e-04
4.49550000000000e+00 4.26376603526586e-02 3.77996788104130e-04
4.57650000000000e+00 4.19062114871766e-02 3.74844670447726e-04
4.65750000000000e+00 4.11873106235876e-02 3.71660591156585e-04
4.73850000000000e+00 4.04807425009772e-02 3.68447807185101e-04
4.81950000000000e+00 3.97862955512312e-02 3.65209408478630e-04
4.90050000000000e+00 3.91037618356854e-02 3.61948326910023e-04
4.98150000000000e+00 3.84329369828624e-02 3.58667344634946e-04
5.06250000000000e+00 3.77736201272765e-02 3.55369101913020e-04
5.14350000000000e+00 3.71256138492885e-02 3.52056104437127e-04
5.22450000000000e+00 3.64887241159921e-02 3.48730730209265e-04
5.30550000000000e+00 3.58627602231149e-02 3.45395235997622e-04
5.38650000000000e+00 3.52475347379150e-02 3.42051763406487e-04
5.46750000000000e+00 3.46428634430587e-02 3.38702344587601e-04
5.54850000000000e+00 3.40485652814596e-02 3.35348907619050e-04
5.62950000000000e+00 3.34644623020647e-02 3.31993281575558e-04
5.71050000000000e+00 3.28903796065708e-02 3.28637201311852e-04
5.79150000000000e+00 3.23261452970539e-02 3.25282311979069e-04
5.87250000000000e+00 3.17715904244983e-02 3.21930173292384e-04
5.95350000000000e+00 3.12265489382080e-02 3.18582263566613e-04
6.03450000000000e+00 3.06908576360856e-02 3.15239983535133e-04
6.11550000000000e+00 3.01643561157651e-02 3.11904659966247e-04
6.19650000000000e+00 2.96468867265824e-02 3.08577549090091e-04
6.27750000000000e+00 2.91382945223697e-02 3.05259839847984e-04
6.35850000000000e+00 2.86384272150601e-02 3.01952656975370e-04
6.43950000000000e+00 2.81471351290876e-02 2.98657063928635e-04
6.52050000000000e+00 2.76642711565701e-02 2.95374065665227e-04
6.60150000000000e+00 2.71896907132603e-02 2.92104611285896e-04
6.68250000000000e+00 2.67232516952530e-02 2.88849596547228e-04
6.76350000000000e+00 2.62648144364351e-02 2.85609866252059e-04
6.84450000000000e+00 2.58142416666647e-02 2.82386216524772e-04
6.92550000000000e+00 2.53713984706688e-02 2.79179396978053e-04
7.00650000000000e+00 2.49361522476451e-02 2.75990112777246e-04
7.08750000000000e+00 2.45083726715575e-02 2.72819026607921e-04
7.16850000000000e+00 2.40879316521125e-02 2.69666760552050e-04
7.24950000000000e+00 2.36747032964050e-02 2.66533897877726e-04
7.33050000000000e+00 2.32685638712219e-02 2.63420984747017e-04
7.41150000000000e+00 2.28693917659931e-02 2.60328531846379e-04
7.49250000000000e+00 2.24770674563771e-02 2.57257015943630e-04
7.57350000000000e+00 2.20914734684719e-02 2.54206881375332e-04
7.65450000000000e+00 2.17124943436398e-02 2.51178541468147e-04
7.73550000000000e+00 2.13400166039354e-02 2.48172379897514e-04
7.81650000000000e+00 2.09739287181271e-02 2.45188751986806e-04
7.89750000000000e+00 2.06141210683010e-02 2.42227985949949e-04
7.97850000000000e+00 2.02604859170379e-02 2.39290384080269e-04
8.05950000000000e+00 1.99129173751536e-02 2.36376223888187e-04
8.14050000000000e+00 1.95713113699923e-02 2.33485759190283e-04
8.22150000000000e+00 1.92355656142644e-02 2.30619221152034e-04
8.30250000000000e+00 1.89055795754178e-02 2.27776819286405e-04
8.38350000000000e+00 1.85812544455363e-02 2.24958742410374e-04
8.46450000000000e+00 1.82624931117529e-02 2.22165159561429e-04
8.54550000000000e+00 1.79492001271712e-02 2.19396220875812e-04
8.62650000000000e+00 1.76412816822861e-02 2.16652058430270e-04
8.70750000000000e+00 1.73386455768941e-02 2.13932787049017e-04
8.78850000000000e+00 1.70412011924857e-02 2.11238505077475e-04
8.86950000000000e+00 1.67488594651114e-02 2.08569295124229e-04
8.95050000000000e+00 1.64615328587136e-02 2.05925224772669e-04
9.03150000000000e+00 1.61791353389151e-02 2.03306347263645e-04
9.11250000000000e+00 1.59015823472583e-02 2.00712702150377e-04
9.19350000000000e+00 1.56287907758853e-02 1.98144315926865e-04
9.27450000000000e+00 1.53606789426532e-02 1.95601202630936e-04
9.35550000000000e+00 1.50971665666761e-02 1.93083364422988e-04
9.43650000000000e+00 1.48381747442859e-02 1.90590792141499e-04
9.51750000000000e+00 1.45836259254070e-02 1.88123465836293e-04
9.59850000000000e+00 1.43334438903347e-02 1.85681355280466e-04
9.67950000000000e+00 1.40875537269130e-02 1.83264420461890e-04
9.76050000000000e+00 1.38458818081036e-02 1.80872612055140e-04
9.84150000000000e+00 1.36083557699400e-02 1.78505871874653e-04
9.92250000000000e+00 1.33749044898588e-02 1.76164133309898e-04
1.00035000000000e+01 1.31454580654039e-02 1.73847321743270e-04
1.00845000000000e+01 1.29199477932958e-02 1.71555354951435e-04
1.01655000000000e+01 1.26983061488592e-02 1.69288143490808e-04
1.02465000000000e+01 1.24804667658044e-02 1.67045591067751e-04
1.03275000000000e+01 1.22663644163549e-02 1.64827594894161e-04
1.04085000000000e+01 1.20559349917167e-02 1.62634046028999e-04
1.04895000000000e+01 1.18491154828816e-02 1.60464829706321e-04
1.05705000000000e+01 1.16458439617607e-02 1.58319825650356e-04
1.06515000000000e+01 1.14460595626414e-02 1.56198908378130e-04
1.07325000000000e+01 1.12497024639618e-02 1.54101947490137e-04
1.08135000000000e+01 1.10567138703989e-02 1.52028807949509e-04
1.08945000000000e+01 1.08670359952629e-02 1.49979350350132e-04
1.09755000000000e+01 1.06806120431947e-02 1.47953431174155e-04
1.10565000000000e+01 1.04973861931590e-02 1.45950903039280e-04
1.11375000000000e+01 1.03173035817304e-02 1.43971614936236e-04
1.12185000000000e+01 1.01403102866652e-02 1.42015412456823e-04
1.12995000000000e+01 9.96635331075542e-03 1.40082138012860e-04
1.13805000000000e+01 9.79538056596011e-03 1.38171631046411e-04
1.14615000000000e+01 9.62734085780833e-03 1.36283728231599e-04
1.15425000000000e+01 9.46218387007009e-03 1.34418263668335e-04
1.16235000000000e+01 9.29986014969004e-03 1.32575069068277e-04
1.17045000000000e+01 9.14032109197983e-03 1.30753973933290e-04
1.17855000000000e+01 8.98351892606426e-03 1.28954805726723e-04
1.18665000000000e+01 8.82940670057731e-03 1.27177390037715e-04
1.19475000000000e+01 8.67793826960341e-03 1.25421550738853e-04
1.20285000000000e+01 8.52906827885994e-03 1.23687110137391e-04
1.21095000000000e+01 8.38275215211682e-03 1.21973889120286e-04
1.21905000000000e+01 8.23894607784898e-03 1.20281707293270e-04
1.22715000000000e+01 8.09760699611784e-03 1.18610383114188e-04
1.23525000000000e+01 7.95869258567788e-03 1.16959734020808e-04
1.24335000000000e+01 7.82216125130437e-03 1.15329576553319e-04
1.25145000000000e+01 7.68797211133844e-03 1.13719726471692e-04
1.25955000000000e+01 7.55608498544589e-03 1.12129998868111e-04
1.26765000000000e+01 7.42646038258599e-03 1.10560208274653e-04
1.27575000000000e+01 7.29905948918660e-03 1.09010168766391e-04
1.28385000000000e+01 7.17384415752225e-03 1.07479694060068e-04
1.29195000000000e+01 7.05077689429151e-03 1.05968597608543e-04
1.30005000000000e+01 6.92982084939038e-03 1.04476692691140e-04
1.30815000000000e+01 6.81093980487822e-03 1.03003792500047e-04
1.31625000000000e+01 6.69409816413297e-03 1.01549710222916e-04
1.32435000000000e+01 6.57926094119248e-03 1.00114259121806e-04
1.33245000000000e+01 6.46639375027861e-03 9.86972526086060e-05
1.34055000000000e+01 6.35546279550108e-03 9.72985043170506e-05
1.34865000000000e+01 6.24643486073797e-03 9.59178281714752e-05
1.35675000000000e+01 6.13927729968975e-03 9.45550384524085e-05
1.36485000000000e+01 6.03395802610403e-03 9.32099498591305e-05
1.37295000000000e+01 5.93044550416792e-03 9.18823775693087e-05
1.38105000000000e+01 5.82870873906526e-03 9.05721372958160e-05
1.38915000000000e+01 5.72871726769581e-03 8.92790453408256e-05
1.39725000000000e+01 5.63044114955367e-03 8.80029186472931e-05
1.40535000000000e+01 5.53385095776219e-03 8.67435748479267e-05
1.41345000000000e+01 5.43891777026265e-03 8.55008323117228e-05
1.42155000000000e+01 5.34561316115410e-03 8.42745101881642e-05
1.42965000000000e+01 5.25390919218181e-03 8.30644284491684e-05
1.43775000000000e+01 5.16377840437168e-03 8.18704079288711e-05
1.44585000000000e+01 5.07519380980815e-03 8.06922703613143e-05
1.45395000000000e+01 4.98812888355328e-03 7.95298384161259e-05
1.46205000000000e+01 4.90255755570426e-03 7.83829357322653e-05
1.47015000000000e+01 4.81845420358738e-03 7.72513869499007e-05
1.47825000000000e+01 4.73579364408576e-03 7.61350177404931e-05
1.48635000000000e+01 4.65455112609880e-03 7.50336548351551e-05
1.49445000000000e+01 4.57470232313088e-03 7.39471260513412e-05
1.50255000000000e+01 4.49622332600732e-03 7.28752603179349e-05
1.51065000000000e+01 4.41909063571523e-03 7.18178876988017e-05
1.51875000000000e+01 4.34328115636714e-03 7.07748394148556e-05
1.52685000000000e+01 4.26877218828547e-03 6.97459478646981e-05
1.53495000000000e+01 4.19554142120546e-03 6.87310466438818e-05
1.54305000000000e+01 4.12356692759487e-03 6.77299705628585e-05
1.55115000000000e+01 4.05282715608815e-03 6.67425556636536e-05
1.55925000000000e+01 3.98330092503336e-03 6.57686392353238e-05
1.56735000000000e+01 3.91496741614965e-03 6.48080598282320e-05
1.57545000000000e+01 3.84780616829374e-03 6.38606572671956e-05
1.58355000000000e+01 3.78179707133312e-03 6.29262726635557e-05
1.59165000000000e+01 3.71692036012453e-03 6.20047484261944e-05
1.59975000000000e+01 3.65315660859565e-03 6.10959282715540e-05
1.60785000000000e+01 3.59048672392834e-03 6.01996572326918e-05
1.61595000000000e+01 3.52889194084167e-03 5.93157816674107e-05
1.62405000000000e+01 3.46835381597300e-03 5.84441492655014e-05
1.63215000000000e+01 3.40885422235553e-03 5.75846090551294e-05
1.64025000000000e+01 3.35037534399044e-03 5.67370114084065e-05
1.64835000000000e+01 3.29289967051232e-03 5.59012080461756e-05
1.65645000000000e+01 3.23640999194599e-03 5.50770520420407e-05
1.66455000000000e+01 3.18088939355332e-03 5.42643978256737e-05
1.67265000000000e+01 3.12632125076842e-03 5.34631011854298e-05
1.68075000000000e+01 3.07268922421977e-03 5.26730192702995e-05
1.68885000000000e+01 3.01997725483766e-03 5.18940105912185e-05
1.69695000000000e+01 2.96816955904569e-03 5.11259350217700e-05
1.70505000000000e+01 2.91725062403460e-03 5.03686537983093e-05
1.71315000000000e+01 2.86720520311733e-03 4.96220295195200e-05
1.72125000000000e+01 2.81801831116365e-03 4.88859261454391e-05
1.72935000000000e+01 2.76967522011318e-03 4.81602089959698e-05
1.73745000000000e+01 2.72216145456533e-03 4.74447447489056e-05
1.74555000000000e+01 2.67546278744495e-03 4.67394014374872e-05
1.75365000000000e+01 2.62956523574232e-03 4.60440484475072e-05
1.76175000000000e+01 2.58445505632614e-03 4.53585565139948e-05
1.76985000000000e+01 2.54011874182851e-03 4.46827977174946e-05
1.77795000000000e+01 2.49654301660033e-03 4.40166454799466e-05
1.78605000000000e+01 2.45371483273622e-03 4.33599745602056e-05
1.79415000000000e+01 2.41162136616755e-03 4.27126610492047e-05
1.80225000000000e+01 2.37025001282252e-03 4.20745823647827e-05
1.81035000000000e+01 2.32958838485213e-03 4.14456172461944e-05
1.81845000000000e+01 2.28962430692088e-03 4.08256457483116e-05
1.82655000000000e+01 2.25034581256107e-03 4.02145492355405e-05
1.83465000000000e+01 2.21174114058973e-03 3.96122103754634e-05
1.84275000000000e+01 2.17379873158691e-03 3.90185131322206e-05
1.85085000000000e+01 2.13650722443445e-03 3.84333427596476e-05
1.85895000000000e+01 2.09985545291413e-03 3.78565857941738e-05
1.86705000000000e+01 2.06383244236416e-03 3.72881300475068e-05
1.87515000000000e+01 2.02842740639300e-03 3.67278645991066e-05
1.88325000000000e+01 1.99362974364962e-03 3.61756797884620e-05
1.89135000000000e+01 1.95942903464912e-03 3.56314672071845e-05
1.89945000000000e+01 1.92581503865280e-03 3.50951196909232e-05
1.90755000000000e+01 1.89277769060181e-03 3.45665313111205e-05
1.91565000000000e+01 1.86030709810333e-03 3.40455973666148e-05
1.92375000000000e+01 1.82839353846846e-03 3.35322143750946e-05
1.93185000000000e+01 1.79702745580103e-03 3.30262800644225e-05
1.93995000000000e+01 1.76619945813620e-03 3.25276933638329e-05
1.94805000000000e+01 1.73590031462825e-03 3.20363543950148e-05
1.95615000000000e+01 1.70612095278657e-03 3.15521644630831e-05
1.96425000000000e+01 1.67685245575909e-03 3.10750260474514e-05
1.97235000000000e+01 1.64808605966228e-03 3.06048427926146e-05
1.98045000000000e+01 1.61981315095702e-03 3.01415194988457e-05
1.98855000000000e+01 1.59202526386940e-03 2.96849621128152e-05
1.99665000000000e+01 1.56471407785581e-03 2.92350777181388e-05
2.00475000000000e+01 1.53787141511154e-03 2.87917745258630e-05
2.01285000000000e+01 1.51148923812208e-03 2.83549618648930e-05
2.02095000000000e+01 1.48555964725644e-03 2.79245501723706e-05
2.02905000000000e+01 1.46007487840177e-03 2.75004509840059e-05
2.03715000000000e+01 1.43502730063853e-03 2.70825769243684e-05
2.04525000000000e+01 1.41040941395559e-03 2.66708416971465e-05
2.05335000000000e+01 1.38621384700445e-03 2.62651600753772e-05
2.06145000000000e+01 1.36243335489207e-03 2.58654478916518e-05
2.06955000000000e+01 1.33906081701152e-03 2.54716220283042e-05
2.07765000000000e+01 1.31608923490985e-03 2.50836004075839e-05
2.08575000000000e+01 1.29351173019253e-03 2.47013019818204e-05
2.09385000000000e+01 1.27132154246385e-03 2.43246467235810e-05
2.10195000000000e+01 1.24951202730269e-03 2.39535556158284e-05
2.11005000000000e+01 1.22807665427290e-03 2.35879506420820e-05
2.11815000000000e+01 1.20700900496797e-03 2.32277547765839e-05
2.12625000000000e+01 1.18630277108909e-03 2.28728919744756e-05
2.13435000000000e+01 1.16595175255632e-03 2.25232871619896e-05
2.14245000000000e+01 1.14594985565203e-03 2.21788662266563e-05
2.15055000000000e+01 1.12629109119631e-03 2.18395560075317e-05
2.15865000000000e+01 1.10696957275360e-03 2.15052842854488e-05
2.16675000000000e+01 1.08797951487011e-03 2.11759797732936e-05
2.17485000000000e+01 1.06931523134148e-03 2.08515721063113e-05
2.18295000000000e+01 1.05097113351017e-03 2.05319918324439e-05
2.19105000000000e+01 1.03294172859203e-03 2.02171704027016e-05
2.19915000000000e+01 1.01522161803159e-03 1.99070401615693e-05
2.20725000000000e+01 9.97805495885581e-04 1.96015343374537e-05
2.21535000000000e+01 9.80688147234164e-04 1.93005870331695e-05
2.22345000000000e+01 9.63864446619427e-04 1.90041332164706e-05
2.23155000000000e+01 9.47329356510662e-04 1.87121087106240e-05
2.23965000000000e+01 9.31077925795979e-04 1.84244501850314e-05
2.24775000000000e+01 9.15105288299788e-04 1.81410951458999e-05
2.25585000000000e+01 8.99406661325720e-04 1.78619819269609e-05
2.26395000000000e+01 8.83977344224540e-04 1.75870496802434e-05
2.27205000000000e+01 8.68812716986628e-04 1.73162383669001e-05
2.28015000000000e+01 8.53908238858609e-04 1.70494887480858e-05
2.28825000000000e+01 8.39259446983709e-04 1.67867423758946e-05
2.29635000000000e+01 8.24861955065442e-04 1.65279415843526e-05
2.30445000000000e+01 8.10711452054219e-04 1.62730294804698e-05
2.31255000000000e+01 7.96803700856485e-04 1.60219499353537e-05
2.32065000000000e+01 7.83134537066008e-04 1.57746475753791e-05
2.32875000000000e+01 7.69699867716921e-04 1.55310677734233e-05
2.33685000000000e+01 7.56495670058172e-04 1.52911566401628e-05
2.34495000000000e+01 7.43517990348983e-04 1.50548610154329e-05
2.35305000000000e+01 7.30762942674979e-04 1.48221284596524e-05
2.36115000000000e+01 7.18226707784630e-04 1.45929072453121e-05
2.36925000000000e+01 7.05905531945649e-04 1.43671463485308e-05
2.37735000000000e+01 6.93795725821007e-04 1.41447954406758e-05
2.38545000000000e+01 6.81893663364236e-04 1.39258048800515e-05
2.39355000000000e+01 6.70195780733676e-04 1.37101257036540e-05
2.40165000000000e+01 6.58698575225358e-04 1.34977096189954e-05
2.40975000000000e+01 6.47398604224180e-04 1.32885089959956e-05
2.41785000000000e+01 6.36292484173087e-04 1.30824768589423e-05
2.42595000000000e+01 6.25376889559931e-04 1.28795668785202e-05
2.43405000000000e+01 6.14648551921708e-04 1.26797333639107e-05
2.44215000000000e+01 6.04104258865882e-04 1.24829312549600e-05
2.45025000000000e+01 5.93740853108495e-04 1.22891161144168e-05
2.45835000000000e+01 5.83555231528784e-04 1.20982441202419e-05
2.46645000000000e+01 5.73544344240004e-04 1.19102720579866e-05
2.47455000000000e+01 5.63705193676206e-04 1.17251573132411e-05
2.48265000000000e+01 5.54034833694669e-04 1.15428578641539e-05
2.49075000000000e+01 5.44530368693738e-04 1.13633322740223e-05
2.49885000000000e+01 5.35188952745791e-04 1.11865396839525e-05
2.50695000000000e+01 5.26007788745080e-04 1.10124398055904e-05
2.51505000000000e+01 5.16984127570195e-04 1.08409929139235e-05
2.52315000000000e+01 5.08115267260889e-04 1.06721598401526e-05
2.53125000000000e+01 4.99398552209031e-04 1.05059019646338e-05
2.53935000000000e+01 4.90831372363437e-04 1.03421812098912e-05
2.54745000000000e+01 4.82411162448336e-04 1.01809600336997e-05
2.55555000000000e+01 4.74135401195253e-04 1.00222014222376e-05
