Energy (eV)          EEDF (eV^-(3/2))     First Anisotropy
2.41025641025641e-03 2.80658168460575e+00 1.64785252773706e-03
7.23076923076923e-03 2.78178111943930e+00 2.71818842917565e-03
1.20512820512821e-02 2.75719970629236e+00 3.58068344860981e-03
1.68717948717949e-02 2.73283550852415e+00 4.23130040592846e-03
2.16923076923077e-02 2.70868660683561e+00 4.77010709146819e-03
2.65128205128205e-02 2.68475109871895e+00 5.23504784953077e-03
3.13333333333333e-02 2.66102709849151e+00 5.64581312255841e-03
3.61538461538462e-02 2.63751273714443e+00 6.01432539701540e-03
4.09743589743590e-02 2.61420616212950e+00 6.34851285675288e-03
4.57948717948718e-02 2.59110553739054e+00 6.65399371070942e-03
5.06153846153846e-02 2.56820904302918e+00 6.93493770196187e-03
5.54358974358974e-02 2.54551487522930e+00 7.19455066073728e-03
6.02564102564103e-02 2.52302124611607e+00 7.43536696360445e-03
6.50769230769231e-02 2.50072638358041e+00 7.65943593201533e-03
6.98974358974359e-02 2.47862853124255e+00 7.86844595080186e-03
7.47179487179487e-02 2.45672594820600e+00 8.06381011781486e-03
7.95384615384615e-02 2.43501690895799e+00 8.24672712631416e-03
8.43589743589744e-02 2.41349970323398e+00 8.41822567391065e-03
8.91794871794872e-02 2.39217263585940e+00 8.57919755101743e-03
9.40000000000000e-02 2.37103402668702e+00 8.73042278441386e-03
9.88205128205128e-02 2.35008221039132e+00 8.87258905448271e-03
1.03641025641026e-01 2.32931553640026e+00 9.00630692364105e-03
1.08461538461538e-01 2.30873236861474e+00 9.13212191201160e-03
1.13282051282051e-01 2.28833108547067e+00 9.25052420547822e-03
1.18102564102564e-01 2.26811007973379e+00 9.36195656798562e-03
1.22923076923077e-01 2.24806775837251e+00 9.46682079090490e-03
1.27743589743590e-01 2.22820254258368e+00 9.56548310274101e-03
1.32564102564103e-01 2.20851286720578e+00 9.65827860418893e-03
1.37384615384615e-01 2.18899718106523e+00 9.74551499049725e-03
1.42205128205128e-01 2.16965394669440e+00 9.82747578448883e-03
1.47025641025641e-01 2.15048164021264e+00 9.90442301245702e-03
1.51846153846154e-01 2.13147875132597e+00 9.97659957034255e-03
1.56666666666667e-01 2.11264378284014e+00 1.00442311926916e-02
1.61487179487179e-01 2.09397525091588e+00 1.01075281536999e-02
1.66307692307692e-01 2.07547168482533e+00 1.01666868201018e-02
1.71128205128205e-01 2.05713162683690e+00 1.02218909525184e-02
1.75948717948718e-01 2.03895363210061e+00 1.02733128486991e-02
1.80769230769231e-01 2.02093626863025e+00 1.03211144016344e-02
1.85589743589744e-01 2.00307811689791e+00 1.03654479744442e-02
1.90410256410256e-01 1.98537777001852e+00 1.04064571740529e-02
1.95230769230769e-01 1.96783383353841e+00 1.04442776040399e-02
2.00051282051282e-01 1.95044492532665e+00 1.04790374764994e-02
2.04871794871795e-01 1.93320967554639e+00 1.05108582182001e-02
2.09692307692308e-01 1.91612672630158e+00 1.05398549601685e-02
2.14512820512821e-01 1.89919473177825e+00 1.05661369765522e-02
2.19333333333333e-01 1.88241235805459e+00 1.05898081386265e-02
2.24153846153846e-01 1.86577828299598e+00 1.06109672814173e-02
2.28974358974359e-01 1.84929119615115e+00 1.06297085374521e-02
2.33794871794872e-01 1.83294979871590e+00 1.06461216810473e-02
2.38615384615385e-01 1.81675280322693e+00 1.06602923929663e-02
2.43435897435897e-01 1.80069893366651e+00 1.06723025003951e-02
2.48256410256410e-01 1.78478692529223e+00 1.06822302479218e-02
2.53076923076923e-01 1.76901552453787e+00 1.06901504968887e-02
2.57897435897436e-01 1.75338348897253e+00 1.06961349554786e-02
2.62717948717949e-01 1.73788958702669e+00 1.07002523455311e-02
2.67538461538462e-01 1.72253259807303e+00 1.07025685547778e-02
2.72358974358974e-01 1.70731131227030e+00 1.07031468242218e-02
2.77179487179487e-01 1.69222453046797e+00 1.07020478849545e-02
2.82000000000000e-01 1.67727106411206e+00 1.06993300856679e-02
2.86820512820513e-01 1.66244973520083e+00 1.06950495442824e-02
2.91641025641026e-01 1.64775937604191e+00 1.06892602481338e-02
2.96461538461538e-01 1.63319882931191e+00 1.06820141458856e-02
3.01282051282051e-01 1.61876694791405e+00 1.06733612753244e-02
3.06102564102564e-01 1.60446259488803e+00 1.06633498495522e-02
3.10923076923077e-01 1.59028464332042e+00 1.06520263381754e-02
3.15743589743590e-01 1.57623197629850e+00 1.06394355733225e-02
3.20564102564103e-01 1.56230348669301e+00 1.06256208119855e-02
3.25384615384615e-01 1.54849807720142e+00 1.06106237933210e-02
3.30205128205128e-01 1.53481466021746e+00 1.05944848306415e-02
3.35025641025641e-01 1.52125215774572e+00 1.05772428608337e-02
3.39846153846154e-01 1.50780950135439e+00 1.05589355260587e-02
3.44666666666667e-01 1.49448563197651e+00 1.05395992165232e-02
3.49487179487180e-01 1.48127949994223e+00 1.05192691098119e-02
3.54307692307692e-01 1.46819006485709e+00 1.04979792432145e-02
3.59128205128205e-01 1.45521629552015e+00 1.04757625542514e-02
3.63948717948718e-01 1.44235716984281e+00 1.04526509195312e-02
3.68769230769231e-01 1.42961167480130e+00 1.04286752167769e-02
3.73589743589744e-01 1.41697880625672e+00 1.04038653523771e-02
3.78410256410256e-01 1.40445756897702e+00 1.03782502866473e-02
3.83230769230769e-01 1.39204697652445e+00 1.03518580899029e-02
3.88051282051282e-01 1.37974605117813e+00 1.03247159644291e-02
3.92871794871795e-01 1.36755382388646e+00 1.02968502950941e-02
3.97692307692308e-01 1.35546933410118e+00 1.02682866685206e-02
4.02512820512821e-01 1.34349162979211e+00 1.02390498905757e-02
4.07333333333333e-01 1.33161976734173e+00 1.02091640328041e-02
4.12153846153846e-01 1.31985281147084e+00 1.01786524530956e-02
4.16974358974359e-01 1.30818983516494e+00 1.01475378158580e-02
4.21794871794872e-01 1.29662991962735e+00 1.01158421327122e-02
4.26615384615385e-01 1.28517215412758e+00 1.00835867747989e-02
4.31435897435897e-01 1.27381563600949e+00 1.00507924838807e-02
4.36256410256410e-01 1.26255947059329e+00 1.00174794102492e-02
4.41076923076923e-01 1.25140277110511e+00 9.98366712234551e-03
4.45897435897436e-01 1.24034465863080e+00 9.94937464130842e-03
4.50717948717949e-01 1.22938426197509e+00 9.91462044935239e-03
4.55538461538462e-01 1.21852071766514e+00 9.87942249720153e-03
4.60358974358974e-01 1.20775316985823e+00 9.84379823662143e-03
4.65179487179487e-01 1.19708077027431e+00 9.80776463146758e-03
4.70000000000000e-01 1.18650267812927e+00 9.77133816869405e-03
4.74820512820513e-01 1.17601806008974e+00 9.73453488727471e-03
4.79641025641026e-01 1.16562609014362e+00 9.69737038323407e-03
4.84461538461538e-01 1.15532594959939e+00 9.65985981396849e-03
4.89282051282051e-01 1.14511682699989e+00 9.62201792577459e-03
4.94102564102564e-01 1.13499791805848e+00 9.58385906178054e-03
4.98923076923077e-01 1.12496842559568e+00 9.54539716995820e-03
5.03743589743590e-01 1.11502755949518e+00 9.50664582772794e-03
5.08564102564103e-01 1.10517453658460e+00 9.46761824469234e-03
5.13384615384615e-01 1.09540858063126e+00 9.42832726480911e-03
5.18205128205128e-01 1.08572892226167e+00 9.38878539003615e-03
5.23025641025641e-01 1.07613479890101e+00 9.34900478206845e-03
5.27846153846154e-01 1.06662545473018e+00 9.30899728407345e-03
5.32666666666667e-01 1.05720014057432e+00 9.26877442206217e-03
5.37487179487180e-01 1.04785811389613e+00 9.22834740580296e-03
5.42307692307692e-01 1.03859863871979e+00 9.18772714983702e-03
5.47128205128205e-01 1.02942098557298e+00 9.14692427778391e-03
5.51948717948718e-01 1.02032443142941e+00 9.10594912683224e-03
5.56769230769231e-01 1.01130825966735e+00 9.06481176666803e-03
5.61589743589744e-01 1.00237175996638e+00 9.02352199966081e-03
5.66410256410256e-01 9.93514228298584e-01 8.98208936067797e-03
5.71230769230769e-01 9.84734966857196e-01 8.94052313550921e-03
5.76051282051282e-01 9.76033284001702e-01 8.89883236049241e-03
5.80871794871795e-01 9.67408494217464e-01 8.85702583950787e-03
5.85692307692308e-01 9.58859918018942e-01 8.81511214346403e-03
5.90512820512821e-01 9.50386881939274e-01 8.77309960946603e-03
5.95333333333333e-01 9.41988718462725e-01 8.73099635743424e-03
6.00153846153846e-01 9.33664765972102e-01 8.68881029235525e-03
6.04974358974359e-01 9.25414368696659e-01 8.64654910675503e-03
6.09794871794872e-01 9.17236876673197e-01 8.60422029574251e-03
6.14615384615385e-01 9.09131645656207e-01 8.56183115588490e-03
6.19435897435897e-01 9.01098037106074e-01 8.51938878381800e-03
6.24256410256410e-01 8.93135418125662e-01 8.47690009103234e-03
6.29076923076923e-01 8.85243161410495e-01 8.43437180242422e-03
6.33897435897436e-01 8.77420645211066e-01 8.39181046995851e-03
6.38717948717949e-01 8.69667253248337e-01 8.34922247119311e-03
6.43538461538462e-01 8.61982374700985e-01 8.30661400756859e-03
6.48358974358974e-01 8.54365404145243e-01 8.26399111788730e-03
6.53179487179487e-01 8.46815741507205e-01 8.22135967936367e-03
6.58000000000000e-01 8.39332792015579e-01 8.17872540889756e-03
6.62820512820513e-01 8.31915966165468e-01 8.13609387531870e-03
6.67641025641026e-01 8.24564679639708e-01 8.09347049760933e-03
6.72461538461538e-01 8.17278353295308e-01 8.05086054292548e-03
6.77282051282051e-01 8.10056413106900e-01 8.00826913872065e-03
6.82102564102564e-01 8.02898290121541e-01 7.96570127336274e-03
6.86923076923077e-01 7.95803420413886e-01 7.92316179696938e-03
6.91743589743590e-01 7.88771245051447e-01 7.88065543243684e-03
6.96564102564103e-01 7.81801210021268e-01 7.83818677346834e-03
7.01384615384615e-01 7.74892766215790e-01 7.79576028242399e-03
7.06205128205128e-01 7.68045369379672e-01 7.75338030127950e-03
7.11025641025641e-01 7.61258480066937e-01 7.71105104950944e-03
7.15846153846154e-01 7.54531563607409e-01 7.66877663423039e-03
7.20666666666667e-01 7.47864090037546e-01 7.62656104813040e-03
7.25487179487180e-01 7.41255534085938e-01 7.58440816724214e-03
7.30307692307692e-01 7.34705375122764e-01 7.54232176104168e-03
7.35128205128205e-01 7.28213097118788e-01 7.50030549252095e-03
7.39948717948718e-01 7.21778188604710e-01 7.45836291846783e-03
7.44769230769231e-01 7.15400142639022e-01 7.41649749867174e-03
7.49589743589744e-01 7.09078456743415e-01 7.37471259378257e-03
7.54410256410256e-01 7.02812632888035e-01 7.33301146303326e-03
7.59230769230769e-01 6.96602177443891e-01 7.29139727342669e-03
7.64051282051282e-01 6.90446601143994e-01 7.24987309751096e-03
7.68871794871795e-01 6.84345419052347e-01 7.20844192189028e-03
7.73692307692308e-01 6.78298150502923e-01 7.16710664506570e-03
7.78512820512821e-01 6.72304319084788e-01 7.12587007515010e-03
7.83333333333333e-01 6.66363452596841e-01 7.08473493837725e-03
7.88153846153846e-01 6.60475083010620e-01 7.04370387885353e-03
7.92974358974359e-01 6.54638746433435e-01 7.00277945849630e-03
7.97794871794872e-01 6.48853983078721e-01 6.96196416480215e-03
8.02615384615385e-01 6.43120337208952e-01 6.92126040868944e-03
8.07435897435897e-01 6.37437357120754e-01 6.88067052222703e-03
8.12256410256410e-01 6.31804595102256e-01 6.84019676641690e-03
8.17076923076923e-01 6.26221607397828e-01 6.79984132898661e-03
8.21897435897436e-01 6.20687954179528e-01 6.75960633160062e-03
8.26717948717949e-01 6.15203199493093e-01 6.71949382772830e-03
8.31538461538462e-01 6.09766911243086e-01 6.67950580040435e-03
8.36358974358974e-01 6.04378661152314e-01 6.63964416946540e-03
8.41179487179487e-01 5.99038024728081e-01 6.59991079111417e-03
8.46000000000000e-01 5.93744581228757e-01 6.56030745765025e-03
8.50820512820513e-01 5.88497913636495e-01 6.52083590408432e-03
8.55641025641026e-01 5.83297608606642e-01 6.48149780604470e-03
8.60461538461538e-01 5.78143256453042e-01 6.44229477758902e-03
8.65282051282051e-01 5.73034451109752e-01 6.40322837784955e-03
8.70102564102564e-01 5.67970790099065e-01 6.36430011053369e-03
8.74923076923077e-01 5.62951874499798e-01 6.32551142358123e-03
8.79743589743590e-01 5.57977308921249e-01 6.28686371524139e-03
8.84564102564103e-01 5.53046701455778e-01 6.24835833203374e-03
8.89384615384615e-01 5.48159663664317e-01 6.20999656662075e-03
8.94205128205128e-01 5.43315810540261e-01 6.17177966392333e-03
8.99025641025641e-01 5.38514760479153e-01 6.13370881906326e-03
9.03846153846154e-01 5.33756135253617e-01 6.09578518303400e-03
9.08666666666667e-01 5.29039559968431e-01 6.05800986071368e-03
9.13487179487180e-01 5.24364663046235e-01 6.02038390880067e-03
9.18307692307692e-01 5.19731076193133e-01 5.98290834152456e-03
9.23128205128205e-01 5.15138434369690e-01 5.94558413007423e-03
9.27948717948718e-01 5.10586375762166e-01 5.90841220216698e-03
9.32769230769231e-01 5.06074541758620e-01 5.87139344727393e-03
9.37589743589744e-01 5.01602576906748e-01 5.83452871470275e-03
9.42410256410256e-01 4.97170128899884e-01 5.79781881160707e-03
9.47230769230769e-01 4.92776848544544e-01 5.76126450825667e-03
9.52051282051282e-01 4.88422389732919e-01 5.72486653611186e-03
9.56871794871795e-01 4.84106409419898e-01 5.68862559271174e-03
9.61692307692308e-01 4.79828567583081e-01 5.65254233981784e-03
9.66512820512821e-01 4.75588527209043e-01 5.61661740149080e-03
9.71333333333333e-01 4.71385954262402e-01 5.58085136902340e-03
9.76153846153846e-01 4.67220517659500e-01 5.54524480033807e-03
9.80974358974359e-01 4.63091889242330e-01 5.50979821951109e-03
9.85794871794872e-01 4.58999743756623e-01 5.47451212128889e-03
9.90615384615385e-01 4.54943758814297e-01 5.43938696930598e-03
9.95435897435897e-01 4.50923614880075e-01 5.40442319424093e-03
1.00025641025641e+00 4.46938995242271e-01 5.36962120196280e-03
1.00507692307692e+00 4.42989585976604e-01 5.33498135855661e-03
1.00989743589744e+00 4.39075075966543e-01 5.30050400546600e-03
1.01471794871795e+00 4.35195156821908e-01 5.26618947895623e-03
1.01953846153846e+00 4.31349522841837e-01 5.23203805752310e-03
1.02435897435897e+00 4.27537871099090e-01 5.19804999334050e-03
1.02917948717949e+00 4.23759901306837e-01 5.16422553655544e-03
1.03400000000000e+00 4.20015315831733e-01 5.13056491113282e-03
1.03882051282051e+00 4.16303819636626e-01 5.09706829423471e-03
1.04364102564103e+00 4.12625120359852e-01 5.06373583910908e-03
1.04846153846154e+00 4.08978928188732e-01 5.03056769824058e-03
1.05328205128205e+00 4.05364955871571e-01 4.99756400028153e-03
1.05810256410256e+00 4.01782918662907e-01 4.96472483034934e-03
1.06292307692308e+00 3.98232534398163e-01 4.93205025183660e-03
1.06774358974359e+00 3.94713523373485e-01 4.89954033867900e-03
1.07256410256410e+00 3.91225608325820e-01 4.86719511254959e-03
1.07738461538462e+00 3.87768514504403e-01 4.83501457494141e-03
1.08220512820513e+00 3.84341969554937e-01 4.80299872855107e-03
1.08702564102564e+00 3.80945703529826e-01 4.77114755590788e-03
1.09184615384615e+00 3.77579448837662e-01 4.73946100109966e-03
1.09666666666667e+00 3.74242940310568e-01 4.70793898992696e-03
1.10148717948718e+00 3.70935915094106e-01 4.67658145972699e-03
1.10630769230769e+00 3.67658112628488e-01 4.64538830122267e-03
1.11112820512821e+00 3.64409274713084e-01 4.61435938817960e-03
1.11594871794872e+00 3.61189145400281e-01 4.58349459716999e-03
1.12076923076923e+00 3.57997471004179e-01 4.55279378776672e-03
1.12558974358974e+00 3.54834000053950e-01 4.52225678558906e-03
1.13041025641026e+00 3.51698483354644e-01 4.49188340093850e-03
1.13523076923077e+00 3.48590673886228e-01 4.46167345637818e-03
1.14005128205128e+00 3.45510326785865e-01 4.43162673286924e-03
1.14487179487180e+00 3.42457199406182e-01 4.40174299719984e-03
1.14969230769231e+00 3.39431051217907e-01 4.37202202026193e-03
1.15451282051282e+00 3.36431643817228e-01 4.34246355869049e-03
1.15933333333333e+00 3.33458740882695e-01 4.31306733913036e-03
1.16415384615385e+00 3.30512108230165e-01 4.28383307547108e-03
1.16897435897436e+00 3.27591513720147e-01 4.25476049437045e-03
1.17379487179487e+00 3.24696727241079e-01 4.22584928534259e-03
1.17861538461538e+00 3.21827520762001e-01 4.19709912613279e-03
1.18343589743590e+00 3.18983668243179e-01 4.16850969963302e-03
1.18825641025641e+00 3.16164945642291e-01 4.14008067685271e-03
1.19307692307692e+00 3.13371130874582e-01 4.11181170231507e-03
1.19789743589744e+00 3.10602003862545e-01 4.08370241000491e-03
1.20271794871795e+00 3.07857346450824e-01 4.05575244700053e-03
1.20753846153846e+00 3.05136942390432e-01 4.02796142720528e-03
1.21235897435897e+00 3.02440577386410e-01 4.00032895483347e-03
1.21717948717949e+00 2.99768039015704e-01 3.97285464007383e-03
1.22200000000000e+00 2.97119116732345e-01 3.94553808329012e-03
1.22682051282051e+00 2.94493601830580e-01 3.91837886146188e-03
1.23164102564103e+00 2.91891287489824e-01 3.89137654294786e-03
1.23646153846154e+00 2.89311968696449e-01 3.86453070244326e-03
1.24128205128205e+00 2.86755442248458e-01 3.83784090586896e-03
1.24610256410256e+00 2.84221506720193e-01 3.81130669739919e-03
1.25092307692308e+00 2.81709962504753e-01 3.78492761355805e-03
1.25574358974359e+00 2.79220611739497e-01 3.75870320415845e-03
1.26056410256410e+00 2.76753258291655e-01 3.73263299124689e-03
1.26538461538462e+00 2.74307707799034e-01 3.70671648990826e-03
1.27020512820513e+00 2.71883767598066e-01 3.68095322212133e-03
1.27502564102564e+00 2.69481246727685e-01 3.65534270273326e-03
1.27984615384615e+00 2.67099955896624e-01 3.62988442740837e-03
1.28466666666667e+00 2.64739707521857e-01 3.60457788569119e-03
1.28948717948718e+00 2.62400315660024e-01 3.57942258041031e-03
1.29430769230769e+00 2.60081595993886e-01 3.55441798958529e-03
1.29912820512821e+00 2.57783365869197e-01 3.52956358570864e-03
1.30394871794872e+00 2.55505444228487e-01 3.50485884858621e-03
1.30876923076923e+00 2.53247651614215e-01 3.48030325231499e-03
1.31358974358974e+00 2.51009810138483e-01 3.45589625408476e-03
1.31841025641026e+00 2.48791743517869e-01 3.43163730628829e-03
1.32323076923077e+00 2.46593277010274e-01 3.40752587450922e-03
1.32805128205128e+00 2.44414237402170e-01 3.38356140216634e-03
1.33287179487179e+00 2.42254453042022e-01 3.35974332839086e-03
1.33769230769231e+00 2.40113753779299e-01 3.33607109993034e-03
1.34251282051282e+00 2.37991970967015e-01 3.31254415905509e-03
1.34733333333333e+00 2.35888937433652e-01 3.28916193315030e-03
1.35215384615385e+00 2.33804487514744e-01 3.26592384594397e-03
1.35697435897436e+00 2.31738456994694e-01 3.24282933419192e-03
1.36179487179487e+00 2.29690683094749e-01 3.21987781485234e-03
1.36661538461538e+00 2.27661004503324e-01 3.19706870166371e-03
1.37143589743590e+00 2.25649261319788e-01 3.17440141618725e-03
1.37625641025641e+00 2.23655295056484e-01 3.15187537657103e-03
1.38107692307692e+00 2.21678948612673e-01 3.12948998787537e-03
1.38589743589744e+00 2.19720066303202e-01 3.10724465248642e-03
1.39071794871795e+00 2.17778493804855e-01 3.08513878559722e-03
1.39553846153846e+00 2.15854078145023e-01 3.06317178472336e-03
1.40035897435897e+00 2.13946667729228e-01 3.04134304508072e-03
1.40517948717949e+00 2.12056112289288e-01 3.01965196983194e-03
1.41000000000000e+00 2.10182262884868e-01 2.99809795964564e-03
1.41482051282051e+00 2.08324971879312e-01 2.97668040370066e-03
1.41964102564103e+00 2.06484092965658e-01 2.95539868934712e-03
1.42446153846154e+00 2.04659481117151e-01 2.93425221190625e-03
1.42928205128205e+00 2.02850992588588e-01 2.91324036467211e-03
1.43410256410256e+00 2.01058484893130e-01 2.89236253029636e-03
1.43892307692308e+00 1.99281816826905e-01 2.87161809002646e-03
1.44374358974359e+00 1.97520848421772e-01 2.85100643746787e-03
1.44856410256410e+00 1.95775440935007e-01 2.83052695145683e-03
1.45338461538462e+00 1.94045456872925e-01 2.81017900972682e-03
1.45820512820513e+00 1.92330759945214e-01 2.78996199800478e-03
1.46302564102564e+00 1.90631215065907e-01 2.76987530071703e-03
1.46784615384615e+00 1.88946688331853e-01 2.74991829297458e-03
1.47266666666667e+00 1.87277047045068e-01 2.73009034915129e-03
1.47748717948718e+00 1.85622159669116e-01 2.71039085566046e-03
1.48230769230769e+00 1.83981895819404e-01 2.69081918574403e-03
1.48712820512821e+00 1.82356126284643e-01 2.67137471216313e-03
1.49194871794872e+00 1.80744722984676e-01 2.65205681564343e-03
1.49676923076923e+00 1.79147558971137e-01 2.63286487623306e-03
1.50158974358974e+00 1.77564508407457e-01 2.61379826584578e-03
1.50641025641026e+00 1.75995446589168e-01 2.59485635622763e-03
1.51123076923077e+00 1.74440249903613e-01 2.57603853082243e-03
1.51605128205128e+00 1.72898795820809e-01 2.55734416133673e-03
1.52087179487179e+00 1.71370962912954e-01 2.53877261952638e-03
