Energy (eV)          EEDF (eV^-(3/2))     First Anisotropy
3.67948717948718e-02 4.69612364714347e-02 2.81910265815665e-05
1.10384615384615e-01 4.65468017258860e-02 4.65023203456503e-05
1.83974358974359e-01 4.61360243836128e-02 6.12584560516644e-05
2.57564102564103e-01 4.57288721664904e-02 7.23900758106809e-05
3.31153846153846e-01 4.53253130845638e-02 8.16090561954616e-05
4.04743589743590e-01 4.49253154268145e-02 8.95645062258825e-05
4.78333333333333e-01 4.45288477636070e-02 9.65932621229989e-05
5.51923076923077e-01 4.41358789435662e-02 1.02899273708736e-04
6.25512820512821e-01 4.37463780884133e-02 1.08618160943216e-04
6.99102564102564e-01 4.33603145938841e-02 1.13846027716910e-04
7.72692307692308e-01 4.29776581245462e-02 1.18654199574549e-04
8.46282051282051e-01 4.25983786137604e-02 1.23097513055160e-04
9.19871794871795e-01 4.22224462592845e-02 1.27219318661028e-04
9.93461538461538e-01 4.18498315223477e-02 1.31054669495776e-04
1.06705128205128e+00 4.14805051252364e-02 1.34632444498846e-04
1.14064102564103e+00 4.11144380491191e-02 1.37976813938499e-04
1.21423076923077e+00 4.07516015272127e-02 1.41108280080966e-04
1.28782051282051e+00 4.03919670528823e-02 1.44044437238623e-04
1.36141025641026e+00 4.00355063677329e-02 1.46800538815719e-04
1.43500000000000e+00 3.96821914603955e-02 1.49389925650970e-04
1.50858974358974e+00 3.93319945717878e-02 1.51824359259684e-04
1.58217948717949e+00 3.89848881829196e-02 1.54114281946893e-04
1.65576923076923e+00 3.86408450223290e-02 1.56269023305723e-04
1.72935897435897e+00 3.82998380567842e-02 1.58296967402824e-04
1.80294871794872e+00 3.79618404897741e-02 1.60205686335005e-04
1.87653846153846e+00 3.76268257651963e-02 1.62002051712238e-04
1.95012820512820e+00 3.72947675592493e-02 1.63692326946630e-04
2.02371794871795e+00 3.69656397788564e-02 1.65282242400461e-04
2.09730769230769e+00 3.66394165645750e-02 1.66777060325410e-04
2.17089743589744e+00 3.63160722834199e-02 1.68181629843565e-04
2.24448717948718e+00 3.59955815272284e-02 1.69500432078862e-04
2.31807692307692e+00 3.56779191149878e-02 1.70737620462166e-04
2.39166666666667e+00 3.53630600863969e-02 1.71897055474993e-04
2.46525641025641e+00 3.50509797001944e-02 1.72982333162622e-04
2.53884615384615e+00 3.47416534360323e-02 1.73996811626952e-04
2.61243589743590e+00 3.44350569874565e-02 1.74943633395048e-04
2.68602564102564e+00 3.41311662649471e-02 1.75825745001216e-04
2.75961538461538e+00 3.38299573903221e-02 1.76645915088445e-04
2.83320512820513e+00 3.35314066950848e-02 1.77406748830069e-04
2.90679487179487e+00 3.32354907217777e-02 1.78110702118695e-04
2.98038461538462e+00 3.29421862188375e-02 1.78760094213299e-04
3.05397435897436e+00 3.26514701389645e-02 1.79357117708421e-04
3.12756410256410e+00 3.23633196401920e-02 1.79903848766999e-04
3.20115384615385e+00 3.20777120811358e-02 1.80402256324709e-04
3.27474358974359e+00 3.17946250193748e-02 1.80854209138154e-04
3.34833333333333e+00 3.15140362122953e-02 1.81261483501731e-04
3.42192307692308e+00 3.12359236118626e-02 1.81625769600913e-04
3.49551282051282e+00 3.09602653662883e-02 1.81948677243791e-04
3.56910256410256e+00 3.06870398157718e-02 1.82231741752591e-04
3.64269230769231e+00 3.04162254909215e-02 1.82476428058392e-04
3.71628205128205e+00 3.01478011133348e-02 1.82684135563182e-04
3.78987179487179e+00 2.98817455916118e-02 1.82856202597761e-04
3.86346153846154e+00 2.96180380198115e-02 1.82993909431939e-04
3.93705128205128e+00 2.93566576778768e-02 1.83098482098885e-04
4.01064102564103e+00 2.90975840278938e-02 1.83171095919370e-04
4.08423076923077e+00 2.88407967125782e-02 1.83212877733645e-04
4.15782051282051e+00 2.85862755555722e-02 1.83224908962531e-04
4.23141025641026e+00 2.83340005579244e-02 1.83208228442597e-04
4.30500000000000e+00 2.80839518966031e-02 1.83163834089556e-04
4.37858974358974e+00 2.78361099246872e-02 1.83092685488592e-04
4.45217948717949e+00 2.75904551674919e-02 1.82995705804154e-04
4.52576923076923e+00 2.73469683233225e-02 1.82873783530546e-04
4.59935897435897e+00 2.71056302602486e-02 1.82727774646366e-04
4.67294871794872e+00 2.68664220146721e-02 1.82558503627871e-04
4.74653846153846e+00 2.66293247913889e-02 1.82366765273196e-04
4.82012820512820e+00 2.63943199605322e-02 1.82153326409763e-04
4.89371794871795e+00 2.61613890561747e-02 1.81918926645404e-04
4.96730769230769e+00 2.59305137763146e-02 1.81664279906196e-04
5.04089743589744e+00 2.57016759799743e-02 1.81390075879936e-04
5.11448717948718e+00 2.54748576858340e-02 1.81096980566952e-04
5.18807692307692e+00 2.52500410721539e-02 1.80785637590338e-04
5.26166666666667e+00 2.50272084740165e-02 1.80456669430084e-04
5.33525641025641e+00 2.48063423819897e-02 1.80110677819479e-04
5.40884615384615e+00 2.45874254419952e-02 1.79748244953213e-04
5.48243589743590e+00 2.43704404522874e-02 1.79369934229506e-04
5.55602564102564e+00 2.41553703637299e-02 1.78976290931033e-04
5.62961538461538e+00 2.39421982772370e-02 1.78567843285132e-04
5.70320512820513e+00 2.37309074424909e-02 1.78145102670254e-04
5.77679487179487e+00 2.35214812577453e-02 1.77708564515255e-04
5.85038461538462e+00 2.33139032673831e-02 1.77258709151151e-04
5.92397435897436e+00 2.31081571606659e-02 1.76796001938526e-04
5.99756410256410e+00 2.29042267714984e-02 1.76320894059740e-04
6.07115384615385e+00 2.27020960760954e-02 1.75833823270702e-04
6.14474358974359e+00 2.25017491917604e-02 1.75335213966155e-04
6.21833333333333e+00 2.23031703766182e-02 1.74825477950493e-04
6.29192307692308e+00 2.21063440270710e-02 1.74305014832137e-04
6.36551282051282e+00 2.19112546778575e-02 1.73774212382444e-04
6.43910256410256e+00 2.17178869998761e-02 1.73233447231630e-04
6.51269230769231e+00 2.15262257990128e-02 1.72683084854505e-04
6.58628205128205e+00 2.13362560158371e-02 1.72123480156011e-04
6.65987179487179e+00 2.11479627235163e-02 1.71554978029777e-04
6.73346153846154e+00 2.09613311266729e-02 1.70977913311223e-04
6.80705128205128e+00 2.07763465610585e-02 1.70392611305883e-04
6.88064102564103e+00 2.05929944915529e-02 1.69799388293573e-04
6.95423076923077e+00 2.04112605110507e-02 1.69198551455898e-04
7.02782051282051e+00 2.02311303401157e-02 1.68590399355090e-04
7.10141025641026e+00 2.00525898250611e-02 1.67975222391752e-04
7.17500000000000e+00 1.98756249368636e-02 1.67353302712313e-04
7.24858974358974e+00 1.97002217708014e-02 1.66724914700754e-04
7.32217948717949e+00 1.95263665443752e-02 1.66090325171951e-04
7.39576923076923e+00 1.93540455971964e-02 1.65449793543852e-04
7.46935897435897e+00 1.91832453891868e-02 1.64803572292389e-04
7.54294871794872e+00 1.90139524995369e-02 1.64151906832376e-04
7.61653846153846e+00 1.88461536263292e-02 1.63495035895380e-04
7.69012820512820e+00 1.86798355848063e-02 1.62833191892000e-04
7.76371794871795e+00 1.85149853063567e-02 1.62166600782963e-04
7.83730769230769e+00 1.83515898381271e-02 1.61495482427107e-04
7.91089743589744e+00 1.81896363413569e-02 1.60820050915131e-04
7.98448717948718e+00 1.80291120903895e-02 1.60140514433422e-04
8.05807692307692e+00 1.78700044722760e-02 1.59457075585311e-04
8.13166666666667e+00 1.77123009851732e-02 1.58769931699803e-04
8.20525641025641e+00 1.75559892373786e-02 1.58079274690163e-04
8.27884615384615e+00 1.74010569469289e-02 1.57385291397608e-04
8.35243589743590e+00 1.72474919398732e-02 1.56688163692342e-04
8.42602564102564e+00 1.70952821500671e-02 1.55988068560258e-04
8.49961538461538e+00 1.69444156176626e-02 1.55285178426015e-04
8.57320512820513e+00 1.67948804881847e-02 1.54579661004460e-04
8.64679487179487e+00 1.66466650121258e-02 1.53871679565443e-04
8.72038461538462e+00 1.64997575434901e-02 1.53161393188463e-04
8.79397435897436e+00 1.63541465388943e-02 1.52448956612752e-04
8.86756410256410e+00 1.62098205571586e-02 1.51734520484418e-04
8.94115384615385e+00 1.60667682579035e-02 1.51018231594244e-04
9.01474358974359e+00 1.59249784006734e-02 1.50300232727376e-04
9.08833333333333e+00 1.57844398445254e-02 1.49580662934374e-04
9.16192307692308e+00 1.56451415465249e-02 1.48859657593249e-04
9.23551282051282e+00 1.55070725614981e-02 1.48137348460260e-04
9.30910256410256e+00 1.53702220407079e-02 1.47413863926910e-04
9.38269230769231e+00 1.52345792310139e-02 1.46689328869042e-04
9.45628205128205e+00 1.51001334744636e-02 1.45963864855129e-04
9.52987179487180e+00 1.49668742070143e-02 1.45237590347208e-04
9.60346153846154e+00 1.48347909577147e-02 1.44510620551367e-04
9.67705128205128e+00 1.47038733482967e-02 1.43783067613695e-04
9.75064102564103e+00 1.45741110919407e-02 1.43055040809195e-04
9.82423076923077e+00 1.44454939924793e-02 1.42326646394152e-04
9.89782051282051e+00 1.43180119439891e-02 1.41597987790607e-04
9.97141025641026e+00 1.41916549295992e-02 1.40869165661665e-04
1.00450000000000e+01 1.40664130210853e-02 1.40140278280412e-04
1.01185897435897e+01 1.39422763766091e-02 1.39411420745039e-04
1.01921794871795e+01 1.38192352433979e-02 1.38682685921757e-04
1.02657692307692e+01 1.36972799523193e-02 1.37954164132335e-04
1.03393589743590e+01 1.35764009219639e-02 1.37225942909173e-04
1.04129487179487e+01 1.34565886542675e-02 1.36498108406025e-04
1.04865384615385e+01 1.33378337338692e-02 1.35770743464943e-04
1.05601282051282e+01 1.32201268307645e-02 1.35043928977116e-04
1.06337179487179e+01 1.31034586950540e-02 1.34317743649259e-04
1.07073076923077e+01 1.29878201606693e-02 1.33592264006014e-04
1.07808974358974e+01 1.28732021402641e-02 1.32867564492022e-04
1.08544871794872e+01 1.27595956288261e-02 1.32143717472678e-04
1.09280769230769e+01 1.26469916987049e-02 1.31420793332503e-04
1.10016666666667e+01 1.25353815031141e-02 1.30698860183918e-04
1.10752564102564e+01 1.24247562722899e-02 1.29977985124825e-04
1.11488461538462e+01 1.23151073128897e-02 1.29258232499647e-04
1.12224358974359e+01 1.22064260102601e-02 1.28539665112565e-04
1.12960256410256e+01 1.20987038238300e-02 1.27822344011655e-04
1.13696153846154e+01 1.19919322903140e-02 1.27106328485412e-04
1.14432051282051e+01 1.18861030192275e-02 1.26391676148315e-04
1.15167948717949e+01 1.17812076959938e-02 1.25678442670122e-04
1.15903846153846e+01 1.16772380784707e-02 1.24966682925372e-04
1.16639743589744e+01 1.15741859963809e-02 1.24256449393703e-04
1.17375641025641e+01 1.14720433533178e-02 1.23547793269839e-04
1.18111538461538e+01 1.13708021225827e-02 1.22840764261680e-04
1.18847435897436e+01 1.12704543500318e-02 1.22135410583823e-04
1.19583333333333e+01 1.11709921500216e-02 1.21431779032580e-04
1.20319230769231e+01 1.10724077081715e-02 1.20729914734143e-04
1.21055128205128e+01 1.09746932782180e-02 1.20029862197572e-04
1.21791025641026e+01 1.08778411814732e-02 1.19331663842143e-04
1.22526923076923e+01 1.07818438086037e-02 1.18635361013838e-04
1.23262820512821e+01 1.06866936158608e-02 1.17940993797272e-04
1.23998717948718e+01 1.05923831276163e-02 1.17248601007039e-04
1.24734615384615e+01 1.04989049326891e-02 1.16558220253841e-04
1.25470512820513e+01 1.04062516868069e-02 1.15869887935361e-04
1.26206410256410e+01 1.03144161090263e-02 1.15183639300280e-04
1.26942307692308e+01 1.02233909841227e-02 1.14499508218446e-04
1.27678205128205e+01 1.01331691598061e-02 1.13817528125208e-04
1.28414102564103e+01 1.00437435462174e-02 1.13137730693186e-04
1.29150000000000e+01 9.95510711745920e-03 1.12460146744340e-04
1.29885897435897e+01 9.86725290826298e-03 1.11784806077456e-04
1.30621794871795e+01 9.78017401618550e-03 1.11111737457822e-04
1.31357692307692e+01 9.69386359835950e-03 1.10440968673948e-04
1.32093589743590e+01 9.60831487362666e-03 1.09772526324272e-04
1.32829487179487e+01 9.52352112000537e-03 1.09106436684466e-04
1.33565384615385e+01 9.43947567421402e-03 1.08442724482830e-04
1.34301282051282e+01 9.35617193303273e-03 1.07781413738141e-04
1.35037179487179e+01 9.27360335027401e-03 1.07122527599146e-04
1.35773076923077e+01 9.19176343874555e-03 1.06466088333425e-04
1.36508974358974e+01 9.11064576729604e-03 1.05812117377875e-04
1.37244871794872e+01 9.03024396272210e-03 1.05160635327407e-04
1.37980769230769e+01 8.95055170688699e-03 1.04511661983948e-04
1.38716666666667e+01 8.87156273857314e-03 1.03865216161968e-04
1.39452564102564e+01 8.79327085123196e-03 1.03221316468872e-04
1.40188461538462e+01 8.71566989254016e-03 1.02579980198653e-04
1.40924358974359e+01 8.63875376557669e-03 1.01941224085733e-04
1.41660256410256e+01 8.56251642613271e-03 1.01305064158271e-04
1.42396153846154e+01 8.48695188441884e-03 1.00671515726512e-04
1.43132051282051e+01 8.41205420244071e-03 1.00040593426548e-04
1.43867948717949e+01 8.33781749565824e-03 9.94123110400503e-05
1.44603846153846e+01 8.26423593093153e-03 9.87866822124376e-05
1.45339743589744e+01 8.19130372610238e-03 9.81637194314723e-05
1.46075641025641e+01 8.11901515104365e-03 9.75434347214506e-05
1.46811538461538e+01 8.04736452520638e-03 9.69258395067002e-05
1.47547435897436e+01 7.97634621915032e-03 9.63109445998336e-05
1.48283333333333e+01 7.90595465215011e-03 9.56987602409810e-05
1.49019230769231e+01 7.83618429368324e-03 9.50892959304585e-05
1.49755128205128e+01 7.76702966155319e-03 9.44825610905510e-05
1.50491025641026e+01 7.69848532149383e-03 9.38785641219770e-05
1.51226923076923e+01 7.63054588810663e-03 9.32773130433767e-05
1.51962820512821e+01 7.56320602262111e-03 9.26788153645598e-05
1.52698717948718e+01 7.49646043426854e-03 9.20830780747914e-05
1.53434615384615e+01 7.43030387809573e-03 9.14901076780452e-05
1.54170512820513e+01 7.36473115630097e-03 9.08999101813315e-05
1.54906410256410e+01 7.29973711609972e-03 9.03124911290054e-05
1.55642307692308e+01 7.23531665102366e-03 8.97278554503634e-05
1.56378205128205e+01 7.17146469924383e-03 8.91460080569857e-05
1.57114102564103e+01 7.10817624320361e-03 8.85669529885014e-05
1.57850000000000e+01 7.04544631043201e-03 8.79906939900021e-05
1.58585897435897e+01 6.98326997154488e-03 8.74172343962381e-05
1.59321794871795e+01 6.92164234144547e-03 8.68465771201607e-05
1.60057692307692e+01 6.86055857737263e-03 8.62787246838319e-05
1.60793589743590e+01 6.80001388006859e-03 8.57136790770313e-05
1.61529487179487e+01 6.74000349224263e-03 8.51514423084803e-05
1.62265384615385e+01 6.68052269822479e-03 8.45920156158215e-05
1.63001282051282e+01 6.62156682469363e-03 8.40353999985337e-05
1.63737179487179e+01 6.56313123884656e-03 8.34815961103136e-05
1.64473076923077e+01 6.50521134948001e-03 8.29306042479033e-05
1.65208974358974e+01 6.44780260520247e-03 8.23824243790109e-05
1.65944871794872e+01 6.39090049548533e-03 8.18370561312202e-05
1.66680769230769e+01 6.33450054891751e-03 8.12944988191982e-05
1.67416666666667e+01 6.27859833422769e-03 8.07547513158157e-05
1.68152564102564e+01 6.22318945890793e-03 8.02178125507081e-05
1.68888461538462e+01 6.16826956889239e-03 7.96836807941316e-05
1.69624358974359e+01 6.11383434919040e-03 7.91523541388765e-05
1.70360256410256e+01 6.05987952224887e-03 7.86238304020588e-05
1.71096153846154e+01 6.00640084889871e-03 7.80981071144104e-05
1.71832051282051e+01 5.95339412675503e-03 7.75751815448727e-05
1.72567948717949e+01 5.90085519113807e-03 7.70550505810600e-05
1.73303846153846e+01 5.84877991380915e-03 7.65377111898727e-05
1.74039743589744e+01 5.79716420266812e-03 7.60231597544930e-05
1.74775641025641e+01 5.74600400232047e-03 7.55113925198786e-05
1.75511538461538e+01 5.69529529257520e-03 7.50024055014029e-05
1.76247435897436e+01 5.64503408929801e-03 7.44961944745439e-05
1.76983333333333e+01 5.59521644294341e-03 7.39927549971990e-05
1.77719230769231e+01 5.54583843938514e-03 7.34920822986271e-05
1.78455128205128e+01 5.49689619875456e-03 7.29941717054215e-05
1.79191025641026e+01 5.44838587515524e-03 7.24990180274698e-05
1.79926923076923e+01 5.40030365717164e-03 7.20066159697810e-05
1.80662820512821e+01 5.35264576649001e-03 7.15169600476386e-05
1.81398717948718e+01 5.30540845866799e-03 7.10300445767017e-05
1.82134615384615e+01 5.25858802178681e-03 7.05458636932457e-05
1.82870512820513e+01 5.21218077720048e-03 7.00644113443706e-05
1.83606410256410e+01 5.16618307821844e-03 6.95856813077593e-05
1.84342307692308e+01 5.12059131083489e-03 6.91096670904721e-05
1.85078205128205e+01 5.07540189268426e-03 6.86363623149566e-05
1.85814102564103e+01 5.03061127277690e-03 6.81657601615065e-05
1.86550000000000e+01 4.98621593194261e-03 6.76978537415689e-05
1.87285897435897e+01 4.94221238159193e-03 6.72326360202380e-05
1.88021794871795e+01 4.89859716439268e-03 6.67700998069060e-05
1.88757692307692e+01 4.85536685305907e-03 6.63102377732165e-05
1.89493589743590e+01 4.81251805101034e-03 6.58530423590546e-05
1.90229487179487e+01 4.77004739140913e-03 6.53985061298615e-05
1.90965384615385e+01 4.72795153691244e-03 6.49466212597938e-05
1.91701282051282e+01 4.68622718006978e-03 6.44973798772805e-05
1.92437179487179e+01 4.64487104218398e-03 6.40507739929652e-05
1.93173076923077e+01 4.60387987392238e-03 6.36067954907841e-05
1.93908974358974e+01 4.56325045420301e-03 6.31654361443109e-05
1.94644871794872e+01 4.52297959078980e-03 6.27266876079381e-05
1.95380769230769e+01 4.48306411920356e-03 6.22905414328473e-05
1.96116666666667e+01 4.44350090330148e-03 6.18569889812495e-05
1.96852564102564e+01 4.40428683441075e-03 6.14260217506194e-05
1.97588461538462e+01 4.36541883109791e-03 6.09976309039782e-05
1.98324358974359e+01 4.32689383951649e-03 6.05718075834358e-05
1.99060256410256e+01 4.28870883238172e-03 6.01485428443917e-05
1.99796153846154e+01 4.25086080950878e-03 5.97278276471591e-05
2.00532051282051e+01 4.21334679681007e-03 5.93096528714985e-05
2.01267948717949e+01 4.17616384681946e-03 5.88940092369727e-05
2.02003846153846e+01 4.13930903789316e-03 5.84808876032932e-05
2.02739743589744e+01 4.10277947399274e-03 5.80702785345493e-05
2.03475641025641e+01 4.06657228499735e-03 5.76621725897862e-05
2.04211538461538e+01 4.03068462575932e-03 5.72565602617570e-05
2.04947435897436e+01 3.99511367659110e-03 5.68534319689724e-05
2.05683333333333e+01 3.95985664234154e-03 5.64527780689592e-05
2.06419230769231e+01 3.92491075287016e-03 5.60545887841921e-05
2.07155128205128e+01 3.89027326230998e-03 5.56588544805224e-05
2.07891025641026e+01 3.85594144886297e-03 5.52655652627737e-05
2.08626923076923e+01 3.82191261508082e-03 5.48747112440418e-05
2.09362820512820e+01 3.78818408699445e-03 5.44862824887475e-05
2.10098717948718e+01 3.75475321455471e-03 5.41002690050744e-05
2.10834615384615e+01 3.72161737078091e-03 5.37166607570844e-05
2.11570512820513e+01 3.68877395219021e-03 5.33354476572737e-05
2.12306410256410e+01 3.65622037796460e-03 5.29566195784007e-05
2.13042307692308e+01 3.62395409036924e-03 5.25801662859028e-05
2.13778205128205e+01 3.59197255408648e-03 5.22060776908908e-05
2.14514102564103e+01 3.56027325602660e-03 5.18343434821490e-05
2.15250000000000e+01 3.52885370557327e-03 5.14649533708873e-05
2.15985897435897e+01 3.49771143379810e-03 5.10978970386935e-05
2.16721794871795e+01 3.46684399384955e-03 5.07331641304795e-05
2.17457692307692e+01 3.43624896018449e-03 5.03707442652888e-05
2.18193589743590e+01 3.40592392894717e-03 5.00106269734452e-05
2.18929487179487e+01 3.37586651735386e-03 4.96528019312278e-05
2.19665384615385e+01 3.34607436351474e-03 4.92972586191388e-05
2.20401282051282e+01 3.31654512665462e-03 4.89439865489441e-05
2.21137179487179e+01 3.28727648638803e-03 4.85929752152237e-05
2.21873076923077e+01 3.25826614307161e-03 4.82442140886943e-05
2.22608974358974e+01 3.22951181709484e-03 4.78976926261005e-05
2.23344871794872e+01 3.20101124922347e-03 4.75534002636411e-05
2.24080769230769e+01 3.17276219990542e-03 4.72113264266292e-05
2.24816666666667e+01 3.14476244960542e-03 4.68714604720870e-05
2.25552564102564e+01 3.11700979824835e-03 4.65337919022070e-05
2.26288461538462e+01 3.08950206505443e-03 4.61983100531581e-05
2.27024358974359e+01 3.06223708873225e-03 4.58650043015682e-05
2.27760256410256e+01 3.03521272682375e-03 4.55338640202475e-05
2.28496153846154e+01 3.00842685601553e-03 4.52048785719819e-05
2.29232051282051e+01 2.98187737149783e-03 4.48780373183679e-05
2.29967948717949e+01 2.95556218726793e-03 4.45533295664267e-05
2.30703846153846e+01 2.92947923561519e-03 4.42307447667138e-05
2.31439743589744e+01 2.90362646696605e-03 4.39102722241577e-05
2.32175641025641e+01 2.87800185005759e-03 4.35919012897666e-05
