Energy (eV)          EEDF (eV^-(3/2))     First Anisotropy
8.54545454545455e-03 2.77447230831243e+00 3.03319240139291e-03
2.56363636363636e-02 2.68851572276934e+00 4.94770871971183e-03
4.27272727272727e-02 2.60522217861804e+00 6.37202411460056e-03
5.98181818181818e-02 2.52450917155332e+00 7.36160073347438e-03
7.69090909090909e-02 2.44629675333437e+00 8.11359726628089e-03
9.40000000000000e-02 2.37050745262200e+00 8.70548339483416e-03
1.11090909090909e-01 2.29706619792863e+00 9.17879462650299e-03
1.28181818181818e-01 2.22590024431002e+00 9.55945190214949e-03
1.45272727272727e-01 2.15693910008615e+00 9.86517950151834e-03
1.62363636363636e-01 2.09011445751017e+00 1.01088625637453e-02
1.79454545454545e-01 2.02536012510145e+00 1.03002884704373e-02
1.96545454545455e-01 1.96261196207804e+00 1.04471400420834e-02
2.13636363636364e-01 1.90180781481864e+00 1.05556034485191e-02
2.30727272727273e-01 1.84288745530438e+00 1.06307612389898e-02
2.47818181818182e-01 1.78579252145596e+00 1.06768578366421e-02
2.64909090909091e-01 1.73046645932430e+00 1.06974854523039e-02
2.82000000000000e-01 1.67685446707226e+00 1.06957182590278e-02
2.99090909090909e-01 1.62490344052451e+00 1.06742116996373e-02
3.16181818181818e-01 1.57456192108921e+00 1.06352776834548e-02
3.33272727272727e-01 1.52578004424100e+00 1.05809426047573e-02
3.50363636363636e-01 1.47850949031976e+00 1.05129928229341e-02
3.67454545454545e-01 1.43270343666871e+00 1.04330109120166e-02
3.84545454545455e-01 1.38831651125524e+00 1.03424049061925e-02
4.01636363636364e-01 1.34530474772815e+00 1.02424321824868e-02
4.18727272727273e-01 1.30362554186921e+00 1.01342191737027e-02
4.35818181818182e-01 1.26323760939174e+00 1.00187777975634e-02
4.52909090909091e-01 1.22410094504750e+00 9.89701926939219e-03
4.70000000000000e-01 1.18617678300047e+00 9.76976581247874e-03
4.87090909090909e-01 1.14942755835644e+00 9.63776063770990e-03
5.04181818181818e-01 1.11381687017688e+00 9.50167654055073e-03
5.21272727272727e-01 1.07930944519223e+00 9.36212333597766e-03
5.38363636363636e-01 1.04587110294256e+00 9.21965430005144e-03
5.55454545454545e-01 1.01346872192101e+00 9.07477181790355e-03
5.72545454545455e-01 9.82070206766062e-01 8.92793233924184e-03
5.89636363636364e-01 9.51644456470091e-01 8.77955074932274e-03
6.06727272727273e-01 9.22161333573485e-01 8.63000424011319e-03
6.23818181818182e-01 8.93591634312470e-01 8.47963575172854e-03
6.40909090909091e-01 8.65907059692064e-01 8.32875704246797e-03
6.58000000000000e-01 8.39080187455209e-01 8.17765143906889e-03
6.75090909090909e-01 8.13084444883824e-01 8.02657629515493e-03
6.92181818181818e-01 7.87894082590722e-01 7.87576521699059e-03
7.09272727272727e-01 7.63484148897824e-01 7.72543007309495e-03
7.26363636363636e-01 7.39830465160952e-01 7.57576279828664e-03
7.43454545454545e-01 7.16909601820283e-01 7.42693704049507e-03
7.60545454545455e-01 6.94698855192782e-01 7.27910965434851e-03
7.77636363636364e-01 6.73176224983558e-01 7.13242206090377e-03
7.94727272727273e-01 6.52320392494199e-01 6.98700148778686e-03
8.11818181818182e-01 6.32110699505971e-01 6.84296210217224e-03
8.28909090909091e-01 6.12527127817342e-01 6.70040604745114e-03
8.46000000000000e-01 5.93550279415453e-01 6.55942439482050e-03
8.63090909090909e-01 5.75161357241749e-01 6.42009800994285e-03
8.80181818181818e-01 5.57342146635193e-01 6.28249835720466e-03
8.97272727272727e-01 5.40074997226223e-01 6.14668823997761e-03
9.14363636363636e-01 5.23342805475586e-01 6.01272247345279e-03
9.31454545454545e-01 5.07128997732855e-01 5.88064851179776e-03
9.48545454545455e-01 4.91417513819815e-01 5.75050702505610e-03
9.65636363636364e-01 4.76192791122427e-01 5.62233243186465e-03
9.82727272727273e-01 4.61439749175742e-01 5.49615339178026e-03
9.99818181818182e-01 4.47143774726289e-01 5.37199326519006e-03
1.01690909090909e+00 4.33290707205213e-01 5.24987052173995e-03
1.03400000000000e+00 4.19866824849814e-01 5.12979912727540e-03
1.05109090909091e+00 4.06858831090639e-01 5.01178894771370e-03
1.06818181818182e+00 3.94253841062830e-01 4.89584604961426e-03
1.08527272727273e+00 3.82039369213131e-01 4.78197299183320e-03
1.10236363636364e+00 3.70203316806096e-01 4.67016914914554e-03
1.11945454545455e+00 3.58733959940006e-01 4.56043096793764e-03
1.13654545454545e+00 3.47619937934056e-01 4.45275221477360e-03
1.15363636363636e+00 3.36850242075151e-01 4.34712420718461e-03
1.17072727272727e+00 3.26414204713893e-01 4.24353602808172e-03
1.18781818181818e+00 3.16301488697810e-01 4.14197472499334e-03
1.20490909090909e+00 3.06502077132154e-01 4.04242549513470e-03
1.22200000000000e+00 2.97006263457924e-01 3.94487185058955e-03
1.23909090909091e+00 2.87804641907477e-01 3.84929579904941e-03
1.25618181818182e+00 2.78888097972087e-01 3.75567797824984e-03
1.27327272727273e+00 2.70247799595058e-01 3.66399777891240e-03
1.29036363636364e+00 2.61875188347697e-01 3.57423349588778e-03
1.30745454545455e+00 2.53761970951987e-01 3.48636243948645e-03
1.32454545454545e+00 2.45900111065889e-01 3.40036104615706e-03
1.34163636363636e+00 2.38281821323057e-01 3.31620498123874e-03
1.35872727272727e+00 2.30899555619467e-01 3.23386923437480e-03
1.37581818181818e+00 2.23746001638703e-01 3.15332820808526e-03
1.39290909090909e+00 2.16814073608935e-01 3.07455579990585e-03
1.41000000000000e+00 2.10096905284286e-01 2.99752547407909e-03
1.42709090909091e+00 2.03587843186710e-01 2.92221034592704e-03
1.44418181818182e+00 1.97280439883235e-01 2.84858323797945e-03
1.46127272727273e+00 1.91168447735219e-01 2.77661673058451e-03
1.47836363636364e+00 1.85245812663578e-01 2.70628323299748e-03
1.49545454545455e+00 1.79506668152066e-01 2.63755503001101e-03
1.51254545454545e+00 1.73945329436349e-01 2.57040432977690e-03
1.52963636363636e+00 1.68556287873059e-01 2.50480330791312e-03
1.54672727272727e+00 1.63334205483454e-01 2.44072414816806e-03
1.56381818181818e+00 1.58273909665961e-01 2.37813907986875e-03
1.58090909090909e+00 1.53370388072591e-01 2.31702041233334e-03
1.59800000000000e+00 1.48618783644082e-01 2.25734056348927e-03
1.61509090909091e+00 1.44014389825758e-01 2.19907209798726e-03
1.63218181818182e+00 1.39552645822961e-01 2.14218774754724e-03
1.64927272727273e+00 1.35229132168091e-01 2.08666042856090e-03
1.66636363636364e+00 1.31039566314110e-01 2.03246327416941e-03
1.68345454545455e+00 1.26979798392576e-01 1.97956965090044e-03
1.70054545454545e+00 1.23045807103092e-01 1.92795317685215e-03
1.71763636363636e+00 1.19233695730086e-01 1.87758773811815e-03
1.73472727272727e+00 1.15539688283077e-01 1.82844750358687e-03
1.75181818181818e+00 1.11960125756431e-01 1.78050693822491e-03
1.76890909090909e+00 1.08491462505029e-01 1.73374081492756e-03
1.78600000000000e+00 1.05130262732216e-01 1.68812422305180e-03
1.80309090909091e+00 1.01873197103589e-01 1.64363258383019e-03
1.82018181818182e+00 9.87170393969165e-02 1.60024165439257e-03
1.83727272727273e+00 9.56586633600353e-02 1.55792753041493e-03
1.85436363636364e+00 9.26950395959349e-02 1.51666665889363e-03
1.87145454545455e+00 8.98232325620657e-02 1.47643584100209e-03
1.88854545454545e+00 8.70403976626118e-02 1.43721223637167e-03
1.90563636363636e+00 8.43437784308326e-02 1.39897336656390e-03
1.92272727272727e+00 8.17307037987502e-02 1.36169711780182e-03
1.93981818181818e+00 7.91985854513716e-02 1.32536174301435e-03
1.95690909090909e+00 7.67449152628998e-02 1.28994586323296e-03
1.97400000000000e+00 7.43672628123734e-02 1.25542846705400e-03
1.99109090909091e+00 7.20632729871788e-02 1.22178891501326e-03
2.00818181818182e+00 6.98306636167772e-02 1.18900693656343e-03
2.02527272727273e+00 6.76672232464290e-02 1.15706262637962e-03
2.04236363636364e+00 6.55708089349943e-02 1.12593644771823e-03
2.05945454545455e+00 6.35393441322966e-02 1.09560922933098e-03
2.07654545454545e+00 6.15708166222496e-02 1.06606216355287e-03
2.09363636363636e+00 5.96632765296977e-02 1.03727680405156e-03
2.11072727272727e+00 5.78148343890370e-02 1.00923506327281e-03
2.12781818181818e+00 5.60236592726425e-02 9.81919209608649e-04
2.14490909090909e+00 5.42879769772895e-02 9.55311864306182e-04
2.16200000000000e+00 5.26060682667612e-02 9.29395997238045e-04
2.17909090909091e+00 5.09762671759479e-02 9.04154926154316e-04
2.19618181818182e+00 4.93969593390440e-02 8.79572311088436e-04
2.21327272727273e+00 4.78665804126109e-02 8.55632148453992e-04
2.23036363636364e+00 4.63836145185025e-02 8.32318770048512e-04
2.24745454545455e+00 4.49465927423506e-02 8.09616837833832e-04
2.26454545454545e+00 4.35540916785692e-02 7.87511339636172e-04
2.28163636363636e+00 4.22047320204306e-02 7.65987584738089e-04
2.29872727272727e+00 4.08971771938402e-02 7.45031199379924e-04
2.31581818181818e+00 3.96301320334205e-02 7.24628122183491e-04
2.33290909090909e+00 3.84023414996180e-02 7.04764599505543e-04
2.35000000000000e+00 3.72125894355554e-02 6.85427180119480e-04
2.36709090909091e+00 3.60596973669846e-02 6.66602712355487e-04
2.38418181818182e+00 3.49425233209046e-02 6.48278338044955e-04
2.40127272727273e+00 3.38599607088116e-02 6.30441486342571e-04
2.41836363636364e+00 3.28109372256809e-02 6.13079870962050e-04
2.43545454545455e+00 3.17944137878227e-02 5.96181484626780e-04
2.45254545454545e+00 3.08093835036443e-02 5.79734594221326e-04
2.46963636363636e+00 2.98548706762951e-02 5.63727735943342e-04
2.48672727272727e+00 2.89299298372229e-02 5.48149710464458e-04
2.50381818181818e+00 2.80336448096597e-02 5.32989578105824e-04
2.52090909090909e+00 2.71651278011259e-02 5.18236654030798e-04
2.53800000000000e+00 2.63235185240506e-02 5.03880503042400e-04
2.55509090909091e+00 2.55079833466392e-02 4.89910936113646e-04
2.57218181818182e+00 2.47177144579223e-02 4.76318004799821e-04
2.58927272727273e+00 2.39519290770310e-02 4.63091995621818e-04
2.60636363636364e+00 2.32098686746153e-02 4.50223426825527e-04
2.62345454545455e+00 2.24907982215019e-02 4.37703043295863e-04
2.64054545454545e+00 2.17940054606299e-02 4.25521811995957e-04
2.65763636363636e+00 2.11188002015402e-02 4.13670917452946e-04
2.67472727272727e+00 2.04645136367297e-02 4.02141757294216e-04
2.69181818181818e+00 1.98304976791785e-02 3.90925937836202e-04
2.70890909090909e+00 1.92161243204036e-02 3.80015269725828e-04
2.72600000000000e+00 1.86207850084012e-02 3.69401763351384e-04
2.74309090909091e+00 1.80438900468397e-02 3.59077625473895e-04
2.76018181818182e+00 1.74848680048793e-02 3.49035254449090e-04
2.77727272727273e+00 1.69431651573674e-02 3.39267235464208e-04
2.79436363636364e+00 1.64182449342410e-02 3.29766337430101e-04
2.81145454545455e+00 1.59095873890409e-02 3.20525508645896e-04
2.82854545454545e+00 1.54166886838919e-02 3.11537872852946e-04
2.84563636363636e+00 1.49390605904378e-02 3.02796725350314e-04
2.86272727272727e+00 1.44762300062418e-02 2.94295529173179e-04
2.87981818181818e+00 1.40277384861654e-02 2.86027911334518e-04
2.89690909090909e+00 1.35931417882674e-02 2.77987659129179e-04
2.91400000000000e+00 1.31720094337708e-02 2.70168716305457e-04
2.93109090909091e+00 1.27639242819735e-02 2.62565180096064e-04
2.94818181818182e+00 1.23684821130413e-02 2.55171297308281e-04
2.96527272727273e+00 1.19852912317287e-02 2.47981460446680e-04
2.98236363636364e+00 1.16139720779932e-02 2.40990204990081e-04
2.99945454545455e+00 1.12541568510315e-02 2.34192205849637e-04
3.01654545454545e+00 1.09054891449640e-02 2.27582274113306e-04
3.03363636363636e+00 1.05676235958051e-02 2.21155353851785e-04
3.05072727272727e+00 1.02402255393732e-02 2.14906518986101e-04
3.06781818181818e+00 9.92297067979682e-03 2.08830970216431e-04
3.08490909090909e+00 9.61554476829166e-03 2.02924032010886e-04
3.10200000000000e+00 9.31764329188915e-03 1.97181149520000e-04
3.11909090909091e+00 9.02897117267952e-03 1.91597886096357e-04
3.13618181818182e+00 8.74924247285950e-03 1.86169920184591e-04
3.15327272727273e+00 8.47818011423511e-03 1.80893042248440e-04
3.17036363636364e+00 8.21551560283736e-03 1.75763152503427e-04
3.18745454545455e+00 7.96098876297239e-03 1.70776258101873e-04
3.20454545454545e+00 7.71434747951097e-03 1.65928470527477e-04
3.22163636363636e+00 7.47534744816181e-03 1.61216003044813e-04
3.23872727272727e+00 7.24375193348315e-03 1.56635168203399e-04
3.25581818181818e+00 7.01933153438993e-03 1.52182375395565e-04
3.27290909090909e+00 6.80186395692632e-03 1.47854128466909e-04
3.29000000000000e+00 6.59113379407814e-03 1.43647023286646e-04
3.30709090909091e+00 6.38693231298749e-03 1.39557745744180e-04
3.32418181818182e+00 6.18905724641667e-03 1.35583069323386e-04
3.34127272727273e+00 5.99731259421900e-03 1.31719852712141e-04
3.35836363636364e+00 5.81150842857472e-03 1.27965037974688e-04
3.37545454545455e+00 5.63146070586272e-03 1.24315648356962e-04
3.39254545454545e+00 5.45699108436083e-03 1.20768786244669e-04
3.40963636363636e+00 5.28792674759365e-03 1.17321631167586e-04
3.42672727272727e+00 5.12410023315420e-03 1.13971437849542e-04
3.44381818181818e+00 4.96534926682793e-03 1.10715534303255e-04
3.46090909090909e+00 4.81151660185611e-03 1.07551319968929e-04
3.47800000000000e+00 4.66244986317906e-03 1.04476263832567e-04
3.49509090909091e+00 4.51800139689343e-03 1.01487902844577e-04
3.51218181818182e+00 4.37802812280558e-03 9.85838400546536e-05
3.52927272727273e+00 4.24239139392590e-03 9.57617427774617e-05
3.54636363636364e+00 4.11095685871993e-03 9.30193411518937e-05
3.56345454545455e+00 3.98359432802991e-03 9.03544264539313e-05
3.58054545454545e+00 3.86017764611914e-03 8.77648495204987e-05
3.59763636363636e+00 3.74058456571146e-03 8.52485192108253e-05
3.61472727272727e+00 3.62469662690267e-03 8.28034009047363e-05
3.63181818181818e+00 3.51239903982293e-03 8.04275150371178e-05
3.64890909090909e+00 3.40358057093447e-03 7.81189356676236e-05
3.66600000000000e+00 3.29813343285210e-03 7.58757890413136e-05
3.68309090909091e+00 3.19595317783793e-03 7.36962523609412e-05
3.70018181818182e+00 3.09693859354341e-03 7.15785523683483e-05
3.71727272727273e+00 3.00099160357395e-03 6.95209639514800e-05
3.73436363636364e+00 2.90801717006294e-03 6.75218090268554e-05
3.75145454545455e+00 2.81792319953438e-03 6.55794552563971e-05
3.76854545454545e+00 2.73062045168207e-03 6.36923148447194e-05
3.78563636363636e+00 2.64602245097469e-03 6.18588433661104e-05
3.80272727272727e+00 2.56404540099997e-03 6.00775386206717e-05
3.81981818181818e+00 2.48460810146212e-03 5.83469395189720e-05
3.83690909090909e+00 2.40763186775091e-03 5.66656249944576e-05
3.85400000000000e+00 2.33304045300266e-03 5.50322129129226e-05
3.87109090909091e+00 2.26075997275133e-03 5.34453591312069e-05
3.88818181818182e+00 2.19071883120587e-03 5.19037564273002e-05
3.90527272727273e+00 2.12284765088322e-03 5.04061334511039e-05
3.92236363636364e+00 2.05707920370053e-03 4.89512538681353e-05
3.93945454545455e+00 1.99334834438408e-03 4.75379153917460e-05
3.95654545454545e+00 1.93159194594131e-03 4.61649488735510e-05
3.97363636363636e+00 1.87174883713185e-03 4.48312174169566e-05
3.99072727272727e+00 1.81375974187611e-03 4.35356155133250e-05
4.00781818181818e+00 1.75756722054075e-03 4.22770682002486e-05
4.02490909090909e+00 1.70311561304329e-03 4.10545302413297e-05
4.04200000000000e+00 1.65035098371946e-03 3.98669853061863e-05
4.05909090909091e+00 1.59922106801695e-03 3.87134452557118e-05
4.07618181818182e+00 1.54967522036305e-03 3.75929493406204e-05
4.09327272727273e+00 1.50166436437015e-03 3.65045634162927e-05
4.11036363636364e+00 1.45514094409782e-03 3.54473792928626e-05
4.12745454545455e+00 1.41005887694747e-03 3.44205140101996e-05
4.14454545454545e+00 1.36637350801641e-03 3.34231091549382e-05
4.16163636363636e+00 1.32404156586600e-03 3.24543301952406e-05
4.17872727272727e+00 1.28302111966034e-03 3.15133658329116e-05
4.19581818181818e+00 1.24327153763269e-03 3.05994273724468e-05
4.21290909090909e+00 1.20475344683869e-03 2.97117481065429e-05
4.23000000000000e+00 1.16742869415648e-03 2.88495827033012e-05
4.24709090909091e+00 1.13126030857516e-03 2.80122066676975e-05
4.26418181818182e+00 1.09621246432862e-03 2.71989157445291e-05
4.28127272727273e+00 1.06225044566021e-03 2.64090253340209e-05
4.29836363636364e+00 1.02934061235033e-03 2.56418700022887e-05
4.31545454545455e+00 9.97450366394983e-04 2.48968029411737e-05
4.33254545454545e+00 9.66548119716662e-04 2.41731954584028e-05
4.34963636363636e+00 9.36603262875527e-04 2.34704364812283e-05
4.36672727272727e+00 9.07586134750082e-04 2.27879320732409e-05
4.38381818181818e+00 8.79467993157054e-04 2.21251049640240e-05
4.40090909090909e+00 8.52220986381557e-04 2.14813940912932e-05
4.41800000000000e+00 8.25818125589278e-04 2.08562541452556e-05
4.43509090909091e+00 8.00233258147580e-04 2.02491551653932e-05
4.45218181818182e+00 7.75441041554457e-04 1.96595820977220e-05
4.46927272727273e+00 7.51416918506090e-04 1.90870343617610e-05
4.48636363636364e+00 7.28137092514298e-04 1.85310254840800e-05
4.50345454545455e+00 7.05578504335537e-04 1.79910826976916e-05
4.52054545454545e+00 6.83718809130148e-04 1.74667465632959e-05
4.53763636363636e+00 6.62536354329214e-04 1.69575706006853e-05
4.55472727272727e+00 6.42010158187210e-04 1.64631209300730e-05
4.57181818181818e+00 6.22119888999036e-04 1.59829759230881e-05
4.58890909090909e+00 6.02845844960961e-04 1.55167258631652e-05
4.60600000000000e+00 5.84168934655505e-04 1.50639726081936e-05
4.62309090909091e+00 5.66070658177694e-04 1.46243292901807e-05
4.64018181818182e+00 5.48533088697672e-04 1.41974199882105e-05
4.65727272727273e+00 5.31538854819024e-04 1.37828794087785e-05
4.67436363636364e+00 5.15071123332683e-04 1.33803526128840e-05
4.69145454545455e+00 4.99113582543214e-04 1.29894947200715e-05
4.70854545454545e+00 4.83650426111684e-04 1.26099706281988e-05
4.72563636363636e+00 4.68666337399075e-04 1.22414547408194e-05
4.74272727272727e+00 4.54146474294802e-04 1.18836307019894e-05
4.75981818181818e+00 4.40076454515225e-04 1.15361911383073e-05
4.77690909090909e+00 4.26442341357642e-04 1.11988374079800e-05
4.79400000000000e+00 4.13230629895635e-04 1.08712793519500e-05
4.81109090909091e+00 4.00428233627113e-04 1.05532350711674e-05
4.82818181818182e+00 3.88022471435153e-04 1.02444306858085e-05
4.84527272727273e+00 3.76001055105400e-04 9.94460010005762e-06
4.86236363636364e+00 3.64352077127577e-04 9.65348479974322e-06
4.87945454545455e+00 3.53063998900803e-04 9.37083363441062e-06
4.89654545454545e+00 3.42125639304324e-04 9.09640261070670e-06
4.91363636363636e+00 3.31526163622327e-04 8.82995469143568e-06
4.93072727272727e+00 3.21255072811903e-04 8.57125960014507e-06
4.94781818181818e+00 3.11302193103483e-04 8.32009363109339e-06
4.96490909090909e+00 3.01657665923458e-04 8.07623946444631e-06
4.98200000000000e+00 2.92311938129027e-04 7.83948598324420e-06
4.99909090909091e+00 2.83255752562587e-04 7.60962810884185e-06
5.01618181818182e+00 2.74480138830112e-04 7.38646662414046e-06
5.03327272727273e+00 2.65976404469094e-04 7.16980800098789e-06
5.05036363636364e+00 2.57736126320266e-04 6.95946425067674e-06
5.06745454545455e+00 2.49751142184252e-04 6.75525276393184e-06
5.08454545454545e+00 2.42013542736708e-04 6.55699615902751e-06
5.10163636363636e+00 2.34515663693935e-04 6.36452213411122e-06
5.11872727272727e+00 2.27250078221229e-04 6.17766332362591e-06
5.13581818181818e+00 2.20209589576413e-04 5.99625715872183e-06
5.15290909090909e+00 2.13387223981282e-04 5.82014573154160e-06
5.17000000000000e+00 2.06776223713907e-04 5.64917566097033e-06
5.18709090909091e+00 2.00370040426544e-04 5.48319797144076e-06
5.20418181818182e+00 1.94162328623768e-04 5.32206796348162e-06
5.22127272727273e+00 1.88146939413458e-04 5.16564508737395e-06
5.23836363636364e+00 1.82317914403773e-04 5.01379283305244e-06
5.25545454545454e+00 1.76669479801225e-04 4.86637861290807e-06
5.27254545454545e+00 1.71196040691587e-04 4.72327365042959e-06
5.28963636363636e+00 1.65892175497994e-04 4.58435287195306e-06
5.30672727272727e+00 1.60752630610738e-04 4.44949480143863e-06
5.32381818181818e+00 1.55772315183443e-04 4.31858145819263e-06
5.34090909090909e+00 1.50946296090448e-04 4.19149825744915e-06
5.35800000000000e+00 1.46269793040426e-04 4.06813391213207e-06
5.37509090909091e+00 1.41738173849310e-04 3.94838034384582e-06
5.39218181818182e+00 1.37346949827718e-04 3.83213258828128e-06
