Energy (eV)          EEDF (eV^-(3/2))     First Anisotropy
2.00000000000000e-02 6.12438907163729e-01 3.85235732206224e-07
6.00000000000000e-02 6.12437712305651e-01 1.57141639042896e-06
1.00000000000000e-01 6.12433199060503e-01 5.04071167871652e-06
1.40000000000000e-01 6.12423344991242e-01 1.08222141135568e-05
1.80000000000000e-01 6.12406821923534e-01 1.87286158288394e-05
2.20000000000000e-01 6.12382615724224e-01 2.80124430585779e-05
2.60000000000000e-01 6.12351123904283e-01 3.81954909127981e-05
3.00000000000000e-01 6.12312089685599e-01 5.22698849945467e-05
3.40000000000000e-01 6.12260447326936e-01 7.62513824096114e-05
3.80000000000000e-01 6.12186789009528e-01 1.12040712542937e-04
4.20000000000000e-01 6.12084908263361e-01 1.60136817072304e-04
4.60000000000000e-01 6.11946487055055e-01 2.24281372355320e-04
5.00000000000000e-01 6.11761448978676e-01 2.99884802795491e-04
5.40000000000000e-01 6.11529389500604e-01 3.79078929861975e-04
5.80000000000000e-01 6.11251619590108e-01 4.60301568828534e-04
6.20000000000000e-01 6.10929339322379e-01 5.60526196796308e-04
6.60000000000000e-01 6.10541777386234e-01 7.17382766644506e-04
7.00000000000000e-01 6.10045068298576e-01 9.80110869196292e-04
7.40000000000000e-01 6.09363911366613e-01 1.39594801925651e-03
7.80000000000000e-01 6.08407203999262e-01 1.95601744420621e-03
8.20000000000000e-01 6.07120408272880e-01 2.56860410238071e-03
8.60000000000000e-01 6.05523685222915e-01 3.13046896436762e-03
9.00000000000000e-01 6.03677052525698e-01 3.60188660404740e-03
9.40000000000000e-01 6.01637884496685e-01 4.01511667439811e-03
9.80000000000000e-01 5.99424795953142e-01 4.42692645618273e-03
1.02000000000000e+00 5.97031568221709e-01 4.98219798219442e-03
1.06000000000000e+00 5.94325991610218e-01 5.96271530694004e-03
1.10000000000000e+00 5.91023516147691e-01 7.53657414869529e-03
1.14000000000000e+00 5.86841967576654e-01 9.62154316205643e-03
1.18000000000000e+00 5.81595209268674e-01 1.20352744851415e-02
1.22000000000000e+00 5.75193268807153e-01 1.47189977688004e-02
1.26000000000000e+00 5.67501836674254e-01 1.75955638470677e-02
1.30000000000000e+00 5.58500220713228e-01 2.05478927620437e-02
1.34000000000000e+00 5.48179676299151e-01 2.35973490490103e-02
1.38000000000000e+00 5.36502523744468e-01 2.67673705086120e-02
1.42000000000000e+00 5.23435462227040e-01 3.00199688222266e-02
1.46000000000000e+00 5.08971466971635e-01 3.32992284811733e-02
1.50000000000000e+00 4.93126457615700e-01 3.64720198054865e-02
1.54000000000000e+00 4.75999386291366e-01 3.94284714373827e-02
1.58000000000000e+00 4.57684452062547e-01 4.22321912491686e-02
1.62000000000000e+00 4.38225844632257e-01 4.53668650658859e-02
1.66000000000000e+00 4.17236701133442e-01 4.93028564861482e-02
1.70000000000000e+00 3.94331091929287e-01 5.42101292154298e-02
1.74000000000000e+00 3.68990685435439e-01 5.94340798876813e-02
1.78000000000000e+00 3.41362692250688e-01 6.35767109425407e-02
1.82000000000000e+00 3.12194701532504e-01 6.76086212965456e-02
1.86000000000000e+00 2.80198087907660e-01 7.11403140979434e-02
1.90000000000000e+00 2.46374163336633e-01 7.19356934504189e-02
1.94000000000000e+00 2.12194542953538e-01 6.93906059858945e-02
1.98000000000000e+00 1.79454912581029e-01 6.36090351019585e-02
2.02000000000000e+00 1.49667414546462e-01 5.58598758662697e-02
2.06000000000000e+00 1.23566691543663e-01 4.78732473359776e-02
2.10000000000000e+00 1.00983959351830e-01 4.03991012383151e-02
2.14000000000000e+00 8.19429983231603e-02 3.35903236166639e-02
2.18000000000000e+00 6.61351967094070e-02 2.78468764643038e-02
2.22000000000000e+00 5.29384591727407e-02 2.30184630020259e-02
2.26000000000000e+00 4.21133665385273e-02 1.86987021660723e-02
2.30000000000000e+00 3.34261880671079e-02 1.49075759654061e-02
2.34000000000000e+00 2.65634924911756e-02 1.17816742080691e-02
2.38000000000000e+00 2.11516662470028e-02 9.33249171080710e-03
2.42000000000000e+00 1.68556201304585e-02 7.40830415505018e-03
2.46000000000000e+00 1.34635209427870e-02 5.84016709067450e-03
2.50000000000000e+00 1.08140851001162e-02 4.56116966669974e-03
2.54000000000000e+00 8.76106513985243e-03 3.55282119166111e-03
2.58000000000000e+00 7.16555915280786e-03 2.78559158839207e-03
2.62000000000000e+00 5.91229295627357e-03 2.20334504443182e-03
2.66000000000000e+00 4.92351769065729e-03 1.75420562145054e-03
2.70000000000000e+00 4.13777700185643e-03 1.40445364986377e-03
2.74000000000000e+00 3.51422674957033e-03 1.12638575311053e-03
2.78000000000000e+00 3.02162133322902e-03 9.04356212366239e-04
2.82000000000000e+00 2.63136210951615e-03 7.29363321649671e-04
2.86000000000000e+00 2.32327464491256e-03 5.97692658021550e-04
2.90000000000000e+00 2.07273969838504e-03 5.02571048556166e-04
2.94000000000000e+00 1.86523923431357e-03 4.26520243016015e-04
2.98000000000000e+00 1.69430944439614e-03 3.58326785968971e-04
3.02000000000000e+00 1.55610819668772e-03 2.99298367854617e-04
3.06000000000000e+00 1.44151250600134e-03 2.51590059486841e-04
3.10000000000000e+00 1.34652797588843e-03 2.11279311830885e-04
3.14000000000000e+00 1.26815417081553e-03 1.77329804989746e-04
3.18000000000000e+00 1.20357287932904e-03 1.49518654137935e-04
3.22000000000000e+00 1.14990133911879e-03 1.27730067896282e-04
3.26000000000000e+00 1.10424940032130e-03 1.10860272750419e-04
3.30000000000000e+00 1.06494965203153e-03 9.76284194492800e-05
3.34000000000000e+00 1.03047353163224e-03 8.75632631496097e-05
3.38000000000000e+00 9.99592584801772e-04 8.00789386237738e-05
3.42000000000000e+00 9.71390683691003e-04 7.44402892993643e-05
3.46000000000000e+00 9.45305758421913e-04 6.97138813216105e-05
3.50000000000000e+00 9.21142712059633e-04 6.53801801556316e-05
3.54000000000000e+00 8.98712652955371e-04 6.14486686198874e-05
3.58000000000000e+00 8.77808562071474e-04 5.79133432673769e-05
3.62000000000000e+00 8.58281410611726e-04 5.44887212099567e-05
3.66000000000000e+00 8.40151345513506e-04 5.07280814598176e-05
3.70000000000000e+00 8.23577783933314e-04 4.65817256901428e-05
3.74000000000000e+00 8.08593101271168e-04 4.25008206719800e-05
3.78000000000000e+00 7.95037149372916e-04 3.89198166931296e-05
3.82000000000000e+00 7.82674830930147e-04 3.59632109038771e-05
3.86000000000000e+00 7.71287524209867e-04 3.35993346444857e-05
3.90000000000000e+00 7.60671640482839e-04 3.18031574700823e-05
3.94000000000000e+00 7.50629824054812e-04 3.05301466541284e-05
3.98000000000000e+00 7.40992444151107e-04 2.97071969912461e-05
4.02000000000000e+00 7.31622859225869e-04 2.92230591205510e-05
4.06000000000000e+00 7.22424378854514e-04 2.88755662855118e-05
4.10000000000000e+00 7.13393022649024e-04 2.85348991984098e-05
4.14000000000000e+00 7.04524764307514e-04 2.82016676271874e-05
4.18000000000000e+00 6.95815379727774e-04 2.78764367588181e-05
4.22000000000000e+00 6.87260633168977e-04 2.75742296019995e-05
4.26000000000000e+00 6.78842788351538e-04 2.72930064651991e-05
4.30000000000000e+00 6.70559309556227e-04 2.70149580788236e-05
4.34000000000000e+00 6.62408023703832e-04 2.67385670271914e-05
4.38000000000000e+00 6.54387387377604e-04 2.64623965562267e-05
4.42000000000000e+00 6.46496148164738e-04 2.62024864115173e-05
4.46000000000000e+00 6.38719021745424e-04 2.59599625980962e-05
4.50000000000000e+00 6.31054408584599e-04 2.57353018930864e-05
4.54000000000000e+00 6.23487055659456e-04 2.55451523144892e-05
4.58000000000000e+00 6.16001766133627e-04 2.53740993379667e-05
4.62000000000000e+00 6.08596875559748e-04 2.51990584632786e-05
4.66000000000000e+00 6.01276573003031e-04 2.50182529723515e-05
4.70000000000000e+00 5.94040189390517e-04 2.48388185769993e-05
4.74000000000000e+00 5.86885739316266e-04 2.46617773957567e-05
4.78000000000000e+00 5.79811611868059e-04 2.44844094034558e-05
4.82000000000000e+00 5.72817833447312e-04 2.43232513486856e-05
4.86000000000000e+00 5.65889077961030e-04 2.41783948296977e-05
4.90000000000000e+00 5.59025538466165e-04 2.40532328243528e-05
4.94000000000000e+00 5.52209219923058e-04 2.39697500130344e-05
4.98000000000000e+00 5.45422512360832e-04 2.38199501323036e-05
5.02000000000000e+00 5.38736207111684e-04 2.35522492786590e-05
5.06000000000000e+00 5.32174179468757e-04 2.33753264218823e-05
5.10000000000000e+00 5.25636956707158e-04 2.32990786595557e-05
5.14000000000000e+00 5.19141707210287e-04 2.31799548774050e-05
5.18000000000000e+00 5.12705176404626e-04 2.30398471923751e-05
5.22000000000000e+00 5.06326783022038e-04 2.29032179975980e-05
5.26000000000000e+00 5.00003583622551e-04 2.27700853110053e-05
5.30000000000000e+00 4.93735031552763e-04 2.26317022302303e-05
5.34000000000000e+00 4.87525222875435e-04 2.24823768062412e-05
5.38000000000000e+00 4.81378140186740e-04 2.23280755880491e-05
5.42000000000000e+00 4.75293081724911e-04 2.21804083068664e-05
5.46000000000000e+00 4.69264809610799e-04 2.20393762943794e-05
5.50000000000000e+00 4.63292696931184e-04 2.19020251370712e-05
5.54000000000000e+00 4.57373882858994e-04 2.17711772602550e-05
5.58000000000000e+00 4.51505558568459e-04 2.16439734033461e-05
5.62000000000000e+00 4.45687165784842e-04 2.15009439020141e-05
5.66000000000000e+00 4.39931236333628e-04 2.13421940867077e-05
5.70000000000000e+00 4.34237006869234e-04 2.11846710471836e-05
5.74000000000000e+00 4.28603718228200e-04 2.10294787095559e-05
5.78000000000000e+00 4.23030036912161e-04 2.08787584578566e-05
5.82000000000000e+00 4.17514090020845e-04 2.07443480163473e-05
5.86000000000000e+00 4.12045656585660e-04 2.06260833428096e-05
5.90000000000000e+00 4.06623091638167e-04 2.05074416390409e-05
5.94000000000000e+00 4.01248940349973e-04 2.03829655706142e-05
5.98000000000000e+00 3.95925711009175e-04 2.02580018710665e-05
6.02000000000000e+00 3.90651787682506e-04 2.01314777251932e-05
6.06000000000000e+00 3.85430220104839e-04 2.00012301250396e-05
6.10000000000000e+00 3.80260492049851e-04 1.98782457510688e-05
6.14000000000000e+00 3.75137066516351e-04 1.97691500714975e-05
6.18000000000000e+00 3.70054500878473e-04 1.96672396909626e-05
6.22000000000000e+00 3.65012407311146e-04 1.95658196277545e-05
6.26000000000000e+00 3.60010408740311e-04 1.94648666804219e-05
6.30000000000000e+00 3.55048138133153e-04 1.93682920787402e-05
6.34000000000000e+00 3.50122300759003e-04 1.92800149202266e-05
6.38000000000000e+00 3.45229646872639e-04 1.91961018735946e-05
6.42000000000000e+00 3.40369864708611e-04 1.91100267463176e-05
6.46000000000000e+00 3.35544575031811e-04 1.90217444034182e-05
6.50000000000000e+00 3.30753478237229e-04 1.89338300449897e-05
6.54000000000000e+00 3.25996279385492e-04 1.88462708527600e-05
6.58000000000000e+00 3.21272692145974e-04 1.87590543700952e-05
6.62000000000000e+00 3.16582434474348e-04 1.86797708082137e-05
6.66000000000000e+00 3.11919633520167e-04 1.86084558897090e-05
6.70000000000000e+00 3.07284043852571e-04 1.85374922924677e-05
6.74000000000000e+00 3.02675420984411e-04 1.84668871385284e-05
6.78000000000000e+00 2.98093521457557e-04 1.83966469986816e-05
6.82000000000000e+00 2.93538102950565e-04 1.83218464508893e-05
6.86000000000000e+00 2.89012541480810e-04 1.82424880426854e-05
6.90000000000000e+00 2.84516569067392e-04 1.81659832289322e-05
6.94000000000000e+00 2.80048135165698e-04 1.80947514739699e-05
6.98000000000000e+00 2.75605221896477e-04 1.80263142369663e-05
7.02000000000000e+00 2.71187607204569e-04 1.79543586408765e-05
7.06000000000000e+00 2.66797821693650e-04 1.78783926739808e-05
7.10000000000000e+00 2.62435867210293e-04 1.78018158862580e-05
7.14000000000000e+00 2.58101769273924e-04 1.77248376742833e-05
7.18000000000000e+00 2.53795455032403e-04 1.76478695803679e-05
7.22000000000000e+00 2.49516725927354e-04 1.75711456081478e-05
7.26000000000000e+00 2.45265340369858e-04 1.74944494209583e-05
7.30000000000000e+00 2.41041209344815e-04 1.74175453497009e-05
7.34000000000000e+00 2.36844250884730e-04 1.73405142699152e-05
7.38000000000000e+00 2.32674348675817e-04 1.72635074102381e-05
7.42000000000000e+00 2.28531341719485e-04 1.71870850722999e-05
7.46000000000000e+00 2.24414248911224e-04 1.71074302580137e-05
7.50000000000000e+00 2.20324753047402e-04 1.70203734658645e-05
7.54000000000000e+00 2.16264456591028e-04 1.69262138076813e-05
7.58000000000000e+00 2.12234883107467e-04 1.68252469672689e-05
7.62000000000000e+00 2.08237478744824e-04 1.67175428424608e-05
7.66000000000000e+00 2.04273949018786e-04 1.66048003707254e-05
7.70000000000000e+00 2.00344913952878e-04 1.64889358943457e-05
7.74000000000000e+00 1.96450886266667e-04 1.63699083988785e-05
7.78000000000000e+00 1.92592459155946e-04 1.62473400012884e-05
7.82000000000000e+00 1.88770363481484e-04 1.61209764200311e-05
7.86000000000000e+00 1.84985483950659e-04 1.59918014327201e-05
7.90000000000000e+00 1.81238078757737e-04 1.58611699201569e-05
7.94000000000000e+00 1.77528045637748e-04 1.57282656516230e-05
7.98000000000000e+00 1.73855821620126e-04 1.55906268243135e-05
8.02000000000000e+00 1.70222674210154e-04 1.54506709787689e-05
8.06000000000000e+00 1.66627459561048e-04 1.53103836605847e-05
8.10000000000000e+00 1.63070533807709e-04 1.51680377746742e-05
8.14000000000000e+00 1.59552231975885e-04 1.50238420065975e-05
8.18000000000000e+00 1.56072822855327e-04 1.48780876445858e-05
8.22000000000000e+00 1.52632494189020e-04 1.47312823367504e-05
8.26000000000000e+00 1.49231060080059e-04 1.45824767093092e-05
8.30000000000000e+00 1.45869156110414e-04 1.44304166364153e-05
8.34000000000000e+00 1.42547425870898e-04 1.42754818077947e-05
8.38000000000000e+00 1.39266363720256e-04 1.41183461659635e-05
8.42000000000000e+00 1.36026259244556e-04 1.39597972131019e-05
8.46000000000000e+00 1.32826973952618e-04 1.37988720688413e-05
8.50000000000000e+00 1.29669249544142e-04 1.36342830455270e-05
8.54000000000000e+00 1.26553787430734e-04 1.34663660096415e-05
8.58000000000000e+00 1.23481186952427e-04 1.32955717101214e-05
8.62000000000000e+00 1.20451923389881e-04 1.31221373946756e-05
8.66000000000000e+00 1.17466548609066e-04 1.29466867014972e-05
8.70000000000000e+00 1.14525247919112e-04 1.27702012254923e-05
8.74000000000000e+00 1.11627881990281e-04 1.25923775991937e-05
8.78000000000000e+00 1.08774622955804e-04 1.24116842468281e-05
8.82000000000000e+00 1.05966202283738e-04 1.22271364240419e-05
8.86000000000000e+00 1.03203574762617e-04 1.20398483250181e-05
8.90000000000000e+00 1.00486954018798e-04 1.18514975231998e-05
8.94000000000000e+00 9.78161591945075e-05 1.16617553930231e-05
8.98000000000000e+00 9.51913710241817e-05 1.14688226096637e-05
9.02000000000000e+00 9.26134345900368e-05 1.12711006360497e-05
9.06000000000000e+00 9.00839073523116e-05 1.10709662332597e-05
9.10000000000000e+00 8.76025305553360e-05 1.08715785258841e-05
9.14000000000000e+00 8.51689060962078e-05 1.06729239264163e-05
9.18000000000000e+00 8.27827289682269e-05 1.04745327874768e-05
9.22000000000000e+00 8.04438825304292e-05 1.02761918645900e-05
9.26000000000000e+00 7.81522391736361e-05 1.00781563859737e-05
9.30000000000000e+00 7.59075693528352e-05 9.88077261891779e-06
9.34000000000000e+00 7.37095337409017e-05 9.68409885257190e-06
9.38000000000000e+00 7.15578416487832e-05 9.48787931359996e-06
9.42000000000000e+00 6.94523176603549e-05 9.29200837852201e-06
9.46000000000000e+00 6.73927850699526e-05 9.09674936147527e-06
9.50000000000000e+00 6.53789523450076e-05 8.90241606235316e-06
9.54000000000000e+00 6.34104699786787e-05 8.70912691342322e-06
9.58000000000000e+00 6.14869843967057e-05 8.51689031085393e-06
9.62000000000000e+00 5.96081616608617e-05 8.32561692815877e-06
9.66000000000000e+00 5.77737933216767e-05 8.13578931881625e-06
9.70000000000000e+00 5.59833281457474e-05 7.94811308990859e-06
9.74000000000000e+00 5.42361088607558e-05 7.76256615629043e-06
9.78000000000000e+00 5.25315540842673e-05 7.57876479867235e-06
9.82000000000000e+00 5.08692365296433e-05 7.39643023063239e-06
9.86000000000000e+00 4.92488130424865e-05 7.21590390817139e-06
9.90000000000000e+00 4.76697045103353e-05 7.03776743076745e-06
9.94000000000000e+00 4.61311702689025e-05 6.86192366049491e-06
9.98000000000000e+00 4.46326049641100e-05 6.68768638587986e-06
1.00200000000000e+01 4.31736669425328e-05 6.51449646026901e-06
1.00600000000000e+01 4.17542643326460e-05 6.34333904652338e-06
1.01000000000000e+01 4.03736094304253e-05 6.17537907800088e-06
1.01400000000000e+01 3.90309153485072e-05 6.01061583386332e-06
1.01800000000000e+01 3.77253997408039e-05 5.84903954167170e-06
1.02200000000000e+01 3.64562867302487e-05 5.69068089272145e-06
1.02600000000000e+01 3.52227649922677e-05 5.53545388389859e-06
1.03000000000000e+01 3.40241038286811e-05 5.38323295205056e-06
1.03400000000000e+01 3.28595748935388e-05 5.23401677853934e-06
1.03800000000000e+01 3.17284530984439e-05 5.08780058970476e-06
1.04200000000000e+01 3.06300173155417e-05 4.94459095754109e-06
1.04600000000000e+01 2.95635370207525e-05 4.80435187083776e-06
1.05000000000000e+01 2.85283123706549e-05 4.66703086745051e-06
1.05400000000000e+01 2.75236489287279e-05 4.53261855291529e-06
1.05800000000000e+01 2.65488560991686e-05 4.40110721457761e-06
1.06200000000000e+01 2.56032466854540e-05 4.27249364285212e-06
1.06600000000000e+01 2.46861303020223e-05 4.14674266690586e-06
1.07000000000000e+01 2.37968399177653e-05 4.02380859141774e-06
1.07400000000000e+01 2.29347144579460e-05 3.90367208979887e-06
1.07800000000000e+01 2.20990994032268e-05 3.78631151476329e-06
1.08200000000000e+01 2.12893472390456e-05 3.67170994231291e-06
1.08600000000000e+01 2.05048114264122e-05 3.55983140353882e-06
1.09000000000000e+01 1.97448642918833e-05 3.45063265039722e-06
1.09400000000000e+01 1.90088853071535e-05 3.34408776180178e-06
1.09800000000000e+01 1.82962616619627e-05 3.24016880661577e-06
1.10200000000000e+01 1.76063886479570e-05 3.13886138078657e-06
1.10600000000000e+01 1.69386553673071e-05 3.04010981855809e-06
1.11000000000000e+01 1.62924854031577e-05 2.94384376635572e-06
1.11400000000000e+01 1.56673096968497e-05 2.85003513456840e-06
1.11800000000000e+01 1.50625670922978e-05 2.75865408485788e-06
1.12200000000000e+01 1.44777046501292e-05 2.66968181605394e-06
1.12600000000000e+01 1.39121660738098e-05 2.58306689701905e-06
1.13000000000000e+01 1.33654242016859e-05 2.49874517370023e-06
1.13400000000000e+01 1.28369602448928e-05 2.41668767183980e-06
1.13800000000000e+01 1.23262626281626e-05 2.33686715155979e-06
1.14200000000000e+01 1.18328265307399e-05 2.25925835193156e-06
1.14600000000000e+01 1.13561510909272e-05 2.18382159634571e-06
1.15000000000000e+01 1.08957513424154e-05 2.11051270343803e-06
1.15400000000000e+01 1.04511502720621e-05 2.03929938154362e-06
1.15800000000000e+01 1.00218791199468e-05 1.97014839962999e-06
1.16200000000000e+01 9.60747754276014e-06 1.90305749269497e-06
1.16600000000000e+01 9.20746318659790e-06 1.83794219419498e-06
1.17000000000000e+01 8.82141583146409e-06 1.77468752147618e-06
1.17400000000000e+01 8.44892213226482e-06 1.71326822151157e-06
1.17800000000000e+01 8.08957483087233e-06 1.65366016845211e-06
1.18200000000000e+01 7.74297244103271e-06 1.59598978942349e-06
1.18600000000000e+01 7.40857298970358e-06 1.53998849705891e-06
1.19000000000000e+01 7.08610008371613e-06 1.48524217994189e-06
1.19400000000000e+01 6.77527456698927e-06 1.43176241975735e-06
1.19800000000000e+01 6.47581587109513e-06 1.37955638861575e-06
1.20200000000000e+01 6.18744295630624e-06 1.32818945323987e-06
1.20600000000000e+01 5.91018870029491e-06 1.27764975730521e-06
1.21000000000000e+01 5.64376329941016e-06 1.22838638242888e-06
1.21400000000000e+01 5.38787787618840e-06 1.18039863674663e-06
1.21800000000000e+01 5.14224462751232e-06 1.13368397823763e-06
1.22200000000000e+01 4.90657716773760e-06 1.08815036520940e-06
1.22600000000000e+01 4.68067493824103e-06 1.04391831436793e-06
1.23000000000000e+01 4.46419620423527e-06 1.00119044413137e-06
1.23400000000000e+01 4.25680750077120e-06 9.59930257114141e-07
1.23800000000000e+01 4.05818441791571e-06 9.20099633220848e-07
1.24200000000000e+01 3.86801193787103e-06 8.81499386761331e-07
1.24600000000000e+01 3.68613872433152e-06 8.44326859166650e-07
1.25000000000000e+01 3.51215726597463e-06 8.08936875709664e-07
1.25400000000000e+01 3.34567923762806e-06 7.75249688431410e-07
1.25800000000000e+01 3.18633413609357e-06 7.43190318195751e-07
1.26200000000000e+01 3.03376817578447e-06 7.12829909970830e-07
