Energy (eV)          EEDF (eV^-(3/2))     First Anisotropy
5.01470588235294e-03 1.14364966116904e+00 7.25791404679358e-04
1.50441176470588e-02 1.13209525600317e+00 1.19645592619632e-03
2.50735294117647e-02 1.12065758620640e+00 1.57408351326741e-03
3.51029411764706e-02 1.10933547229842e+00 1.85772060337364e-03
4.51323529411765e-02 1.09812774681075e+00 2.09160352046739e-03
5.51617647058824e-02 1.08703325409506e+00 2.29253823189909e-03
6.51911764705882e-02 1.07605085012456e+00 2.46926173796824e-03
7.52205882352941e-02 1.06517940245686e+00 2.62707363346654e-03
8.52500000000000e-02 1.05441779010509e+00 2.76950417429362e-03
9.52794117647059e-02 1.04376490337792e+00 2.89905933181738e-03
1.05308823529412e-01 1.03321964377726e+00 3.01760213164118e-03
1.15338235294118e-01 1.02278092404663e+00 3.12656732480259e-03
1.25367647058824e-01 1.01244766770743e+00 3.22709101417235e-03
1.35397058823529e-01 1.00221880925560e+00 3.32009332223639e-03
1.45426470588235e-01 9.92093293950612e-01 3.40633349828515e-03
1.55455882352941e-01 9.82070077774113e-01 3.48644796980663e-03
1.65485294117647e-01 9.72148127121807e-01 3.56097739720333e-03
1.75514705882353e-01 9.62326418900139e-01 3.63038641358496e-03
1.85544117647059e-01 9.52603940350618e-01 3.69507837243183e-03
1.95573529411765e-01 9.42979688947749e-01 3.75540653515770e-03
2.05602941176471e-01 9.33452672341191e-01 3.81168273986699e-03
2.15632352941176e-01 9.24021908110617e-01 3.86418418138527e-03
2.25661764705882e-01 9.14686423809425e-01 3.91315879834923e-03
2.35691176470588e-01 9.05445256816032e-01 3.95882962365010e-03
2.45720588235294e-01 8.96297454271554e-01 4.00139832024821e-03
2.55750000000000e-01 8.87242072868040e-01 4.04104806985506e-03
2.65779411764706e-01 8.78278178866178e-01 4.07794596387248e-03
2.75808823529412e-01 8.69404847960286e-01 4.11224501512825e-03
2.85838235294118e-01 8.60621165213663e-01 4.14408584931442e-03
2.95867647058824e-01 8.51926224871278e-01 4.17359812527228e-03
3.05897058823529e-01 8.43319130360404e-01 4.20090174455170e-03
3.15926470588235e-01 8.34798994166280e-01 4.22610790233959e-03
3.25955882352941e-01 8.26364937766516e-01 4.24931999283664e-03
3.35985294117647e-01 8.18016091462679e-01 4.27063438274554e-03
3.46014705882353e-01 8.09751594369245e-01 4.29014108396204e-03
3.56044117647059e-01 8.01570594298032e-01 4.30792435718952e-03
3.66073529411765e-01 7.93472247670820e-01 4.32406322789115e-03
3.76102941176471e-01 7.85455719453222e-01 4.33863195504924e-03
3.86132352941176e-01 7.77520183004443e-01 4.35170043320320e-03
3.96161764705882e-01 7.69664820056874e-01 4.36333454897233e-03
4.06191176470588e-01 7.61888820610028e-01 4.37359651004468e-03
4.16220588235294e-01 7.54191382865190e-01 4.38254513875232e-03
4.26250000000000e-01 7.46571713087325e-01 4.39023612615027e-03
4.36279411764706e-01 7.39029025579212e-01 4.39672226001679e-03
4.46308823529412e-01 7.31562542581601e-01 4.40205364069179e-03
4.56338235294118e-01 7.24171494208990e-01 4.40627787568847e-03
4.66367647058823e-01 7.16855118321866e-01 4.40944024763958e-03
4.76397058823529e-01 7.09612660496959e-01 4.41158386644452e-03
4.86426470588235e-01 7.02443373932947e-01 4.41274981716710e-03
4.96455882352941e-01 6.95346519387596e-01 4.41297729448771e-03
5.06485294117647e-01 6.88321365058957e-01 4.41230371786396e-03
5.16514705882353e-01 6.81367186552874e-01 4.41076483666473e-03
5.26544117647059e-01 6.74483266793719e-01 4.40839483720872e-03
5.36573529411765e-01 6.67668895950633e-01 4.40522643119096e-03
5.46602941176471e-01 6.60923371376377e-01 4.40129094677587e-03
5.56632352941176e-01 6.54245997498070e-01 4.39661840348991e-03
5.66661764705882e-01 6.47636085782623e-01 4.39123758112772e-03
5.76691176470588e-01 6.41092954653296e-01 4.38517609141097e-03
5.86720588235294e-01 6.34615929430227e-01 4.37846044396981e-03
5.96750000000000e-01 6.28204342228013e-01 4.37111610095632e-03
6.06779411764706e-01 6.21857531919991e-01 4.36316752754119e-03
6.16808823529412e-01 6.15574844058920e-01 4.35463824620310e-03
6.26838235294118e-01 6.09355630819244e-01 4.34555088690779e-03
6.36867647058823e-01 6.03199250900821e-01 4.33592722777135e-03
6.46897058823529e-01 5.97105069492523e-01 4.32578823280703e-03
6.56926470588235e-01 5.91072458196753e-01 4.31515409398914e-03
6.66955882352941e-01 5.85100794973458e-01 4.30404427024776e-03
6.76985294117647e-01 5.79189464049446e-01 4.29247751828537e-03
6.87014705882353e-01 5.73337855881657e-01 4.28047192127908e-03
6.97044117647059e-01 5.67545367085260e-01 4.26804492353427e-03
7.07073529411765e-01 5.61811400371522e-01 4.25521335569055e-03
7.17102941176471e-01 5.56135364493927e-01 4.24199346553013e-03
7.27132352941177e-01 5.50516674163716e-01 4.22840094020434e-03
7.37161764705882e-01 5.44954750013235e-01 4.21445092700273e-03
7.47191176470588e-01 5.39449018528256e-01 4.20015805875296e-03
7.57220588235294e-01 5.33998911995870e-01 4.18553647746166e-03
7.67250000000000e-01 5.28603868424608e-01 4.17059985169452e-03
7.77279411764706e-01 5.23263331508012e-01 4.15536139284804e-03
7.87308823529412e-01 5.17976750560042e-01 4.13983387596309e-03
7.97338235294118e-01 5.12743580464718e-01 4.12402965911608e-03
8.07367647058823e-01 5.07563281600478e-01 4.10796069715964e-03
8.17397058823529e-01 5.02435319804128e-01 4.09163855460409e-03
8.27426470588235e-01 4.97359166309166e-01 4.07507442290066e-03
8.37455882352941e-01 4.92334297697137e-01 4.05827913655192e-03
8.47485294117647e-01 4.87360195825924e-01 4.04126318407858e-03
8.57514705882353e-01 4.82436347794208e-01 4.02403671831045e-03
8.67544117647059e-01 4.77562245882536e-01 4.00660957197581e-03
8.77573529411765e-01 4.72737387501015e-01 3.98899126695635e-03
8.87602941176471e-01 4.67961275142730e-01 3.97119102846529e-03
8.97632352941176e-01 4.63233416316507e-01 3.95321779339555e-03
9.07661764705882e-01 4.58553323512199e-01 3.93508021815913e-03
9.17691176470588e-01 4.53920514145030e-01 3.91678669056019e-03
9.27720588235294e-01 4.49334510510655e-01 3.89834534086104e-03
9.37750000000000e-01 4.44794839721286e-01 3.87976404855680e-03
9.47779411764706e-01 4.40301033671666e-01 3.86105044873642e-03
9.57808823529412e-01 4.35852628985852e-01 3.84221194228303e-03
9.67838235294118e-01 4.31449166973877e-01 3.82325570537689e-03
9.77867647058824e-01 4.27090193571013e-01 3.80418869502468e-03
9.87897058823529e-01 4.22775259304501e-01 3.78501765424804e-03
9.97926470588235e-01 4.18503919242642e-01 3.76574912443331e-03
1.00795588235294e+00 4.14275732936586e-01 3.74638944119657e-03
1.01798529411765e+00 4.10090264420389e-01 3.72694474958363e-03
1.02801470588235e+00 4.05947082111726e-01 3.70742101555437e-03
1.03804411764706e+00 4.01845758788501e-01 3.68782401992271e-03
1.04807352941176e+00 3.97785871545000e-01 3.66815937666747e-03
1.05810294117647e+00 3.93767001711213e-01 3.64843251384698e-03
1.06813235294118e+00 3.89788734921741e-01 3.62864869524583e-03
1.07816176470588e+00 3.85850660959770e-01 3.60881304209071e-03
1.08819117647059e+00 3.81952373752932e-01 3.58893051259362e-03
1.09822058823529e+00 3.78093471331427e-01 3.56900591507260e-03
1.10825000000000e+00 3.74273555786666e-01 3.54904391984622e-03
1.11827941176471e+00 3.70492233197302e-01 3.52904904115105e-03
1.12830882352941e+00 3.66749113688269e-01 3.50902565635599e-03
1.13833823529412e+00 3.63043811289862e-01 3.48897802527327e-03
1.14836764705882e+00 3.59375943931826e-01 3.46891027091869e-03
1.15839705882353e+00 3.55745133404035e-01 3.44882639102098e-03
1.16842647058824e+00 3.52151005317487e-01 3.42873026844691e-03
1.17845588235294e+00 3.48593189036355e-01 3.40862565417040e-03
1.18848529411765e+00 3.45071317728639e-01 3.38851618443614e-03
1.19851470588235e+00 3.41585028238541e-01 3.36840539803800e-03
1.20854411764706e+00 3.38133961079207e-01 3.34829671829719e-03
1.21857352941176e+00 3.34717760395784e-01 3.32819346955877e-03
1.22860294117647e+00 3.31336073901892e-01 3.30809886104511e-03
1.23863235294118e+00 3.27988552924424e-01 3.28801600255461e-03
1.24866176470588e+00 3.24674852285628e-01 3.26794792028536e-03
1.25869117647059e+00 3.21394630295109e-01 3.24789753980241e-03
1.26872058823529e+00 3.18147548714589e-01 3.22786769525225e-03
1.27875000000000e+00 3.14933272723089e-01 3.20786113769448e-03
1.28877941176471e+00 3.11751470858374e-01 3.18788051999142e-03
1.29880882352941e+00 3.08601815055462e-01 3.16792841095723e-03
1.30883823529412e+00 3.05483980539374e-01 3.14800730963522e-03
1.31886764705882e+00 3.02397645816340e-01 3.12811962941381e-03
1.32889705882353e+00 2.99342492640693e-01 3.10826770626129e-03
1.33892647058824e+00 2.96318205982054e-01 3.08845380616664e-03
1.34895588235294e+00 2.93324473971283e-01 3.06868011102861e-03
1.35898529411765e+00 2.90360987933601e-01 3.04894873145498e-03
1.36901470588235e+00 2.87427442290832e-01 3.02926171969104e-03
1.37904411764706e+00 2.84523534552050e-01 3.00962105482696e-03
1.38907352941176e+00 2.81648965282468e-01 2.99002865517470e-03
1.39910294117647e+00 2.78803438052754e-01 2.97048636495701e-03
1.40913235294118e+00 2.75986659468351e-01 2.95099596611758e-03
1.41916176470588e+00 2.73198339078744e-01 2.93155919026072e-03
1.42919117647059e+00 2.70438189367859e-01 2.91217770471837e-03
1.43922058823529e+00 2.67705925724421e-01 2.89285311932011e-03
1.44925000000000e+00 2.65001266412634e-01 2.87358699250261e-03
1.45927941176471e+00 2.62323932525292e-01 2.85438081890676e-03
1.46930882352941e+00 2.59673648008993e-01 2.83523604011923e-03
1.47933823529412e+00 2.57050139581170e-01 2.81615405553916e-03
1.48936764705882e+00 2.54453136720243e-01 2.79713620942162e-03
1.49939705882353e+00 2.51882371637749e-01 2.77818379699683e-03
1.50942647058824e+00 2.49337579250733e-01 2.75929806998964e-03
1.51945588235294e+00 2.46818497138308e-01 2.74048022507148e-03
1.52948529411765e+00 2.44324865563337e-01 2.72173141365257e-03
1.53951470588235e+00 2.41856427396440e-01 2.70305275179530e-03
1.54954411764706e+00 2.39412928106015e-01 2.68444530817000e-03
1.55957352941176e+00 2.36994115732050e-01 2.66591011356100e-03
1.56960294117647e+00 2.34599740845289e-01 2.64744814999191e-03
1.57963235294118e+00 2.32229556566399e-01 2.62906035981106e-03
1.58966176470588e+00 2.29883318495203e-01 2.61074765489520e-03
1.59969117647059e+00 2.27560784700715e-01 2.59251090531737e-03
1.60972058823529e+00 2.25261715696195e-01 2.57435094446248e-03
1.61975000000000e+00 2.22985874414482e-01 2.55626857363667e-03
1.62977941176471e+00 2.20733026170107e-01 2.53826455194979e-03
1.63980882352941e+00 2.18502938675736e-01 2.52033960462761e-03
1.64983823529412e+00 2.16295381977196e-01 2.50249443143552e-03
1.65986764705882e+00 2.14110128443549e-01 2.48472969614785e-03
1.66989705882353e+00 2.11946952743645e-01 2.46704603120629e-03
1.67992647058824e+00 2.09805631822887e-01 2.44944404191561e-03
1.68995588235294e+00 2.07685944868048e-01 2.43192429703182e-03
1.69998529411765e+00 2.05587673321360e-01 2.41448733637848e-03
1.71001470588235e+00 2.03510600820777e-01 2.39713367856929e-03
1.72004411764706e+00 2.01454513190165e-01 2.37986381122271e-03
1.73007352941176e+00 1.99419198417253e-01 2.36267819837483e-03
1.74010294117647e+00 1.97404446620502e-01 2.34557727162069e-03
1.75013235294118e+00 1.95410050061523e-01 2.32856143720708e-03
1.76016176470588e+00 1.93435803089281e-01 2.31163108322765e-03
1.77019117647059e+00 1.91481502130451e-01 2.29478657041716e-03
1.78022058823529e+00 1.89546945668424e-01 2.27802823608927e-03
1.79025000000000e+00 1.87631934222549e-01 2.26135639768084e-03
1.80027941176471e+00 1.85736270317324e-01 2.24477134451215e-03
1.81030882352941e+00 1.83859758492984e-01 2.22827334430194e-03
1.82033823529412e+00 1.82002205254114e-01 2.21186264977894e-03
1.83036764705882e+00 1.80163419060194e-01 2.19553949012651e-03
1.84039705882353e+00 1.78343210305862e-01 2.17930407458640e-03
1.85042647058824e+00 1.76541391301367e-01 2.16315659570129e-03
1.86045588235294e+00 1.74757776243902e-01 2.14709722165045e-03
1.87048529411765e+00 1.72992181226608e-01 2.13112610224103e-03
1.88051470588235e+00 1.71244424191195e-01 2.11524337499016e-03
1.89054411764706e+00 1.69514324918714e-01 2.09944915717286e-03
1.90057352941176e+00 1.67801705011000e-01 2.08374355166457e-03
1.91060294117647e+00 1.66106387863645e-01 2.06812663972608e-03
1.92063235294118e+00 1.64428198673875e-01 2.05259848659787e-03
1.93066176470588e+00 1.62766964396200e-01 2.03715914718175e-03
1.94069117647059e+00 1.61122513733426e-01 2.02180865855730e-03
1.95072058823529e+00 1.59494677118987e-01 2.00654704305228e-03
1.96075000000000e+00 1.57883286699475e-01 1.99137431100414e-03
1.97077941176471e+00 1.56288176309463e-01 1.97629045404786e-03
1.98080882352941e+00 1.54709181478158e-01 1.96129545026945e-03
1.99083823529412e+00 1.53146139388440e-01 1.94638926944132e-03
2.00086764705882e+00 1.51598888868143e-01 1.93157186606478e-03
2.01089705882353e+00 1.50067270373444e-01 1.91684318219020e-03
2.02092647058824e+00 1.48551125972410e-01 1.90220314995256e-03
2.03095588235294e+00 1.47050299321542e-01 1.88765168532614e-03
2.04098529411765e+00 1.45564635671352e-01 1.87318869287632e-03
2.05101470588235e+00 1.44093981828514e-01 1.85881407058782e-03
2.06104411764706e+00 1.42638186147419e-01 1.84452770339513e-03
2.07107352941176e+00 1.41197098514563e-01 1.83032946782269e-03
2.08110294117647e+00 1.39770570326394e-01 1.81621922610406e-03
2.09113235294118e+00 1.38358454494138e-01 1.80219683062780e-03
2.10116176470588e+00 1.36960605408311e-01 1.78826212845624e-03
2.11119117647059e+00 1.35576878930531e-01 1.77441495523439e-03
2.12122058823529e+00 1.34207132378660e-01 1.76065513760677e-03
2.13125000000000e+00 1.32851224512098e-01 1.74698249538880e-03
2.14127941176471e+00 1.31509015511131e-01 1.73339683609350e-03
2.15130882352941e+00 1.30180366980920e-01 1.71989795903645e-03
2.16133823529412e+00 1.28865141918662e-01 1.70648565950856e-03
2.17136764705882e+00 1.27563204705704e-01 1.69315972310994e-03
2.18139705882353e+00 1.26274421093563e-01 1.67991992797566e-03
2.19142647058824e+00 1.24998658190088e-01 1.66676604677493e-03
2.20145588235294e+00 1.23735784440181e-01 1.65369784161626e-03
2.21148529411765e+00 1.22485669629081e-01 1.64071506783992e-03
2.22151470588235e+00 1.21248184851945e-01 1.62781747787423e-03
2.23154411764706e+00 1.20023202506262e-01 1.61500481596324e-03
2.24157352941176e+00 1.18810596278709e-01 1.60227682187421e-03
2.25160294117647e+00 1.17610241126943e-01 1.58963322609802e-03
2.26163235294118e+00 1.16422013282371e-01 1.57707375340281e-03
2.27166176470588e+00 1.15245790221588e-01 1.56459812644836e-03
2.28169117647059e+00 1.14081450659054e-01 1.55220606082009e-03
2.29172058823529e+00 1.12928874534587e-01 1.53989726694471e-03
2.30175000000000e+00 1.11787943000989e-01 1.52767145181039e-03
2.31177941176471e+00 1.10658538407047e-01 1.51552831449748e-03
2.32180882352941e+00 1.09540544299747e-01 1.50346754946493e-03
2.33183823529412e+00 1.08433845397794e-01 1.49148884989415e-03
2.34186764705882e+00 1.07338327584591e-01 1.47959190306652e-03
2.35189705882353e+00 1.06253877896471e-01 1.46777639213113e-03
2.36192647058824e+00 1.05180384511056e-01 1.45604199769204e-03
2.37195588235294e+00 1.04117736731372e-01 1.44438839364571e-03
2.38198529411765e+00 1.03065824987590e-01 1.43281525022247e-03
2.39201470588235e+00 1.02024540812458e-01 1.42132223708114e-03
2.40204411764706e+00 1.00993776834580e-01 1.40990901900556e-03
2.41207352941176e+00 9.99734267673463e-02 1.39857525888066e-03
2.42210294117647e+00 9.89633853939233e-02 1.38732061376933e-03
2.43213235294118e+00 9.79635485686530e-02 1.37614473776606e-03
2.44216176470588e+00 9.69738131939606e-02 1.36504728490081e-03
2.45219117647059e+00 9.59940772138752e-02 1.35402790508343e-03
2.46222058823529e+00 9.50242396035063e-02 1.34308624563073e-03
2.47225000000000e+00 9.40642003586317e-02 1.33222195263652e-03
2.48227941176471e+00 9.31138604816665e-02 1.32143466731660e-03
2.49230882352941e+00 9.21731219826953e-02 1.31072402865168e-03
2.50233823529412e+00 9.12418878580325e-02 1.30008967607745e-03
2.51236764705882e+00 9.03200620840281e-02 1.28953124570738e-03
2.52239705882353e+00 8.94075496071705e-02 1.27904837174421e-03
2.53242647058824e+00 8.85042563342846e-02 1.26864068774611e-03
2.54245588235294e+00 8.76100891194169e-02 1.25830782322099e-03
2.55248529411765e+00 8.67249557645512e-02 1.24804940607526e-03
2.56251470588235e+00 8.58487649996936e-02 1.23786506510697e-03
2.57254411764706e+00 8.49814264769571e-02 1.22775442648701e-03
2.58257352941176e+00 8.41228507612521e-02 1.21771711615735e-03
2.59260294117647e+00 8.32729493178790e-02 1.20775275661956e-03
2.60263235294118e+00 8.24316345130246e-02 1.19786096923464e-03
2.61266176470588e+00 8.15988195950190e-02 1.18804137656492e-03
2.62269117647059e+00 8.07744186886523e-02 1.17829359905642e-03
2.63272058823529e+00 7.99583467863194e-02 1.16861725626141e-03
2.64275000000000e+00 7.91505197392582e-02 1.15901196793447e-03
2.65277941176471e+00 7.83508542459452e-02 1.14947735103917e-03
2.66280882352941e+00 7.75592678523536e-02 1.14001302188062e-03
2.67283823529412e+00 7.67756789345293e-02 1.13061859827721e-03
2.68286764705882e+00 7.60000066931713e-02 1.12129369646893e-03
2.69289705882353e+00 7.52321711453037e-02 1.11203793224905e-03
2.70292647058824e+00 7.44720931160272e-02 1.10285092197855e-03
2.71295588235294e+00 7.37196942276649e-02 1.09373227979534e-03
2.72298529411765e+00 7.29748968998170e-02 1.08468161959239e-03
2.73301470588235e+00 7.22376243331564e-02 1.07569855703260e-03
2.74304411764706e+00 7.15078005042647e-02 1.06678270666721e-03
2.75307352941176e+00 7.07853501577984e-02 1.05793368387417e-03
2.76310294117647e+00 7.00701987962148e-02 1.04915110222581e-03
2.77313235294118e+00 6.93622726796879e-02 1.04043457534798e-03
2.78316176470588e+00 6.86614988108434e-02 1.03178371881416e-03
2.79319117647059e+00 6.79678049298063e-02 1.02319814742759e-03
2.80322058823529e+00 6.72811195067495e-02 1.01467747620336e-03
2.81325000000000e+00 6.66013717345209e-02 1.00622132124869e-03
2.82327941176471e+00 6.59284915190278e-02 9.97829297307917e-04
2.83330882352941e+00 6.52624094790036e-02 9.89501019488194e-04
2.84333823529412e+00 6.46030569318011e-02 9.81236105017639e-04
2.85336764705882e+00 6.39503658886796e-02 9.73034170711326e-04
2.86339705882353e+00 6.33042690477963e-02 9.64894833881455e-04
2.87342647058824e+00 6.26646997872665e-02 9.56817713152649e-04
2.88345588235294e+00 6.20315921561636e-02 9.48802426172192e-04
2.89348529411765e+00 6.14048808741600e-02 9.40848591212269e-04
2.90351470588235e+00 6.07845013183006e-02 9.32955828802542e-04
2.91354411764706e+00 6.01703895185213e-02 9.25123759367092e-04
2.92357352941176e+00 5.95624821510556e-02 9.17352004795279e-04
2.93360294117647e+00 5.89607165299130e-02 9.09640186280859e-04
2.94363235294118e+00 5.83650306064356e-02 9.01987925829062e-04
2.95366176470588e+00 5.77753629568302e-02 8.94394847792412e-04
2.96369117647059e+00 5.71916527778733e-02 8.86860576640899e-04
2.97372058823529e+00 5.66138398806423e-02 8.79384737753465e-04
2.98375000000000e+00 5.60418646843105e-02 8.71966958126798e-04
2.99377941176471e+00 5.54756682081679e-02 8.64606864359355e-04
3.00380882352941e+00 5.49151920710877e-02 8.57304084051218e-04
3.01383823529412e+00 5.43603784799128e-02 8.50058247230945e-04
3.02386764705882e+00 5.38111702253748e-02 8.42868984275503e-04
3.03389705882353e+00 5.32675106761971e-02 8.35735926644446e-04
3.04392647058824e+00 5.27293437732550e-02 8.28658707537186e-04
3.05395588235294e+00 5.21966140221034e-02 8.21636960011655e-04
3.06398529411765e+00 5.16692664923704e-02 8.14670318285106e-04
3.07401470588235e+00 5.11472468069352e-02 8.07758419060087e-04
3.08404411764706e+00 5.06305011380532e-02 8.00900899583859e-04
3.09407352941176e+00 5.01189762018084e-02 7.94097398924267e-04
3.10410294117647e+00 4.96126192510348e-02 7.87347556193796e-04
3.11413235294118e+00 4.91113780746643e-02 7.80651011773816e-04
3.12416176470588e+00 4.86152009875171e-02 7.74007408562650e-04
3.13419117647059e+00 4.81240368265935e-02 7.67416390143728e-04
3.14422058823529e+00 4.76378349457986e-02 7.60877601425077e-04
3.15425000000000e+00 4.71565452107205e-02 7.54390689211481e-04
3.16427941176471e+00 4.66801179920004e-02 7.47955300546928e-04
