Energy (eV)          EEDF (eV^-(3/2))     First Anisotropy
5.64285714285714e-02 6.22041903553933e-02 5.06432249201465e-05
1.69285714285714e-01 6.11900100158572e-02 8.32244185671798e-05
2.82142857142857e-01 6.01923649250518e-02 1.08805976966870e-04
3.95000000000000e-01 5.92109854918228e-02 1.27607528544688e-04
5.07857142857143e-01 5.82456065220590e-02 1.42773031653140e-04
6.20714285714286e-01 5.72959671406065e-02 1.55508567992225e-04
7.33571428571429e-01 5.63618107285140e-02 1.66446926331624e-04
8.46428571428571e-01 5.54428848507157e-02 1.75975341331777e-04
9.59285714285714e-01 5.45389411878100e-02 1.84353977841582e-04
1.07214285714286e+00 5.36497354652547e-02 1.91769046939030e-04
1.18500000000000e+00 5.27750274016640e-02 1.98360092223403e-04
1.29785714285714e+00 5.19145806256918e-02 2.04235402822599e-04
1.41071428571429e+00 5.10681626200429e-02 2.09481354381439e-04
1.52357142857143e+00 5.02355446531514e-02 2.14168388015920e-04
1.63642857142857e+00 4.94165017343656e-02 2.18355009444255e-04
1.74928571428571e+00 4.86108125349780e-02 2.22090560974438e-04
1.86214285714286e+00 4.78182593307460e-02 2.25417198168667e-04
1.97500000000000e+00 4.70386279563062e-02 2.28371340239598e-04
2.08785714285714e+00 4.62717077332386e-02 2.30984755722383e-04
2.20071428571429e+00 4.55172914180837e-02 2.33285389699826e-04
2.31357142857143e+00 4.47751751431601e-02 2.35298005839322e-04
2.42642857142857e+00 4.40451583713381e-02 2.37044692882801e-04
2.53928571428571e+00 4.33270438315186e-02 2.38545269148909e-04
2.65214285714286e+00 4.26206374663241e-02 2.39817607130474e-04
2.76500000000000e+00 4.19257483878689e-02 2.40877900451581e-04
2.87785714285714e+00 4.12421888176024e-02 2.41740883766620e-04
2.99071428571429e+00 4.05697740385423e-02 2.42420014741883e-04
3.10357142857143e+00 3.99083223432513e-02 2.42927626775291e-04
3.21642857142857e+00 3.92576549912486e-02 2.43275058714250e-04
3.32928571428571e+00 3.86175961539513e-02 2.43472765437541e-04
3.44214285714286e+00 3.79879728677024e-02 2.43530410908086e-04
3.55500000000000e+00 3.73686149926356e-02 2.43456949898234e-04
3.66785714285714e+00 3.67593551608930e-02 2.43260698633947e-04
3.78071428571429e+00 3.61600287333988e-02 2.42949395577905e-04
3.89357142857143e+00 3.55704737538725e-02 2.42530254698540e-04
4.00642857142857e+00 3.49905309096745e-02 2.42010012844434e-04
4.11928571428571e+00 3.44200434839981e-02 2.41394971729745e-04
4.23214285714286e+00 3.38588573138528e-02 2.40691033823940e-04
4.34500000000000e+00 3.33068207524521e-02 2.39903735552967e-04
4.45785714285714e+00 3.27637846240624e-02 2.39038276816016e-04
4.57071428571429e+00 3.22296021851231e-02 2.38099546837715e-04
4.68357142857143e+00 3.17041290834838e-02 2.37092147469783e-04
4.79642857142857e+00 3.11872233228038e-02 2.36020414651420e-04
4.90928571428571e+00 3.06787452206770e-02 2.34888437943066e-04
5.02214285714286e+00 3.01785573711069e-02 2.33700077150786e-04
5.13500000000000e+00 2.96865246104065e-02 2.32458978483440e-04
5.24785714285714e+00 2.92025139775588e-02 2.31168589166611e-04
5.36071428571429e+00 2.87263946793522e-02 2.29832170303514e-04
5.47357142857143e+00 2.82580380541919e-02 2.28452808701548e-04
5.58642857142857e+00 2.77973175399250e-02 2.27033428098986e-04
5.69928571428571e+00 2.73441086369798e-02 2.25576799591658e-04
5.81214285714286e+00 2.68982888748771e-02 2.24085550336523e-04
5.92500000000000e+00 2.64597377814645e-02 2.22562172454214e-04
6.03785714285714e+00 2.60283368479733e-02 2.21009031166701e-04
6.15071428571428e+00 2.56039694978092e-02 2.19428371928217e-04
6.26357142857143e+00 2.51865210543920e-02 2.17822327083481e-04
6.37642857142857e+00 2.47758787121840e-02 2.16192922369647e-04
6.48928571428571e+00 2.43719315041416e-02 2.14542083053467e-04
6.60214285714286e+00 2.39745702718404e-02 2.12871638896232e-04
6.71500000000000e+00 2.35836876378033e-02 2.11183329517242e-04
6.82785714285714e+00 2.31991779746155e-02 2.09478809326452e-04
6.94071428571428e+00 2.28209373770184e-02 2.07759651799620e-04
7.05357142857143e+00 2.24488636333096e-02 2.06027353519095e-04
7.16642857142857e+00 2.20828561993181e-02 2.04283338230177e-04
7.27928571428571e+00 2.17228161696037e-02 2.02528960722430e-04
7.39214285714286e+00 2.13686462508131e-02 2.00765509842521e-04
7.50500000000000e+00 2.10202507368404e-02 1.98994211946074e-04
7.61785714285714e+00 2.06775354814806e-02 1.97216234081750e-04
7.73071428571428e+00 2.03404078734940e-02 1.95432686706602e-04
7.84357142857143e+00 2.00087768111627e-02 1.93644626278870e-04
7.95642857142857e+00 1.96825526789489e-02 1.91853057933358e-04
8.06928571428571e+00 1.93616473219747e-02 1.90058938071932e-04
8.18214285714286e+00 1.90459740222634e-02 1.88263176276138e-04
8.29500000000000e+00 1.87354474764733e-02 1.86466637642048e-04
8.40785714285714e+00 1.84299837716547e-02 1.84670144935625e-04
8.52071428571429e+00 1.81295003629793e-02 1.82874480393829e-04
8.63357142857143e+00 1.78339160510963e-02 1.81080387459551e-04
8.74642857142857e+00 1.75431509612235e-02 1.79288572622322e-04
8.85928571428571e+00 1.72571265205086e-02 1.77499707219641e-04
8.97214285714286e+00 1.69757654368458e-02 1.75714428691722e-04
9.08500000000000e+00 1.66989916789375e-02 1.73933342221954e-04
9.19785714285714e+00 1.64267304547815e-02 1.72157022249905e-04
9.31071428571429e+00 1.61589081917883e-02 1.70386013705847e-04
9.42357142857143e+00 1.58954525166243e-02 1.68620833209272e-04
9.53642857142857e+00 1.56362922364972e-02 1.66861970377146e-04
9.64928571428571e+00 1.53813573190585e-02 1.65109889116599e-04
9.76214285714286e+00 1.51305788735171e-02 1.63365028467607e-04
9.87500000000000e+00 1.48838891327996e-02 1.61627803789862e-04
9.98785714285714e+00 1.46412214344463e-02 1.59898607817069e-04
1.01007142857143e+01 1.44025102030990e-02 1.58177811828286e-04
1.02135714285714e+01 1.41676909306966e-02 1.56465765698313e-04
1.03264285714286e+01 1.39367001648463e-02 1.54762799463351e-04
1.04392857142857e+01 1.37094754853111e-02 1.53069225093147e-04
1.05521428571429e+01 1.34859554874834e-02 1.51385335156740e-04
1.06650000000000e+01 1.32660797721470e-02 1.49711405049167e-04
1.07778571428571e+01 1.30497889206933e-02 1.48047693433901e-04
1.08907142857143e+01 1.28370244873198e-02 1.46394442842592e-04
1.10035714285714e+01 1.26277289751838e-02 1.44751880445486e-04
1.11164285714286e+01 1.24218458287207e-02 1.43120218288020e-04
1.12292857142857e+01 1.22193194124900e-02 1.41499655241942e-04
1.13421428571429e+01 1.20200949964137e-02 1.39890375654587e-04
1.14550000000000e+01 1.18241187462561e-02 1.38292551168884e-04
1.15678571428571e+01 1.16313377020612e-02 1.36706341015613e-04
1.16807142857143e+01 1.14416997706885e-02 1.35131892446263e-04
1.17935714285714e+01 1.12551537050527e-02 1.33569341316196e-04
1.19064285714286e+01 1.10716490967992e-02 1.32018812213457e-04
1.20192857142857e+01 1.08911363578062e-02 1.30480420067152e-04
1.21321428571429e+01 1.07135667070044e-02 1.28954268916792e-04
1.22450000000000e+01 1.05388921615861e-02 1.27440453415333e-04
1.23578571428571e+01 1.03670655181935e-02 1.25939059019697e-04
1.24707142857143e+01 1.01980403458717e-02 1.24450162305964e-04
1.25835714285714e+01 1.00317709679465e-02 1.22973831416324e-04
1.26964285714286e+01 9.86821245512628e-03 1.21510126117479e-04
1.28092857142857e+01 9.70732060929095e-03 1.20059099137924e-04
1.29221428571429e+01 9.54905195172777e-03 1.18620795057900e-04
1.30350000000000e+01 9.39336371505625e-03 1.17195251560781e-04
1.31478571428571e+01 9.24021382678052e-03 1.15782499553703e-04
1.32607142857143e+01 9.08956090269836e-03 1.14382563398243e-04
1.33735714285714e+01 8.94136423104964e-03 1.12995461256287e-04
1.34864285714286e+01 8.79558376607619e-03 1.11621205102404e-04
1.35992857142857e+01 8.65218011379074e-03 1.10259801843336e-04
1.37121428571429e+01 8.51111452147829e-03 1.08911252323198e-04
1.38250000000000e+01 8.37234887030996e-03 1.07575552372110e-04
1.39378571428571e+01 8.23584566093472e-03 1.06252692878385e-04
1.40507142857143e+01 8.10156800736060e-03 1.04942659957585e-04
1.41635714285714e+01 7.96947962306321e-03 1.03645435222159e-04
1.42764285714286e+01 7.83954481501545e-03 1.02360995763957e-04
1.43892857142857e+01 7.71172847117524e-03 1.01089315096576e-04
1.45021428571429e+01 7.58599605111813e-03 9.98303622676514e-05
1.46150000000000e+01 7.46231357930400e-03 9.85841027422170e-05
1.47278571428571e+01 7.34064763243468e-03 9.73504984411621e-05
1.48407142857143e+01 7.22096533380617e-03 9.61295078648147e-05
1.49535714285714e+01 7.10323434111564e-03 9.49210863043295e-05
1.50664285714286e+01 6.98742284095693e-03 9.37251858052298e-05
1.51792857142857e+01 6.87349953780515e-03 9.25417559642304e-05
1.52921428571429e+01 6.76143364565973e-03 9.13707431393637e-05
1.54050000000000e+01 6.65119488192327e-03 9.02120911973300e-05
1.55178571428571e+01 6.54275345629282e-03 8.90657415284944e-05
1.56307142857143e+01 6.43608006557095e-03 8.79316331366166e-05
1.57435714285714e+01 6.33114588294882e-03 8.68097028052210e-05
1.58564285714286e+01 6.22792255295337e-03 8.56998850495722e-05
1.59692857142857e+01 6.12638218173886e-03 8.46021127929696e-05
1.60821428571429e+01 6.02649732963223e-03 8.35163166653084e-05
1.61950000000000e+01 5.92824100558098e-03 8.24424256376291e-05
1.63078571428571e+01 5.83158665738023e-03 8.13803670209003e-05
1.64207142857143e+01 5.73650816692300e-03 8.03300665303736e-05
1.65335714285714e+01 5.64297984076954e-03 7.92914484168506e-05
1.66464285714286e+01 5.55097640552566e-03 7.82644354121673e-05
1.67592857142857e+01 5.46047299927778e-03 7.72489493049804e-05
1.68721428571429e+01 5.37144516494383e-03 7.62449103186954e-05
1.69850000000000e+01 5.28386884524684e-03 7.52522376518733e-05
1.70978571428571e+01 5.19772037410790e-03 7.42708494659486e-05
1.72107142857143e+01 5.11297647231181e-03 7.33006629304950e-05
1.73235714285714e+01 5.02961423919970e-03 7.23415943269260e-05
1.74364285714286e+01 4.94761114845415e-03 7.13935589909291e-05
1.75492857142857e+01 4.86694504053661e-03 7.04564718039994e-05
1.76621428571429e+01 4.78759411675726e-03 6.95302466422464e-05
1.77750000000000e+01 4.70953693473187e-03 6.86147968377989e-05
1.78878571428571e+01 4.63275240079431e-03 6.77100351591781e-05
1.80007142857143e+01 4.55721976605153e-03 6.68158738421546e-05
1.81135714285714e+01 4.48291861905882e-03 6.59322246716681e-05
1.82264285714286e+01 4.40982888198545e-03 6.50589989235743e-05
1.83392857142857e+01 4.33793080393214e-03 6.41961077852033e-05
1.84521428571429e+01 4.26720495564252e-03 6.33434618672596e-05
1.85650000000000e+01 4.19763222540234e-03 6.25009715986473e-05
1.86778571428571e+01 4.12919381234522e-03 6.16685472021570e-05
1.87907142857143e+01 4.06187122286974e-03 6.08460987144547e-05
1.89035714285714e+01 3.99564626417580e-03 6.00335360507153e-05
1.90164285714286e+01 3.93050104078379e-03 5.92307689472650e-05
1.91292857142857e+01 3.86641794862569e-03 5.84377073221194e-05
1.92421428571429e+01 3.80337967032900e-03 5.76542608429133e-05
1.93550000000000e+01 3.74136917151964e-03 5.68803392654001e-05
1.94678571428571e+01 3.68036969491134e-03 5.61158524063749e-05
1.95807142857143e+01 3.62036475705756e-03 5.53607101554837e-05
1.96935714285714e+01 3.56133814264366e-03 5.46148225260852e-05
1.98064285714286e+01 3.50327390133254e-03 5.38780995998286e-05
1.99192857142857e+01 3.44615634253677e-03 5.31504518362703e-05
2.00321428571429e+01 3.38997003121325e-03 5.24317896904805e-05
2.01450000000000e+01 3.33469978453337e-03 5.17220239037309e-05
2.02578571428571e+01 3.28033066666093e-03 5.10210654750425e-05
2.03707142857143e+01 3.22684798581219e-03 5.03288256668659e-05
2.04835714285714e+01 3.17423728921221e-03 4.96452160449477e-05
2.05964285714286e+01 3.12248436024076e-03 4.89701484254998e-05
2.07092857142857e+01 3.07157521380447e-03 4.83035351414788e-05
2.08221428571429e+01 3.02149609258715e-03 4.76452887042017e-05
2.09350000000000e+01 2.97223346405335e-03 4.69953220533373e-05
2.10478571428571e+01 2.92377401583181e-03 4.63535485280589e-05
2.11607142857143e+01 2.87610465305816e-03 4.57198818681759e-05
2.12735714285714e+01 2.82921249391545e-03 4.50942362452015e-05
2.13864285714286e+01 2.78308486705517e-03 4.44765262125027e-05
2.14992857142857e+01 2.73770930749874e-03 4.38666669346137e-05
2.16121428571429e+01 2.69307355329405e-03 4.32645738877977e-05
2.17250000000000e+01 2.64916554282133e-03 4.26701630753176e-05
2.18378571428571e+01 2.60597341070959e-03 4.20833509988904e-05
2.19507142857143e+01 2.56348548543769e-03 4.15040546564803e-05
2.20635714285714e+01 2.52169028538936e-03 4.09321915663222e-05
2.21764285714286e+01 2.48057651652549e-03 4.03676797202518e-05
2.22892857142857e+01 2.44013306875279e-03 3.98104377814156e-05
2.24021428571429e+01 2.40034901294281e-03 3.92603848192844e-05
2.25150000000000e+01 2.36121359851108e-03 3.87174404952360e-05
2.26278571428571e+01 2.32271624980345e-03 3.81815250347957e-05
2.27407142857143e+01 2.28484656393247e-03 3.76525592230235e-05
2.28535714285714e+01 2.24759430728606e-03 3.71304644228996e-05
2.29664285714286e+01 2.21094941342859e-03 3.66151625318985e-05
2.30792857142857e+01 2.17490197988233e-03 3.61065761526239e-05
2.31921428571429e+01 2.13944226546961e-03 3.56046283582968e-05
2.33050000000000e+01 2.10456068813899e-03 3.51092428529041e-05
2.34178571428571e+01 2.07024782176582e-03 3.46203439445491e-05
2.35307142857143e+01 2.03649439420289e-03 3.41378565391555e-05
2.36435714285714e+01 2.00329128418902e-03 3.36617061543363e-05
2.37564285714286e+01 1.97062951945829e-03 3.31918188791874e-05
2.38692857142857e+01 1.93850027388631e-03 3.27281215216980e-05
2.39821428571429e+01 1.90689486512057e-03 3.22705414011750e-05
2.40950000000000e+01 1.87580475262945e-03 3.18190064865730e-05
2.42078571428571e+01 1.84522153486846e-03 3.13734453711652e-05
2.43207142857143e+01 1.81513694752528e-03 3.09337872651088e-05
2.44335714285714e+01 1.78554286078143e-03 3.04999620057146e-05
2.45464285714286e+01 1.75643127761040e-03 3.00719000203691e-05
2.46592857142857e+01 1.72779433124649e-03 2.96495324539818e-05
2.47721428571429e+01 1.69962428307226e-03 2.92327909852328e-05
2.48850000000000e+01 1.67191352086830e-03 2.88216079461531e-05
2.49978571428571e+01 1.64465455630246e-03 2.84159162982341e-05
2.51107142857143e+01 1.61784002335108e-03 2.80156496242828e-05
2.52235714285714e+01 1.59146267587249e-03 2.76207421358216e-05
2.53364285714286e+01 1.56551538607627e-03 2.72311286390074e-05
2.54492857142857e+01 1.53999114227761e-03 2.68467446449071e-05
2.55621428571429e+01 1.51488304701388e-03 2.64675262068054e-05
2.56750000000000e+01 1.49018431547528e-03 2.60934100236507e-05
2.57878571428571e+01 1.46588827327952e-03 2.57243334176663e-05
2.59007142857143e+01 1.44198835505234e-03 2.53602343258179e-05
2.60135714285714e+01 1.41847810227683e-03 2.50010513049337e-05
2.61264285714286e+01 1.39535116191727e-03 2.46467235004672e-05
2.62392857142857e+01 1.37260128442641e-03 2.42971907419771e-05
2.63521428571429e+01 1.35022232206631e-03 2.39523933990583e-05
2.64650000000000e+01 1.32820822750173e-03 2.36122724708900e-05
2.65778571428571e+01 1.30655305182718e-03 2.32767695653623e-05
2.66907142857143e+01 1.28525094329146e-03 2.29458268903975e-05
2.68035714285714e+01 1.26429614539076e-03 2.26193872572721e-05
2.69164285714286e+01 1.24368299563234e-03 2.22973940520512e-05
2.70292857142857e+01 1.22340592376567e-03 2.19797913183080e-05
2.71421428571429e+01 1.20345945028551e-03 2.16665236295283e-05
2.72550000000000e+01 1.18383818517157e-03 2.13575361666715e-05
2.73678571428571e+01 1.16453682613876e-03 2.10527746987911e-05
2.74807142857143e+01 1.14555015749187e-03 2.07521855743948e-05
2.75935714285714e+01 1.12687304843425e-03 2.04557157233546e-05
2.77064285714286e+01 1.10850045195772e-03 2.01633126308373e-05
2.78192857142857e+01 1.09042740327206e-03 1.98749244090098e-05
2.79321428571429e+01 1.07264901847061e-03 1.95904996840082e-05
2.80450000000000e+01 1.05516049340128e-03 1.93099876631590e-05
2.81578571428571e+01 1.03795710211447e-03 1.90333381170479e-05
2.82707142857143e+01 1.02103419583493e-03 1.87605013710524e-05
2.83835714285714e+01 1.00438720146142e-03 1.84914283061541e-05
2.84964285714286e+01 9.88011620570306e-04 1.82260703351889e-05
2.86092857142857e+01 9.71903028020998e-04 1.79643794650333e-05
2.87221428571429e+01 9.56057070766290e-04 1.77063081964619e-05
2.88350000000000e+01 9.40469466841471e-04 1.74518095824305e-05
2.89478571428571e+01 9.25136003987138e-04 1.72008372115399e-05
2.90607142857143e+01 9.10052538726753e-04 1.69533451998375e-05
2.91735714285714e+01 8.95214995035302e-04 1.67092881907831e-05
2.92864285714286e+01 8.80619363445407e-04 1.64686213336424e-05
2.93992857142857e+01 8.66261699808670e-04 1.62313003374466e-05
2.95121428571429e+01 8.52138124235160e-04 1.59972813822513e-05
2.96250000000000e+01 8.38244820188450e-04 1.57665211696927e-05
2.97378571428571e+01 8.24578033263376e-04 1.55389769077771e-05
2.98507142857143e+01 8.11134070358719e-04 1.53146063030177e-05
2.99635714285714e+01 7.97909298495606e-04 1.50933675597592e-05
3.00764285714286e+01 7.84900144015866e-04 1.48752193605486e-05
3.01892857142857e+01 7.72103091481682e-04 1.46601209129744e-05
3.03021428571429e+01 7.59514682730200e-04 1.44480318710126e-05
3.04150000000000e+01 7.47131516063596e-04 1.42389123789007e-05
3.05278571428571e+01 7.34950245164122e-04 1.40327230571781e-05
3.06407142857143e+01 7.22967578352382e-04 1.38294249952030e-05
3.07535714285714e+01 7.11180277538401e-04 1.36289797499988e-05
3.08664285714286e+01 6.99585157502972e-04 1.34313493284420e-05
3.09792857142857e+01 6.88179084920011e-04 1.32364962279340e-05
3.10921428571429e+01 6.76958977513802e-04 1.30443833666787e-05
3.12050000000000e+01 6.65921803334271e-04 1.28549741217713e-05
3.13178571428571e+01 6.55064579793725e-04 1.26682323164097e-05
3.14307142857143e+01 6.44384373002068e-04 1.24841222128201e-05
3.15435714285714e+01 6.33878296835487e-04 1.23026085107562e-05
3.16564285714286e+01 6.23543512292389e-04 1.21236563313518e-05
3.17692857142857e+01 6.13377226624655e-04 1.19472312524515e-05
3.18821428571429e+01 6.03376692586379e-04 1.17732992467942e-05
3.19950000000000e+01 5.93539207785526e-04 1.16018267150874e-05
3.21078571428571e+01 5.83862113828555e-04 1.14327804743160e-05
3.22207142857143e+01 5.74342795724783e-04 1.12661277510877e-05
3.23335714285714e+01 5.64978681059338e-04 1.11018361798911e-05
3.24464285714286e+01 5.55767239416138e-04 1.09398737884705e-05
3.25592857142857e+01 5.46705981605785e-04 1.07802090285251e-05
3.26721428571429e+01 5.37792458995882e-04 1.06228107208940e-05
3.27850000000000e+01 5.29024262931133e-04 1.04676480842859e-05
3.28978571428571e+01 5.20399023973638e-04 1.03146907246050e-05
3.30107142857143e+01 5.11914411369361e-04 1.01639086287211e-05
3.31235714285714e+01 5.03568132313565e-04 1.00152721625692e-05
3.32364285714286e+01 4.95357931433977e-04 9.86875205791374e-06
3.33492857142857e+01 4.87281590104502e-04 9.72431943903231e-06
3.34621428571429e+01 4.79336925848253e-04 9.58194577409917e-06
3.35750000000000e+01 4.71521791818958e-04 9.44160290014889e-06
3.36878571428571e+01 4.63834076126130e-04 9.30326301334432e-06
3.38007142857143e+01 4.56271701357281e-04 9.16689866316659e-06
3.39135714285714e+01 4.48832623925392e-04 9.03248275042184e-06
3.40264285714286e+01 4.41514833606116e-04 8.89998851527220e-06
3.41392857142857e+01 4.34316352927688e-04 8.76938956043404e-06
3.42521428571429e+01 4.27235236638777e-04 8.64065980805332e-06
3.43650000000000e+01 4.20269571244805e-04 8.51377352140145e-06
3.44778571428571e+01 4.13417474408410e-04 8.38870529601344e-06
3.45907142857143e+01 4.06677094521687e-04 8.26543005428783e-06
3.47035714285714e+01 4.00046610126454e-04 8.14392304345157e-06
3.48164285714286e+01 3.93524229499931e-04 8.02415982474349e-06
3.49292857142857e+01 3.87108190112327e-04 7.90611629358760e-06
3.50421428571429e+01 3.80796758152486e-04 7.78976864133406e-06
3.51550000000000e+01 3.74588228113352e-04 7.67509337411864e-06
3.52678571428571e+01 3.68480922259262e-04 7.56206730480186e-06
3.53807142857143e+01 3.62473190243062e-04 7.45066754796500e-06
3.54935714285714e+01 3.56563408590968e-04 7.34087151787336e-06
3.56064285714286e+01 3.50749980331732e-04 7.23265691870687e-06
