Energy (eV)          EEDF (eV^-(3/2))     First Anisotropy
1.19696969696970e-02 3.24479696932398e-01 2.10621763290867e-04
3.59090909090909e-02 3.21101217469620e-01 3.47152829963557e-04
5.98484848484849e-02 3.17757914696646e-01 4.56579318053204e-04
8.37878787878788e-02 3.14449422362867e-01 5.38683064424724e-04
1.07727272727273e-01 3.11175378016833e-01 6.06312816320721e-04
1.31666666666667e-01 3.07935422981102e-01 6.64352282321575e-04
1.55606060606061e-01 3.04729202326243e-01 7.15341515993471e-04
1.79545454545455e-01 3.01556364810111e-01 7.60821907074432e-04
2.03484848484848e-01 2.98416562847734e-01 8.01820668288751e-04
2.27424242424242e-01 2.95309452487613e-01 8.39067278661924e-04
2.51363636363636e-01 2.92234693329185e-01 8.73104284569368e-04
2.75303030303030e-01 2.89191948532292e-01 9.04349674606379e-04
2.99242424242424e-01 2.86180884763893e-01 9.33134561517455e-04
3.23181818181818e-01 2.83201172161569e-01 9.59727217925511e-04
3.47121212121212e-01 2.80252484297396e-01 9.84349094108121e-04
3.71060606060606e-01 2.77334498142193e-01 1.00718588057083e-03
3.95000000000000e-01 2.74446894030137e-01 1.02839538004601e-03
4.18939393939394e-01 2.71589355623732e-01 1.04811325301829e-03
4.42878787878788e-01 2.68761569879184e-01 1.06645730373158e-03
4.66818181818182e-01 2.65963227012115e-01 1.08353073873691e-03
4.90757575757576e-01 2.63194020463613e-01 1.09942468595769e-03
5.14696969696970e-01 2.60453646866648e-01 1.11422017108127e-03
5.38636363636364e-01 2.57741806012837e-01 1.12798968877320e-03
5.62575757575758e-01 2.55058200819563e-01 1.14079846666237e-03
5.86515151515152e-01 2.52402537297424e-01 1.15270549264493e-03
6.10454545454545e-01 2.49774524522359e-01 1.16376436016086e-03
6.34393939393939e-01 2.47173874590551e-01 1.17402396626201e-03
6.58333333333333e-01 2.44600302600370e-01 1.18352909442495e-03
6.82272727272727e-01 2.42053526616576e-01 1.19232090719426e-03
7.06212121212121e-01 2.39533267639435e-01 1.20043736181623e-03
7.30151515151515e-01 2.37039249574149e-01 1.20791356504134e-03
7.54090909090909e-01 2.34571199200618e-01 1.21478207743682e-03
7.78030303030303e-01 2.32128846143504e-01 1.22107317583857e-03
8.01969696969697e-01 2.29711922842612e-01 1.22681508087054e-03
8.25909090909091e-01 2.27320164523573e-01 1.23203415513079e-03
8.49848484848485e-01 2.24953309168854e-01 1.23675507661270e-03
8.73787878787879e-01 2.22611097489044e-01 1.24100099110219e-03
8.97727272727273e-01 2.20293272894449e-01 1.24479364663195e-03
9.21666666666667e-01 2.17999581466986e-01 1.24815351255732e-03
9.45606060606061e-01 2.15729771932361e-01 1.25109988538857e-03
9.69545454545455e-01 2.13483595632545e-01 1.25365098317035e-03
9.93484848484849e-01 2.11260806498536e-01 1.25582403114185e-03
1.01742424242424e+00 2.09061161014633e-01 1.25763533259460e-03
1.04136363636364e+00 2.06884418226909e-01 1.25910034205992e-03
1.06530303030303e+00 2.04730339671912e-01 1.26023373205777e-03
1.08924242424242e+00 2.02598689350006e-01 1.26104943392017e-03
1.11318181818182e+00 2.00489233758279e-01 1.26156069943109e-03
1.13712121212121e+00 1.98401741786532e-01 1.26178014422426e-03
1.16106060606061e+00 1.96335984768363e-01 1.26171978642565e-03
1.18500000000000e+00 1.94291736399035e-01 1.26139109592972e-03
1.20893939393939e+00 1.92268772713728e-01 1.26080501316697e-03
1.23287878787879e+00 1.90266872113304e-01 1.25997198931636e-03
1.25681818181818e+00 1.88285815288606e-01 1.25890202327156e-03
1.28075757575758e+00 1.86325385199057e-01 1.25760467366902e-03
1.30469696969697e+00 1.84385367094477e-01 1.25608909374233e-03
1.32863636363636e+00 1.82465548430821e-01 1.25436405231407e-03
1.35257575757576e+00 1.80565718906203e-01 1.25243795248947e-03
1.37651515151515e+00 1.78685670393466e-01 1.25031886078265e-03
1.40045454545455e+00 1.76825196919557e-01 1.24801451180304e-03
1.42439393939394e+00 1.74984094682556e-01 1.24553233427467e-03
1.44833333333333e+00 1.73162161976576e-01 1.24287946501090e-03
1.47227272727273e+00 1.71359199221267e-01 1.24006276129859e-03
1.49621212121212e+00 1.69575008901320e-01 1.23708882320840e-03
1.52015151515152e+00 1.67809395546653e-01 1.23396399404663e-03
1.54409090909091e+00 1.66062165745628e-01 1.23069438058543e-03
1.56803030303030e+00 1.64333128077685e-01 1.22728586262475e-03
1.59196969696970e+00 1.62622093137573e-01 1.22374410139132e-03
1.61590909090909e+00 1.60928873480753e-01 1.22007455724935e-03
1.63984848484848e+00 1.59253283604407e-01 1.21628248767761e-03
1.66378787878788e+00 1.57595139957594e-01 1.21237296352239e-03
1.68772727272727e+00 1.55954260880488e-01 1.20835087568219e-03
1.71166666666667e+00 1.54330466624305e-01 1.20422094089739e-03
1.73560606060606e+00 1.52723579301800e-01 1.19998771622496e-03
1.75954545454545e+00 1.51133422869062e-01 1.19565559557592e-03
1.78348484848485e+00 1.49559823133225e-01 1.19122882311599e-03
1.80742424242424e+00 1.48002607697390e-01 1.18671149802023e-03
1.83136363636364e+00 1.46461605977019e-01 1.18210757850652e-03
1.85530303030303e+00 1.44936649154851e-01 1.17742089394228e-03
1.87924242424242e+00 1.43427570163492e-01 1.17265514056943e-03
1.90318181818182e+00 1.41934203691116e-01 1.16781389279011e-03
1.92712121212121e+00 1.40456386131359e-01 1.16290060659013e-03
1.95106060606061e+00 1.38993955596775e-01 1.15791862236279e-03
1.97500000000000e+00 1.37546751877631e-01 1.15287117522535e-03
1.99893939393939e+00 1.36114616425268e-01 1.14776139032034e-03
2.02287878787879e+00 1.34697392356175e-01 1.14259229113588e-03
2.04681818181818e+00 1.33294924413016e-01 1.13736680739651e-03
2.07075757575758e+00 1.31907058948448e-01 1.13208777028445e-03
2.09469696969697e+00 1.30533643928238e-01 1.12675792127638e-03
2.11863636363636e+00 1.29174528888048e-01 1.12137991420738e-03
2.14257575757576e+00 1.27829564943017e-01 1.11595631687453e-03
2.16651515151515e+00 1.26498604751939e-01 1.11048961922772e-03
2.19045454545455e+00 1.25181502501850e-01 1.10498222850688e-03
2.21439393939394e+00 1.23878113909958e-01 1.09943647697497e-03
2.23833333333333e+00 1.22588296183990e-01 1.09385462342152e-03
2.26227272727273e+00 1.21311908029966e-01 1.08823885426874e-03
2.28621212121212e+00 1.20048809619188e-01 1.08259129078534e-03
2.31015151515152e+00 1.18798862573567e-01 1.07691398425814e-03
2.33409090909091e+00 1.17561929966579e-01 1.07120892282741e-03
2.35803030303030e+00 1.16337876286791e-01 1.06547803257831e-03
2.38196969696970e+00 1.15126567444115e-01 1.05972317828467e-03
2.40590909090909e+00 1.13927870739318e-01 1.05394616981871e-03
2.42984848484849e+00 1.12741654850062e-01 1.04814875743229e-03
2.45378787878788e+00 1.11567789831055e-01 1.04233263784826e-03
2.47772727272727e+00 1.10406147080440e-01 1.03649945504599e-03
2.50166666666667e+00 1.09256599344750e-01 1.03065080073709e-03
2.52560606060606e+00 1.08119020690711e-01 1.02478822010441e-03
2.54954545454545e+00 1.06993286491943e-01 1.01891320723942e-03
2.57348484848485e+00 1.05879273428473e-01 1.01302721060521e-03
2.59742424242424e+00 1.04776859455682e-01 1.00713163359405e-03
2.62136363636364e+00 1.03685923808182e-01 1.00122783480446e-03
2.64530303030303e+00 1.02606346973678e-01 9.95317133210605e-04
2.66924242424242e+00 1.01538010680313e-01 9.89400803783346e-04
2.69318181818182e+00 1.00480797895654e-01 9.83480082417404e-04
2.71712121212121e+00 9.94345927979596e-02 9.77556166316466e-04
2.74106060606061e+00 9.83992807791388e-02 9.71630214122777e-04
2.76500000000000e+00 9.73747484204878e-02 9.65703350597045e-04
2.78893939393939e+00 9.63608834806486e-02 9.59776662437686e-04
2.81287878787879e+00 9.53575748941703e-02 9.53851201936411e-04
2.83681818181818e+00 9.43647127483377e-02 9.47927990479334e-04
2.86075757575758e+00 9.33821882714852e-02 9.42008014510020e-04
2.88469696969697e+00 9.24098938312987e-02 9.36092229731986e-04
2.90863636363636e+00 9.14477229094214e-02 9.30181561302753e-04
2.93257575757576e+00 9.04955701031655e-02 9.24276903809298e-04
2.95651515151515e+00 8.95533311039479e-02 9.18379125276959e-04
2.98045454545455e+00 8.86209026861840e-02 9.12489063335651e-04
3.00439393939394e+00 8.76981827052890e-02 9.06607529053455e-04
3.02833333333333e+00 8.67850700740906e-02 9.00735307043524e-04
3.05227272727273e+00 8.58814647639538e-02 8.94873155372182e-04
3.07621212121212e+00 8.49872677846890e-02 8.89021809222769e-04
3.10015151515152e+00 8.41023811739975e-02 8.83181977263707e-04
3.12409090909091e+00 8.32267079952370e-02 8.77354345156408e-04
3.14803030303030e+00 8.23601523154839e-02 8.71539575595342e-04
3.17196969696970e+00 8.15026192061638e-02 8.65738308166649e-04
3.19590909090909e+00 8.06540147243107e-02 8.59951162706144e-04
3.21984848484849e+00 7.98142459025388e-02 8.54178735864780e-04
3.24378787878788e+00 7.89832207466235e-02 8.48421604327126e-04
3.26772727272727e+00 7.81608482150767e-02 8.42680324800414e-04
3.29166666666667e+00 7.73470382193599e-02 8.36955433836515e-04
3.31560606060606e+00 7.65417016063888e-02 8.31247450918237e-04
3.33954545454545e+00 7.57447501490014e-02 8.25556875215821e-04
3.36348484848485e+00 7.49560965434032e-02 8.19884188545722e-04
3.38742424242424e+00 7.41756543901306e-02 8.14229855321525e-04
3.41136363636364e+00 7.34033381939124e-02 8.08594322349613e-04
3.43530303030303e+00 7.26390633473237e-02 8.02978021671826e-04
3.45924242424242e+00 7.18827461217259e-02 7.97381367505483e-04
3.48318181818182e+00 7.11343036646132e-02 7.91804758968904e-04
3.50712121212121e+00 7.03936539818536e-02 7.86248580003573e-04
3.53106060606061e+00 6.96607159372559e-02 7.80713199151660e-04
3.55500000000000e+00 6.89354092372838e-02 7.75198972178984e-04
3.57893939393939e+00 6.82176544224467e-02 7.69706239190604e-04
3.60287878787879e+00 6.75073728645784e-02 7.64235326639203e-04
3.62681818181818e+00 6.68044867521675e-02 7.58786549257733e-04
3.65075757575758e+00 6.61089190820089e-02 7.53360207286685e-04
3.67469696969697e+00 6.54205936564352e-02 7.47956588865277e-04
3.69863636363636e+00 6.47394350674247e-02 7.42575969923843e-04
3.72257575757576e+00 6.40653686957713e-02 7.37218613948518e-04
3.74651515151515e+00 6.33983206973469e-02 7.31884774286777e-04
3.77045454545455e+00 6.27382179951727e-02 7.26574691535553e-04
3.79439393939394e+00 6.20849882766219e-02 7.21288595754156e-04
3.81833333333333e+00 6.14385599785625e-02 7.16026706342625e-04
3.84227272727273e+00 6.07988622863500e-02 7.10789231802281e-04
3.86621212121212e+00 6.01658251209542e-02 7.05576371870867e-04
3.89015151515152e+00 5.95393791314295e-02 7.00388315063065e-04
3.91409090909091e+00 5.89194556921088e-02 6.95225240721050e-04
3.93803030303030e+00 5.83059868887043e-02 6.90087318882926e-04
3.96196969696970e+00 5.76989055171555e-02 6.84974710042227e-04
3.98590909090909e+00 5.70981450715588e-02 6.79887567127694e-04
4.00984848484848e+00 5.65036397370163e-02 6.74826033187853e-04
4.03378787878788e+00 5.59153243868390e-02 6.69790243293316e-04
4.05772727272727e+00 5.53331345695341e-02 6.64780324398698e-04
4.08166666666667e+00 5.47570065075367e-02 6.59796395103020e-04
4.10560606060606e+00 5.41868770858869e-02 6.54838567487838e-04
4.12954545454545e+00 5.36226838454369e-02 6.49906944938016e-04
4.15348484848485e+00 5.30643649800777e-02 6.45001623907795e-04
4.17742424242424e+00 5.25118593245491e-02 6.40122693778966e-04
4.20136363636364e+00 5.19651063530793e-02 6.35270236624102e-04
4.22530303030303e+00 5.14240461687577e-02 6.30444328914845e-04
4.24924242424242e+00 5.08886194970825e-02 6.25645039471053e-04
4.27318181818182e+00 5.03587676832221e-02 6.20872431101950e-04
4.29712121212121e+00 4.98344326805893e-02 6.16126560462555e-04
4.32106060606061e+00 4.93155570494104e-02 6.11407477821146e-04
4.34500000000000e+00 4.88020839467446e-02 6.06715228648307e-04
4.36893939393939e+00 4.82939571203566e-02 6.02049851686988e-04
4.39287878787879e+00 4.77911209060217e-02 5.97411380153912e-04
4.41681818181818e+00 4.72935202179212e-02 5.92799842899044e-04
4.44075757575758e+00 4.68011005427028e-02 5.88215262550413e-04
4.46469696969697e+00 4.63138079368056e-02 5.83657656972107e-04
4.48863636363636e+00 4.58315890161610e-02 5.79127039121976e-04
4.51257575757576e+00 4.53543909546716e-02 5.74623416829911e-04
4.53651515151515e+00 4.48821614751847e-02 5.70146794210930e-04
4.56045454545455e+00 4.44148488438525e-02 5.65697169919326e-04
4.58439393939394e+00 4.39524018675117e-02 5.61274538506959e-04
4.60833333333333e+00 4.34947698840181e-02 5.56878890281959e-04
4.63227272727273e+00 4.30419027606970e-02 5.52510211093584e-04
4.65621212121212e+00 4.25937508858557e-02 5.48168483649078e-04
4.68015151515152e+00 4.21502651634292e-02 5.43853685870680e-04
4.70409090909091e+00 4.17113970104201e-02 5.39565792161637e-04
4.72803030303030e+00 4.12770983478228e-02 5.35304773266968e-04
4.75196969696970e+00 4.08473215990581e-02 5.31070596065413e-04
4.77590909090909e+00 4.04220196819893e-02 5.26863224797181e-04
4.79984848484848e+00 4.00011460038389e-02 5.22682619517773e-04
4.82378787878788e+00 3.95846544586929e-02 5.18528737278846e-04
4.84772727272727e+00 3.91724994189755e-02 5.14401531991610e-04
4.87166666666667e+00 3.87646357338772e-02 5.10300954225937e-04
4.89560606060606e+00 3.83610187218428e-02 5.06226952356049e-04
4.91954545454545e+00 3.79616041657447e-02 5.02179471105307e-04
4.94348484848485e+00 3.75663483104553e-02 4.98158452648009e-04
4.96742424242424e+00 3.71752078548351e-02 4.94163836476188e-04
4.99136363636364e+00 3.67881399501633e-02 4.90195559205971e-04
5.01530303030303e+00 3.64051021930679e-02 4.86253555647265e-04
5.03924242424242e+00 3.60260526209416e-02 4.82337757434127e-04
5.06318181818182e+00 3.56509497095852e-02 4.78448094053279e-04
5.08712121212121e+00 3.52797523656756e-02 4.74584492714669e-04
5.11106060606061e+00 3.49124199252060e-02 4.70746878165135e-04
5.13500000000000e+00 3.45489121468291e-02 4.66935173687629e-04
5.15893939393939e+00 3.41891892075050e-02 4.63149299812104e-04
5.18287878787879e+00 3.38332117002163e-02 4.59389175064294e-04
5.20681818181818e+00 3.34809406275513e-02 4.55654716689663e-04
5.23075757575758e+00 3.31323373974856e-02 4.51945839413250e-04
5.25469696969697e+00 3.27873638211355e-02 4.48262456359682e-04
5.27863636363636e+00 3.24459821059366e-02 4.44604478930764e-04
5.30257575757576e+00 3.21081548541056e-02 4.40971816631919e-04
5.32651515151515e+00 3.17738450565956e-02 4.37364377966589e-04
5.35045454545455e+00 3.14430160890909e-02 4.33782069268756e-04
5.37439393939394e+00 3.11156317098338e-02 4.30224795563102e-04
5.39833333333333e+00 3.07916560532061e-02 4.26692460446443e-04
5.42227272727273e+00 3.04710536282152e-02 4.23184965921562e-04
5.44621212121212e+00 3.01537893127977e-02 4.19702213233589e-04
5.47015151515152e+00 2.98398283500176e-02 4.16244101770652e-04
5.49409090909091e+00 2.95291363459665e-02 4.12810529868438e-04
5.51803030303030e+00 2.92216792637216e-02 4.09401394695714e-04
5.54196969696970e+00 2.89174234218603e-02 4.06016592095307e-04
5.56590909090909e+00 2.86163354890911e-02 4.02656017366452e-04
5.58984848484848e+00 2.83183824806446e-02 3.99319564229666e-04
5.61378787878788e+00 2.80235317562459e-02 3.96007125579518e-04
5.63772727272727e+00 2.77317510144269e-02 3.92718593374274e-04
5.66166666666667e+00 2.74430082910714e-02 3.89453858483768e-04
5.68560606060606e+00 2.71572719543536e-02 3.86212811421660e-04
5.70954545454545e+00 2.68745107013118e-02 3.82995341370654e-04
5.73348484848485e+00 2.65946935558932e-02 3.79801336886885e-04
5.75742424242424e+00 2.63177898635974e-02 3.76630685793858e-04
5.78136363636364e+00 2.60437692900554e-02 3.73483275037000e-04
5.80530303030303e+00 2.57726018162561e-02 3.70358991369243e-04
5.82924242424243e+00 2.55042577352942e-02 3.67257720432992e-04
5.85318181818182e+00 2.52387076504860e-02 3.64179347419484e-04
5.87712121212121e+00 2.49759224703240e-02 3.61123756966935e-04
5.90106060606061e+00 2.47158734070910e-02 3.58090833021594e-04
5.92500000000000e+00 2.44585319723581e-02 3.55080459479868e-04
5.94893939393939e+00 2.42038699738970e-02 3.52092519323609e-04
5.97287878787879e+00 2.39518595138667e-02 3.49126895097813e-04
5.99681818181818e+00 2.37024729844693e-02 3.46183469373200e-04
6.02075757575758e+00 2.34556830649566e-02 3.43262123913714e-04
6.04469696969697e+00 2.32114627198564e-02 3.40362740268897e-04
6.06863636363636e+00 2.29697851943877e-02 3.37485199678989e-04
6.09257575757576e+00 2.27306240131313e-02 3.34629382946555e-04
6.11651515151515e+00 2.24939529759304e-02 3.31795171013598e-04
6.14045454545455e+00 2.22597461550498e-02 3.28982444177347e-04
6.16439393939394e+00 2.20279778934697e-02 3.26191082645299e-04
6.18833333333333e+00 2.17986228005647e-02 3.23420966444179e-04
6.21227272727273e+00 2.15716557508128e-02 3.20671975297623e-04
6.23621212121212e+00 2.13470518799269e-02 3.17943989167019e-04
6.26015151515152e+00 2.11247865821584e-02 3.15236887512566e-04
6.28409090909091e+00 2.09048355086572e-02 3.12550549813566e-04
6.30803030303030e+00 2.06871745633987e-02 3.09884855481179e-04
6.33196969696970e+00 2.04717799019314e-02 3.07239683741877e-04
6.35590909090909e+00 2.02586279277258e-02 3.04614914144411e-04
6.37984848484848e+00 2.00476952896148e-02 3.02010425863505e-04
6.40378787878788e+00 1.98389588802193e-02 2.99426098187697e-04
6.42772727272727e+00 1.96323958321065e-02 2.96861810435772e-04
6.45166666666667e+00 1.94279835165781e-02 2.94317441845717e-04
6.47560606060606e+00 1.92256995402229e-02 2.91792872050148e-04
6.49954545454545e+00 1.90255217424877e-02 2.89287980420133e-04
6.52348484848485e+00 1.88274281941653e-02 2.86802646522570e-04
6.54742424242424e+00 1.86313971937725e-02 2.84336750040307e-04
6.57136363636364e+00 1.84374072663765e-02 2.81890170666368e-04
6.59530303030303e+00 1.82454371603413e-02 2.79462788549874e-04
6.61924242424243e+00 1.80554658450207e-02 2.77054483677628e-04
6.64318181818182e+00 1.78674725093088e-02 2.74665136303066e-04
6.66712121212121e+00 1.76814365582228e-02 2.72294626869899e-04
6.69106060606061e+00 1.74973376117690e-02 2.69942835911413e-04
6.71500000000000e+00 1.73151555018707e-02 2.67609644468823e-04
6.73893939393939e+00 1.71348702701776e-02 2.65294933508376e-04
6.76287878787879e+00 1.69564621666769e-02 2.62998584230755e-04
6.78681818181818e+00 1.67799116467246e-02 2.60720478370980e-04
6.81075757575758e+00 1.66051993689238e-02 2.58460497636812e-04
6.83469696969697e+00 1.64323061937682e-02 2.56218524095264e-04
6.85863636363636e+00 1.62612131805301e-02 2.53994440101932e-04
6.88257575757576e+00 1.60919015861879e-02 2.51788128208230e-04
6.90651515151515e+00 1.59243528626220e-02 2.49599471538488e-04
6.93045454545455e+00 1.57585486546012e-02 2.47428353260539e-04
6.95439393939394e+00 1.55944707984827e-02 2.45274656948503e-04
6.97833333333333e+00 1.54321013192754e-02 2.43138266515213e-04
7.00227272727273e+00 1.52714224296055e-02 2.41019066124023e-04
7.02621212121212e+00 1.51124165270682e-02 2.38916940542755e-04
7.05015151515152e+00 1.49550661923159e-02 2.36831774644514e-04
7.07409090909091e+00 1.47993541878131e-02 2.34763453748246e-04
7.09803030303030e+00 1.46452634550647e-02 2.32711863554245e-04
7.12196969696970e+00 1.44927771136198e-02 2.30676890060253e-04
7.14590909090909e+00 1.43418784585690e-02 2.28658419893741e-04
7.16984848484848e+00 1.41925509587296e-02 2.26656339841239e-04
7.19378787878788e+00 1.40447782554547e-02 2.24670537168059e-04
7.21772727272727e+00 1.38985441600153e-02 2.22700899556736e-04
7.24166666666667e+00 1.37538326526422e-02 2.20747315027247e-04
7.26560606060606e+00 1.36106278801607e-02 2.18809672249048e-04
7.28954545454545e+00 1.34689141542682e-02 2.16887860097191e-04
7.31348484848485e+00 1.33286759503941e-02 2.14981767952542e-04
7.33742424242424e+00 1.31898979052289e-02 2.13091285643101e-04
7.36136363636364e+00 1.30525648158014e-02 2.11216303368098e-04
7.38530303030303e+00 1.29166616372442e-02 2.09356711991066e-04
7.40924242424243e+00 1.27821734811585e-02 2.07512402621237e-04
7.43318181818182e+00 1.26490856145235e-02 2.05683266895455e-04
7.45712121212121e+00 1.25173834573627e-02 2.03869196922231e-04
7.48106060606061e+00 1.23870525818573e-02 2.02070085209587e-04
7.50500000000000e+00 1.22580787102340e-02 2.00285824940366e-04
7.52893939393939e+00 1.21304477132127e-02 1.98516309577377e-04
7.55287878787879e+00 1.20041456089636e-02 1.96761433065940e-04
