Energy (eV)          EEDF (eV^-(3/2))     First Anisotropy
1.52439024390244e-02 1.63066816299557e-01 9.52324366793677e-05
4.57317073170732e-02 1.61699593549351e-01 1.57124793151252e-04
7.62195121951219e-02 1.60343834186625e-01 2.07075708239480e-04
1.06707317073171e-01 1.58999442099122e-01 2.44813382454385e-04
1.37195121951220e-01 1.57666321969718e-01 2.76113405054445e-04
1.67682926829268e-01 1.56344379305788e-01 3.03164318798092e-04
1.98170731707317e-01 1.55033520379955e-01 3.27101093885261e-04
2.28658536585366e-01 1.53733652261686e-01 3.48610518373634e-04
2.59146341463415e-01 1.52444682799508e-01 3.68149009541366e-04
2.89634146341463e-01 1.51166520614444e-01 3.86039804393042e-04
3.20121951219512e-01 1.49899075093727e-01 4.02522658863594e-04
3.50609756097561e-01 1.48642256384309e-01 4.17781795031644e-04
3.81097560975610e-01 1.47395975386480e-01 4.31962763899733e-04
4.11585365853659e-01 1.46160143750688e-01 4.45183191996857e-04
4.42073170731707e-01 1.44934673861665e-01 4.57539933817124e-04
4.72560975609756e-01 1.43719478842101e-01 4.69114006012816e-04
5.03048780487805e-01 1.42514472543093e-01 4.79974095888181e-04
5.33536585365854e-01 1.41319569538023e-01 4.90179118374974e-04
5.64024390243902e-01 1.40134685116532e-01 4.99780121544270e-04
5.94512195121951e-01 1.38959735278512e-01 5.08821733681797e-04
6.25000000000000e-01 1.37794636728144e-01 5.17343280487520e-04
6.55487804878049e-01 1.36639306869788e-01 5.25379661346323e-04
6.85975609756098e-01 1.35493663796646e-01 5.32962044250813e-04
7.16463414634146e-01 1.34357626290544e-01 5.40118424098094e-04
7.46951219512195e-01 1.33231113814269e-01 5.46874077059840e-04
7.77439024390244e-01 1.32114046505866e-01 5.53251932473200e-04
8.07926829268293e-01 1.31006345172970e-01 5.59272880696365e-04
8.38414634146341e-01 1.29907931287206e-01 5.64956029887883e-04
8.68902439024390e-01 1.28818726978612e-01 5.70318921625504e-04
8.99390243902439e-01 1.27738655031331e-01 5.75377713956727e-04
9.29878048780488e-01 1.26667638874452e-01 5.80147336541227e-04
9.60365853658537e-01 1.25605602580321e-01 5.84641623493568e-04
9.90853658536585e-01 1.24552470857895e-01 5.88873428431304e-04
1.02134146341463e+00 1.23508169048406e-01 5.92854724738614e-04
1.05182926829268e+00 1.22472623111997e-01 5.96596688817996e-04
1.08231707317073e+00 1.21445759645678e-01 6.00109779512482e-04
1.11280487804878e+00 1.20427505842197e-01 6.03403802096049e-04
1.14329268292683e+00 1.19417789523748e-01 6.06487966903530e-04
1.17378048780488e+00 1.18416539099361e-01 6.09370941272098e-04
1.20426829268293e+00 1.17423683596018e-01 6.12060895025705e-04
1.23475609756098e+00 1.16439152618665e-01 6.14565541574902e-04
1.26524390243902e+00 1.15462876379009e-01 6.16892172879839e-04
1.29573170731707e+00 1.14494785665371e-01 6.19047697105916e-04
1.32621951219512e+00 1.13534811839414e-01 6.21038660660908e-04
1.35670731707317e+00 1.12582886852778e-01 6.22871279386565e-04
1.38719512195122e+00 1.11638943213601e-01 6.24551461440169e-04
1.41768292682927e+00 1.10702914009534e-01 6.26084828685131e-04
1.44817073170732e+00 1.09774732876015e-01 6.27476736568757e-04
1.47865853658537e+00 1.08854334017765e-01 6.28732291762084e-04
1.50914634146341e+00 1.07941652178669e-01 6.29856368681988e-04
1.53963414634146e+00 1.07036622661891e-01 6.30853624162756e-04
1.57012195121951e+00 1.06139181301233e-01 6.31728511305928e-04
1.60060975609756e+00 1.05249264479979e-01 6.32485291778938e-04
1.63109756097561e+00 1.04366809103626e-01 6.33128047515948e-04
1.66158536585366e+00 1.03491752617564e-01 6.33660691101833e-04
1.69207317073171e+00 1.02624032981070e-01 6.34086975729141e-04
1.72256097560976e+00 1.01763588683922e-01 6.34410504023828e-04
1.75304878048780e+00 1.00910358721563e-01 6.34634736575081e-04
1.78353658536585e+00 1.00064282610734e-01 6.34762999483058e-04
1.81402439024390e+00 9.92253003657294e-02 6.34798491711761e-04
1.84451219512195e+00 9.83933525131179e-02 6.34744291580544e-04
1.87500000000000e+00 9.75683800690182e-02 6.34603363139387e-04
1.90548780487805e+00 9.67503245529760e-02 6.34378561781701e-04
1.93597560975610e+00 9.59391279661940e-02 6.34072639802123e-04
1.96646341463415e+00 9.51347328046247e-02 6.33688251273372e-04
1.99695121951220e+00 9.43370820380951e-02 6.33227956916090e-04
2.02743902439024e+00 9.35461191226698e-02 6.32694228355910e-04
2.05792682926829e+00 9.27617879806160e-02 6.32089452410900e-04
2.08841463414634e+00 9.19840330120868e-02 6.31415934823596e-04
2.11890243902439e+00 9.12127990758766e-02 6.30675904052542e-04
2.14939024390244e+00 9.04480315004706e-02 6.29871514557453e-04
2.17987804878049e+00 8.96896760655438e-02 6.29004850166431e-04
2.21036585365854e+00 8.89376790124191e-02 6.28077926978467e-04
2.24085365853659e+00 8.81919870262677e-02 6.27092696365954e-04
2.27134146341463e+00 8.74525472460138e-02 6.26051047548263e-04
2.30182926829268e+00 8.67193072471979e-02 6.24954810278986e-04
2.33231707317073e+00 8.59922150513632e-02 6.23805757135620e-04
2.36280487804878e+00 8.52712191095457e-02 6.22605605933225e-04
2.39329268292683e+00 8.45562683111746e-02 6.21356021767907e-04
2.42378048780488e+00 8.38473119681565e-02 6.20058619191994e-04
2.45426829268293e+00 8.31442998233195e-02 6.18714964043336e-04
2.48475609756098e+00 8.24471820350604e-02 6.17326575411879e-04
2.51524390243902e+00 8.17559091853604e-02 6.15894926689949e-04
2.54573170731707e+00 8.10704322676460e-02 6.14421449727756e-04
2.57621951219512e+00 8.03907026836615e-02 6.12907532771609e-04
2.60670731707317e+00 7.97166722478791e-02 6.11354524362752e-04
2.63719512195122e+00 7.90482931736230e-02 6.09763734258293e-04
2.66768292682927e+00 7.83855180799375e-02 6.08136434701895e-04
2.69817073170732e+00 7.77282999781712e-02 6.06473861834864e-04
2.72865853658537e+00 7.70765922785085e-02 6.04777216846761e-04
2.75914634146341e+00 7.64303487769932e-02 6.03047667267173e-04
2.78963414634146e+00 7.57895236617420e-02 6.01286348009988e-04
2.82012195121951e+00 7.51540715003876e-02 5.99494362558749e-04
2.85060975609756e+00 7.45239472459917e-02 5.97672783916305e-04
2.88109756097561e+00 7.38991062248888e-02 5.95822655694994e-04
2.91158536585366e+00 7.32795041423148e-02 5.93944992982058e-04
2.94207317073171e+00 7.26650970706340e-02 5.92040783344662e-04
2.97256097560976e+00 7.20558414546987e-02 5.90110987619746e-04
3.00304878048780e+00 7.14516941004429e-02 5.88156540842366e-04
3.03353658536585e+00 7.08526121799875e-02 5.86178352968241e-04
3.06402439024390e+00 7.02585532205844e-02 5.84177309732825e-04
3.09451219512195e+00 6.96694751094805e-02 5.82154273313311e-04
3.12500000000000e+00 6.90853360831986e-02 5.80110083125242e-04
3.15548780487805e+00 6.85060947321724e-02 5.78045556429945e-04
3.18597560975610e+00 6.79317099903497e-02 5.75961489074610e-04
3.21646341463415e+00 6.73621411396104e-02 5.73858656050491e-04
3.24695121951220e+00 6.67973477996798e-02 5.71737812181664e-04
3.27743902439024e+00 6.62372899323397e-02 5.69599692638762e-04
3.30792682926829e+00 6.56819278316393e-02 5.67445013581086e-04
3.33841463414634e+00 6.51312221279108e-02 5.65274472629971e-04
3.36890243902439e+00 6.45851337782656e-02 5.63088749468309e-04
3.39939024390244e+00 6.40436240704239e-02 5.60888506277469e-04
3.42987804878049e+00 6.35066546134854e-02 5.58674388297766e-04
3.46036585365854e+00 6.29741873415823e-02 5.56447024232310e-04
3.49085365853659e+00 6.24461845049144e-02 5.54207026771878e-04
3.52134146341463e+00 6.19226086732331e-02 5.51954992968428e-04
3.55182926829268e+00 6.14034227271310e-02 5.49691504727295e-04
3.58231707317073e+00 6.08885898613661e-02 5.47417129153129e-04
3.61280487804878e+00 6.03780735763962e-02 5.45132419012196e-04
3.64329268292683e+00 5.98718376815506e-02 5.42837913053103e-04
3.67378048780488e+00 5.93698462867999e-02 5.40534136441296e-04
3.70426829268293e+00 5.88720638057832e-02 5.38221601056810e-04
3.73475609756098e+00 5.83784549478053e-02 5.35900805903432e-04
3.76524390243902e+00 5.78889847207249e-02 5.33572237042529e-04
3.79573170731707e+00 5.74036184244414e-02 5.31236369352483e-04
3.82621951219512e+00 5.69223216485614e-02 5.28893664734684e-04
3.85670731707317e+00 5.64450602737077e-02 5.26544573800783e-04
3.88719512195122e+00 5.59718004641101e-02 5.24189535864932e-04
3.91768292682927e+00 5.55025086701175e-02 5.21828979175708e-04
3.94817073170732e+00 5.50371516209867e-02 5.19463321249427e-04
3.97865853658537e+00 5.45756963272801e-02 5.17092969086351e-04
4.00914634146341e+00 5.41181100738454e-02 5.14718319485816e-04
4.03963414634146e+00 5.36643604221042e-02 5.12339759247945e-04
4.07012195121951e+00 5.32144152032170e-02 5.09957665472155e-04
4.10060975609756e+00 5.27682425202670e-02 5.07572405745391e-04
4.13109756097561e+00 5.23258107416040e-02 5.05184338425073e-04
4.16158536585366e+00 5.18870885029284e-02 5.02793812814887e-04
4.19207317073171e+00 5.14520447008083e-02 5.00401169433272e-04
4.22256097560976e+00 5.10206484946684e-02 4.98006740177797e-04
4.25304878048780e+00 5.05928693004737e-02 4.95610848579905e-04
4.28353658536585e+00 5.01686767926283e-02 4.93213809958787e-04
4.31402439024390e+00 4.97480408978204e-02 4.90815931663495e-04
4.34451219512195e+00 4.93309317968347e-02 4.88417513216876e-04
4.37500000000000e+00 4.89173199185536e-02 4.86018846545901e-04
4.40548780487805e+00 4.85071759416871e-02 4.83620216116403e-04
4.43597560975610e+00 4.81004707889257e-02 4.81221899152357e-04
4.46646341463415e+00 4.76971756285903e-02 4.78824165762079e-04
4.49695121951220e+00 4.72972618689329e-02 4.76427279147069e-04
4.52743902439024e+00 4.69007011597103e-02 4.74031495720415e-04
4.55792682926829e+00 4.65074653866273e-02 4.71637065305769e-04
4.58841463414634e+00 4.61175266728378e-02 4.69244231248391e-04
4.61890243902439e+00 4.57308573735260e-02 4.66853230605010e-04
4.64939024390244e+00 4.53474300773384e-02 4.64464294247934e-04
4.67987804878049e+00 4.49672176010986e-02 4.62077647046313e-04
4.71036585365854e+00 4.45901929911730e-02 4.59693507963889e-04
4.74085365853659e+00 4.42163295183154e-02 4.57312090232049e-04
4.77134146341463e+00 4.38456006789693e-02 4.54933601441641e-04
4.80182926829268e+00 4.34779801902383e-02 4.52558243708390e-04
4.83231707317073e+00 4.31134419911277e-02 4.50186213759103e-04
4.86280487804878e+00 4.27519602376373e-02 4.47817703089837e-04
4.89329268292683e+00 4.23935093039445e-02 4.45452898046979e-04
4.92378048780488e+00 4.20380637776156e-02 4.43091979978485e-04
4.95426829268293e+00 4.16855984607339e-02 4.40735125310079e-04
4.98475609756098e+00 4.13360883652254e-02 4.38382505690164e-04
5.01524390243902e+00 4.09895087139341e-02 4.36034287851014e-04
5.04573170731707e+00 4.06458349367348e-02 4.33690634590769e-04
5.07621951219512e+00 4.03050426688495e-02 4.31351703581498e-04
5.10670731707317e+00 3.99671077511206e-02 4.29017648315823e-04
5.13719512195122e+00 3.96320062256345e-02 4.26688618016035e-04
5.16768292682927e+00 3.92997143366494e-02 4.24364757695945e-04
5.19817073170732e+00 3.89702085263219e-02 4.22046208285291e-04
5.22865853658537e+00 3.86434654355897e-02 4.19733106687929e-04
5.25914634146341e+00 3.83194618999988e-02 4.17425585901213e-04
5.28963414634146e+00 3.79981749505430e-02 4.15123775070850e-04
5.32012195121951e+00 3.76795818095879e-02 4.12827799605452e-04
5.35060975609756e+00 3.73636598916702e-02 4.10537781228019e-04
5.38109756097561e+00 3.70503867995161e-02 4.08253838086094e-04
5.41158536585366e+00 3.67397403248005e-02 4.05976084800240e-04
5.44207317073171e+00 3.64316984442584e-02 4.03704632569771e-04
5.47256097560976e+00 3.61262393204057e-02 4.01439589218415e-04
5.50304878048780e+00 3.58233412977401e-02 3.99181059295932e-04
5.53353658536585e+00 3.55229829034267e-02 3.96929144121107e-04
5.56402439024390e+00 3.52251428435846e-02 3.94683941879474e-04
5.59451219512195e+00 3.49298000039388e-02 3.92445547663777e-04
5.62500000000000e+00 3.46369334461914e-02 3.90214053567898e-04
5.65548780487805e+00 3.43465224086397e-02 3.87989548725019e-04
5.68597560975610e+00 3.40585463026311e-02 3.85772119397998e-04
5.71646341463415e+00 3.37729847131482e-02 3.83561849015214e-04
5.74695121951220e+00 3.34898173953443e-02 3.81358818257651e-04
5.77743902439024e+00 3.32090242750987e-02 3.79163105092587e-04
5.80792682926829e+00 3.29305854456297e-02 3.76974784857414e-04
5.83841463414634e+00 3.26544811680205e-02 3.74793930291406e-04
5.86890243902439e+00 3.23806918679089e-02 3.72620611616413e-04
5.89939024390244e+00 3.21091981359851e-02 3.70454896566697e-04
5.92987804878049e+00 3.18399807247554e-02 3.68296850466761e-04
5.96036585365854e+00 3.15730205490131e-02 3.66146536259457e-04
5.99085365853658e+00 3.13082986826744e-02 3.64004014580902e-04
6.02134146341463e+00 3.10457963592238e-02 3.61869343786888e-04
6.05182926829268e+00 3.07854949686203e-02 3.59742580025118e-04
6.08231707317073e+00 3.05273760577181e-02 3.57623777260140e-04
6.11280487804878e+00 3.02714213272414e-02 3.55512987342976e-04
6.14329268292683e+00 3.00176126321813e-02 3.53410260034455e-04
6.17378048780488e+00 2.97659319788377e-02 3.51315643072429e-04
6.20426829268293e+00 2.95163615251935e-02 3.49229182193753e-04
6.23475609756098e+00 2.92688835780213e-02 3.47150921199087e-04
6.26524390243902e+00 2.90234805932364e-02 3.45080901840225e-04
6.29573170731707e+00 2.87801351734499e-02 3.43019164417009e-04
6.32621951219512e+00 2.85388300667648e-02 3.40965746998577e-04
6.35670731707317e+00 2.82995481666903e-02 3.38920685999929e-04
6.38719512195122e+00 2.80622725094147e-02 3.36884016101364e-04
6.41768292682927e+00 2.78269862740976e-02 3.34855770266272e-04
6.44817073170732e+00 2.75936727802023e-02 3.32835979798293e-04
6.47865853658537e+00 2.73623154877689e-02 3.30824674357984e-04
6.50914634146341e+00 2.71328979948049e-02 3.28821882017944e-04
6.53963414634146e+00 2.69054040375409e-02 3.26827629278526e-04
6.57012195121951e+00 2.66798174878771e-02 3.24841941121083e-04
6.60060975609756e+00 2.64561223536229e-02 3.22864841022617e-04
6.63109756097561e+00 2.62343027759977e-02 3.20896351007328e-04
6.66158536585366e+00 2.60143430298543e-02 3.18936491660290e-04
6.69207317073171e+00 2.57962275212342e-02 3.16985282177228e-04
6.72256097560976e+00 2.55799407875746e-02 3.15042740377377e-04
6.75304878048780e+00 2.53654674953165e-02 3.13108882751567e-04
6.78353658536585e+00 2.51527924400972e-02 3.11183724474214e-04
6.81402439024390e+00 2.49419005444088e-02 3.09267279449866e-04
6.84451219512195e+00 2.47327768577769e-02 3.07359560324365e-04
6.87500000000000e+00 2.45254065544690e-02 3.05460578529842e-04
6.90548780487805e+00 2.43197749336596e-02 3.03570344295172e-04
6.93597560975610e+00 2.41158674171872e-02 3.01688866689492e-04
6.96646341463415e+00 2.39136695497067e-02 2.99816153631880e-04
6.99695121951220e+00 2.37131669964933e-02 2.97952211933472e-04
7.02743902439024e+00 2.35143455435829e-02 2.96097047306514e-04
7.05792682926829e+00 2.33171910956227e-02 2.94250664405105e-04
7.08841463414634e+00 2.31216896759990e-02 2.92413066833573e-04
7.11890243902439e+00 2.29278274247334e-02 2.90584257185870e-04
7.14939024390244e+00 2.27355905985994e-02 2.88764237053396e-04
7.17987804878049e+00 2.25449655690626e-02 2.86953007063153e-04
7.21036585365854e+00 2.23559388223864e-02 2.85150566884937e-04
7.24085365853658e+00 2.21684969576157e-02 2.83356915268252e-04
7.27134146341463e+00 2.19826266866718e-02 2.81572050049002e-04
7.30182926829268e+00 2.17983148323783e-02 2.79795968185233e-04
7.33231707317073e+00 2.16155483285463e-02 2.78028665763268e-04
7.36280487804878e+00 2.14343142180416e-02 2.76270138032344e-04
7.39329268292683e+00 2.12545996528597e-02 2.74520379410231e-04
7.42378048780488e+00 2.10763918922340e-02 2.72779383516800e-04
7.45426829268293e+00 2.08996783027014e-02 2.71047143179165e-04
7.48475609756098e+00 2.07244463562496e-02 2.69323650464177e-04
7.51524390243902e+00 2.05506836303745e-02 2.67608896596964e-04
7.54573170731707e+00 2.03783778064916e-02 2.65902872337911e-04
7.57621951219512e+00 2.02075166690787e-02 2.64205567470814e-04
7.60670731707317e+00 2.00380881054821e-02 2.62516971167388e-04
7.63719512195122e+00 1.98700801041632e-02 2.60837071926923e-04
7.66768292682927e+00 1.97034807547306e-02 2.59165857580075e-04
7.69817073170732e+00 1.95382782462225e-02 2.57503315317852e-04
7.72865853658537e+00 1.93744608671326e-02 2.55849431695072e-04
7.75914634146341e+00 1.92120170037269e-02 2.54204192658446e-04
7.78963414634146e+00 1.90509351400626e-02 2.52567583549664e-04
7.82012195121951e+00 1.88912038563402e-02 2.50939589132613e-04
7.85060975609756e+00 1.87328118289151e-02 2.49320193596120e-04
7.88109756097561e+00 1.85757478286835e-02 2.47709380580358e-04
7.91158536585366e+00 1.84200007210880e-02 2.46107133179283e-04
7.94207317073171e+00 1.82655594645361e-02 2.44513433966227e-04
7.97256097560976e+00 1.81124131104002e-02 2.42928264996010e-04
8.00304878048780e+00 1.79605508014680e-02 2.41351607829743e-04
8.03353658536585e+00 1.78099617719368e-02 2.39783443536710e-04
8.06402439024390e+00 1.76606353458957e-02 2.38223752718383e-04
8.09451219512195e+00 1.75125609373140e-02 2.36672515510019e-04
8.12500000000000e+00 1.73657280485545e-02 2.35129711603988e-04
8.15548780487805e+00 1.72201262703569e-02 2.33595320251079e-04
8.18597560975610e+00 1.70757452803807e-02 2.32069320283148e-04
8.21646341463415e+00 1.69325748431839e-02 2.30551690114161e-04
8.24695121951219e+00 1.67906048087958e-02 2.29042407762165e-04
8.27743902439024e+00 1.66498251126902e-02 2.27541450850120e-04
8.30792682926829e+00 1.65102257743875e-02 2.26048796627189e-04
8.33841463414634e+00 1.63717968974238e-02 2.24564421969376e-04
8.36890243902439e+00 1.62345286679801e-02 2.23088303400145e-04
8.39939024390244e+00 1.60984113548482e-02 2.21620417090887e-04
8.42987804878049e+00 1.59634353080869e-02 2.20160738880925e-04
8.46036585365854e+00 1.58295909589841e-02 2.18709244277721e-04
8.49085365853658e+00 1.56968688187399e-02 2.17265908476343e-04
8.52134146341463e+00 1.55652594784249e-02 2.15830706359504e-04
8.55182926829268e+00 1.54347536076897e-02 2.14403612516418e-04
8.58231707317073e+00 1.53053419547194e-02 2.12984601242672e-04
8.61280487804878e+00 1.51770153449692e-02 2.11573646558516e-04
8.64329268292683e+00 1.50497646811150e-02 2.10170722208556e-04
8.67378048780488e+00 1.49235809418149e-02 2.08775801679537e-04
8.70426829268293e+00 1.47984551816561e-02 2.07388858199888e-04
8.73475609756098e+00 1.46743785299411e-02 2.06009864756944e-04
8.76524390243902e+00 1.45513421906318e-02 2.04638794039838e-04
8.79573170731707e+00 1.44293374412968e-02 2.03275618682768e-04
8.82621951219512e+00 1.43083556325025e-02 2.01920310925802e-04
8.85670731707317e+00 1.41883881876082e-02 2.00572842850262e-04
8.88719512195122e+00 1.40694266016142e-02 1.99233186335490e-04
8.91768292682927e+00 1.39514624410966e-02 1.97901313057981e-04
8.94817073170732e+00 1.38344873430779e-02 1.96577194506861e-04
8.97865853658537e+00 1.37184930149594e-02 1.95260801982869e-04
9.00914634146342e+00 1.36034712334142e-02 1.93952106613392e-04
9.03963414634146e+00 1.34894138443173e-02 1.92651079351352e-04
9.07012195121951e+00 1.33763127616603e-02 1.91357690989774e-04
9.10060975609756e+00 1.32641599674796e-02 1.90071912160570e-04
9.13109756097561e+00 1.31529475107925e-02 1.88793713348713e-04
9.16158536585366e+00 1.30426675075231e-02 1.87523064890895e-04
9.19207317073171e+00 1.29333121394592e-02 1.86259936989273e-04
9.22256097560976e+00 1.28248736541771e-02 1.85004299710043e-04
9.25304878048780e+00 1.27173443640184e-02 1.83756122996812e-04
9.28353658536585e+00 1.26107166460128e-02 1.82515376669068e-04
9.31402439024390e+00 1.25049829408757e-02 1.81282030435142e-04
9.34451219512195e+00 1.24001357529287e-02 1.80056053890615e-04
9.37500000000000e+00 1.22961676491170e-02 1.78837416530898e-04
9.40548780487805e+00 1.21930712589288e-02 1.77626087749566e-04
9.43597560975610e+00 1.20908392734311e-02 1.76422036850584e-04
9.46646341463415e+00 1.19894644451886e-02 1.75225233046547e-04
9.49695121951219e+00 1.18889395873177e-02 1.74035645470536e-04
9.52743902439024e+00 1.17892575734040e-02 1.72853243174323e-04
9.55792682926829e+00 1.16904113365753e-02 1.71677995139893e-04
9.58841463414634e+00 1.15923938694175e-02 1.70509870277541e-04
9.61890243902439e+00 1.14951982230658e-02 1.69348837437101e-04
