Energy (eV)          EEDF (eV^-(3/2))     First Anisotropy
2.35714285714286e-02 4.21798945429685e-01 4.16913186605233e-04
7.07142857142857e-02 4.11520591076034e-01 6.82348146572603e-04
1.17857142857143e-01 4.01492698621624e-01 8.84775722980423e-04
1.65000000000000e-01 3.91709164869536e-01 1.02915773270654e-03
2.12142857142857e-01 3.82164035236389e-01 1.14202871681544e-03
2.59285714285714e-01 3.72851500377110e-01 1.23370226899216e-03
3.06428571428571e-01 3.63765892440285e-01 1.30965534383221e-03
3.53571428571429e-01 3.54901681690706e-01 1.37327734090167e-03
4.00714285714286e-01 3.46253473141741e-01 1.42686915186694e-03
4.47857142857143e-01 3.37816003272721e-01 1.47209332750594e-03
4.95000000000000e-01 3.29584136824129e-01 1.51020649996276e-03
5.42142857142857e-01 3.21552863657050e-01 1.54219133626078e-03
5.89285714285714e-01 3.13717295751100e-01 1.56883692996711e-03
6.36428571428571e-01 3.06072664179564e-01 1.59079052954493e-03
6.83571428571429e-01 2.98614316224584e-01 1.60859230803136e-03
7.30714285714286e-01 2.91337712545214e-01 1.62269959251774e-03
7.77857142857143e-01 2.84238424414964e-01 1.63350426095286e-03
8.25000000000000e-01 2.77312131026149e-01 1.64134555684260e-03
8.72142857142857e-01 2.70554616852394e-01 1.64651973638360e-03
9.19285714285714e-01 2.63961769106994e-01 1.64928747475662e-03
9.66428571428572e-01 2.57529575214765e-01 1.64987964720610e-03
1.01357142857143e+00 2.51254120378578e-01 1.64850190805217e-03
1.06071428571429e+00 2.45131585178848e-01 1.64533836187805e-03
1.10785714285714e+00 2.39158243341541e-01 1.64055456198609e-03
1.15500000000000e+00 2.33330459283150e-01 1.63429995941623e-03
1.20214285714286e+00 2.27644686067782e-01 1.62670992909535e-03
1.24928571428571e+00 2.22097463190808e-01 1.61790748170213e-03
1.29642857142857e+00 2.16685414515014e-01 1.60800470605010e-03
1.34357142857143e+00 2.11405246086532e-01 1.59710398459186e-03
1.39071428571429e+00 2.06253744261485e-01 1.58529902984031e-03
1.43785714285714e+00 2.01227773741016e-01 1.57267580294041e-03
1.48500000000000e+00 1.96324275555728e-01 1.55931328550998e-03
1.53214285714286e+00 1.91540265312890e-01 1.54528415386233e-03
1.57928571428571e+00 1.86872831343096e-01 1.53065538069790e-03
1.62642857142857e+00 1.82319132956288e-01 1.51548876290820e-03
1.67357142857143e+00 1.77876398626899e-01 1.49984137985580e-03
1.72071428571429e+00 1.73541924394392e-01 1.48376599715203e-03
1.76785714285714e+00 1.69313072212044e-01 1.46731144585058e-03
1.81500000000000e+00 1.65187268268373e-01 1.45052294290210e-03
1.86214285714286e+00 1.61162001494772e-01 1.43344238006961e-03
1.90928571428571e+00 1.57234822012070e-01 1.41610859250894e-03
1.95642857142857e+00 1.53403339659047e-01 1.39855759990863e-03
2.00357142857143e+00 1.49665222477952e-01 1.38082281840509e-03
2.05071428571429e+00 1.46018195355968e-01 1.36293525073482e-03
2.09785714285714e+00 1.42460038636921e-01 1.34492367426730e-03
2.14500000000000e+00 1.38988586718807e-01 1.32681479802000e-03
2.19214285714286e+00 1.35601726788094e-01 1.30863340734300e-03
2.23928571428571e+00 1.32297397516057e-01 1.29040250307150e-03
2.28642857142857e+00 1.29073587818243e-01 1.27214342819795e-03
2.33357142857143e+00 1.25928335587611e-01 1.25387597934503e-03
2.38071428571429e+00 1.22859726543913e-01 1.23561850777380e-03
2.42785714285714e+00 1.19865893066148e-01 1.21738802430714e-03
2.47500000000000e+00 1.16945013018536e-01 1.19920028490944e-03
2.52214285714286e+00 1.14095308679461e-01 1.18106987083739e-03
2.56928571428571e+00 1.11315045646631e-01 1.16301026811643e-03
2.61642857142857e+00 1.08602531791782e-01 1.14503394047347e-03
2.66357142857143e+00 1.05956116199373e-01 1.12715239315357e-03
2.71071428571429e+00 1.03374188193743e-01 1.10937623099578e-03
2.75785714285714e+00 1.00855176357072e-01 1.09171522177359e-03
2.80500000000000e+00 9.83975475453757e-02 1.07417834624170e-03
2.85214285714286e+00 9.59998059834394e-02 1.05677384561683e-03
2.89928571428571e+00 9.36604923449374e-02 1.03950927004284e-03
2.94642857142857e+00 9.13781828719292e-02 1.02239152325621e-03
2.99357142857143e+00 8.91514884848967e-02 1.00542690124538e-03
3.04071428571429e+00 8.69790539611276e-02 9.88621127447759e-04
3.08785714285714e+00 8.48595571086335e-02 9.71979393092427e-04
3.13500000000000e+00 8.27917079407300e-02 9.55506387868592e-04
3.18214285714286e+00 8.07742479119505e-02 9.39206329340967e-04
3.22928571428571e+00 7.88059491449319e-02 9.23082993851165e-04
3.27642857142857e+00 7.68856136888949e-02 9.07139745043544e-04
3.32357142857143e+00 7.50120727728477e-02 8.91379558181664e-04
3.37071428571429e+00 7.31841861122267e-02 8.75805042229007e-04
3.41785714285714e+00 7.14008412139638e-02 8.60418466510806e-04
3.46500000000000e+00 6.96609526836820e-02 8.45221780085334e-04
3.51214285714286e+00 6.79634615810628e-02 8.30216630507516e-04
3.55928571428571e+00 6.63073347699343e-02 8.15404384136923e-04
3.60642857142857e+00 6.46915642939050e-02 8.00786144878186e-04
3.65357142857143e+00 6.31151667493897e-02 7.86362769847532e-04
3.70071428571429e+00 6.15771827008133e-02 7.72134883522207e-04
3.74785714285714e+00 6.00766760959816e-02 7.58102895815299e-04
3.79500000000000e+00 5.86127336843334e-02 7.44267014532336e-04
3.84214285714286e+00 5.71844644733504e-02 7.30627257552249e-04
3.88928571428571e+00 5.57909991821271e-02 7.17183466442687e-04
3.93642857142857e+00 5.44314897157124e-02 7.03935318998942e-04
3.98357142857143e+00 5.31051086385393e-02 6.90882339474698e-04
4.03071428571429e+00 5.18110486813961e-02 6.78023907745299e-04
4.07785714285714e+00 5.05485222495781e-02 6.65359271774108e-04
4.12500000000000e+00 4.93167609342345e-02 6.52887555684024e-04
4.17214285714286e+00 4.81150150541490e-02 6.40607767728491e-04
4.21928571428571e+00 4.69425531962594e-02 6.28518809531022e-04
4.26642857142857e+00 4.57986617731442e-02 6.16619484563491e-04
4.31357142857143e+00 4.46826445806510e-02 6.04908504857131e-04
4.36071428571429e+00 4.35938223823662e-02 5.93384496941989e-04
4.40785714285714e+00 4.25315324958139e-02 5.82046010540277e-04
4.45500000000000e+00 4.14951283818962e-02 5.70891523785522e-04
4.50214285714286e+00 4.04839792587450e-02 5.59919448433870e-04
4.54928571428571e+00 3.94974697153197e-02 5.49128136169602e-04
4.59642857142857e+00 3.85349993389148e-02 5.38515884360245e-04
4.64357142857143e+00 3.75959823434411e-02 5.28080940439443e-04
4.69071428571429e+00 3.66798472192971e-02 5.17821505720846e-04
4.73785714285714e+00 3.57860363852267e-02 5.07735741497007e-04
4.78500000000000e+00 3.49140058433010e-02 4.97821772370597e-04
4.83214285714286e+00 3.40632248535792e-02 4.88077689625550e-04
4.87928571428571e+00 3.32331756091364e-02 4.78501555529068e-04
4.92642857142857e+00 3.24233529225317e-02 4.69091407228901e-04
4.97357142857143e+00 3.16332639134018e-02 4.59845259574109e-04
5.02071428571429e+00 3.08624277134991e-02 4.50761107509765e-04
5.06785714285714e+00 3.01103751737845e-02 4.41836930362800e-04
5.11500000000000e+00 2.93766485744422e-02 4.33070693910178e-04
5.16214285714286e+00 2.86608013508215e-02 4.24460352509801e-04
5.20928571428571e+00 2.79623978201131e-02 4.16003852016904e-04
5.25642857142857e+00 2.72810129174568e-02 4.07699132398973e-04
5.30357142857143e+00 2.66162319333460e-02 3.99544129499466e-04
5.35071428571429e+00 2.59676502651793e-02 3.91536776478776e-04
5.39785714285714e+00 2.53348731708231e-02 3.83675006818506e-04
5.44500000000000e+00 2.47175155248484e-02 3.75956755540584e-04
5.49214285714286e+00 2.41152015877043e-02 3.68379960498032e-04
5.53928571428571e+00 2.35275647758225e-02 3.60942564325207e-04
5.58642857142857e+00 2.29542474395144e-02 3.53642516161230e-04
5.63357142857143e+00 2.23949006422187e-02 3.46477772696314e-04
5.68071428571429e+00 2.18491839512580e-02 3.39446298971378e-04
5.72785714285714e+00 2.13167652304973e-02 3.32546070469325e-04
5.77500000000000e+00 2.07973204354138e-02 3.25775073764075e-04
5.82214285714286e+00 2.02905334187039e-02 3.19131307242368e-04
5.86928571428571e+00 1.97960957369094e-02 3.12612782377548e-04
5.91642857142857e+00 1.93137064634916e-02 3.06217524831418e-04
5.96357142857143e+00 1.88430720032362e-02 2.99943575014841e-04
6.01071428571429e+00 1.83839059160479e-02 2.93788988458433e-04
6.05785714285714e+00 1.79359287425009e-02 2.87751837250433e-04
6.10500000000000e+00 1.74988678315390e-02 2.81830210305899e-04
6.15214285714286e+00 1.70724571767832e-02 2.76022213705580e-04
6.19928571428571e+00 1.66564372538709e-02 2.70325971495903e-04
6.24642857142857e+00 1.62505548631405e-02 2.64739626357840e-04
6.29357142857143e+00 1.58545629735816e-02 2.59261339841473e-04
6.34071428571429e+00 1.54682205744637e-02 2.53889292453507e-04
6.38785714285714e+00 1.50912925285609e-02 2.48621684626757e-04
6.43500000000000e+00 1.47235494272755e-02 2.43456736740223e-04
6.48214285714286e+00 1.43647674528083e-02 2.38392689203619e-04
6.52928571428571e+00 1.40147282413297e-02 2.33427802926681e-04
6.57642857142857e+00 1.36732187505872e-02 2.28560359688034e-04
6.62357142857143e+00 1.33400311286877e-02 2.23788662154419e-04
6.67071428571429e+00 1.30149625891740e-02 2.19111033785571e-04
6.71785714285714e+00 1.26978152875322e-02 2.14525819468293e-04
6.76500000000000e+00 1.23883961993660e-02 2.10031385377597e-04
6.81214285714286e+00 1.20865170043528e-02 2.05626118896172e-04
6.85928571428571e+00 1.17919939711402e-02 2.01308428854724e-04
6.90642857142857e+00 1.15046478459312e-02 1.97076745695082e-04
6.95357142857143e+00 1.12243037421398e-02 1.92929521351103e-04
7.00071428571429e+00 1.09507910352169e-02 1.88865229040339e-04
7.04785714285714e+00 1.06839432587468e-02 1.84882363658853e-04
7.09500000000000e+00 1.04235980019987e-02 1.80979441545640e-04
7.14214285714286e+00 1.01695968122309e-02 1.77155000299073e-04
7.18928571428571e+00 9.92178509786160e-03 1.73407598860771e-04
7.23642857142857e+00 9.68001203470900e-03 1.69735817539988e-04
7.28357142857143e+00 9.44413047319554e-03 1.66138257809678e-04
7.33071428571429e+00 9.21399684980546e-03 1.62613542032747e-04
7.37785714285714e+00 8.98947109966271e-03 1.59160313687457e-04
7.42500000000000e+00 8.77041657037405e-03 1.55777237077851e-04
7.47214285714286e+00 8.55669993978372e-03 1.52462997090080e-04
7.51928571428572e+00 8.34819113451663e-03 1.49216299171643e-04
7.56642857142857e+00 8.14476325107615e-03 1.46035869264664e-04
7.61357142857143e+00 7.94629247780309e-03 1.42920453554117e-04
7.66071428571429e+00 7.75265802033831e-03 1.39868818161308e-04
7.70785714285714e+00 7.56374202806776e-03 1.36879749250683e-04
7.75500000000000e+00 7.37942952166296e-03 1.33952052715349e-04
7.80214285714286e+00 7.19960832384627e-03 1.31084553902774e-04
7.84928571428572e+00 7.02416899086453e-03 1.28276097526278e-04
7.89642857142857e+00 6.85300474609135e-03 1.25525547540996e-04
7.94357142857143e+00 6.68601141439186e-03 1.22831786869602e-04
7.99071428571429e+00 6.52308735937806e-03 1.20193717085045e-04
8.03785714285714e+00 6.36413342152101e-03 1.17610258435705e-04
8.08500000000000e+00 6.20905285720894e-03 1.15080349525488e-04
8.13214285714286e+00 6.05775128046717e-03 1.12602947028899e-04
8.17928571428572e+00 5.91013660530890e-03 1.10177025560966e-04
8.22642857142857e+00 5.76611898986087e-03 1.07801577519710e-04
8.27357142857143e+00 5.62561078115989e-03 1.05475612806437e-04
8.32071428571429e+00 5.48852646233712e-03 1.03198158512240e-04
8.36785714285714e+00 5.35478260054679e-03 1.00968258888341e-04
8.41500000000000e+00 5.22429779570930e-03 9.87849750334910e-05
8.46214285714286e+00 5.09699263145446e-03 9.66473846116802e-05
8.50928571428572e+00 4.97278962662210e-03 9.45545816989271e-05
8.55642857142857e+00 4.85161318824387e-03 9.25056766088526e-05
8.60357142857143e+00 4.73338956511211e-03 9.04997956187920e-05
8.65071428571429e+00 4.61804680332333e-03 8.85360806693031e-05
8.69785714285714e+00 4.50551470246622e-03 8.66136892990993e-05
8.74500000000000e+00 4.39572477250952e-03 8.47317943477271e-05
8.79214285714286e+00 4.28861019250999e-03 8.28895836844110e-05
8.83928571428572e+00 4.18410576981033e-03 8.10862600445434e-05
8.88642857142857e+00 4.08214790047372e-03 7.93210408497825e-05
8.93357142857143e+00 3.98267453022996e-03 7.75931579470721e-05
8.98071428571429e+00 3.88562511705617e-03 7.59018573267205e-05
9.02785714285714e+00 3.79094059431411e-03 7.42463990358459e-05
9.07500000000000e+00 3.69856333448754e-03 7.26260569009970e-05
9.12214285714286e+00 3.60843711442695e-03 7.10401182733054e-05
9.16928571428572e+00 3.52050708102281e-03 6.94878838634226e-05
9.21642857142857e+00 3.43471971791182e-03 6.79686675637980e-05
9.26357142857143e+00 3.35102281262729e-03 6.64817962048185e-05
9.31071428571429e+00 3.26936542510407e-03 6.50266092944600e-05
9.35785714285714e+00 3.18969785666275e-03 6.36024589201294e-05
9.40500000000000e+00 3.11197161950759e-03 6.22087094935968e-05
9.45214285714286e+00 3.03613940747399e-03 6.08447375152915e-05
9.49928571428572e+00 2.96215506714916e-03 5.95099314134951e-05
9.54642857142857e+00 2.88997356985605e-03 5.82036913737832e-05
9.59357142857143e+00 2.81955098402185e-03 5.69254291144634e-05
9.64071428571429e+00 2.75084444866978e-03 5.56745676490293e-05
9.68785714285714e+00 2.68381214732275e-03 5.44505411833323e-05
9.73500000000000e+00 2.61841328234624e-03 5.32527948836351e-05
9.78214285714286e+00 2.55460805032781e-03 5.20807846612644e-05
9.82928571428572e+00 2.49235761778050e-03 5.09339770197666e-05
9.87642857142857e+00 2.43162409756807e-03 4.98118488945690e-05
9.92357142857143e+00 2.37237052566222e-03 4.87138874485078e-05
9.97071428571429e+00 2.31456083883204e-03 4.76395898571376e-05
1.00178571428571e+01 2.25815985268691e-03 4.65884632383142e-05
1.00650000000000e+01 2.20313323993364e-03 4.55600242817636e-05
1.01121428571429e+01 2.14944751045673e-03 4.45537993526192e-05
1.01592857142857e+01 2.09706998922653e-03 4.35693241162646e-05
1.02064285714286e+01 2.04596879845668e-03 4.26061434217228e-05
1.02535714285714e+01 1.99611283616476e-03 4.16638112644055e-05
1.03007142857143e+01 1.94747175875873e-03 4.07418902029263e-05
1.03478571428571e+01 1.90001596250611e-03 3.98399518014996e-05
1.03950000000000e+01 1.85371656414413e-03 3.89575760892628e-05
1.04421428571429e+01 1.80854538511860e-03 3.80943514714186e-05
1.04892857142857e+01 1.76447493266984e-03 3.72498746156463e-05
1.05364285714286e+01 1.72147838481129e-03 3.64237502630876e-05
1.05835714285714e+01 1.67952957234443e-03 3.56155911947421e-05
1.06307142857143e+01 1.63860296416696e-03 3.48250177363845e-05
1.06778571428571e+01 1.59867365168274e-03 3.40516581131040e-05
1.07250000000000e+01 1.55971733252306e-03 3.32951479900021e-05
1.07721428571429e+01 1.52171029723776e-03 3.25551303874659e-05
1.08192857142857e+01 1.48462941342678e-03 3.18312555761538e-05
1.08664285714286e+01 1.44845211305692e-03 3.11231809099145e-05
1.09135714285714e+01 1.41315637737186e-03 3.04305707876441e-05
1.09607142857143e+01 1.37872072449881e-03 2.97530962331425e-05
1.10078571428571e+01 1.34512419633244e-03 2.90904351791635e-05
1.10550000000000e+01 1.31234634486634e-03 2.84422720773922e-05
1.11021428571429e+01 1.28036722095739e-03 2.78082978191005e-05
1.11492857142857e+01 1.24916736101028e-03 2.71882096391553e-05
1.11964285714286e+01 1.21872777627089e-03 2.65817109689205e-05
1.12435714285714e+01 1.18902994016327e-03 2.59885113961852e-05
1.12907142857143e+01 1.16005577783690e-03 2.54083263087259e-05
1.13378571428571e+01 1.13178765513188e-03 2.48408771217930e-05
1.13850000000000e+01 1.10420836710071e-03 2.42858909470353e-05
1.14321428571429e+01 1.07730112852493e-03 2.37431005192074e-05
1.14792857142857e+01 1.05104956274017e-03 2.32122441092209e-05
1.15264285714286e+01 1.02543769259984e-03 2.26930653950884e-05
1.15735714285714e+01 1.00044992984728e-03 2.21853134217375e-05
1.16207142857143e+01 9.76071066300964e-04 2.16887422987087e-05
1.16678571428571e+01 9.52286264570633e-04 2.12031113822487e-05
1.17150000000000e+01 9.29081048417402e-04 2.07281849943569e-05
1.17621428571429e+01 9.06441294750852e-04 2.02637323558182e-05
1.18092857142857e+01 8.84353224249206e-04 1.98095275080233e-05
1.18564285714286e+01 8.62803393734185e-04 1.93653492000801e-05
1.19035714285714e+01 8.41778687250000e-04 1.89309808497539e-05
1.19507142857143e+01 8.21266308630775e-04 1.85062102871367e-05
1.19978571428571e+01 8.01253773689798e-04 1.80908299003199e-05
1.20450000000000e+01 7.81728902122714e-04 1.76846363970383e-05
1.20921428571429e+01 7.62679810755100e-04 1.72874307440152e-05
1.21392857142857e+01 7.44094905668416e-04 1.68990180970982e-05
1.21864285714286e+01 7.25962875766693e-04 1.65192077027717e-05
1.22335714285714e+01 7.08272685287316e-04 1.61478128610247e-05
1.22807142857143e+01 6.91013567534699e-04 1.57846507080505e-05
1.23278571428571e+01 6.74175018308855e-04 1.54295423326972e-05
1.23750000000000e+01 6.57746789104041e-04 1.50823125743010e-05
1.24221428571429e+01 6.41718881412333e-04 1.47427899681406e-05
1.24692857142857e+01 6.26081540112832e-04 1.44108066833292e-05
1.25164285714286e+01 6.10825248044727e-04 1.40861984370866e-05
1.25635714285714e+01 5.95940719719347e-04 1.37688044600226e-05
1.26107142857143e+01 5.81418896037668e-04 1.34584673119604e-05
1.26578571428571e+01 5.67250938761544e-04 1.31550329749477e-05
1.27050000000000e+01 5.53428224800046e-04 1.28583506818232e-05
1.27521428571429e+01 5.39942341404588e-04 1.25682728674587e-05
1.27992857142857e+01 5.26785080618109e-04 1.22846551137887e-05
1.28464285714286e+01 5.13948434697725e-04 1.20073560753421e-05
1.28935714285714e+01 5.01424590834802e-04 1.17362374471989e-05
1.29407142857143e+01 4.89205926702287e-04 1.14711638089170e-05
1.29878571428571e+01 4.77285005803134e-04 1.12120026987480e-05
1.30350000000000e+01 4.65654572670026e-04 1.09586244682952e-05
1.30821428571429e+01 4.54307548813041e-04 1.07109022391498e-05
1.31292857142857e+01 4.43237028058390e-04 1.04687118544225e-05
1.31764285714286e+01 4.32436272688144e-04 1.02319318141747e-05
1.32235714285714e+01 4.21898709006302e-04 1.00004432461426e-05
1.32707142857143e+01 4.11617923585926e-04 9.77412977350229e-06
1.33178571428571e+01 4.01587659355587e-04 9.55287757402203e-06
1.33650000000000e+01 3.91801811566154e-04 9.33657525686275e-06
1.34121428571429e+01 3.82254424373558e-04 9.12511382417921e-06
1.34592857142857e+01 3.72939686924159e-04 8.91838662852703e-06
1.35064285714286e+01 3.63851930099598e-04 8.71628931696611e-06
1.35535714285714e+01 3.54985622792970e-04 8.51871980453828e-06
1.36007142857143e+01 3.46335368746050e-04 8.32557816224564e-06
1.36478571428571e+01 3.37895903256650e-04 8.13676666413641e-06
1.36950000000000e+01 3.29662089789669e-04 7.95218968289273e-06
1.37421428571429e+01 3.21628917095756e-04 7.77175365595612e-06
1.37892857142857e+01 3.13791495923414e-04 7.59536704820554e-06
1.38364285714286e+01 3.06145056274429e-04 7.42294030364038e-06
1.38835714285714e+01 2.98684944276148e-04 7.25438582151799e-06
1.39307142857143e+01 2.91406619516229e-04 7.08961786146817e-06
1.39778571428571e+01 2.84305652272388e-04 6.92855258091987e-06
1.40250000000000e+01 2.77377720664623e-04 6.77110794662662e-06
1.40721428571429e+01 2.70618608225974e-04 6.61720370487985e-06
1.41192857142857e+01 2.64024201140811e-04 6.46676134889007e-06
1.41664285714286e+01 2.57590485930985e-04 6.31970407707733e-06
1.42135714285714e+01 2.51313546828580e-04 6.17595677172504e-06
1.42607142857143e+01 2.45189563530091e-04 6.03544591862160e-06
1.43078571428571e+01 2.39214808865667e-04 5.89809963676048e-06
1.43550000000000e+01 2.33385646405956e-04 5.76384760338031e-06
1.44021428571429e+01 2.27698528414229e-04 5.63262102784971e-06
1.44492857142857e+01 2.22149993526458e-04 5.50435262322343e-06
1.44964285714286e+01 2.16736664800781e-04 5.37897657027997e-06
1.45435714285714e+01 2.11455247510480e-04 5.25642849852134e-06
1.45907142857143e+01 2.06302527251716e-04 5.13664541812518e-06
1.46378571428571e+01 2.01275367982535e-04 5.01956574347053e-06
1.46850000000000e+01 1.96370710011650e-04 4.90512922963701e-06
1.47321428571429e+01 1.91585568272208e-04 4.79327694956693e-06
1.47792857142857e+01 1.86917030372855e-04 4.68395126931239e-06
1.48264285714286e+01 1.82362254953607e-04 4.57709581706246e-06
1.48735714285714e+01 1.77918469831715e-04 4.47265546630325e-06
