Energy (eV)          EEDF (eV^-(3/2))     First Anisotropy
1.81666666666667e-02 7.85021324015304e-01 8.33817283692231e-04
5.45000000000000e-02 7.62728561338367e-01 1.36189783744895e-03
9.08333333333333e-02 7.41068860759506e-01 1.75862882146200e-03
1.27166666666667e-01 7.20024244844723e-01 2.03716123758201e-03
1.63500000000000e-01 6.99577246655888e-01 2.25124603692230e-03
1.99833333333333e-01 6.79710895134517e-01 2.42191431979472e-03
2.36166666666667e-01 6.60408701399716e-01 2.56040051028947e-03
2.72500000000000e-01 6.41654644674677e-01 2.67369346527519e-03
3.08833333333333e-01 6.23433159089918e-01 2.76655930130272e-03
3.45166666666667e-01 6.05729120941357e-01 2.84245536256663e-03
3.81500000000000e-01 5.88527835928456e-01 2.90400338727505e-03
4.17833333333333e-01 5.71815026999607e-01 2.95325886839906e-03
4.54166666666667e-01 5.55576822623856e-01 2.99187562823486e-03
4.90500000000000e-01 5.39799745141789e-01 3.02121201680987e-03
5.26833333333333e-01 5.24470699601579e-01 3.04240249637182e-03
5.63166666666667e-01 5.09576962978546e-01 3.05640768141409e-03
5.99500000000000e-01 4.95106173518777e-01 3.06405037789981e-03
6.35833333333333e-01 4.81046320492766e-01 3.06604220007695e-03
6.72166666666667e-01 4.67385734293498e-01 3.06300368466441e-03
7.08500000000000e-01 4.54113076678696e-01 3.05547977728250e-03
7.44833333333333e-01 4.41217331369419e-01 3.04395194895768e-03
7.81166666666667e-01 4.28687794958852e-01 3.02884783480963e-03
8.17500000000000e-01 4.16514067972788e-01 3.01054899710425e-03
8.53833333333333e-01 4.04686046244677e-01 2.98939724460774e-03
8.90166666666667e-01 3.93193912570931e-01 2.96569984665053e-03
9.26500000000000e-01 3.82028128518466e-01 2.93973387085930e-03
9.62833333333333e-01 3.71179426512685e-01 2.91174981694882e-03
9.99166666666667e-01 3.60638802179299e-01 2.88197469617419e-03
1.03550000000000e+00 3.50397506863406e-01 2.85061466732060e-03
1.07183333333333e+00 3.40447040229290e-01 2.81785726747568e-03
1.10816666666667e+00 3.30779143519106e-01 2.78387336663648e-03
1.14450000000000e+00 3.21385792405379e-01 2.74881887760639e-03
1.18083333333333e+00 3.12259190359399e-01 2.71283619366365e-03
1.21716666666667e+00 3.03391762411818e-01 2.67605550137976e-03
1.25350000000000e+00 2.94776148622769e-01 2.63859593730357e-03
1.28983333333333e+00 2.86405197995726e-01 2.60056656504098e-03
1.32616666666667e+00 2.78271962736528e-01 2.56206728873257e-03
1.36250000000000e+00 2.70369692283679e-01 2.52318966728964e-03
1.39883333333333e+00 2.62691827723544e-01 2.48401760182989e-03
1.43516666666667e+00 2.55231996510647e-01 2.44462799273629e-03
1.47150000000000e+00 2.47984007007279e-01 2.40509133081746e-03
1.50783333333333e+00 2.40941843359194e-01 2.36547219460388e-03
1.54416666666667e+00 2.34099660642054e-01 2.32582973583380e-03
1.58050000000000e+00 2.27451779864858e-01 2.28621811955399e-03
1.61683333333333e+00 2.20992683268499e-01 2.24668689205921e-03
1.65316666666667e+00 2.14717009865355e-01 2.20728134755098e-03
1.68950000000000e+00 2.08619550865664e-01 2.16804286256257e-03
1.72583333333333e+00 2.02695245364287e-01 2.12900917321744e-03
1.76216666666667e+00 1.96939176242618e-01 2.09021465716351e-03
1.79850000000000e+00 1.91346565981035e-01 2.05169059200987e-03
1.83483333333333e+00 1.85912772701955e-01 2.01346536738693e-03
1.87116666666667e+00 1.80633286405420e-01 1.97556470496275e-03
1.90750000000000e+00 1.75503725134216e-01 1.93801186094599e-03
1.94383333333333e+00 1.70519831343910e-01 1.90082779025170e-03
1.98016666666667e+00 1.65677468445526e-01 1.86403132030517e-03
2.01650000000000e+00 1.60972617293017e-01 1.82763931154306e-03
2.05283333333333e+00 1.56401372853342e-01 1.79166678574598e-03
2.08916666666667e+00 1.51959941031644e-01 1.75612706472576e-03
2.12550000000000e+00 1.47644635453499e-01 1.72103189874281e-03
2.16183333333333e+00 1.43451874410294e-01 1.68639156760721e-03
2.19816666666667e+00 1.39378177944180e-01 1.65221499226612e-03
2.23450000000000e+00 1.35420164899985e-01 1.61850983835140e-03
2.27083333333333e+00 1.31574550123188e-01 1.58528259630786e-03
2.30716666666667e+00 1.27838141783661e-01 1.55253867178846e-03
2.34350000000000e+00 1.24207838674364e-01 1.52028246967971e-03
2.37983333333333e+00 1.20680627641053e-01 1.48851745789189e-03
2.41616666666667e+00 1.17253581125483e-01 1.45724624099197e-03
2.45250000000000e+00 1.13923854689986e-01 1.42647062873724e-03
2.48883333333333e+00 1.10688684659787e-01 1.39619168701408e-03
2.52516666666667e+00 1.07545385867833e-01 1.36640979808155e-03
2.56150000000000e+00 1.04491349386197e-01 1.33712471669668e-03
2.59783333333333e+00 1.01524040363428e-01 1.30833561086017e-03
2.63416666666667e+00 9.86409959546021e-02 1.28004111127466e-03
2.67050000000000e+00 9.58398232421266e-02 1.25223935745122e-03
2.70683333333333e+00 9.31181972520056e-02 1.22492803031409e-03
2.74316666666667e+00 9.04738590540154e-02 1.19810439290786e-03
2.77950000000000e+00 8.79046138559742e-02 1.17176532835876e-03
2.81583333333333e+00 8.54083291841403e-02 1.14590736593946e-03
2.85216666666667e+00 8.29829331396172e-02 1.12052671463161e-03
2.88850000000000e+00 8.06264126515246e-02 1.09561929442611e-03
2.92483333333333e+00 7.83368118079573e-02 1.07118075710870e-03
2.96116666666667e+00 7.61122302558474e-02 1.04720651395861e-03
2.99750000000000e+00 7.39508215997111e-02 1.02369176157412e-03
3.03383333333333e+00 7.18507918707177e-02 1.00063149838034e-03
3.07016666666667e+00 6.98103980582668e-02 9.78020547493302e-04
3.10650000000000e+00 6.78279466421159e-02 9.55853578026927e-04
3.14283333333333e+00 6.59017921881378e-02 9.34125118124028e-04
3.17916666666667e+00 6.40303360008205e-02 9.12829573819569e-04
3.21550000000000e+00 6.22120247776138e-02 8.91961246604860e-04
3.25183333333333e+00 6.04453493208964e-02 8.71514343626710e-04
3.28816666666667e+00 5.87288433014819e-02 8.51482993229520e-04
3.32450000000000e+00 5.70610820249652e-02 8.31861259410351e-04
3.36083333333333e+00 5.54406812502874e-02 8.12643149708379e-04
3.39716666666667e+00 5.38662960551363e-02 7.93822627983016e-04
3.43350000000000e+00 5.23366197049362e-02 7.75393626280291e-04
3.46983333333333e+00 5.08503825691916e-02 7.57350050837339e-04
3.50616666666667e+00 4.94063510804137e-02 7.39685792555738e-04
3.54250000000000e+00 4.80033266971852e-02 7.22394736708672e-04
3.57883333333333e+00 4.66401449101918e-02 7.05470767407500e-04
3.61516666666667e+00 4.53156742869898e-02 6.88907776150391e-04
3.65150000000000e+00 4.40288155212955e-02 6.72699669726152e-04
3.68783333333333e+00 4.27785005212852e-02 6.56840373427355e-04
3.72416666666667e+00 4.15636915331448e-02 6.41323837990186e-04
3.76050000000000e+00 4.03833802693939e-02 6.26144045990971e-04
3.79683333333333e+00 3.92365870726469e-02 6.11295014039764e-04
3.83316666666667e+00 3.81223601114637e-02 5.96770798374795e-04
3.86950000000000e+00 3.70397745811210e-02 5.82565499998784e-04
3.90583333333333e+00 3.59879319365906e-02 5.68673266045715e-04
3.94216666666667e+00 3.49659591547395e-02 5.55088294250158e-04
3.97850000000000e+00 3.39730080015145e-02 5.41804837030100e-04
4.01483333333333e+00 3.30082543284086e-02 5.28817202186119e-04
4.05116666666667e+00 3.20708973955487e-02 5.16119756430168e-04
4.08750000000000e+00 3.11601591997616e-02 5.03706928588427e-04
4.12383333333333e+00 3.02752838292751e-02 4.91573209764365e-04
4.16016666666667e+00 2.94155368426782e-02 4.79713156082121e-04
4.19650000000000e+00 2.85802046528009e-02 4.68121391155142e-04
4.23283333333333e+00 2.77685939348299e-02 4.56792605822015e-04
4.26916666666667e+00 2.69800310565385e-02 4.45721560234974e-04
4.30550000000000e+00 2.62138615133346e-02 4.34903085716974e-04
4.34183333333333e+00 2.54694493853714e-02 4.24332084160388e-04
4.37816666666667e+00 2.47461768148207e-02 4.14003529570638e-04
4.41450000000000e+00 2.40434434878326e-02 4.03912469415146e-04
4.45083333333333e+00 2.33606661365864e-02 3.94054023759385e-04
4.48716666666667e+00 2.26972780597287e-02 3.84423386358420e-04
4.52350000000000e+00 2.20527286473438e-02 3.75015825584925e-04
4.55983333333333e+00 2.14264829242244e-02 3.65826683364235e-04
4.59616666666667e+00 2.08180211099157e-02 3.56851375892088e-04
4.63250000000000e+00 2.02268381831204e-02 3.48085394215351e-04
4.66883333333333e+00 1.96524434627773e-02 3.39524303016882e-04
4.70516666666667e+00 1.90943602044446e-02 3.31163741025613e-04
4.74150000000000e+00 1.85521252008616e-02 3.22999421312121e-04
4.77783333333333e+00 1.80252883977056e-02 3.15027129965178e-04
4.81416666666667e+00 1.75134125233172e-02 3.07242726250024e-04
4.85050000000000e+00 1.70160727224128e-02 2.99642142671205e-04
4.88683333333333e+00 1.65328562036501e-02 2.92221383575244e-04
4.92316666666667e+00 1.60633618999441e-02 2.84976525104165e-04
4.95950000000000e+00 1.56072001325756e-02 2.77903715069918e-04
4.99583333333333e+00 1.51639922879329e-02 2.70999171511269e-04
5.03216666666667e+00 1.47333705058929e-02 2.64259182482345e-04
5.06850000000000e+00 1.43149773718018e-02 2.57680105775922e-04
5.10483333333333e+00 1.39084656199768e-02 2.51258367457468e-04
5.14116666666667e+00 1.35134978478366e-02 2.44990461522196e-04
5.17750000000000e+00 1.31297462334383e-02 2.38872949498628e-04
5.21383333333333e+00 1.27568922635246e-02 2.32902458978299e-04
5.25016666666667e+00 1.23946264712779e-02 2.27075683169526e-04
5.28650000000000e+00 1.20426481772910e-02 2.21389380407640e-04
5.32283333333333e+00 1.17006652401277e-02 2.15840372695238e-04
5.35916666666667e+00 1.13683938157505e-02 2.10425545176316e-04
5.39550000000000e+00 1.10455581199786e-02 2.05141845575325e-04
5.43183333333333e+00 1.07318901996989e-02 1.99986282759799e-04
5.46816666666667e+00 1.04271297121768e-02 1.94955926154680e-04
5.50450000000000e+00 1.01310237072185e-02 1.90047905128727e-04
5.54083333333333e+00 9.84332641732221e-03 1.85259407588784e-04
5.57716666666667e+00 9.56379905523027e-03 1.80587679350857e-04
5.61350000000000e+00 9.29220961415972e-03 1.76030023489340e-04
5.64983333333333e+00 9.02833267532611e-03 1.71583798970073e-04
5.68616666666667e+00 8.77194922223029e-03 1.67246419991956e-04
5.72250000000000e+00 8.52284645745735e-03 1.63015355311814e-04
5.75883333333333e+00 8.28081762613492e-03 1.58888126921631e-04
5.79516666666667e+00 8.04566184557231e-03 1.54862309372128e-04
5.83150000000000e+00 7.81718393725267e-03 1.50935529083892e-04
5.86783333333333e+00 7.59519426490672e-03 1.47105463072675e-04
5.90416666666667e+00 7.37950857823590e-03 1.43369838264370e-04
5.94050000000000e+00 7.16994785883690e-03 1.39726430801116e-04
5.97683333333333e+00 6.96633817168094e-03 1.36173064817364e-04
6.01316666666667e+00 6.76851052175727e-03 1.32707611753965e-04
6.04950000000000e+00 6.57630071277403e-03 1.29327989666365e-04
6.08583333333333e+00 6.38954921093318e-03 1.26032162053148e-04
6.12216666666667e+00 6.20810101342692e-03 1.22818137175480e-04
6.15850000000000e+00 6.03180551885467e-03 1.19683967373181e-04
6.19483333333333e+00 5.86051640227590e-03 1.16627747946595e-04
6.23116666666667e+00 5.69409149457987e-03 1.13647616486452e-04
6.26750000000000e+00 5.53239266364678e-03 1.10741752202401e-04
6.30383333333333e+00 5.37528569974483e-03 1.07908374858438e-04
6.34016666666667e+00 5.22264020487472e-03 1.05145744117178e-04
6.37650000000000e+00 5.07432948378361e-03 1.02452158884480e-04
6.41283333333333e+00 4.93023043885015e-03 9.98259562981100e-05
6.44916666666667e+00 4.79022346857921e-03 9.72655110895509e-05
6.48550000000000e+00 4.65419236765149e-03 9.47692349475246e-05
6.52183333333333e+00 4.52202423051085e-03 9.23355755591285e-05
6.55816666666667e+00 4.39360935825322e-03 8.99630159915661e-05
6.59450000000000e+00 4.26884116696219e-03 8.76500740767009e-05
6.63083333333333e+00 4.14761609927838e-03 8.53953015035596e-05
6.66716666666667e+00 4.02983353898848e-03 8.31972832217491e-05
6.70350000000000e+00 3.91539572695975e-03 8.10546368485753e-05
6.73983333333333e+00 3.80420768003047e-03 7.89660118115545e-05
6.77616666666667e+00 3.69617711266277e-03 7.69300887747661e-05
6.81250000000000e+00 3.59121435984563e-03 7.49455790695892e-05
6.84883333333333e+00 3.48923230270053e-03 7.30112238856544e-05
6.88516666666667e+00 3.39014629661385e-03 7.11257937209499e-05
6.92150000000000e+00 3.29387410053078e-03 6.92880878368257e-05
6.95783333333333e+00 3.20033580871991e-03 6.74969334956723e-05
6.99416666666667e+00 3.10945378484985e-03 6.57511854352345e-05
7.03050000000000e+00 3.02115259714374e-03 6.40497253482016e-05
7.06683333333333e+00 2.93535895579321e-03 6.23914611648005e-05
7.10316666666667e+00 2.85200165248750e-03 6.07753265514704e-05
7.13950000000000e+00 2.77101150094281e-03 5.92002804150831e-05
7.17583333333333e+00 2.69232127949779e-03 5.76653062285670e-05
7.21216666666667e+00 2.61586567564444e-03 5.61694115538620e-05
7.24850000000000e+00 2.54158123148654e-03 5.47116275705863e-05
7.28483333333333e+00 2.46940629108779e-03 5.32910084427704e-05
7.32116666666667e+00 2.39928094959080e-03 5.19066308658126e-05
7.35750000000000e+00 2.33114700319608e-03 5.05575936192309e-05
7.39383333333333e+00 2.26494790086918e-03 4.92430169725750e-05
7.43016666666667e+00 2.20062869766857e-03 4.79620422559397e-05
7.46650000000000e+00 2.13813600887022e-03 4.67138314363039e-05
7.50283333333333e+00 2.07741796567301e-03 4.54975665606881e-05
7.53916666666667e+00 2.01842417238732e-03 4.43124493496663e-05
7.57550000000000e+00 1.96110566436165e-03 4.31577007966735e-05
7.61183333333333e+00 1.90541486735516e-03 4.20325606465045e-05
7.64816666666667e+00 1.85130555826781e-03 4.09362870111651e-05
7.68450000000000e+00 1.79873282655370e-03 3.98681559914417e-05
7.72083333333333e+00 1.74765303695729e-03 3.88274611888781e-05
7.75716666666667e+00 1.69802379349210e-03 3.78135133432330e-05
7.79350000000000e+00 1.64980390405176e-03 3.68256399755407e-05
7.82983333333333e+00 1.60295334623142e-03 3.58631849317469e-05
7.86616666666667e+00 1.55743323428634e-03 3.49255080409829e-05
7.90250000000000e+00 1.51320578667562e-03 3.40119847793065e-05
7.93883333333333e+00 1.47023429471333e-03 3.31220058432272e-05
7.97516666666667e+00 1.42848309226056e-03 3.22549768279756e-05
8.01150000000000e+00 1.38791752595874e-03 3.14103179110783e-05
8.04783333333333e+00 1.34850392647618e-03 3.05874634540656e-05
8.08416666666667e+00 1.31020958070754e-03 2.97858616998902e-05
8.12050000000000e+00 1.27300270447378e-03 2.90049744754747e-05
8.15683333333333e+00 1.23685241614925e-03 2.82442768199577e-05
8.19316666666667e+00 1.20172871116119e-03 2.75032567004038e-05
8.22950000000000e+00 1.16760243695182e-03 2.67814147324530e-05
8.26583333333333e+00 1.13444526878896e-03 2.60782638335316e-05
8.30216666666667e+00 1.10222968637525e-03 2.53933289559922e-05
8.33850000000000e+00 1.07092895088497e-03 2.47261468249983e-05
8.37483333333333e+00 1.04051708277729e-03 2.40762656151920e-05
8.41116666666667e+00 1.01096884034082e-03 2.34432447004106e-05
8.44750000000000e+00 9.82259698633116e-04 2.28266544079464e-05
8.48383333333333e+00 9.54365829130861e-04 2.22260757172343e-05
8.52016666666667e+00 9.27264080049555e-04 2.16411000253025e-05
8.55650000000000e+00 9.00931957028079e-04 2.10713289165653e-05
8.59283333333333e+00 8.75347604463679e-04 2.05163738821591e-05
8.62916666666667e+00 8.50489787460003e-04 1.99758561003036e-05
8.66550000000000e+00 8.26337874112065e-04 1.94494062208024e-05
8.70183333333333e+00 8.02871818386571e-04 1.89366641037285e-05
8.73816666666667e+00 7.80072143563574e-04 1.84372786138932e-05
8.77450000000000e+00 7.57919925989227e-04 1.79509074192506e-05
8.81083333333333e+00 7.36396779373499e-04 1.74772167477005e-05
8.84716666666667e+00 7.15484839601894e-04 1.70158811948850e-05
8.88350000000000e+00 6.95166749834358e-04 1.65665835357221e-05
8.91983333333333e+00 6.75425646103027e-04 1.61290144981592e-05
8.95616666666667e+00 6.56245143380677e-04 1.57028725835451e-05
8.99250000000000e+00 6.37609321914221e-04 1.52878638905424e-05
9.02883333333333e+00 6.19502714014869e-04 1.48837019047296e-05
9.06516666666667e+00 6.01910291279335e-04 1.44901073308240e-05
9.10150000000000e+00 5.84817452055616e-04 1.41068079282543e-05
9.13783333333333e+00 5.68210009326841e-04 1.37335383155703e-05
9.17416666666667e+00 5.52074178989866e-04 1.33700398138207e-05
9.21050000000000e+00 5.36396568359513e-04 1.30160602930971e-05
9.24683333333333e+00 5.21164165055555e-04 1.26713539907702e-05
9.28316666666667e+00 5.06364326251218e-04 1.23356813653575e-05
9.31950000000000e+00 4.91984768129835e-04 1.20088089533788e-05
9.35583333333333e+00 4.78013555691905e-04 1.16905092004968e-05
9.39216666666667e+00 4.64439092893271e-04 1.13805603252394e-05
9.42850000000000e+00 4.51250112975253e-04 1.10787461855375e-05
9.46483333333333e+00 4.38435669115625e-04 1.07848561219022e-05
9.50116666666667e+00 4.25985125382844e-04 1.04986848303966e-05
9.53750000000000e+00 4.13888147867298e-04 1.02200322382582e-05
9.57383333333333e+00 4.02134696106321e-04 9.94870335829706e-06
9.61016666666667e+00 3.90715014786962e-04 9.68450817054239e-06
9.64650000000000e+00 3.79619625611966e-04 9.42726150638021e-06
9.68283333333333e+00 3.68839319434742e-04 9.17678291340895e-06
9.71916666666667e+00 3.58365148648741e-04 8.93289654521339e-06
9.75550000000000e+00 3.48188419727290e-04 8.69543105348060e-06
9.79183333333333e+00 3.38300686009733e-04 8.46421946259465e-06
9.82816666666667e+00 3.28693740720609e-04 8.23909906702115e-06
9.86450000000000e+00 3.19359610127507e-04 8.01991133089103e-06
9.90083333333333e+00 3.10290546924471e-04 7.80650177166274e-06
9.93716666666667e+00 3.01479023828861e-04 7.59871986462865e-06
9.97350000000000e+00 2.92917727306024e-04 7.39641894948409e-06
1.00098333333333e+01 2.84599551500518e-04 7.19945612242829e-06
1.00461666666667e+01 2.76517592362853e-04 7.00769214262112e-06
1.00825000000000e+01 2.68665141916563e-04 6.82099136884744e-06
1.01188333333333e+01 2.61035682579139e-04 6.63922161730368e-06
1.01551666666667e+01 2.53622882000382e-04 6.46225409686983e-06
1.01915000000000e+01 2.46420587578522e-04 6.28996337627144e-06
1.02278333333333e+01 2.39422821365315e-04 6.12222720747436e-06
1.02641666666667e+01 2.32623775306750e-04 5.95892649027775e-06
1.03005000000000e+01 2.26017806215455e-04 5.79994523594932e-06
1.03368333333333e+01 2.19599431097505e-04 5.64517040475954e-06
1.03731666666667e+01 2.13363322785222e-04 5.49449187237078e-06
1.04095000000000e+01 2.07304305327859e-04 5.34780239539619e-06
1.04458333333333e+01 2.01417349705219e-04 5.20499746194468e-06
1.04821666666667e+01 1.95697569820284e-04 5.06597525976339e-06
1.05185000000000e+01 1.90140218273335e-04 4.93063664366182e-06
1.05548333333333e+01 1.84740682430373e-04 4.79888499802900e-06
1.05911666666667e+01 1.79494480745955e-04 4.67062620667951e-06
1.06275000000000e+01 1.74397258888833e-04 4.54576862208006e-06
1.06638333333333e+01 1.69444786135797e-04 4.42422293888268e-06
1.07001666666667e+01 1.64632951997550e-04 4.30590216542002e-06
1.07365000000000e+01 1.59957762666588e-04 4.19072159466789e-06
1.07728333333333e+01 1.55415337709534e-04 4.07859868791415e-06
1.08091666666667e+01 1.51001906971107e-04 3.96945304784553e-06
1.08455000000000e+01 1.46713807317412e-04 3.86320639117744e-06
1.08818333333333e+01 1.42547479602063e-04 3.75978244164841e-06
1.09181666666667e+01 1.38499465825348e-04 3.65910690463776e-06
1.09545000000000e+01 1.34566406148335e-04 3.56110744139282e-06
1.09908333333333e+01 1.30745036110127e-04 3.46571357060312e-06
1.10271666666667e+01 1.27032184021207e-04 3.37285664448665e-06
1.10635000000000e+01 1.23424768225819e-04 3.28246982454400e-06
1.10998333333333e+01 1.19919794549571e-04 3.19448799102634e-06
1.11361666666667e+01 1.16514353907670e-04 3.10884772042675e-06
1.11725000000000e+01 1.13205619794922e-04 3.02548726269067e-06
1.12088333333333e+01 1.09990845944609e-04 2.94434645794652e-06
1.12451666666667e+01 1.06867364133923e-04 2.86536671533850e-06
1.12815000000000e+01 1.03832581882635e-04 2.78849099162366e-06
1.13178333333333e+01 1.00883980305769e-04 2.71366371458367e-06
1.13541666666667e+01 9.80191120999784e-05 2.64083076313636e-06
1.13905000000000e+01 9.52355994335362e-05 2.56993944725036e-06
1.14268333333333e+01 9.25311319767486e-05 2.50093843750323e-06
1.14631666666667e+01 8.99034650543833e-05 2.43377774640945e-06
