Energy (eV)          EEDF (eV^-(3/2))     First Anisotropy
1.66129032258065e-03 6.84775886241360e+00 4.39816410138643e-03
4.98387096774194e-03 6.77219598151235e+00 7.24691134205703e-03
8.30645161290323e-03 6.69746691356539e+00 9.52522203183379e-03
1.16290322580645e-02 6.62356245750243e+00 1.12310104021757e-02
1.49516129032258e-02 6.55047351395494e+00 1.26330696330917e-02
1.82741935483871e-02 6.47819108428466e+00 1.38336634917924e-02
2.15967741935484e-02 6.40670626845718e+00 1.48860283301921e-02
2.49193548387097e-02 6.33601026539876e+00 1.58224981720943e-02
2.82419354838710e-02 6.26609437051577e+00 1.66646396412887e-02
3.15645161290323e-02 6.19694997581534e+00 1.74277812543853e-02
3.48870967741935e-02 6.12856856780875e+00 1.81233329469733e-02
3.82096774193548e-02 6.06094172737858e+00 1.87600922876444e-02
4.15322580645161e-02 5.99406112808121e+00 1.93450338290982e-02
4.48548387096774e-02 5.92791853523351e+00 1.98838127425795e-02
4.81774193548387e-02 5.86250580530221e+00 2.03811006335232e-02
5.15000000000000e-02 5.79781488435257e+00 2.08408175138155e-02
5.48225806451613e-02 5.73383780756668e+00 2.12662969310316e-02
5.81451612903226e-02 5.67056669778753e+00 2.16604065386045e-02
6.14677419354839e-02 5.60799376499372e+00 2.20256380651881e-02
6.47903225806452e-02 5.54611130492344e+00 2.23641757453649e-02
6.81129032258065e-02 5.48491169851796e+00 2.26779492291692e-02
7.14354838709678e-02 5.42438741069304e+00 2.29686751453004e-02
7.47580645161290e-02 5.36453098944301e+00 2.32378900904115e-02
7.80806451612903e-02 5.30533506514192e+00 2.34869772392397e-02
8.14032258064516e-02 5.24679234934333e+00 2.37171879623976e-02
8.47258064516129e-02 5.18889563416184e+00 2.39296595855858e-02
8.80483870967742e-02 5.13163779111956e+00 2.41254301097289e-02
9.13709677419355e-02 5.07501177052258e+00 2.43054505060276e-02
9.46935483870968e-02 5.01901060034997e+00 2.44705950679921e-02
9.80161290322581e-02 4.96362738562802e+00 2.46216701824648e-02
1.01338709677419e-01 4.90885530735838e+00 2.47594218139669e-02
1.04661290322581e-01 4.85468762189231e+00 2.48845419386268e-02
1.07983870967742e-01 4.80111765975447e+00 2.49976740130069e-02
1.11306451612903e-01 4.74813882571194e+00 2.50994179056079e-02
1.14629032258065e-01 4.69574459640732e+00 2.51903340356384e-02
1.17951612903226e-01 4.64392852091663e+00 2.52709468755703e-02
1.21274193548387e-01 4.59268421989839e+00 2.53417484518485e-02
1.24596774193548e-01 4.54200538360477e+00 2.54032010528363e-02
1.27919354838710e-01 4.49188577231585e+00 2.54557396172539e-02
1.31241935483871e-01 4.44231921552008e+00 2.54997742339131e-02
1.34564516129032e-01 4.39329961007968e+00 2.55356919753177e-02
1.37887096774194e-01 4.34482092088785e+00 2.55638587181527e-02
1.41209677419355e-01 4.29687717877944e+00 2.55846207995653e-02
1.44532258064516e-01 4.24946248078530e+00 2.55983063061875e-02
1.47854838709677e-01 4.20257098936783e+00 2.56052266067126e-02
1.51177419354839e-01 4.15619693081371e+00 2.56056774227670e-02
1.54500000000000e-01 4.11033459541651e+00 2.55999397934907e-02
1.57822580645161e-01 4.06497833674255e+00 2.55882812639331e-02
1.61145161290323e-01 4.02012257012783e+00 2.55709566705054e-02
1.64467741935484e-01 3.97576177280198e+00 2.55482088521646e-02
1.67790322580645e-01 3.93189048318076e+00 2.55202695944457e-02
1.71112903225806e-01 3.88850329945729e+00 2.54873602142117e-02
1.74435483870968e-01 3.84559487967748e+00 2.54496920918302e-02
1.77758064516129e-01 3.80315994105644e+00 2.54074674371346e-02
1.81080645161290e-01 3.76119325865571e+00 2.53608797018634e-02
1.84403225806452e-01 3.71968966562392e+00 2.53101140958251e-02
1.87725806451613e-01 3.67864405170824e+00 2.52553480786920e-02
1.91048387096774e-01 3.63805136325503e+00 2.51967516668112e-02
1.94370967741935e-01 3.59790660256626e+00 2.51344879937112e-02
1.97693548387097e-01 3.55820482670936e+00 2.50687135923219e-02
2.01016129032258e-01 3.51894114748733e+00 2.49995786543329e-02
2.04338709677419e-01 3.48011073081858e+00 2.49272275057592e-02
2.07661290322581e-01 3.44170879561147e+00 2.48517988247155e-02
2.10983870967742e-01 3.40373061370870e+00 2.47734258416522e-02
2.14306451612903e-01 3.36617150928932e+00 2.46922367483024e-02
2.17629032258065e-01 3.32902685780266e+00 2.46083548663575e-02
2.20951612903226e-01 3.29229208589191e+00 2.45218988027650e-02
2.24274193548387e-01 3.25596267081600e+00 2.44329828055462e-02
2.27596774193548e-01 3.22003413943917e+00 2.43417168945620e-02
2.30919354838710e-01 3.18450206813692e+00 2.42482069822922e-02
2.34241935483871e-01 3.14936208223696e+00 2.41525551866069e-02
2.37564516129032e-01 3.11460985506043e+00 2.40548599116986e-02
2.40887096774194e-01 3.08024110794350e+00 2.39552160238513e-02
2.44209677419355e-01 3.04625160917280e+00 2.38537150265969e-02
2.47532258064516e-01 3.01263717386281e+00 2.37504451181687e-02
2.50854838709677e-01 2.97939366342878e+00 2.36454914474881e-02
2.54177419354839e-01 2.94651698470902e+00 2.35389361808276e-02
2.57500000000000e-01 2.91400308983139e+00 2.34308585632685e-02
2.60822580645161e-01 2.88184797570451e+00 2.33213351487036e-02
2.64145161290323e-01 2.85004768318158e+00 2.32104398509853e-02
2.67467741935484e-01 2.81859829691818e+00 2.30982439908817e-02
2.70790322580645e-01 2.78749594488060e+00 2.29848165040933e-02
2.74112903225806e-01 2.75673679754879e+00 2.28702239799289e-02
2.77435483870968e-01 2.72631706776720e+00 2.27545306967677e-02
2.80758064516129e-01 2.69623301026929e+00 2.26377988112608e-02
2.84080645161290e-01 2.66648092091738e+00 2.25200883709885e-02
2.87403225806452e-01 2.63705713664147e+00 2.24014574047994e-02
2.90725806451613e-01 2.60795803460392e+00 2.22819620157288e-02
2.94048387096774e-01 2.57918003203874e+00 2.21616563851456e-02
2.97370967741935e-01 2.55071958580231e+00 2.20405929352073e-02
3.00693548387097e-01 2.52257319167208e+00 2.19188223454461e-02
3.04016129032258e-01 2.49473738418206e+00 2.17963935677140e-02
3.07338709677419e-01 2.46720873618890e+00 2.16733539757643e-02
3.10661290322581e-01 2.43998385820139e+00 2.15497493762555e-02
3.13983870967742e-01 2.41305939821315e+00 2.14256240183331e-02
3.17306451612903e-01 2.38643204128348e+00 2.13010207318826e-02
3.20629032258065e-01 2.36009850889586e+00 2.11759809339488e-02
3.23951612903226e-01 2.33405555878901e+00 2.10505446340356e-02
3.27274193548387e-01 2.30829998455149e+00 2.09247505623082e-02
3.30596774193548e-01 2.28282861500793e+00 2.07986361722212e-02
3.33919354838710e-01 2.25763831404910e+00 2.06722376423940e-02
3.37241935483871e-01 2.23272598023975e+00 2.05455899958285e-02
3.40564516129032e-01 2.20808854623113e+00 2.04187270873750e-02
3.43887096774194e-01 2.18372297865533e+00 2.02916816513170e-02
3.47209677419355e-01 2.15962627748637e+00 2.01644853519584e-02
3.50532258064516e-01 2.13579547586810e+00 2.00371687682234e-02
3.53854838709677e-01 2.11222763974372e+00 1.99097614993282e-02
3.57177419354839e-01 2.08891986731017e+00 1.97822921608522e-02
3.60500000000000e-01 2.06586928884641e+00 1.96547883804186e-02
3.63822580645161e-01 2.04307306635546e+00 1.95272768966009e-02
3.67145161290323e-01 2.02052839304115e+00 1.93997835532874e-02
3.70467741935484e-01 1.99823249313743e+00 1.92723332937175e-02
3.73790322580645e-01 1.97618262156218e+00 1.91449502532406e-02
3.77112903225806e-01 1.95437606341548e+00 1.90176577522684e-02
3.80435483870968e-01 1.93281013381018e+00 1.88904782890319e-02
3.83758064516129e-01 1.91148217753713e+00 1.87634336267294e-02
3.87080645161290e-01 1.89038956858380e+00 1.86365447756213e-02
3.90403225806452e-01 1.86952971001536e+00 1.85098320237173e-02
3.93725806451613e-01 1.84890003345516e+00 1.83833149701587e-02
3.97048387096774e-01 1.82849799891715e+00 1.82570125060796e-02
4.00370967741936e-01 1.80832109448930e+00 1.81309428930206e-02
4.03693548387097e-01 1.78836683588505e+00 1.80051237535746e-02
4.07016129032258e-01 1.76863276627772e+00 1.78795720620424e-02
4.10338709677419e-01 1.74911645599453e+00 1.77543042183927e-02
4.13661290322581e-01 1.72981550208580e+00 1.76293360383585e-02
4.16983870967742e-01 1.71072752816159e+00 1.75046827435181e-02
4.20306451612903e-01 1.69185018409590e+00 1.73803590311482e-02
4.23629032258065e-01 1.67318114561287e+00 1.72563790638860e-02
4.26951612903226e-01 1.65471811412583e+00 1.71327564594076e-02
4.30274193548387e-01 1.63645881645127e+00 1.70095043564775e-02
4.33596774193548e-01 1.61840100441123e+00 1.68866354042620e-02
4.36919354838710e-01 1.60054245467507e+00 1.67641617517464e-02
4.40241935483871e-01 1.58288096848271e+00 1.66420951102438e-02
4.43564516129032e-01 1.56541437126261e+00 1.65204467349571e-02
4.46887096774194e-01 1.54814051251149e+00 1.63992274443540e-02
4.50209677419355e-01 1.53105726538521e+00 1.62784476417566e-02
4.53532258064516e-01 1.51416252654437e+00 1.61581172964770e-02
4.56854838709677e-01 1.49745421589270e+00 1.60382460006969e-02
4.60177419354839e-01 1.48093027621991e+00 1.59188429585127e-02
4.63500000000000e-01 1.46458867305013e+00 1.57999169751096e-02
4.66822580645161e-01 1.44842739438902e+00 1.56814765107265e-02
4.70145161290323e-01 1.43244445038023e+00 1.55635296696832e-02
4.73467741935484e-01 1.41663787315688e+00 1.54460841895242e-02
4.76790322580645e-01 1.40100571659690e+00 1.53291474922597e-02
4.80112903225806e-01 1.38554605599270e+00 1.52127266734031e-02
4.83435483870968e-01 1.37025698790557e+00 1.50968284911568e-02
4.86758064516129e-01 1.35513662992912e+00 1.49814594150969e-02
4.90080645161290e-01 1.34018312037145e+00 1.48666256091422e-02
4.93403225806452e-01 1.32539461814001e+00 1.47523329453597e-02
4.96725806451613e-01 1.31076930240308e+00 1.46385870196171e-02
5.00048387096774e-01 1.29630537244895e+00 1.45253931344018e-02
5.03370967741936e-01 1.28200104746212e+00 1.44127563433929e-02
5.06693548387097e-01 1.26785456622564e+00 1.43006814408256e-02
5.10016129032258e-01 1.25386418698326e+00 1.41891729510360e-02
5.13338709677419e-01 1.24002818722312e+00 1.40782351708792e-02
5.16661290322581e-01 1.22634486339120e+00 1.39678721592504e-02
5.19983870967742e-01 1.21281253075652e+00 1.38580877267565e-02
5.23306451612903e-01 1.19942952320202e+00 1.37488854761088e-02
5.26629032258065e-01 1.18619419294865e+00 1.36402687918101e-02
5.29951612903226e-01 1.17310491042373e+00 1.35322408299889e-02
5.33274193548387e-01 1.16016006405865e+00 1.34248045568854e-02
5.36596774193548e-01 1.14735806002322e+00 1.33179627387009e-02
5.39919354838710e-01 1.13469732209717e+00 1.32117179316278e-02
5.43241935483871e-01 1.12217629147443e+00 1.31060725185298e-02
5.46564516129032e-01 1.10979342650737e+00 1.30010286941736e-02
5.49887096774194e-01 1.09754720260166e+00 1.28965884747101e-02
5.53209677419355e-01 1.08543611194552e+00 1.27927537086183e-02
5.56532258064516e-01 1.07345866338592e+00 1.26895260619414e-02
5.59854838709677e-01 1.06161338224359e+00 1.25869070520412e-02
5.63177419354839e-01 1.04989881007300e+00 1.24848980380539e-02
5.66500000000000e-01 1.03831350454165e+00 1.23835002115115e-02
5.69822580645161e-01 1.02685603925111e+00 1.22827146285485e-02
5.73145161290323e-01 1.01552500350584e+00 1.21825422005788e-02
5.76467741935484e-01 1.00431900219547e+00 1.20829836851228e-02
5.79790322580645e-01 9.93236655621705e-01 1.19840397165519e-02
5.83112903225807e-01 9.82276599275643e-01 1.18857107969788e-02
5.86435483870968e-01 9.71437483722974e-01 1.17879972873056e-02
5.89758064516129e-01 9.60717974436611e-01 1.16908994365826e-02
5.93080645161290e-01 9.50116751582094e-01 1.15944173691676e-02
5.96403225806452e-01 9.39632509921770e-01 1.14985510918148e-02
5.99725806451613e-01 9.29263958588640e-01 1.14033005019739e-02
6.03048387096774e-01 9.19009820976227e-01 1.13086653750050e-02
6.06370967741936e-01 9.08868834580262e-01 1.12146453912776e-02
6.09693548387097e-01 8.98839750797128e-01 1.11212401276975e-02
6.13016129032258e-01 8.88921334816575e-01 1.10284490493929e-02
6.16338709677419e-01 8.79112365468642e-01 1.09362715356136e-02
6.19661290322581e-01 8.69411635029368e-01 1.08447068714889e-02
6.22983870967742e-01 8.59817949116320e-01 1.07537542399224e-02
6.26306451612903e-01 8.50330126540566e-01 1.06634127463514e-02
6.29629032258065e-01 8.40946999119375e-01 1.05736814107283e-02
6.32951612903226e-01 8.31667411574535e-01 1.04845591596339e-02
6.36274193548387e-01 8.22490221389167e-01 1.03960448499545e-02
6.39596774193548e-01 8.13414298627172e-01 1.03081372610729e-02
6.42919354838710e-01 8.04438525834284e-01 1.02208350872086e-02
6.46241935483871e-01 7.95561797899558e-01 1.01341369600612e-02
6.49564516129032e-01 7.86783021881321e-01 1.00480414380942e-02
6.52887096774194e-01 7.78101116923007e-01 9.96254701161000e-03
6.56209677419355e-01 7.69515014070574e-01 9.87765210878661e-03
6.59532258064516e-01 7.61023656177814e-01 9.79335508503939e-03
6.62854838709677e-01 7.52625997775358e-01 9.70965424398157e-03
6.66177419354839e-01 7.44321004907015e-01 9.62654783022844e-03
6.69500000000000e-01 7.36107655037655e-01 9.54403402233258e-03
6.72822580645161e-01 7.27984936926536e-01 9.46211095284436e-03
6.76145161290323e-01 7.19951850469470e-01 9.38077670132840e-03
6.79467741935484e-01 7.12007406609240e-01 9.30002928750012e-03
6.82790322580645e-01 7.04150627213090e-01 9.21986669043001e-03
6.86112903225807e-01 6.96380544920503e-01 9.14028684176207e-03
6.89435483870968e-01 6.88696203056112e-01 9.06128761905455e-03
6.92758064516129e-01 6.81096655511192e-01 8.98286686416730e-03
6.96080645161290e-01 6.73580966596858e-01 8.90502237409584e-03
6.99403225806452e-01 6.66148210969087e-01 8.82775190486351e-03
7.02725806451613e-01 6.58797473475256e-01 8.75105317620967e-03
7.06048387096774e-01 6.51527849070962e-01 8.67492386250536e-03
7.09370967741936e-01 6.44338442707922e-01 8.59936160980290e-03
7.12693548387097e-01 6.37228369195844e-01 8.52436402960634e-03
7.16016129032258e-01 6.30196753121573e-01 8.44992869275873e-03
7.19338709677419e-01 6.23242728740693e-01 8.37605314577433e-03
7.22661290322581e-01 6.16365439844262e-01 8.30273490480201e-03
7.25983870967742e-01 6.09564039680247e-01 8.22997144969265e-03
7.29306451612903e-01 6.02837690848689e-01 8.15776023964796e-03
7.32629032258065e-01 5.96185565173136e-01 8.08609870736858e-03
7.35951612903226e-01 5.89606843624315e-01 8.01498425330371e-03
7.39274193548387e-01 5.83100716218727e-01 7.94441426064703e-03
7.42596774193548e-01 5.76666381894616e-01 7.87438608965939e-03
7.45919354838710e-01 5.70303048437821e-01 7.80489707209938e-03
7.49241935483871e-01 5.64009932383693e-01 7.73594452559586e-03
7.52564516129032e-01 5.57786258897428e-01 7.66752574608817e-03
7.55887096774194e-01 5.51631261709465e-01 7.59963801067479e-03
7.59209677419355e-01 5.45544182990864e-01 7.53227858109834e-03
7.62532258064516e-01 5.39524273282592e-01 7.46544469626358e-03
7.65854838709678e-01 5.33570791402752e-01 7.39913358558741e-03
7.69177419354839e-01 5.27683004333901e-01 7.33334246380260e-03
7.72500000000000e-01 5.21860187154375e-01 7.26806852585564e-03
7.75822580645161e-01 5.16101622948574e-01 7.20330895970699e-03
7.79145161290323e-01 5.10406602698212e-01 7.13906094129877e-03
7.82467741935484e-01 5.04774425215643e-01 7.07532162961122e-03
7.85790322580645e-01 4.99204397057082e-01 7.01208817893760e-03
7.89112903225807e-01 4.93695832417664e-01 6.94935773400893e-03
7.92435483870968e-01 4.88248053066706e-01 6.88712742520741e-03
7.95758064516129e-01 4.82860388263774e-01 6.82539438033868e-03
7.99080645161290e-01 4.77532174657407e-01 6.76415571820095e-03
8.02403225806452e-01 4.72262756228252e-01 6.70340855080017e-03
8.05725806451613e-01 4.67051484183896e-01 6.64314998609164e-03
8.09048387096774e-01 4.61897716897193e-01 6.58337712162095e-03
8.12370967741936e-01 4.56800819826874e-01 6.52408705547214e-03
8.15693548387097e-01 4.51760165422131e-01 6.46527688180861e-03
8.19016129032258e-01 4.46775133062761e-01 6.40694368649694e-03
8.22338709677419e-01 4.41845108982385e-01 6.34908455761050e-03
8.25661290322581e-01 4.36969486176343e-01 6.29169658111447e-03
8.28983870967742e-01 4.32147664343608e-01 6.23477683662670e-03
8.32306451612903e-01 4.27379049812519e-01 6.17832240749583e-03
8.35629032258065e-01 4.22663055451879e-01 6.12233037662477e-03
8.38951612903226e-01 4.17999100614585e-01 6.06679782236740e-03
8.42274193548387e-01 4.13386611065794e-01 6.01172182819901e-03
8.45596774193549e-01 4.08825018897110e-01 5.95709947867157e-03
8.48919354838710e-01 4.04313762471881e-01 5.90292785544497e-03
8.52241935483871e-01 3.99852286355724e-01 5.84920404656645e-03
8.55564516129032e-01 3.95440041233680e-01 5.79592514118717e-03
8.58887096774194e-01 3.91076483861773e-01 5.74308823120473e-03
8.62209677419355e-01 3.86761076981248e-01 5.69069041332605e-03
8.65532258064516e-01 3.82493289266509e-01 5.63872878384732e-03
8.68854838709678e-01 3.78272595259402e-01 5.58720044729465e-03
8.72177419354839e-01 3.74098475291133e-01 5.53610251273046e-03
8.75500000000000e-01 3.69970415431764e-01 5.48543209012713e-03
8.78822580645161e-01 3.65887907426655e-01 5.43518629866105e-03
8.82145161290323e-01 3.61850448621074e-01 5.38536226313994e-03
8.85467741935484e-01 3.57857541911207e-01 5.33595711049232e-03
8.88790322580645e-01 3.53908695682684e-01 5.28696797773067e-03
8.92112903225806e-01 3.50003423737789e-01 5.23839200849325e-03
8.95435483870968e-01 3.46141245247945e-01 5.19022634964823e-03
8.98758064516129e-01 3.42321684694249e-01 5.14246815893959e-03
9.02080645161290e-01 3.38544271797194e-01 5.09511460049976e-03
9.05403225806452e-01 3.34808541474344e-01 5.04816284613551e-03
9.08725806451613e-01 3.31114033767743e-01 5.00161007696431e-03
9.12048387096774e-01 3.27460293798726e-01 4.95545347898295e-03
9.15370967741936e-01 3.23846871711671e-01 4.90969025019220e-03
9.18693548387097e-01 3.20273322607736e-01 4.86431759743947e-03
9.22016129032258e-01 3.16739206501034e-01 4.81933273331931e-03
9.25338709677419e-01 3.13244088264231e-01 4.77473288301476e-03
9.28661290322581e-01 3.09787537564561e-01 4.73051528124431e-03
9.31983870967742e-01 3.06369128821324e-01 4.68667716926177e-03
9.35306451612903e-01 3.02988441153268e-01 4.64321580142682e-03
9.38629032258065e-01 2.99645058316806e-01 4.60012844225215e-03
9.41951612903226e-01 2.96338568664798e-01 4.55741236350089e-03
9.45274193548387e-01 2.93068565095660e-01 4.51506485049788e-03
9.48596774193548e-01 2.89834644993698e-01 4.47308319927150e-03
9.51919354838710e-01 2.86636410189148e-01 4.43146471374740e-03
9.55241935483871e-01 2.83473466908947e-01 4.39020671181069e-03
9.58564516129032e-01 2.80345425719113e-01 4.34930652162452e-03
9.61887096774194e-01 2.77251901488934e-01 4.30876148258844e-03
9.65209677419355e-01 2.74192513331605e-01 4.26856894657820e-03
9.68532258064516e-01 2.71166884566246e-01 4.22872627431176e-03
9.71854838709677e-01 2.68174642671340e-01 4.18923084100336e-03
9.75177419354839e-01 2.65215419230387e-01 4.15008003375572e-03
9.78500000000000e-01 2.62288849895081e-01 4.11127124899856e-03
9.81822580645161e-01 2.59394574340278e-01 4.07280189792060e-03
9.85145161290323e-01 2.56532236211499e-01 4.03466940394793e-03
9.88467741935484e-01 2.53701483089245e-01 3.99687120026593e-03
9.91790322580645e-01 2.50901966445431e-01 3.95940473503833e-03
9.95112903225807e-01 2.48133341592690e-01 3.92226746896770e-03
9.98435483870968e-01 2.45395267649778e-01 3.88545686976796e-03
1.00175806451613e+00 2.42687407509250e-01 3.84897042587538e-03
1.00508064516129e+00 2.40009427761223e-01 3.81280564697923e-03
1.00840322580645e+00 2.37360998660957e-01 3.77696003281064e-03
1.01172580645161e+00 2.34741794150487e-01 3.74143109932625e-03
1.01504838709677e+00 2.32151491745543e-01 3.70621639138828e-03
1.01837096774194e+00 2.29589772520372e-01 3.67131345888988e-03
1.02169354838710e+00 2.27056321068466e-01 3.63671986486193e-03
1.02501612903226e+00 2.24550825463731e-01 3.60243318552966e-03
1.02833870967742e+00 2.22072977222082e-01 3.56845101036554e-03
1.03166129032258e+00 2.19622471263459e-01 3.53477094214077e-03
1.03498387096774e+00 2.17199005874261e-01 3.50139059696675e-03
1.03830645161290e+00 2.14802282670208e-01 3.46830760433718e-03
1.04162903225806e+00 2.12432006559600e-01 3.43551960717094e-03
1.04495161290323e+00 2.10087885706982e-01 3.40302426184557e-03
1.04827419354839e+00 2.07769631497212e-01 3.37081923822950e-03
