Energy (eV)          EEDF (eV^-(3/2))     First Anisotropy
3.75000000000000e-01 6.38134508917134e-02 1.30944500982514e-04
1.12500000000000e+00 5.68801094368125e-02 2.05169803733603e-04
1.87500000000000e+00 5.07000766191741e-02 2.43053979390573e-04
2.62500000000000e+00 4.51915053371279e-02 2.58293567493127e-04
3.37500000000000e+00 4.02814411894458e-02 2.61860977450770e-04
4.12500000000000e+00 3.59048562820435e-02 2.58443869643483e-04
4.87500000000000e+00 3.20037880117352e-02 2.50654209355818e-04
5.62500000000000e+00 2.85265714212682e-02 2.40125536714338e-04
6.37500000000000e+00 2.54271549591043e-02 2.27943049697327e-04
7.12500000000000e+00 2.26644905820077e-02 2.14852128809264e-04
7.87500000000000e+00 2.02019901230826e-02 2.01373706214946e-04
8.62500000000000e+00 1.80070407255089e-02 1.87874050259096e-04
9.37500000000000e+00 1.60505729244788e-02 1.74609735479543e-04
1.01250000000000e+01 1.43066756570980e-02 1.61757996282788e-04
1.08750000000000e+01 1.27522531015227e-02 1.49437936063593e-04
1.16250000000000e+01 1.13667188005772e-02 1.37725739036294e-04
1.23750000000000e+01 1.01317230188889e-02 1.26665799100092e-04
1.31250000000000e+01 9.03090972271346e-03 1.16278984600388e-04
1.38750000000000e+01 8.04969996394009e-03 1.06568844983843e-04
1.46250000000000e+01 7.17509879945823e-03 9.75263094382028e-05
1.53750000000000e+01 6.39552318876591e-03 8.91332630402279e-05
1.61250000000000e+01 5.70064859052965e-03 8.13652767010308e-05
1.68750000000000e+01 5.08127222645226e-03 7.41936926800036e-05
1.76250000000000e+01 4.52919120154295e-03 6.75872153807864e-05
1.83750000000000e+01 4.03709386663912e-03 6.15131200161309e-05
1.91250000000000e+01 3.59846298440722e-03 5.59381647696987e-05
1.98750000000000e+01 3.20748941637290e-03 5.08292721978852e-05
2.06250000000000e+01 2.85899518786878e-03 4.61540307460207e-05
2.13750000000000e+01 2.54836491198777e-03 4.18810560026961e-05
2.21250000000000e+01 2.27148466433463e-03 3.79802427149890e-05
2.28750000000000e+01 2.02468749904534e-03 3.44229319532134e-05
2.36250000000000e+01 1.80470488449952e-03 3.11820126573503e-05
2.43750000000000e+01 1.60862341555036e-03 2.82319727629922e-05
2.51250000000000e+01 1.43384622897750e-03 2.55489119306355e-05
2.58750000000000e+01 1.27805861115704e-03 2.31105253933160e-05
2.66250000000000e+01 1.13919734246363e-03 2.08960664468678e-05
2.73750000000000e+01 1.01542337240803e-03 1.88862935226042e-05
2.81250000000000e+01 9.05097463625278e-04 1.70634065180936e-05
2.88750000000000e+01 8.06758482147417e-04 1.54109760514450e-05
2.96250000000000e+01 7.19104046441422e-04 1.39138684963398e-05
3.03750000000000e+01 6.40973278932239e-04 1.25581690082833e-05
3.11250000000000e+01 5.71331431575547e-04 1.13311042351449e-05
3.18750000000000e+01 5.09256181864441e-04 1.02209659915579e-05
3.26250000000000e+01 4.53925417777153e-04 9.21703684689694e-06
3.33750000000000e+01 4.04606349892108e-04 8.30951831412659e-06
3.41250000000000e+01 3.60645806473396e-04 7.48946211879392e-06
3.48750000000000e+01 3.21461582996732e-04 6.74870486334207e-06
3.56250000000000e+01 2.86534731550767e-04 6.07980627328574e-06
3.63750000000000e+01 2.55402687996173e-04 5.47599111175961e-06
3.71250000000000e+01 2.27653145859958e-04 4.93109477198008e-06
3.78750000000000e+01 2.02918595832130e-04 4.43951249873941e-06
3.86250000000000e+01 1.80871458546912e-04 3.99615214651932e-06
3.93750000000000e+01 1.61219746188029e-04 3.59639035019150e-06
4.01250000000000e+01 1.43703195461273e-04 3.23603196214437e-06
4.08750000000000e+01 1.28089820720201e-04 2.91127259507255e-06
4.16250000000000e+01 1.14172841595264e-04 2.61866410098663e-06
4.23750000000000e+01 1.01767944436521e-04 2.35508281295120e-06
4.31250000000000e+01 9.07108413010219e-05 2.11770037558559e-06
4.38750000000000e+01 8.08550941566067e-05 1.90395699261432e-06
4.46250000000000e+01 7.20701754862909e-05 1.71153692404822e-06
4.53750000000000e+01 6.42397396082971e-05 1.53834607136041e-06
4.61250000000000e+01 5.72600818174337e-05 1.38249149585337e-06
4.68750000000000e+01 5.10387649410043e-05 1.24226272294355e-06
4.76250000000000e+01 4.54933951196341e-05 1.11611469303988e-06
4.83750000000000e+01 4.05505305997011e-05 1.00265222784584e-06
4.91250000000000e+01 3.61447090856411e-05 9.00615889100727e-07
4.98750000000000e+01 3.22175807705770e-05 8.08869114867095e-07
5.06250000000000e+01 2.87171355633071e-05 7.26386526368891e-07
5.13750000000000e+01 2.55970142772016e-05 6.52243306018332e-07
5.21250000000000e+01 2.28158946585343e-05 5.85605554587629e-07
5.28750000000000e+01 2.03369441229317e-05 5.25721542450522e-07
5.36250000000000e+01 1.81273319520934e-05 4.71913776417068e-07
5.43750000000000e+01 1.61577944904152e-05 4.23571809902647e-07
5.51250000000000e+01 1.44022475830670e-05 3.80145730006287e-07
5.58750000000000e+01 1.28374411227351e-05 3.41140260527710e-07
5.66250000000000e+01 1.14426511299146e-05 3.06109425035443e-07
5.73750000000000e+01 1.01994052887262e-05 2.74651718821813e-07
5.81250000000000e+01 9.09123830331026e-06 2.46405742958883e-07
5.88750000000000e+01 8.10347383478648e-06 2.21046257718657e-07
5.96250000000000e+01 7.22303013079735e-06 1.98280616358111e-07
6.03750000000000e+01 6.43824677343222e-06 1.77845543712609e-07
6.11250000000000e+01 5.73873025101649e-06 1.59504227207919e-07
6.18750000000000e+01 5.11521630855029e-06 1.43043690809065e-07
6.26250000000000e+01 4.55944725379351e-06 1.28272425091097e-07
6.33750000000000e+01 4.06406259406397e-06 1.15018249059331e-07
6.41250000000000e+01 3.62250155536462e-06 1.03126381581141e-07
6.48750000000000e+01 3.22891619282292e-06 9.24577023331706e-08
6.56250000000000e+01 2.87809394169457e-06 8.28871840319601e-08
6.63750000000000e+01 2.56538858321284e-06 7.43024794160298e-08
6.71250000000000e+01 2.28665871100923e-06 6.66026479967484e-08
6.78750000000000e+01 2.03821288316718e-06 5.96970090059192e-08
6.86250000000000e+01 1.81676073351372e-06 5.35041082514750e-08
6.93750000000000e+01 1.61936939467700e-06 4.79507877595733e-08
7.01250000000000e+01 1.44342465578545e-06 4.29713481416295e-08
7.08750000000000e+01 1.28659634038897e-06 3.85067945875543e-08
7.16250000000000e+01 1.14680744607452e-06 3.45041582601387e-08
7.23750000000000e+01 1.02220663706719e-06 3.09158856579439e-08
7.31250000000000e+01 9.11143725514588e-07 2.76992892324028e-08
7.38750000000000e+01 8.12147816733494e-07 2.48160531957095e-08
7.46250000000000e+01 7.23907828978865e-07 2.22317890455421e-08
7.53750000000000e+01 6.45255129743036e-07 1.99156358662755e-08
7.61250000000000e+01 5.75148058623715e-07 1.78399009491955e-08
7.68750000000000e+01 5.12658131784807e-07 1.59797367109686e-08
7.76250000000000e+01 4.56957745304735e-07 1.43128502845164e-08
7.83750000000000e+01 4.07309214557894e-07 1.28192425133579e-08
7.91250000000000e+01 3.63055004469031e-07 1.14809734029710e-08
7.98750000000000e+01 3.23609021252017e-07 1.02819513740054e-08
8.06250000000000e+01 2.88448850302575e-07 9.20774392518924e-09
8.13750000000000e+01 2.57108837445177e-07 8.24540755118591e-09
8.21250000000000e+01 2.29173921903547e-07 7.38333497490461e-09
8.28750000000000e+01 2.04274139319898e-07 6.61111794705686e-09
8.36250000000000e+01 1.82079722021981e-07 5.91942404008177e-09
8.43750000000000e+01 1.62296731646895e-07 5.29988602076020e-09
8.51250000000000e+01 1.44663166281001e-07 4.74500252754743e-09
8.58750000000000e+01 1.28945490559698e-07 4.24804890637444e-09
8.66250000000000e+01 1.14935542772402e-07 3.80299717375252e-09
8.73750000000000e+01 1.02447778011057e-07 3.40444417969367e-09
8.81250000000000e+01 9.13168108509847e-08 3.04754713634125e-09
8.88750000000000e+01 8.13952250198591e-08 2.72796576229616e-09
8.96250000000000e+01 7.25516210464774e-08 2.44181036833503e-09
9.03750000000000e+01 6.46688760328065e-08 2.18559527836901e-09
9.11250000000000e+01 5.76425925020672e-08 1.95619704082998e-09
9.18750000000000e+01 5.13797157797173e-08 1.75081694086589e-09
9.26250000000000e+01 4.57973015962087e-08 1.56694737338646e-09
9.33750000000000e+01 4.08214175898979e-08 1.40234168167153e-09
9.41250000000000e+01 3.63861641618372e-08 1.25498710643269e-09
9.48750000000000e+01 3.24328017148481e-08 1.12308052635011e-09
9.56250000000000e+01 2.89089727182042e-08 1.00500670359399e-09
9.63750000000000e+01 2.57680082951104e-08 8.99318777047094e-10
9.71250000000000e+01 2.29683101495598e-08 8.04720772198719e-10
9.78750000000000e+01 2.04727996469357e-08 7.20051920277097e-10
9.86250000000000e+01 1.82484267520919e-08 6.44272600392398e-10
9.93750000000000e+01 1.62657323213880e-08 5.76451737516565e-10
1.00125000000000e+02 1.44984579517638e-08 5.15755506244952e-10
1.00875000000000e+02 1.29231982197729e-08 4.61437205663158e-10
1.01625000000000e+02 1.15190907048996e-08 4.12828184455740e-10
1.02375000000000e+02 1.02675396918919e-08 3.69329707799629e-10
1.03125000000000e+02 9.15196989287834e-09 3.30405668726158e-10
1.03875000000000e+02 8.15760692761617e-09 2.95576056639623e-10
1.04625000000000e+02 7.27128165459492e-09 2.64411104662295e-10
1.05375000000000e+02 6.48125576159611e-09 2.36526045539458e-10
1.06125000000000e+02 5.77706630586613e-09 2.11576413076529e-10
1.06875000000000e+02 5.14938714502368e-09 1.89253832577419e-10
1.07625000000000e+02 4.58990542352096e-09 1.69282249584457e-10
1.08375000000000e+02 4.09121147887012e-09 1.51414551453187e-10
1.09125000000000e+02 3.64670070957557e-09 1.35429540991087e-10
1.09875000000000e+02 3.25048610513080e-09 1.21129225602616e-10
1.10625000000000e+02 2.89732027964480e-09 1.08336389163123e-10
1.11375000000000e+02 2.58252597652721e-09 9.68924172353730e-11
1.12125000000000e+02 2.30193412385028e-09 8.66553492845384e-11
1.12875000000000e+02 2.05182862000557e-09 7.74981342761324e-11
1.13625000000000e+02 1.82889711840763e-09 6.93070684887428e-11
1.14375000000000e+02 1.63018715944739e-09 6.19803965682757e-11
1.15125000000000e+02 1.45306706871568e-09 5.54270588187449e-11
1.15875000000000e+02 1.29519110364097e-09 4.95655694896446e-11
1.16625000000000e+02 1.15446838695023e-09 4.43230124025275e-11
1.17375000000000e+02 1.02903521551437e-09 3.96341416783511e-11
1.18125000000000e+02 9.17230377841740e-10 3.54405765992621e-11
1.18875000000000e+02 8.17573153330002e-10 3.16900807789034e-11
1.19625000000000e+02 7.28743701902657e-10 2.83359168376149e-11
1.20375000000000e+02 6.49565584314668e-10 2.53362686952271e-11
1.21125000000000e+02 5.78990181629613e-10 2.26537244154650e-11
1.21875000000000e+02 5.16082807523093e-10 2.02548132720773e-11
1.22625000000000e+02 4.60010329486554e-10 1.81095913665097e-11
1.23375000000000e+02 4.10030134989256e-10 1.61912707181188e-11
1.24125000000000e+02 3.65480296468477e-10 1.44758872776898e-11
1.24875000000000e+02 3.25770804895074e-10 1.29420037897087e-11
1.25625000000000e+02 2.90375755813523e-10 1.15704438541683e-11
1.26375000000000e+02 2.58826384369932e-10 1.03440539197570e-11
1.27125000000000e+02 2.30704857085359e-10 9.24749028168623e-12
1.27875000000000e+02 2.05638738153926e-10 8.26702846326406e-12
1.28625000000000e+02 1.83296056978519e-10 7.39039263431391e-12
1.29375000000000e+02 1.63380911619501e-10 6.60660296496826e-12
1.30125000000000e+02 1.45629549929422e-10 5.90583903321036e-12
1.30875000000000e+02 1.29806876473044e-10 5.27931760144807e-12
1.31625000000000e+02 1.15703338971069e-10 4.71918325376717e-12
1.32375000000000e+02 1.03132153032233e-10 4.21841054346440e-12
1.33125000000000e+02 9.19268284186974e-11 3.77071644191852e-12
1.33875000000000e+02 8.19389640830977e-11 3.37048200653776e-12
1.34625000000000e+02 7.30362827751553e-11 3.01268229896347e-12
1.35375000000000e+02 6.51008791885960e-11 2.69282368629089e-12
1.36125000000000e+02 5.80276584471773e-11 2.40688774902683e-12
1.36875000000000e+02 5.17229442494552e-11 2.15128110094605e-12
1.37625000000000e+02 4.61032382388399e-11 1.92279049892755e-12
1.38375000000000e+02 4.10941141682904e-11 1.71854268613759e-12
1.39125000000000e+02 3.66292322141877e-11 1.53596847037495e-12
1.39875000000000e+02 3.26494603851612e-11 1.37277059172006e-12
1.40625000000000e+02 2.91020913899832e-11 1.22689498047220e-12
1.41375000000000e+02 2.59401445928906e-11 1.09650504829190e-12
1.42125000000000e+02 2.31217438115694e-11 9.79958693001359e-13
1.42875000000000e+02 2.06095627174865e-11 8.75787731094839e-13
1.43625000000000e+02 1.83703304935624e-11 7.82679502084792e-13
1.44375000000000e+02 1.63743912022149e-11 6.99460415727313e-13
1.45125000000000e+02 1.45953110281349e-11 6.25081237262480e-13
1.45875000000000e+02 1.30095281941951e-11 5.58603927367393e-13
1.46625000000000e+02 1.15960409140514e-11 4.99189872817148e-13
1.47375000000000e+02 1.03361292487420e-11 4.46089361118994e-13
1.48125000000000e+02 9.21310718361155e-12 3.98632167839902e-13
1.48875000000000e+02 8.21210164211572e-12 3.56219139178236e-13
1.49625000000000e+02 7.31985550981115e-12 3.18314664706349e-13
1.50375000000000e+02 6.52455205981944e-12 2.84439946285499e-13
1.51125000000000e+02 5.81565845449213e-12 2.54166979063961e-13
1.51875000000000e+02 5.18378625064443e-12 2.27113169335909e-13
1.52625000000000e+02 4.62056706091708e-12 2.02936521972189e-13
1.53375000000000e+02 4.11854172455081e-12 1.81331337232357e-13
1.54125000000000e+02 3.67106151977357e-12 1.62024363118148e-13
1.54875000000000e+02 3.27220010947735e-12 1.44771355110472e-13
1.55625000000000e+02 2.91667505401109e-12 1.29354000215290e-13
1.56375000000000e+02 2.59977785162087e-12 1.15577166791383e-13
1.57125000000000e+02 2.31731158000734e-12 1.03266445701360e-13
1.57875000000000e+02 2.06553531313767e-12 9.22659519666489e-14
1.58625000000000e+02 1.84111457717966e-12 8.24363593629259e-14
1.59375000000000e+02 1.64107718940630e-12 7.36531433046982e-14
1.60125000000000e+02 1.46277389521038e-12 6.58050099728653e-14
1.60875000000000e+02 1.30384328191352e-12 5.87924919692856e-14
1.61625000000000e+02 1.16218050469552e-12 5.25266928666717e-14
1.62375000000000e+02 1.03590941045622e-12 4.69281648864295e-14
1.63125000000000e+02 9.23357690424249e-13 4.19259056045167e-14
1.63875000000000e+02 8.23034732438740e-13 3.74564610767808e-14
1.64625000000000e+02 7.33611879584036e-13 3.34631241091048e-14
1.65375000000000e+02 6.53904833726905e-13 2.98952175906475e-14
1.66125000000000e+02 5.82857970912166e-13 2.67074538753803e-14
1.66875000000000e+02 5.19530360893048e-13 2.38593621512870e-14
1.67625000000000e+02 4.63083305641770e-13 2.13147765899063e-14
1.68375000000000e+02 4.12769231802905e-13 1.90413788319995e-14
1.69125000000000e+02 3.67921789983421e-13 1.70102890475413e-14
1.69875000000000e+02 3.27947029756427e-13 1.51957004184808e-14
1.70625000000000e+02 2.92315533502131e-13 1.35745524384195e-14
1.71375000000000e+02 2.60555404908225e-13 1.21262389113219e-14
1.72125000000000e+02 2.32246019270796e-13 1.08323469677148e-14
1.72875000000000e+02 2.07012452826030e-13 9.67642380699195e-15
1.73625000000000e+02 1.84520517335894e-13 8.64376822330598e-15
1.74375000000000e+02 1.64472334166869e-13 7.72124428446568e-15
1.75125000000000e+02 1.46602389245719e-13 6.89711481216053e-15
1.75875000000000e+02 1.30674016644938e-13 6.16089256120820e-15
1.76625000000000e+02 1.16476264227189e-13 5.50320721847984e-15
1.77375000000000e+02 1.03821099837965e-13 4.91568654150003e-15
1.78125000000000e+02 9.25409210458567e-14 4.39085013494088e-15
1.78875000000000e+02 8.24863354499343e-14 3.92201452256776e-15
1.79625000000000e+02 7.35241821570752e-14 3.50320831464523e-15
1.80375000000000e+02 6.55357682260945e-14 3.12909639816479e-15
1.81125000000000e+02 5.84152967224958e-14 2.79491219110763e-15
1.81875000000000e+02 5.20684655653205e-14 2.49639710373688e-15
1.82625000000000e+02 4.64112186095069e-14 2.22974644090153e-15
1.83375000000000e+02 4.13686324233470e-14 1.99156106067298e-15
1.84125000000000e+02 3.68739240177468e-14 1.77880417734545e-15
1.84875000000000e+02 3.28675663858592e-14 1.58876276182920e-15
1.85625000000000e+02 2.92965001394737e-14 1.41901305056655e-15
1.86375000000000e+02 2.61134308012365e-14 1.26738972603630e-15
1.87125000000000e+02 2.32762024461813e-14 1.13195837833636e-15
1.87875000000000e+02 2.07472393972056e-14 1.01099089883091e-15
1.88625000000000e+02 1.84930485804216e-14 9.02943493939494e-16
1.89375000000000e+02 1.64837759496763e-14 8.06437040299137e-16
1.90125000000000e+02 1.46928111056167e-14 7.20239532163530e-16
1.90875000000000e+02 1.30964348729559e-14 6.43250398389384e-16
1.91625000000000e+02 1.16735051685248e-14 5.74486490033220e-16
1.92375000000000e+02 1.04051769998089e-14 5.13069560740214e-16
1.93125000000000e+02 9.27465288568799e-15 4.58215081017316e-16
1.93875000000000e+02 8.26696039400196e-15 4.09222244384303e-16
1.94625000000000e+02 7.36875384969488e-15 3.65465038501804e-16
1.95375000000000e+02 6.56813758740021e-15 3.26384267875427e-16
1.96125000000000e+02 5.85450840766051e-15 2.91480426800334e-16
1.96875000000000e+02 5.21841515030357e-15 2.60307331993300e-16
1.97625000000000e+02 4.65143352519325e-15 2.32466433995613e-16
1.98375000000000e+02 4.14605454263888e-15 2.07601735042004e-16
1.99125000000000e+02 3.69558506585824e-15 1.85395248786796e-16
1.99875000000000e+02 3.29405916843097e-15 1.65562944156071e-16
2.00625000000000e+02 2.93615912277862e-15 1.47851121740735e-16
2.01375000000000e+02 2.61714497325879e-15 1.32033176637686e-16
2.02125000000000e+02 2.33279176115353e-15 1.17906706554317e-16
2.02875000000000e+02 2.07933357017272e-15 1.05290928377466e-16
2.03625000000000e+02 1.85341365142222e-15 9.40243703270478e-17
2.04375000000000e+02 1.65203996730207e-15 8.39628103167694e-17
2.05125000000000e+02 1.47254556556716e-15 7.49774342736640e-17
2.05875000000000e+02 1.31255325875238e-15 6.69531909645201e-17
2.06625000000000e+02 1.16994414118381e-15 5.97873223758955e-17
2.07375000000000e+02 1.04282952662155e-15 5.33880509270432e-17
2.08125000000000e+02 9.29525934882109e-16 4.76734067899989e-17
2.08875000000000e+02 8.28532796168148e-16 4.25701803735780e-17
2.09625000000000e+02 7.38512577826323e-16 3.80129866207090e-17
2.10375000000000e+02 6.58273070336004e-16 3.39434291915800e-17
2.11125000000000e+02 5.86751597928092e-16 3.03093538765656e-17
2.11875000000000e+02 5.23000944722589e-16 2.70641817189331e-17
2.12625000000000e+02 4.66176809993524e-16 2.41663133423475e-17
2.13375000000000e+02 4.15526626421315e-16 2.15785968850665e-17
2.14125000000000e+02 3.70379593243769e-16 1.92678527529583e-17
2.14875000000000e+02 3.30137792306786e-16 1.72044491273814e-17
2.15625000000000e+02 2.94268269357554e-16 1.53619228107158e-17
2.16375000000000e+02 2.62295975706475e-16 1.37166405701616e-17
2.17125000000000e+02 2.33797476778635e-16 1.22474966566508e-17
2.17875000000000e+02 2.08395344232141e-16 1.09356426369207e-17
2.18625000000000e+02 1.85753157373687e-16 9.76424608883051e-18
2.19375000000000e+02 1.65571047671092e-16 8.71827507810514e-18
2.20125000000000e+02 1.47581727355266e-16 7.78430566354250e-18
2.20875000000000e+02 1.31546949515176e-16 6.95034997150582e-18
2.21625000000000e+02 1.17254352804069e-16 6.20570264297585e-18
2.22375000000000e+02 1.04514648968846e-16 5.54080369089965e-18
2.23125000000000e+02 9.31591159548149e-17 4.94711601502566e-18
2.23875000000000e+02 8.30373633850085e-17 4.41701600852476e-18
2.24625000000000e+02 7.40153408205198e-17 4.17024473006709e-18
