Energy (eV)          EEDF (eV^-(3/2))     First Anisotropy
3.39473684210526e-03 4.92519310989636e+00 4.07919155745985e-03
1.01842105263158e-02 4.83614208038193e+00 6.69752546890198e-03
1.69736842105263e-02 4.74870115711216e+00 8.74039908340597e-03
2.37631578947368e-02 4.66284122861251e+00 1.02322163180524e-02
3.05526315789474e-02 4.57853370963679e+00 1.14275861078654e-02
3.73421052631579e-02 4.49575053112042e+00 1.24244607599524e-02
4.41315789473684e-02 4.41446413190806e+00 1.32743697959520e-02
5.09210526315790e-02 4.33464744916037e+00 1.40089264186711e-02
5.77105263157895e-02 4.25627390935438e+00 1.46494208621021e-02
6.45000000000000e-02 4.17931741943468e+00 1.52111258111466e-02
7.12894736842105e-02 4.10375235822966e+00 1.57055104532304e-02
7.80789473684211e-02 4.02955356759737e+00 1.61414924413053e-02
8.48684210526316e-02 3.95669634438759e+00 1.65261975250154e-02
9.16578947368421e-02 3.88515643209963e+00 1.68654463462594e-02
9.84473684210526e-02 3.81491001280707e+00 1.71640802776511e-02
1.05236842105263e-01 3.74593369941006e+00 1.74261875453865e-02
1.12026315789474e-01 3.67820452712155e+00 1.76552648123572e-02
1.18815789473684e-01 3.61169994674965e+00 1.78543356463550e-02
1.25605263157895e-01 3.54639781732007e+00 1.80260395084833e-02
1.32394736842105e-01 3.48227639715237e+00 1.81726995388600e-02
1.39184210526316e-01 3.41931433818398e+00 1.82963751893498e-02
1.45973684210526e-01 3.35749067875443e+00 1.83989039839600e-02
1.52763157894737e-01 3.29678483537654e+00 1.84819346539080e-02
1.59552631578947e-01 3.23717659714143e+00 1.85469539197886e-02
1.66342105263158e-01 3.17864611890546e+00 1.85953086111709e-02
1.73131578947368e-01 3.12117391365928e+00 1.86282237157726e-02
1.79921052631579e-01 3.06474084707452e+00 1.86468174032511e-02
1.86710526315789e-01 3.00932813106589e+00 1.86521138428848e-02
1.93500000000000e-01 2.95491731668172e+00 1.86450538595350e-02
2.00289473684211e-01 2.90149028882764e+00 1.86265040250179e-02
2.07078947368421e-01 2.84902925994277e+00 1.85972645410984e-02
2.13868421052632e-01 2.79751676430842e+00 1.85580760311079e-02
2.20657894736842e-01 2.74693565153071e+00 1.85096253626292e-02
2.27447368421053e-01 2.69726908154311e+00 1.84525507002888e-02
2.34236842105263e-01 2.64850051895816e+00 1.83874460937929e-02
2.41026315789474e-01 2.60061372695853e+00 1.83148653632092e-02
2.47815789473684e-01 2.55359276250199e+00 1.82353255292951e-02
2.54605263157895e-01 2.50742197098055e+00 1.81493100035239e-02
2.61394736842105e-01 2.46208598048514e+00 1.80572712910150e-02
2.68184210526316e-01 2.41756969721604e+00 1.79596334034498e-02
2.74973684210526e-01 2.37385830043126e+00 1.78567941559290e-02
2.81763157894737e-01 2.33093723705504e+00 1.77491271072651e-02
2.88552631578947e-01 2.28879221729405e+00 1.76369833083308e-02
2.95342105263158e-01 2.24740920985673e+00 1.75206930052200e-02
3.02131578947368e-01 2.20677443688114e+00 1.74005670692014e-02
3.08921052631579e-01 2.16687436975303e+00 1.72768982956790e-02
3.15710526315789e-01 2.12769572458136e+00 1.71499626991068e-02
3.22500000000000e-01 2.08922545742257e+00 1.70200205906886e-02
3.29289473684211e-01 2.05145076029553e+00 1.68873175747716e-02
3.36078947368421e-01 2.01435905679650e+00 1.67520855122787e-02
3.42868421052632e-01 1.97793799801232e+00 1.66145434016396e-02
3.49657894736842e-01 1.94217545810411e+00 1.64748981517137e-02
3.56447368421053e-01 1.90705953057921e+00 1.63333452830284e-02
3.63236842105263e-01 1.87257852431235e+00 1.61900696675948e-02
3.70026315789474e-01 1.83872095938150e+00 1.60452461260645e-02
3.76815789473684e-01 1.80547556352077e+00 1.58990399807766e-02
3.83605263157895e-01 1.77283126835509e+00 1.57516076536085e-02
3.90394736842105e-01 1.74077720547205e+00 1.56030971411895e-02
3.97184210526316e-01 1.70930270304908e+00 1.54536484567695e-02
4.03973684210526e-01 1.67839728228976e+00 1.53033941198461e-02
4.10763157894737e-01 1.64805065371703e+00 1.51524595388073e-02
4.17552631578947e-01 1.61825271396779e+00 1.50009633680315e-02
4.24342105263158e-01 1.58899354241954e+00 1.48490179135902e-02
4.31131578947368e-01 1.56026339769162e+00 1.46967294444978e-02
4.37921052631579e-01 1.53205271460009e+00 1.45441984842129e-02
4.44710526315790e-01 1.50435210096446e+00 1.43915201502493e-02
4.51500000000000e-01 1.47715233430432e+00 1.42387844096415e-02
4.58289473684211e-01 1.45044435894755e+00 1.40860763253039e-02
4.65078947368421e-01 1.42421928295503e+00 1.39334763174179e-02
4.71868421052632e-01 1.39846837521144e+00 1.37810604065648e-02
4.78657894736842e-01 1.37318306236279e+00 1.36289004195186e-02
4.85447368421053e-01 1.34835492611970e+00 1.34770641764049e-02
4.92236842105263e-01 1.32397570044790e+00 1.33256157229341e-02
4.99026315789474e-01 1.30003726867523e+00 1.31746154961624e-02
5.05815789473684e-01 1.27653166093201e+00 1.30241204810485e-02
5.12605263157895e-01 1.25345105149166e+00 1.28741844100079e-02
5.19394736842105e-01 1.23078775603738e+00 1.27248579021275e-02
5.26184210526316e-01 1.20853422923305e+00 1.25761885948462e-02
5.32973684210526e-01 1.18668306220605e+00 1.24282213164617e-02
5.39763157894737e-01 1.16522697996418e+00 1.22809982036203e-02
5.46552631578947e-01 1.14415883909126e+00 1.21345588126326e-02
5.53342105263158e-01 1.12347162536404e+00 1.19889402693899e-02
5.60131578947368e-01 1.10315845131115e+00 1.18441773689310e-02
5.66921052631579e-01 1.08321255402709e+00 1.17003026699562e-02
5.73710526315789e-01 1.06362729291629e+00 1.15573466257223e-02
5.80500000000000e-01 1.04439614738581e+00 1.14153376687377e-02
5.87289473684211e-01 1.02551271477206e+00 1.12743022952625e-02
5.94078947368421e-01 1.00697070817621e+00 1.11342651641583e-02
6.00868421052632e-01 9.88763954399352e-01 1.09952491890324e-02
6.07657894736842e-01 9.70886391801228e-01 1.08572756112714e-02
6.14447368421053e-01 9.53332068369255e-01 1.07203640652946e-02
6.21236842105263e-01 9.36095139733417e-01 1.05845326756131e-02
6.28026315789474e-01 9.19169867141791e-01 1.04497981155273e-02
6.34815789473684e-01 9.02550615629563e-01 1.03161756630585e-02
6.41605263157895e-01 8.86231852139871e-01 1.01836792867480e-02
6.48394736842105e-01 8.70208143609618e-01 1.00523216960542e-02
6.55184210526316e-01 8.54474155233480e-01 9.92211438938955e-03
6.61973684210526e-01 8.39024648685022e-01 9.79306773018711e-03
6.68763157894737e-01 8.23854480306632e-01 9.66519099023489e-03
6.75552631578947e-01 8.08958599463821e-01 9.53849239100871e-03
6.82342105263158e-01 7.94332046861143e-01 9.41297917128485e-03
6.89131578947368e-01 7.79969952830534e-01 9.28865762443649e-03
6.95921052631579e-01 7.65867535771315e-01 9.16553313404921e-03
7.02710526315789e-01 7.52020100555867e-01 9.04361023415522e-03
7.09500000000000e-01 7.38423036910912e-01 8.92289264136145e-03
7.16289473684211e-01 7.25071817938870e-01 8.80338328809962e-03
7.23078947368421e-01 7.11961998591708e-01 8.68508436620333e-03
7.29868421052632e-01 6.99089214207490e-01 8.56799736731834e-03
7.36657894736842e-01 6.86449179007278e-01 8.45212311209391e-03
7.43447368421053e-01 6.74037684718852e-01 8.33746177534316e-03
7.50236842105263e-01 6.61850599173713e-01 8.22401293249587e-03
7.57026315789474e-01 6.49883864885375e-01 8.11177558227971e-03
7.63815789473684e-01 6.38133497745019e-01 8.00074816840503e-03
7.70605263157895e-01 6.26595585693323e-01 7.89092862120343e-03
7.77394736842105e-01 6.15266287375676e-01 7.78231437717628e-03
7.84184210526316e-01 6.04141830906081e-01 7.67490239767316e-03
7.90973684210526e-01 5.93218512609804e-01 7.56868920626868e-03
7.97763157894737e-01 5.82492695751291e-01 7.46367090559057e-03
8.04552631578947e-01 5.71960809362839e-01 7.35984319339757e-03
8.11342105263158e-01 5.61619347054244e-01 7.25720139617382e-03
8.18131578947368e-01 5.51464865809462e-01 7.15574048358803e-03
8.24921052631579e-01 5.41493984876701e-01 7.05545508231708e-03
8.31710526315790e-01 5.31703384641501e-01 6.95633950627278e-03
8.38500000000000e-01 5.22089805488375e-01 6.85838776900157e-03
8.45289473684211e-01 5.12650046749149e-01 6.76159359719725e-03
8.52078947368421e-01 5.03380965626023e-01 6.66595045128719e-03
8.58868421052632e-01 4.94279476155098e-01 6.57145154432046e-03
8.65657894736842e-01 4.85342548148991e-01 6.47808985387838e-03
8.72447368421053e-01 4.76567206218337e-01 6.38585813166937e-03
8.79236842105263e-01 4.67950528780060e-01 6.29474892729546e-03
8.86026315789474e-01 4.59489647057000e-01 6.20475459680282e-03
8.92815789473684e-01 4.51181744150824e-01 6.11586731084445e-03
8.99605263157895e-01 4.43024054103178e-01 6.02807907612628e-03
9.06394736842105e-01 4.35013860949209e-01 5.94138174266200e-03
9.13184210526316e-01 4.27148497839225e-01 5.85576701068494e-03
9.19973684210526e-01 4.19425346149900e-01 5.77122645001311e-03
9.26763157894737e-01 4.11841834588758e-01 5.68775150616870e-03
9.33552631578947e-01 4.04395438362069e-01 5.60533350620070e-03
9.40342105263158e-01 3.97083678333402e-01 5.52396367618016e-03
9.47131578947368e-01 3.89904120176334e-01 5.44363314632372e-03
9.53921052631579e-01 3.82854373586153e-01 5.36433295586687e-03
9.60710526315790e-01 3.75932091483247e-01 5.28605406887574e-03
9.67500000000000e-01 3.69134969211410e-01 5.20878737850022e-03
9.74289473684211e-01 3.62460743791078e-01 5.13252371210499e-03
9.81078947368421e-01 3.55907193158981e-01 5.05725384119336e-03
9.87868421052632e-01 3.49472135434401e-01 4.98296849035421e-03
9.94657894736842e-01 3.43153428174359e-01 4.90965834174088e-03
1.00144736842105e+00 3.36948967678951e-01 4.83731404315904e-03
1.00823684210526e+00 3.30856688262217e-01 4.76592620144179e-03
1.01502631578947e+00 3.24874561654704e-01 4.69548540339657e-03
1.02181578947368e+00 3.19000596213339e-01 4.62598223908597e-03
1.02860526315789e+00 3.13232836253707e-01 4.55740725735016e-03
1.03539473684211e+00 3.07569361556748e-01 4.48975099876056e-03
1.04218421052632e+00 3.02008286568885e-01 4.42300402897293e-03
1.04897368421053e+00 2.96547759780887e-01 4.35715688662810e-03
1.05576315789474e+00 2.91185963257558e-01 4.29220011587065e-03
1.06255263157895e+00 2.85921111883819e-01 4.22812429723813e-03
1.06934210526316e+00 2.80751452776331e-01 4.16491999857530e-03
1.07613157894737e+00 2.75675264835480e-01 4.10257781298702e-03
1.08292105263158e+00 2.70690857992033e-01 4.04108835586514e-03
1.08971052631579e+00 2.65796572820786e-01 3.98044225809362e-03
1.09650000000000e+00 2.60990779856288e-01 3.92063020230207e-03
1.10328947368421e+00 2.56271879055639e-01 3.86164287816520e-03
1.11007894736842e+00 2.51638299385962e-01 3.80347100904708e-03
1.11686842105263e+00 2.47088498179114e-01 3.74610537732129e-03
1.12365789473684e+00 2.42620960622962e-01 3.68953678225550e-03
1.13044736842105e+00 2.38234199368596e-01 3.63375607134275e-03
1.13723684210526e+00 2.33926753886722e-01 3.57875413711346e-03
1.14402631578947e+00 2.29697190126559e-01 3.52452191074220e-03
1.15081578947368e+00 2.25544099929936e-01 3.47105039202201e-03
1.15760526315789e+00 2.21466100566729e-01 3.41833061102477e-03
1.16439473684211e+00 2.17461834373583e-01 3.36635364998333e-03
1.17118421052632e+00 2.13529968201148e-01 3.31511066409356e-03
1.17797368421053e+00 2.09669192974251e-01 3.26459284538963e-03
1.18476315789474e+00 2.05878223348039e-01 3.21479144305398e-03
1.19155263157895e+00 2.02155797186517e-01 3.16569778272359e-03
1.19834210526316e+00 1.98500675145981e-01 3.11730323245015e-03
1.20513157894737e+00 1.94911640347919e-01 3.06959922678806e-03
1.21192105263158e+00 1.91387497860122e-01 3.02257726360348e-03
1.21871052631579e+00 1.87927074410131e-01 2.97622889836130e-03
1.22550000000000e+00 1.84529217911434e-01 2.93054576721524e-03
1.23228947368421e+00 1.81192797083155e-01 2.88551955602464e-03
1.23907894736842e+00 1.77916701149460e-01 2.84114201707924e-03
1.24586842105263e+00 1.74699839392430e-01 2.79740498500167e-03
1.25265789473684e+00 1.71541140791929e-01 2.75430034754907e-03
1.25944736842105e+00 1.68439553739752e-01 2.71182006558769e-03
1.26623684210526e+00 1.65394045595413e-01 2.66995616999820e-03
1.27302631578947e+00 1.62403602434410e-01 2.62870075645762e-03
1.27981578947368e+00 1.59467228641862e-01 2.58804600461068e-03
1.28660526315789e+00 1.56583946583667e-01 2.54798415149582e-03
1.29339473684211e+00 1.53752796344015e-01 2.50850750533930e-03
1.30018421052632e+00 1.50972835341767e-01 2.46960845867394e-03
1.30697368421053e+00 1.48243138019128e-01 2.43127946329274e-03
1.31376315789474e+00 1.45562795592098e-01 2.39351304307082e-03
1.32055263157895e+00 1.42930915688347e-01 2.35630180615832e-03
1.32734210526316e+00 1.40346622052375e-01 2.31963842137224e-03
1.33413157894737e+00 1.37809054308365e-01 2.28351563363525e-03
1.34092105263158e+00 1.35317367601134e-01 2.24792626111819e-03
1.34771052631579e+00 1.32870732385900e-01 2.21286319070471e-03
1.35450000000000e+00 1.30468334098995e-01 2.17831939283376e-03
1.36128947368421e+00 1.28109372888696e-01 2.14428790001245e-03
1.36807894736842e+00 1.25793063397587e-01 2.11076181741058e-03
1.37486842105263e+00 1.23518634451642e-01 2.07773433293676e-03
1.38165789473684e+00 1.21285328805352e-01 2.04519869698216e-03
1.38844736842105e+00 1.19092402934944e-01 2.01314823526350e-03
1.39523684210526e+00 1.16939126730529e-01 1.98157634616048e-03
1.40202631578947e+00 1.14824783312051e-01 1.95047649663637e-03
1.40881578947368e+00 1.12748668746507e-01 1.91984223459841e-03
1.41560526315789e+00 1.10710091815236e-01 1.88966717046138e-03
1.42239473684211e+00 1.08708373824260e-01 1.85994498591092e-03
1.42918421052632e+00 1.06742848337203e-01 1.83066944223886e-03
1.43597368421053e+00 1.04812860954983e-01 1.80183436296046e-03
1.44276315789474e+00 1.02917769135635e-01 1.77343364196829e-03
1.44955263157895e+00 1.01056941942087e-01 1.74546125128677e-03
1.45634210526316e+00 9.92297598335262e-02 1.71791122468152e-03
1.46313157894737e+00 9.74356144942982e-02 1.69077766762415e-03
1.46992105263158e+00 9.56739085846080e-02 1.66405475492367e-03
1.47671052631579e+00 9.39440555874325e-02 1.63773672723452e-03
1.48350000000000e+00 9.22454795790249e-02 1.61181790066063e-03
1.49028947368421e+00 9.05776150384497e-02 1.58629265183579e-03
1.49707894736842e+00 8.89399066907222e-02 1.56115542467652e-03
1.50386842105263e+00 8.73318092900209e-02 1.53640073680439e-03
1.51065789473684e+00 8.57527874393478e-02 1.51202316547592e-03
1.51744736842105e+00 8.42023154415856e-02 1.48801735589076e-03
1.52423684210526e+00 8.26798770854844e-02 1.46437801902966e-03
1.53102631578947e+00 8.11849655119717e-02 1.44109992854205e-03
1.53781578947368e+00 7.97170830168765e-02 1.41817792876118e-03
1.54460526315789e+00 7.82757408862760e-02 1.39560692189600e-03
1.55139473684211e+00 7.68604592600033e-02 1.37338187362794e-03
1.55818421052632e+00 7.54707669452580e-02 1.35149781843338e-03
1.56497368421053e+00 7.41062012607244e-02 1.32994984750313e-03
1.57176315789474e+00 7.27663079069860e-02 1.30873311395337e-03
1.57855263157895e+00 7.14506407904342e-02 1.28784283778071e-03
1.58534210526316e+00 7.01587618756577e-02 1.26727429446697e-03
1.59213157894737e+00 6.88902410624471e-02 1.24702282144328e-03
1.59892105263158e+00 6.76446560122225e-02 1.22708381620643e-03
1.60571052631579e+00 6.64215920371677e-02 1.20745273367946e-03
1.61250000000000e+00 6.52206419399341e-02 1.18812509245608e-03
1.61928947368421e+00 6.40414058788884e-02 1.16909646442606e-03
1.62607894736842e+00 6.28834912554328e-02 1.15036247909758e-03
1.63286842105263e+00 6.17465125625374e-02 1.13191882770695e-03
1.63965789473684e+00 6.06300912571530e-02 1.11376125343111e-03
1.64644736842105e+00 5.95338556532722e-02 1.09588555678638e-03
1.65323684210526e+00 5.84574407727868e-02 1.07828759392983e-03
1.66002631578947e+00 5.74004882488436e-02 1.06096327432028e-03
1.66681578947368e+00 5.63626461879482e-02 1.04390856593820e-03
1.67360526315789e+00 5.53435690534813e-02 1.02711948637420e-03
1.68039473684211e+00 5.43429175677605e-02 1.01059210641597e-03
1.68718421052632e+00 5.33603585817173e-02 9.94322553458171e-04
1.69397368421053e+00 5.23955649646185e-02 9.78307003094250e-04
1.70076315789474e+00 5.14482155111262e-02 9.62541682457735e-04
1.70755263157895e+00 5.05179948181386e-02 9.47022873397869e-04
1.71434210526316e+00 4.96045931803675e-02 9.31746904545828e-04
1.72113157894737e+00 4.87077065021590e-02 9.16710155523747e-04
1.72792105263158e+00 4.78270361763910e-02 9.01909055483749e-04
1.73471052631579e+00 4.69622890045066e-02 8.87340081136715e-04
1.74150000000000e+00 4.61131770843611e-02 8.72999760826983e-04
1.74828947368421e+00 4.52794177148955e-02 8.58884667307407e-04
1.75507894736842e+00 4.44607333154004e-02 8.44991420513541e-04
1.76186842105263e+00 4.36568513195111e-02 8.31316690199759e-04
1.76865789473684e+00 4.28675040849530e-02 8.17857189121133e-04
1.77544736842105e+00 4.20924288169457e-02 8.04609676552940e-04
1.78223684210526e+00 4.13313674640666e-02 7.91570956983741e-04
1.78902631578947e+00 4.05840666486391e-02 7.78737878375565e-04
1.79581578947368e+00 3.98502775701919e-02 7.66107335573899e-04
1.80260526315789e+00 3.91297559230611e-02 7.53676264098293e-04
1.80939473684211e+00 3.84222618262769e-02 7.41441642446228e-04
1.81618421052632e+00 3.77275597323043e-02 7.29400494281845e-04
1.82297368421053e+00 3.70454183490343e-02 7.17549882575388e-04
1.82976315789474e+00 3.63756105732718e-02 7.05886911749777e-04
1.83655263157895e+00 3.57179134044737e-02 6.94408729719473e-04
1.84334210526316e+00 3.50721078708829e-02 6.83112522358857e-04
1.85013157894737e+00 3.44379789664449e-02 6.71995516250267e-04
1.85692105263158e+00 3.38153155661665e-02 6.61054977569663e-04
1.86371052631579e+00 3.32039103686166e-02 6.50288210626564e-04
1.87050000000000e+00 3.26035598173481e-02 6.39692560529882e-04
1.87728947368421e+00 3.20140640334688e-02 6.29265408149421e-04
1.88407894736842e+00 3.14352267579065e-02 6.19004171898917e-04
1.89086842105263e+00 3.08668552771235e-02 6.08906309429264e-04
1.89765789473684e+00 3.03087603592754e-02 5.98969312872213e-04
1.90444736842105e+00 2.97607561994534e-02 5.89190711140197e-04
1.91123684210526e+00 2.92226603468576e-02 5.79568068935086e-04
1.91802631578947e+00 2.86942936547961e-02 5.70098985463129e-04
1.92481578947368e+00 2.81754802130126e-02 5.60781096667874e-04
1.93160526315789e+00 2.76660472894038e-02 5.51612070897541e-04
1.93839473684211e+00 2.71658252799158e-02 5.42589610386270e-04
1.94518421052632e+00 2.66746476445616e-02 5.33711452660325e-04
1.95197368421053e+00 2.61923508522433e-02 5.24975366447656e-04
1.95876315789474e+00 2.57187743332349e-02 5.16379153058175e-04
1.96555263157895e+00 2.52537604186921e-02 5.07920647693690e-04
1.97234210526316e+00 2.47971542884058e-02 4.99597715585984e-04
1.97913157894737e+00 2.43488039257457e-02 4.91408253794449e-04
1.98592105263158e+00 2.39085600584209e-02 4.83350190366022e-04
1.99271052631579e+00 2.34762761172345e-02 4.75421483260258e-04
1.99950000000000e+00 2.30518081809685e-02 4.67620122096744e-04
2.00628947368421e+00 2.26350149286906e-02 4.59944124636649e-04
2.01307894736842e+00 2.22257575985323e-02 4.52391537929402e-04
2.01986842105263e+00 2.18238999355753e-02 4.44960439400558e-04
2.02665789473684e+00 2.14293081466962e-02 4.37648933529496e-04
2.03344736842105e+00 2.10418508614802e-02 4.30455153354782e-04
2.04023684210526e+00 2.06613990812240e-02 4.23377259729896e-04
2.04702631578947e+00 2.02878261431006e-02 4.16413440379175e-04
2.05381578947368e+00 1.99210076726734e-02 4.09561911362309e-04
2.06060526315789e+00 1.95608215426742e-02 4.02820914047359e-04
2.06739473684211e+00 1.92071478372489e-02 3.96188716063273e-04
2.07418421052632e+00 1.88598688070552e-02 3.89663612203211e-04
2.08097368421053e+00 1.85188688302351e-02 3.83243921566028e-04
2.08776315789474e+00 1.81840343785153e-02 3.76927988443800e-04
2.09455263157895e+00 1.78552539747476e-02 3.70714183163252e-04
2.10134210526316e+00 1.75324181559568e-02 3.64600899386223e-04
2.10813157894737e+00 1.72154194412019e-02 3.58586555287088e-04
2.11492105263158e+00 1.69041522900673e-02 3.52669592924894e-04
2.12171052631579e+00 1.65985130731341e-02 3.46848477455592e-04
2.12850000000000e+00 1.62984000332859e-02 3.41121698278892e-04
2.13528947368421e+00 1.60037132519771e-02 3.35487766578322e-04
2.14207894736842e+00 1.57143546198379e-02 3.29945216058393e-04
