Energy (eV)          EEDF (eV^-(3/2))     First Anisotropy
3.96363636363636e-03 7.94071051801592e-01 3.98387863498536e-04
1.18909090909091e-02 7.89095876618289e-01 6.58002821351958e-04
1.98181818181818e-02 7.84151872886956e-01 8.69038999753975e-04
2.77454545454545e-02 7.79238845348259e-01 1.02960902037189e-03
3.56727272727273e-02 7.74356599912796e-01 1.16372871396954e-03
4.36000000000000e-02 7.69504943715094e-01 1.28047003151018e-03
5.15272727272727e-02 7.64683685090831e-01 1.38452372988751e-03
5.94545454545455e-02 7.59892633598194e-01 1.47872007057101e-03
6.73818181818182e-02 7.55131599976182e-01 1.56493459432901e-03
7.53090909090909e-02 7.50400396150179e-01 1.64449181253123e-03
8.32363636363636e-02 7.45698835218579e-01 1.71837139842167e-03
9.11636363636364e-02 7.41026731462848e-01 1.78732400413274e-03
9.90909090909091e-02 7.36383900321429e-01 1.85194106404145e-03
1.07018181818182e-01 7.31770158405946e-01 1.91269923182442e-03
1.14945454545455e-01 7.27185323431279e-01 1.96998991931397e-03
1.22872727272727e-01 7.22629214285082e-01 2.02413965279739e-03
1.30800000000000e-01 7.18101650989288e-01 2.07542453239622e-03
1.38727272727273e-01 7.13602454727018e-01 2.12408076776615e-03
1.46654545454545e-01 7.09131447734034e-01 2.17031250615461e-03
1.54581818181818e-01 7.04688453393764e-01 2.21429776833402e-03
1.62509090909091e-01 7.00273296196382e-01 2.25619304124951e-03
1.70436363636364e-01 6.95885801757982e-01 2.29613687283182e-03
1.78363636363636e-01 6.91525796733831e-01 2.33425271161468e-03
1.86290909090909e-01 6.87193108891906e-01 2.37065118123255e-03
1.94218181818182e-01 6.82887567101874e-01 2.40543195268441e-03
2.02145454545455e-01 6.78609001260479e-01 2.43868525282639e-03
2.10072727272727e-01 6.74357242352942e-01 2.47049311248511e-03
2.18000000000000e-01 6.70132122423300e-01 2.50093041778645e-03
2.25927272727273e-01 6.65933474586698e-01 2.53006579229212e-03
2.33854545454545e-01 6.61761132966079e-01 2.55796233270414e-03
2.41781818181818e-01 6.57614932742624e-01 2.58467823357328e-03
2.49709090909091e-01 6.53494710130238e-01 2.61026733235155e-03
2.57636363636364e-01 6.49400302384995e-01 2.63477957798830e-03
2.65563636363636e-01 6.45331547750321e-01 2.65826142698601e-03
2.73490909090909e-01 6.41288285499254e-01 2.68075618438747e-03
2.81418181818182e-01 6.37270355926201e-01 2.70230432243722e-03
2.89345454545455e-01 6.33277600297484e-01 2.72294373990948e-03
2.97272727272727e-01 6.29309860888397e-01 2.74270999184011e-03
3.05200000000000e-01 6.25366980962386e-01 2.76163650151965e-03
3.13127272727273e-01 6.21448804777441e-01 2.77975474812881e-03
3.21054545454545e-01 6.17555177542166e-01 2.79709442566738e-03
3.28981818181818e-01 6.13685945447619e-01 2.81368358416007e-03
3.36909090909091e-01 6.09840955648568e-01 2.82954876450692e-03
3.44836363636364e-01 6.06020056268480e-01 2.84471511923939e-03
3.52763636363636e-01 6.02223096360084e-01 2.85920651371503e-03
3.60690909090909e-01 5.98449925933010e-01 2.87304561504346e-03
3.68618181818182e-01 5.94700395946789e-01 2.88625398970339e-03
3.76545454545455e-01 5.90974358274434e-01 2.89885217555569e-03
3.84472727272727e-01 5.87271665727246e-01 2.91085974869331e-03
3.92400000000000e-01 5.83592172038694e-01 2.92229539179661e-03
4.00327272727273e-01 5.79935731867760e-01 2.93317695626399e-03
4.08254545454545e-01 5.76302200765781e-01 2.94352151238092e-03
4.16181818181818e-01 5.72691435198282e-01 2.95334539489389e-03
4.24109090909091e-01 5.69103292530112e-01 2.96266425188855e-03
4.32036363636364e-01 5.65537631027989e-01 2.97149308949045e-03
4.39963636363636e-01 5.61994309830125e-01 2.97984630674431e-03
4.47890909090909e-01 5.58473188965556e-01 2.98773772587759e-03
4.55818181818182e-01 5.54974129347923e-01 2.99518063468881e-03
4.63745454545455e-01 5.51496992747019e-01 3.00218781181990e-03
4.71672727272727e-01 5.48041641806388e-01 3.00877155144387e-03
4.79600000000000e-01 5.44607940030143e-01 3.01494369248840e-03
4.87527272727273e-01 5.41195751784549e-01 3.02071564557040e-03
4.95454545454545e-01 5.37804942271722e-01 3.02609841239686e-03
5.03381818181818e-01 5.34435377545339e-01 3.03110260356801e-03
5.11309090909091e-01 5.31086924498314e-01 3.03573846117232e-03
5.19236363636364e-01 5.27759450863885e-01 3.04001587967441e-03
5.27163636363636e-01 5.24452825191210e-01 3.04394442006106e-03
5.35090909090909e-01 5.21166916859441e-01 3.04753332149529e-03
5.43018181818182e-01 5.17901596072078e-01 3.05079152457323e-03
5.50945454545455e-01 5.14656733833916e-01 3.05372768114868e-03
5.58872727272727e-01 5.11432201963951e-01 3.05635016469101e-03
5.66800000000000e-01 5.08227873084274e-01 3.05866708544084e-03
5.74727272727273e-01 5.05043620620534e-01 3.06068630447144e-03
5.82654545454545e-01 5.01879318780409e-01 3.06241544203776e-03
5.90581818181818e-01 4.98734842565240e-01 3.06386188524501e-03
5.98509090909091e-01 4.95610067759543e-01 3.06503280044538e-03
6.06436363636364e-01 4.92504870931156e-01 3.06593514475229e-03
6.14363636363636e-01 4.89419129411087e-01 3.06657567225180e-03
6.22290909090909e-01 4.86352721304014e-01 3.06696093853170e-03
6.30218181818182e-01 4.83305525483117e-01 3.06709731565612e-03
6.38145454545455e-01 4.80277421570908e-01 3.06699099592081e-03
6.46072727272727e-01 4.77268289948925e-01 3.06664799642558e-03
6.54000000000000e-01 4.74278011748152e-01 3.06607416812052e-03
6.61927272727273e-01 4.71306468848774e-01 3.06527520421649e-03
6.69854545454545e-01 4.68353543862139e-01 3.06425664390380e-03
6.77781818181818e-01 4.65419120139550e-01 3.06302387573281e-03
6.85709090909091e-01 4.62503081763164e-01 3.06158214532819e-03
6.93636363636364e-01 4.59605313545537e-01 3.05993656256201e-03
7.01563636363636e-01 4.56725701012628e-01 3.05809210429822e-03
7.09490909090909e-01 4.53864130411773e-01 3.05605361584855e-03
7.17418181818182e-01 4.51020488706930e-01 3.05382582171221e-03
7.25345454545455e-01 4.48194663562431e-01 3.05141332667364e-03
7.33272727272727e-01 4.45386543350373e-01 3.04882061775480e-03
7.41200000000000e-01 4.42596017142245e-01 3.04605207020966e-03
7.49127272727273e-01 4.39822974708195e-01 3.04311195309372e-03
7.57054545454545e-01 4.37067306501678e-01 3.04000443083170e-03
7.64981818181818e-01 4.34328903666179e-01 3.03673356459598e-03
7.72909090909091e-01 4.31607658027216e-01 3.03330331757940e-03
7.80836363636364e-01 4.28903462091480e-01 3.02971755989238e-03
7.88763636363636e-01 4.26216209032285e-01 3.02598006965092e-03
7.96690909090909e-01 4.23545792695697e-01 3.02209453301189e-03
8.04618181818182e-01 4.20892107596131e-01 3.01806455244578e-03
8.12545454545455e-01 4.18255048902394e-01 3.01389364659467e-03
8.20472727272727e-01 4.15634512443376e-01 3.00958525094675e-03
8.28400000000000e-01 4.13030394700636e-01 3.00514272212859e-03
8.36327272727273e-01 4.10442592807368e-01 3.00056934188566e-03
8.44254545454545e-01 4.07871004535145e-01 2.99586831758113e-03
8.52181818181818e-01 4.05315528299116e-01 2.99104278257840e-03
8.60109090909091e-01 4.02776063150902e-01 2.98609580010388e-03
8.68036363636364e-01 4.00252508777468e-01 2.98103036682865e-03
8.75963636363636e-01 3.97744765488528e-01 2.97584941311942e-03
8.83890909090909e-01 3.95252734221278e-01 2.97055580239546e-03
8.91818181818182e-01 3.92776316536317e-01 2.96515233781295e-03
8.99745454545455e-01 3.90315414605526e-01 2.95964176153186e-03
9.07672727272727e-01 3.87869931216469e-01 2.95402675473729e-03
9.15600000000000e-01 3.85439769765783e-01 2.94830994089485e-03
9.23527272727273e-01 3.83024834257940e-01 2.94249388876319e-03
9.31454545454545e-01 3.80625029293694e-01 2.93658111234030e-03
9.39381818181818e-01 3.78240260074103e-01 2.93057407073191e-03
9.47309090909091e-01 3.75870432394187e-01 2.92447517113196e-03
9.55236363636364e-01 3.73515452641619e-01 2.91828677157901e-03
9.63163636363636e-01 3.71175227785718e-01 2.91201118077169e-03
9.71090909090909e-01 3.68849665381121e-01 2.90565065710881e-03
9.79018181818182e-01 3.66538673563995e-01 2.89920741426580e-03
9.86945454545455e-01 3.64242161041413e-01 2.89268362018910e-03
9.94872727272727e-01 3.61960037094775e-01 2.88608139677817e-03
1.00280000000000e+00 3.59692211573865e-01 2.87940282518808e-03
1.01072727272727e+00 3.57438594886705e-01 2.87264993795932e-03
1.01865454545455e+00 3.55199098022433e-01 2.86582472830014e-03
1.02658181818182e+00 3.52973632514454e-01 2.85892915519714e-03
1.03450909090909e+00 3.50762110450485e-01 2.85196514040974e-03
1.04243636363636e+00 3.48564444448460e-01 2.84493455403024e-03
1.05036363636364e+00 3.46380547715373e-01 2.83783922857067e-03
1.05829090909091e+00 3.44210333980988e-01 2.83068097935119e-03
1.06621818181818e+00 3.42053717495839e-01 2.82346156627714e-03
1.07414545454545e+00 3.39910613087678e-01 2.81618271422011e-03
1.08207272727273e+00 3.37780936097730e-01 2.80884612667323e-03
1.09000000000000e+00 3.35664602397627e-01 2.80145347312302e-03
1.09792727272727e+00 3.33561528367396e-01 2.79400637803202e-03
1.10585454545455e+00 3.31471630948777e-01 2.78650643388627e-03
1.11378181818182e+00 3.29394827584815e-01 2.77895521423842e-03
1.12170909090909e+00 3.27331036235829e-01 2.77135426154721e-03
1.12963636363636e+00 3.25280175358425e-01 2.76370507655281e-03
1.13756363636364e+00 3.23242163955892e-01 2.75600913074259e-03
1.14549090909091e+00 3.21216921520916e-01 2.74826788448727e-03
1.15341818181818e+00 3.19204368033555e-01 2.74048275262808e-03
1.16134545454545e+00 3.17204424009679e-01 2.73265512260605e-03
1.16927272727273e+00 3.15217010445778e-01 2.72478636658225e-03
1.17720000000000e+00 3.13242048833321e-01 2.71687782999464e-03
1.18512727272727e+00 3.11279461139496e-01 2.70893082153157e-03
1.19305454545455e+00 3.09329169853059e-01 2.70094662472473e-03
1.20098181818182e+00 3.07391097931917e-01 2.69292650955260e-03
1.20890909090909e+00 3.05465168816700e-01 2.68487172142106e-03
1.21683636363636e+00 3.03551306412350e-01 2.67678347149550e-03
1.22476363636364e+00 3.01649435131568e-01 2.66866294780186e-03
1.23269090909091e+00 2.99759479844984e-01 2.66051133144212e-03
1.24061818181818e+00 2.97881365879165e-01 2.65232976555431e-03
1.24854545454545e+00 2.96015019058413e-01 2.64411937152010e-03
1.25647272727273e+00 2.94160365656706e-01 2.63588125978248e-03
1.26440000000000e+00 2.92317332409936e-01 2.62761651947628e-03
1.27232727272727e+00 2.90485846498972e-01 2.61932620931045e-03
1.28025454545455e+00 2.88665835589298e-01 2.61101136792345e-03
1.28818181818182e+00 2.86857227785288e-01 2.60267302425914e-03
1.29610909090909e+00 2.85059951641784e-01 2.59431218757856e-03
1.30403636363636e+00 2.83273936147889e-01 2.58592983866635e-03
1.31196363636364e+00 2.81499110764591e-01 2.57752693976450e-03
1.31989090909091e+00 2.79735405381214e-01 2.56910444912922e-03
1.32781818181818e+00 2.77982750313469e-01 2.56066329298258e-03
1.33574545454545e+00 2.76241076339700e-01 2.55220438005870e-03
1.34367272727273e+00 2.74510314658830e-01 2.54372861130212e-03
1.35160000000000e+00 2.72790396900843e-01 2.53523687046550e-03
1.35952727272727e+00 2.71081255111813e-01 2.52673001581728e-03
1.36745454545455e+00 2.69382821788346e-01 2.51820888943118e-03
1.37538181818182e+00 2.67695029837488e-01 2.50967432650184e-03
1.38330909090909e+00 2.66017812586664e-01 2.50112714628376e-03
1.39123636363636e+00 2.64351103769330e-01 2.49256814409301e-03
1.39916363636364e+00 2.62694837557716e-01 2.48399810023049e-03
1.40709090909091e+00 2.61048948524585e-01 2.47541779309086e-03
1.41501818181818e+00 2.59413371641344e-01 2.46682797377516e-03
1.42294545454545e+00 2.57788042309618e-01 2.45822937918775e-03
1.43087272727273e+00 2.56172896324286e-01 2.44962274076213e-03
1.43880000000000e+00 2.54567869882490e-01 2.44100877592766e-03
1.44672727272727e+00 2.52972899570360e-01 2.43238818056464e-03
1.45465454545455e+00 2.51387922393055e-01 2.42376163736551e-03
1.46258181818182e+00 2.49812875739472e-01 2.41512982422622e-03
1.47050909090909e+00 2.48247697390804e-01 2.40649340601967e-03
1.47843636363636e+00 2.46692325507796e-01 2.39785302731477e-03
1.48636363636364e+00 2.45146698659346e-01 2.38920932041815e-03
1.49429090909091e+00 2.43610755788800e-01 2.38056291721196e-03
1.50221818181818e+00 2.42084436212125e-01 2.37191442613743e-03
1.51014545454545e+00 2.40567679645524e-01 2.36326444401834e-03
1.51807272727273e+00 2.39060426172816e-01 2.35461356393468e-03
1.52600000000000e+00 2.37562616253211e-01 2.34596236747048e-03
1.53392727272727e+00 2.36074190709496e-01 2.33731141784384e-03
1.54185454545455e+00 2.34595090754331e-01 2.32866126745464e-03
1.54978181818182e+00 2.33125257959074e-01 2.32001246546344e-03
1.55770909090909e+00 2.31664634261169e-01 2.31136555031356e-03
1.56563636363636e+00 2.30213161952794e-01 2.30272104310063e-03
1.57356363636364e+00 2.28770783705930e-01 2.29407945483810e-03
1.58149090909091e+00 2.27337442542543e-01 2.28544129717026e-03
1.58941818181818e+00 2.25913081832838e-01 2.27680706147566e-03
1.59734545454545e+00 2.24497645319486e-01 2.26817722956552e-03
1.60527272727273e+00 2.23091077088741e-01 2.25955228080476e-03
1.61320000000000e+00 2.21693321577174e-01 2.25093268506219e-03
1.62112727272727e+00 2.20304323561117e-01 2.24231889645144e-03
1.62905454545455e+00 2.18924028179769e-01 2.23371136015888e-03
1.63698181818182e+00 2.17552380907555e-01 2.22511051930446e-03
1.64490909090909e+00 2.16189327560530e-01 2.21651680813855e-03
1.65283636363636e+00 2.14834814286233e-01 2.20793064599791e-03
1.66076363636364e+00 2.13488787585731e-01 2.19935244388455e-03
1.66869090909091e+00 2.12151194287154e-01 2.19078261418005e-03
1.67661818181818e+00 2.10821981544037e-01 2.18222155164808e-03
1.68454545454545e+00 2.09501096856634e-01 2.17366964313322e-03
1.69247272727273e+00 2.08188488046266e-01 2.16512727401472e-03
1.70040000000000e+00 2.06884103261174e-01 2.15659482178924e-03
1.70832727272727e+00 2.05587890967061e-01 2.14807265036290e-03
1.71625454545455e+00 2.04299799967448e-01 2.13956111624129e-03
1.72418181818182e+00 2.03019779379098e-01 2.13106057475189e-03
1.73210909090909e+00 2.01747778637585e-01 2.12257137384821e-03
1.74003636363636e+00 2.00483747488195e-01 2.11409384859653e-03
1.74796363636364e+00 1.99227636005368e-01 2.10562832714382e-03
1.75589090909091e+00 1.97979394569147e-01 2.09717513954191e-03
1.76381818181818e+00 1.96738973863596e-01 2.08873460045441e-03
1.77174545454545e+00 1.95506324895613e-01 2.08030701796454e-03
1.77967272727273e+00 1.94281398972085e-01 2.07189269943501e-03
1.78760000000000e+00 1.93064147704979e-01 2.06349194565983e-03
1.79552727272727e+00 1.91854523002852e-01 2.05510504565528e-03
1.80345454545455e+00 1.90652477088833e-01 2.04673228228109e-03
1.81138181818182e+00 1.89457962478713e-01 2.03837393789377e-03
1.81930909090909e+00 1.88270931985797e-01 2.03003028869801e-03
1.82723636363636e+00 1.87091338712730e-01 2.02170159971343e-03
1.83516363636364e+00 1.85919136068680e-01 2.01338813019758e-03
1.84309090909091e+00 1.84754277748333e-01 2.00509014167296e-03
1.85101818181818e+00 1.83596717730386e-01 1.99680788216798e-03
1.85894545454545e+00 1.82446410294191e-01 1.98854159422740e-03
1.86687272727273e+00 1.81303309999361e-01 1.98029152024085e-03
1.87480000000000e+00 1.80167371690211e-01 1.97205789710873e-03
1.88272727272727e+00 1.79038550488117e-01 1.96384095148471e-03
1.89065454545455e+00 1.77916801807436e-01 1.95564090488798e-03
1.89858181818182e+00 1.76802081335929e-01 1.94745797884658e-03
1.90650909090909e+00 1.75694345038999e-01 1.93929238974368e-03
1.91443636363636e+00 1.74593549152326e-01 1.93114434421885e-03
1.92236363636364e+00 1.73499650197097e-01 1.92301404410279e-03
1.93029090909091e+00 1.72412604961215e-01 1.91490169372852e-03
1.93821818181818e+00 1.71332370497885e-01 1.90680748555573e-03
1.94614545454545e+00 1.70258904140357e-01 1.89873160746581e-03
1.95407272727273e+00 1.69192163483687e-01 1.89067424761376e-03
1.96200000000000e+00 1.68132106388612e-01 1.88263558955844e-03
1.96992727272727e+00 1.67078690974669e-01 1.87461580791381e-03
1.97785454545455e+00 1.66031875634308e-01 1.86661507300486e-03
1.98578181818182e+00 1.64991619015374e-01 1.85863355555342e-03
1.99370909090909e+00 1.63957880024802e-01 1.85067142197151e-03
2.00163636363636e+00 1.62930617821981e-01 1.84272883015608e-03
2.00956363636364e+00 1.61909791832271e-01 1.83480593398563e-03
2.01749090909091e+00 1.60895361730168e-01 1.82690288998761e-03
2.02541818181818e+00 1.59887287437962e-01 1.81901984421156e-03
2.03334545454545e+00 1.58885529138842e-01 1.81115693888051e-03
2.04127272727273e+00 1.57890047260534e-01 1.80331431681426e-03
2.04920000000000e+00 1.56900802478703e-01 1.79549211697987e-03
2.05712727272727e+00 1.55917755710726e-01 1.78769047051393e-03
2.06505454545455e+00 1.54940868128250e-01 1.77990950496760e-03
2.07298181818182e+00 1.53970101141465e-01 1.77214934858072e-03
2.08090909090909e+00 1.53005416402343e-01 1.76441012597955e-03
2.08883636363636e+00 1.52046775798645e-01 1.75669195432927e-03
2.09676363636364e+00 1.51094141465935e-01 1.74899494743565e-03
2.10469090909091e+00 1.50147475772475e-01 1.74131922183157e-03
2.11261818181818e+00 1.49206741317956e-01 1.73366488478024e-03
2.12054545454545e+00 1.48271900945155e-01 1.72603204034578e-03
2.12847272727273e+00 1.47342917725250e-01 1.71842079343069e-03
2.13640000000000e+00 1.46419754960790e-01 1.71083124570703e-03
2.14432727272727e+00 1.45502376180070e-01 1.70326349197487e-03
2.15225454545455e+00 1.44590745148308e-01 1.69571762403751e-03
2.16018181818182e+00 1.43684825853514e-01 1.68819373460400e-03
2.16810909090909e+00 1.42784582509329e-01 1.68069191335346e-03
2.17603636363636e+00 1.41889979549597e-01 1.67321224341219e-03
2.18396363636364e+00 1.41000981639076e-01 1.66575480509939e-03
2.19189090909091e+00 1.40117553659847e-01 1.65831968148851e-03
2.19981818181818e+00 1.39239660710122e-01 1.65090694743416e-03
2.20774545454545e+00 1.38367268114634e-01 1.64351667511860e-03
2.21567272727273e+00 1.37500341411427e-01 1.63614893773986e-03
2.22360000000000e+00 1.36638846354456e-01 1.62880380578837e-03
2.23152727272727e+00 1.35782748908500e-01 1.62148134371154e-03
2.23945454545455e+00 1.34932015259122e-01 1.61418161345449e-03
2.24738181818182e+00 1.34086611799950e-01 1.60690467802649e-03
2.25530909090909e+00 1.33246505135174e-01 1.59965059789802e-03
2.26323636363636e+00 1.32411662074618e-01 1.59241942777356e-03
2.27116363636364e+00 1.31582049643307e-01 1.58521122001483e-03
2.27909090909091e+00 1.30757635069214e-01 1.57802602972691e-03
2.28701818181818e+00 1.29938385782149e-01 1.57086390471397e-03
2.29494545454545e+00 1.29124269423029e-01 1.56372489055107e-03
2.30287272727273e+00 1.28315253831972e-01 1.55660903395667e-03
2.31080000000000e+00 1.27511307050589e-01 1.54951637938278e-03
2.31872727272727e+00 1.26712397317358e-01 1.54244696595810e-03
2.32665454545455e+00 1.25918493076530e-01 1.53540083072555e-03
2.33458181818182e+00 1.25129562966658e-01 1.52837801190451e-03
2.34250909090909e+00 1.24345575822786e-01 1.52137854559113e-03
2.35043636363636e+00 1.23566500671985e-01 1.51440246279897e-03
2.35836363636364e+00 1.22792306741896e-01 1.50744979259053e-03
2.36629090909091e+00 1.22022963449682e-01 1.50052056673313e-03
2.37421818181818e+00 1.21258440400977e-01 1.49361481049769e-03
2.38214545454545e+00 1.20498707398179e-01 1.48673254730038e-03
2.39007272727273e+00 1.19743734429702e-01 1.47987380178902e-03
2.39800000000000e+00 1.18993491671994e-01 1.47303859671834e-03
2.40592727272727e+00 1.18247949485332e-01 1.46622695014656e-03
2.41385454545455e+00 1.17507078421792e-01 1.45943887839836e-03
2.42178181818182e+00 1.16770849214885e-01 1.45267439905145e-03
2.42970909090909e+00 1.16039232781492e-01 1.44593352791192e-03
2.43763636363636e+00 1.15312200217799e-01 1.43921627629939e-03
2.44556363636364e+00 1.14589722806944e-01 1.43252265391423e-03
2.45349090909091e+00 1.13871772009042e-01 1.42585267310199e-03
2.46141818181818e+00 1.13158319460187e-01 1.41920634041951e-03
2.46934545454545e+00 1.12449336979887e-01 1.41258366088588e-03
2.47727272727273e+00 1.11744796561345e-01 1.40598464080905e-03
2.48520000000000e+00 1.11044670373237e-01 1.39940928492062e-03
2.49312727272727e+00 1.10348930755888e-01 1.39285759380338e-03
2.50105454545455e+00 1.09657550228408e-01 1.38632956660546e-03
