Energy (eV)          EEDF (eV^-(3/2))     First Anisotropy
1.56896551724138e-02 9.31871242965055e-02 4.59058928713005e-05
4.70689655172414e-02 9.26331222219639e-02 7.58332853325038e-05
7.84482758620690e-02 9.20824137168931e-02 1.00186998158402e-04
1.09827586206897e-01 9.15349792015696e-02 1.18736548049509e-04
1.41206896551724e-01 9.09907992128308e-02 1.34246760057041e-04
1.72586206896552e-01 9.04498543986314e-02 1.47761558737907e-04
2.03965517241379e-01 8.99121255294718e-02 1.59820480045584e-04
2.35344827586207e-01 8.93775934858377e-02 1.70748924679148e-04
2.66724137931034e-01 8.88462392602483e-02 1.80762435209937e-04
2.98103448275862e-01 8.83180439626174e-02 1.90013164127220e-04
3.29482758620690e-01 8.77929888127387e-02 1.98613604050412e-04
3.60862068965517e-01 8.72710551407366e-02 2.06649913283613e-04
3.92241379310345e-01 8.67522243908065e-02 2.14189947085389e-04
4.23620689655172e-01 8.62364781158071e-02 2.21288369044537e-04
4.55000000000000e-01 8.57237979772028e-02 2.27990048117403e-04
4.86379310344828e-01 8.52141657478317e-02 2.34332400324640e-04
5.17758620689655e-01 8.47075633066510e-02 2.40347050625543e-04
5.49137931034483e-01 8.42039726424754e-02 2.46061042931275e-04
5.80517241379310e-01 8.37033758500789e-02 2.51497741149374e-04
6.11896551724138e-01 8.32057551298743e-02 2.56677511516600e-04
6.43275862068965e-01 8.27110927898284e-02 2.61618249689965e-04
6.74655172413793e-01 8.22193712421785e-02 2.66335793297919e-04
7.06034482758621e-01 8.17305730030380e-02 2.70844248235042e-04
7.37413793103448e-01 8.12446806939195e-02 2.75156251314047e-04
7.68793103448276e-01 8.07616770388895e-02 2.79283183309713e-04
8.00172413793103e-01 8.02815448641307e-02 2.83235342637176e-04
8.31551724137931e-01 7.98042670991749e-02 2.87022089607599e-04
8.62931034482759e-01 7.93298267743860e-02 2.90651966596694e-04
8.94310344827586e-01 7.88582070204964e-02 2.94132798148459e-04
9.25689655172414e-01 7.83893910696176e-02 2.97471776264071e-04
9.57068965517241e-01 7.79233622529781e-02 3.00675532933583e-04
9.88448275862069e-01 7.74601040004459e-02 3.03750201416677e-04
1.01982758620690e+00 7.69995998418057e-02 3.06701469893654e-04
1.05120689655172e+00 7.65418334033542e-02 3.09534627441907e-04
1.08258620689655e+00 7.60867884091998e-02 3.12254603586773e-04
1.11396551724138e+00 7.56344486802127e-02 3.14866003453473e-04
1.14534482758621e+00 7.51847981334496e-02 3.17373138221663e-04
1.17672413793103e+00 7.47378207815818e-02 3.19780051984232e-04
1.20810344827586e+00 7.42935007323263e-02 3.22090545463827e-04
1.23948275862069e+00 7.38518221878815e-02 3.24308197028986e-04
1.27086206896552e+00 7.34127694443645e-02 3.26436381379790e-04
1.30224137931034e+00 7.29763268912536e-02 3.28478286214279e-04
1.33362068965517e+00 7.25424790108324e-02 3.30436927138574e-04
1.36500000000000e+00 7.21112103776387e-02 3.32315161636082e-04
1.39637931034483e+00 7.16825056548359e-02 3.34115699311724e-04
1.42775862068966e+00 7.12563496030154e-02 3.35841113952946e-04
1.45913793103448e+00 7.08327270701939e-02 3.37493854549566e-04
1.49051724137931e+00 7.04116229944680e-02 3.39076252362828e-04
1.52189655172414e+00 6.99930224034785e-02 3.40590529620216e-04
1.55327586206897e+00 6.95769104138783e-02 3.42038806871938e-04
1.58465517241379e+00 6.91632722308027e-02 3.43423109701746e-04
1.61603448275862e+00 6.87520931473435e-02 3.44745374860905e-04
1.64741379310345e+00 6.83433585440263e-02 3.46007455885806e-04
1.67879310344828e+00 6.79370538882906e-02 3.47211128251939e-04
1.71017241379310e+00 6.75331647339729e-02 3.48358094110765e-04
1.74155172413793e+00 6.71316767207929e-02 3.49449986650702e-04
1.77293103448276e+00 6.67325755738433e-02 3.50488374118557e-04
1.80431034482759e+00 6.63358471030822e-02 3.51474763533764e-04
1.83568965517241e+00 6.59414772028283e-02 3.52410604124305e-04
1.86706896551724e+00 6.55494518512575e-02 3.53297290508306e-04
1.89844827586207e+00 6.51597571099086e-02 3.54136165646261e-04
1.92982758620690e+00 6.47723791231850e-02 3.54928523584144e-04
1.96120689655172e+00 6.43873041178630e-02 3.55675612003672e-04
1.99258620689655e+00 6.40045184026010e-02 3.56378634597729e-04
2.02396551724138e+00 6.36240083674536e-02 3.57038753285305e-04
2.05534482758621e+00 6.32457604833872e-02 3.57657090279397e-04
2.08672413793103e+00 6.28697613017991e-02 3.58234730019629e-04
2.11810344827586e+00 6.24959974540392e-02 3.58772720980588e-04
2.14948275862069e+00 6.21244556509350e-02 3.59272077365772e-04
2.18086206896552e+00 6.17551226823188e-02 3.59733780695923e-04
2.21224137931034e+00 6.13879854165581e-02 3.60158781299878e-04
2.24362068965517e+00 6.10230308000886e-02 3.60547999715362e-04
2.27500000000000e+00 6.06602458569503e-02 3.60902328392971e-04
2.30637931034483e+00 6.02996176867645e-02 3.61222631768980e-04
2.33775862068965e+00 5.99411334690002e-02 3.61509748217530e-04
2.36913793103448e+00 5.95847804577514e-02 3.61764491939644e-04
2.40051724137931e+00 5.92305459828875e-02 3.61987652814262e-04
2.43189655172414e+00 5.88784174496023e-02 3.62179997779575e-04
2.46327586206897e+00 5.85283823379664e-02 3.62342271761908e-04
2.49465517241379e+00 5.81804282024822e-02 3.62475198554574e-04
2.52603448275862e+00 5.78345426716414e-02 3.62579481649985e-04
2.55741379310345e+00 5.74907134474848e-02 3.62655805028260e-04
2.58879310344828e+00 5.71489283051654e-02 3.62704833905036e-04
2.62017241379310e+00 5.68091750925134e-02 3.62727215441033e-04
2.65155172413793e+00 5.64714417296046e-02 3.62723579416001e-04
2.68293103448276e+00 5.61357162083305e-02 3.62694538869187e-04
2.71431034482759e+00 5.58019865919712e-02 3.62640690708239e-04
2.74568965517241e+00 5.54702410147718e-02 3.62562616288884e-04
2.77706896551724e+00 5.51404676815187e-02 3.62460881966325e-04
2.80844827586207e+00 5.48126548671226e-02 3.62336039620881e-04
2.83982758620690e+00 5.44867909162003e-02 3.62188627159482e-04
2.87120689655172e+00 5.41628642426606e-02 3.62019168993496e-04
2.90258620689655e+00 5.38408633292920e-02 3.61828176494970e-04
2.93396551724138e+00 5.35207767273538e-02 3.61616148432271e-04
2.96534482758621e+00 5.32025930561684e-02 3.61383571386401e-04
2.99672413793103e+00 5.28863010027170e-02 3.61130920148958e-04
3.02810344827586e+00 5.25718893212372e-02 3.60858658102786e-04
3.05948275862069e+00 5.22593468328235e-02 3.60567237586308e-04
3.09086206896552e+00 5.19486624250294e-02 3.60257100242350e-04
3.12224137931034e+00 5.16398250514726e-02 3.59928677352286e-04
3.15362068965517e+00 5.13328237314418e-02 3.59582390156276e-04
3.18500000000000e+00 5.10276475495071e-02 3.59218650435564e-04
3.21637931034483e+00 5.07242856541908e-02 3.58837859976885e-04
3.24775862068965e+00 5.04227272604235e-02 3.58440411411772e-04
3.27913793103448e+00 5.01229616462980e-02 3.58026689048301e-04
3.31051724137931e+00 4.98249781536491e-02 3.57597068286859e-04
3.34189655172414e+00 4.95287661876754e-02 3.57151916154085e-04
3.37327586206897e+00 4.92343152165618e-02 3.56691591543908e-04
3.40465517241379e+00 4.89416147711056e-02 3.56216445449362e-04
3.43603448275862e+00 4.86506544443439e-02 3.55726821185585e-04
3.46741379310345e+00 4.83614238911838e-02 3.55223054604524e-04
3.49879310344828e+00 4.80739128280347e-02 3.54705474301716e-04
3.53017241379310e+00 4.77881110324421e-02 3.54174401815421e-04
3.56155172413793e+00 4.75040083427250e-02 3.53630151818616e-04
3.59293103448276e+00 4.72215946576136e-02 3.53073032304025e-04
3.62431034482759e+00 4.69408599358912e-02 3.52503344762564e-04
3.65568965517241e+00 4.66617941960362e-02 3.51921384355659e-04
3.68706896551724e+00 4.63843875158677e-02 3.51327440081183e-04
3.71844827586207e+00 4.61086300321928e-02 3.50721794933880e-04
3.74982758620690e+00 4.58345119404558e-02 3.50104726060489e-04
3.78120689655172e+00 4.55620234943898e-02 3.49476504909318e-04
3.81258620689655e+00 4.52911550056696e-02 3.48837397374888e-04
3.84396551724138e+00 4.50218968435680e-02 3.48187663937715e-04
3.87534482758621e+00 4.47542394346127e-02 3.47527559799528e-04
3.90672413793103e+00 4.44881732622462e-02 3.46857335014060e-04
3.93810344827586e+00 4.42236888664875e-02 3.46177234613559e-04
3.96948275862069e+00 4.39607768435957e-02 3.45487498731238e-04
4.00086206896552e+00 4.36994278457355e-02 3.44788362719879e-04
4.03224137931034e+00 4.34396325806451e-02 3.44080057266626e-04
4.06362068965517e+00 4.31813818113056e-02 3.43362808504211e-04
4.09500000000000e+00 4.29246663556126e-02 3.42636838322989e-04
4.12637931034483e+00 4.26694770854341e-02 3.41902363859361e-04
4.15775862068965e+00 4.24158049281453e-02 3.41159598009656e-04
4.18913793103448e+00 4.21636408644343e-02 3.40408749944241e-04
4.22051724137931e+00 4.19129759286092e-02 3.39650024575950e-04
4.25189655172414e+00 4.16638012082800e-02 3.38883622862524e-04
4.28327586206897e+00 4.14161078440410e-02 3.38109741896369e-04
4.31465517241379e+00 4.11698870291562e-02 3.37328574991619e-04
4.34603448275862e+00 4.09251300092461e-02 3.36540311768593e-04
4.37741379310345e+00 4.06818280819765e-02 3.35745138235931e-04
4.40879310344828e+00 4.04399725967490e-02 3.34943236870385e-04
4.44017241379310e+00 4.01995549543933e-02 3.34134786694204e-04
4.47155172413793e+00 3.99605666068618e-02 3.33319963350483e-04
4.50293103448276e+00 3.97229990569255e-02 3.32498939176379e-04
4.53431034482759e+00 3.94868438578716e-02 3.31671883274255e-04
4.56568965517241e+00 3.92520926132036e-02 3.30838961580955e-04
4.59706896551724e+00 3.90187369763426e-02 3.30000336934993e-04
4.62844827586207e+00 3.87867686503304e-02 3.29156169142065e-04
4.65982758620690e+00 3.85561793875349e-02 3.28306615038868e-04
4.69120689655172e+00 3.83269609893563e-02 3.27451828555071e-04
4.72258620689655e+00 3.80991053059362e-02 3.26591960773760e-04
4.75396551724138e+00 3.78726042358674e-02 3.25727159990179e-04
4.78534482758621e+00 3.76474497259060e-02 3.24857571768988e-04
4.81672413793103e+00 3.74236337706849e-02 3.23983339000036e-04
4.84810344827586e+00 3.72011484124295e-02 3.23104601952705e-04
4.87948275862069e+00 3.69799857406745e-02 3.22221498328866e-04
4.91086206896552e+00 3.67601378919827e-02 3.21334163314447e-04
4.94224137931034e+00 3.65415970496654e-02 3.20442729629740e-04
4.97362068965517e+00 3.63243554435047e-02 3.19547327578461e-04
5.00500000000000e+00 3.61084053494767e-02 3.18648085250983e-04
5.03637931034483e+00 3.58937390890535e-02 3.17745128102214e-04
5.06775862068965e+00 3.56803490302095e-02 3.16838579310929e-04
5.09913793103448e+00 3.54682275858629e-02 3.15928560140730e-04
5.13051724137931e+00 3.52573672140370e-02 3.15015189506448e-04
5.16189655172414e+00 3.50477604175930e-02 3.14098584176162e-04
5.19327586206897e+00 3.48393997439626e-02 3.13178858812513e-04
5.22465517241379e+00 3.46322777848834e-02 3.12256126012850e-04
5.25603448275862e+00 3.44263871761359e-02 3.11330496348640e-04
5.28741379310345e+00 3.42217205972808e-02 3.10402078403860e-04
5.31879310344828e+00 3.40182707713994e-02 3.09470978812429e-04
5.35017241379310e+00 3.38160304648346e-02 3.08537302294914e-04
5.38155172413793e+00 3.36149924869337e-02 3.07601151694202e-04
5.41293103448276e+00 3.34151496897931e-02 3.06662628010559e-04
5.44431034482759e+00 3.32164949680033e-02 3.05721830435774e-04
5.47568965517241e+00 3.30190212583974e-02 3.04778856386530e-04
5.50706896551724e+00 3.28227215397989e-02 3.03833801537046e-04
5.53844827586207e+00 3.26275888327727e-02 3.02886759850921e-04
5.56982758620690e+00 3.24336161993770e-02 3.01937823612473e-04
5.60120689655172e+00 3.22407967429162e-02 3.00987083457199e-04
5.63258620689655e+00 3.20491236076960e-02 3.00034628401546e-04
5.66396551724138e+00 3.18585899787795e-02 2.99080545872137e-04
5.69534482758621e+00 3.16691890817450e-02 2.98124921734387e-04
5.72672413793103e+00 3.14809141824450e-02 2.97167840320371e-04
5.75810344827586e+00 3.12937585867669e-02 2.96209384456141e-04
5.78948275862069e+00 3.11077156403950e-02 2.95249635488535e-04
5.82086206896552e+00 3.09227787285738e-02 2.94288673311340e-04
5.85224137931034e+00 3.07389412758726e-02 2.93326576390886e-04
5.88362068965517e+00 3.05561967459525e-02 2.92363421791192e-04
5.91500000000000e+00 3.03745386413329e-02 2.91399285318830e-04
5.94637931034483e+00 3.01939605028594e-02 2.90434241184182e-04
5.97775862068965e+00 3.00144559103850e-02 2.89468362267816e-04
6.00913793103448e+00 2.98360184816252e-02 2.88501720388573e-04
6.04051724137931e+00 2.96586418722386e-02 2.87534385957183e-04
6.07189655172414e+00 2.94823197756011e-02 2.86566428122011e-04
6.10327586206896e+00 2.93070459225820e-02 2.85597914790769e-04
6.13465517241379e+00 2.91328140813208e-02 2.84628912651734e-04
6.16603448275862e+00 2.89596180570056e-02 2.83659487194555e-04
6.19741379310345e+00 2.87874516916530e-02 2.82689702730675e-04
6.22879310344828e+00 2.86163088638894e-02 2.81719622413370e-04
6.26017241379310e+00 2.84461834887326e-02 2.80749308257303e-04
6.29155172413793e+00 2.82770695173765e-02 2.79778821157747e-04
6.32293103448276e+00 2.81089609369749e-02 2.78808220909471e-04
6.35431034482759e+00 2.79418517704286e-02 2.77837566225157e-04
6.38568965517241e+00 2.77757360761725e-02 2.76866914753585e-04
6.41706896551724e+00 2.76106079479643e-02 2.75896323097349e-04
6.44844827586207e+00 2.74464615146747e-02 2.74925846830233e-04
6.47982758620690e+00 2.72832909400785e-02 2.73955540514408e-04
6.51120689655172e+00 2.71210904226473e-02 2.72985457717135e-04
6.54258620689655e+00 2.69598541953428e-02 2.72015651027210e-04
6.57396551724138e+00 2.67995765254124e-02 2.71046172071108e-04
6.60534482758621e+00 2.66402517141847e-02 2.70077071528807e-04
6.63672413793103e+00 2.64818740968673e-02 2.69108399149334e-04
6.66810344827586e+00 2.63244380423454e-02 2.68140203766023e-04
6.69948275862069e+00 2.61679379529811e-02 2.67172533311450e-04
6.73086206896552e+00 2.60123682644152e-02 2.66205434832117e-04
6.76224137931034e+00 2.58577234453685e-02 2.65238954502864e-04
6.79362068965517e+00 2.57039979974457e-02 2.64273137641046e-04
6.82500000000000e+00 2.55511864549399e-02 2.63308028814650e-04
6.85637931034483e+00 2.53992833844174e-02 2.62343671571818e-04
6.88775862068966e+00 2.52482833851900e-02 2.61380108644366e-04
6.91913793103448e+00 2.50981810884537e-02 2.60417382152823e-04
6.95051724137931e+00 2.49489711573225e-02 2.59455533330390e-04
6.98189655172414e+00 2.48006482866385e-02 2.58494602632451e-04
7.01327586206896e+00 2.46532072027833e-02 2.57534629749021e-04
7.04465517241379e+00 2.45066426634902e-02 2.56575653616938e-04
7.07603448275862e+00 2.43609494576582e-02 2.55617712431892e-04
7.10741379310345e+00 2.42161224051665e-02 2.54660843660290e-04
7.13879310344828e+00 2.40721563566904e-02 2.53705084050781e-04
7.17017241379310e+00 2.39290461935182e-02 2.52750469645657e-04
7.20155172413793e+00 2.37867868273692e-02 2.51797035792099e-04
7.23293103448276e+00 2.36453732002127e-02 2.50844817153137e-04
7.26431034482759e+00 2.35048002840883e-02 2.49893847718474e-04
7.29568965517241e+00 2.33650630809272e-02 2.48944160815124e-04
7.32706896551724e+00 2.32261566223742e-02 2.47995789117828e-04
7.35844827586207e+00 2.30880759696112e-02 2.47048764659285e-04
7.38982758620690e+00 2.29508162131817e-02 2.46103118840306e-04
7.42120689655172e+00 2.28143724728163e-02 2.45158882439727e-04
7.45258620689655e+00 2.26787398972587e-02 2.44216085624096e-04
7.48396551724138e+00 2.25439136640940e-02 2.43274757957306e-04
7.51534482758621e+00 2.24098889795764e-02 2.42334928410010e-04
7.54672413793103e+00 2.22766610784595e-02 2.41396625368875e-04
7.57810344827586e+00 2.21442252238262e-02 2.40459876645687e-04
7.60948275862069e+00 2.20125767069208e-02 2.39524709486282e-04
7.64086206896552e+00 2.18817108469814e-02 2.38591150579400e-04
7.67224137931034e+00 2.17516229910734e-02 2.37659226065348e-04
7.70362068965517e+00 2.16223085139242e-02 2.36728961544479e-04
7.73500000000000e+00 2.14937628177585e-02 2.35800382160044e-04
7.76637931034483e+00 2.13659813319717e-02 2.34873512381986e-04
7.79775862068965e+00 2.12389595134602e-02 2.33948376165198e-04
7.82913793103448e+00 2.11126928459644e-02 2.33024997109127e-04
7.86051724137931e+00 2.09871768400739e-02 2.32103398237371e-04
7.89189655172414e+00 2.08624070330680e-02 2.31183602081842e-04
7.92327586206896e+00 2.07383789887574e-02 2.30265630690359e-04
7.95465517241379e+00 2.06150882973258e-02 2.29349505634107e-04
7.98603448275862e+00 2.04925305751738e-02 2.28435248014989e-04
8.01741379310345e+00 2.03707014647626e-02 2.27522878472854e-04
8.04879310344828e+00 2.02495966344590e-02 2.26612417192627e-04
8.08017241379310e+00 2.01292117783819e-02 2.25703883911261e-04
8.11155172413793e+00 2.00095426162487e-02 2.24797297924674e-04
8.14293103448276e+00 1.98905848932232e-02 2.23892678094531e-04
8.17431034482759e+00 1.97723343797647e-02 2.22990042854860e-04
8.20568965517241e+00 1.96547868714770e-02 2.22089410218706e-04
8.23706896551724e+00 1.95379381889595e-02 2.21190797784509e-04
8.26844827586207e+00 1.94217841776582e-02 2.20294222742492e-04
8.29982758620690e+00 1.93063207077181e-02 2.19399701880937e-04
8.33120689655172e+00 1.91915436738366e-02 2.18507251592340e-04
8.36258620689655e+00 1.90774489951171e-02 2.17616887879511e-04
8.39396551724138e+00 1.89640326149244e-02 2.16728626361491e-04
8.42534482758621e+00 1.88512905007399e-02 2.15842482279470e-04
8.45672413793103e+00 1.87392186440187e-02 2.14958470502573e-04
8.48810344827586e+00 1.86278130600469e-02 2.14076605533539e-04
8.51948275862069e+00 1.85170697877998e-02 2.13196901514356e-04
8.55086206896552e+00 1.84069848898013e-02 2.12319372231781e-04
8.58224137931034e+00 1.82975544519839e-02 2.11444031122775e-04
8.61362068965517e+00 1.81887745835491e-02 2.10570891279858e-04
8.64500000000000e+00 1.80806414168297e-02 2.09699965515685e-04
8.67637931034483e+00 1.79731511070287e-02 2.08831266189595e-04
8.70775862068965e+00 1.78662998324541e-02 2.07964805332148e-04
8.73913793103448e+00 1.77600837940097e-02 2.07100594770918e-04
8.77051724137931e+00 1.76544992151851e-02 2.06238645953845e-04
8.80189655172414e+00 1.75495423419216e-02 2.05378970014895e-04
8.83327586206896e+00 1.74452094424782e-02 2.04521577778882e-04
8.86465517241379e+00 1.73414968072997e-02 2.03666479766232e-04
8.89603448275862e+00 1.72384007488842e-02 2.02813686197638e-04
8.92741379310345e+00 1.71359176016521e-02 2.01963206998668e-04
8.95879310344828e+00 1.70340437218160e-02 2.01115051804303e-04
8.99017241379310e+00 1.69327754872510e-02 2.00269229963373e-04
9.02155172413793e+00 1.68321092973657e-02 1.99425750542989e-04
9.05293103448276e+00 1.67320415729747e-02 1.98584622332851e-04
9.08431034482759e+00 1.66325687561708e-02 1.97745853849523e-04
9.11568965517241e+00 1.65336873101989e-02 1.96909453340646e-04
9.14706896551724e+00 1.64353937193300e-02 1.96075428789073e-04
9.17844827586207e+00 1.63376844887362e-02 1.95243787916948e-04
9.20982758620690e+00 1.62405561443666e-02 1.94414538189719e-04
9.24120689655172e+00 1.61440052328239e-02 1.93587686820118e-04
9.27258620689655e+00 1.60480283212411e-02 1.92763240772070e-04
9.30396551724138e+00 1.59526219971600e-02 1.91941206764519e-04
9.33534482758621e+00 1.58577828684095e-02 1.91121591275218e-04
9.36672413793103e+00 1.57635075629852e-02 1.90304400544480e-04
9.39810344827586e+00 1.56697927289293e-02 1.89489640578851e-04
9.42948275862069e+00 1.55766350342118e-02 1.88677317154715e-04
9.46086206896552e+00 1.54840311666116e-02 1.87867435821904e-04
9.49224137931034e+00 1.53919778335990e-02 1.87060001907225e-04
9.52362068965517e+00 1.53004717622185e-02 1.86255020517895e-04
9.55500000000000e+00 1.52095096989724e-02 1.85452496592384e-04
9.58637931034483e+00 1.51190884096118e-02 1.84652434760892e-04
9.61775862068965e+00 1.50292046793035e-02 1.83854839444242e-04
9.64913793103448e+00 1.49398553122322e-02 1.83059714953731e-04
9.68051724137931e+00 1.48510371315821e-02 1.82267065349025e-04
9.71189655172414e+00 1.47627469794233e-02 1.81476894490014e-04
9.74327586206896e+00 1.46749817166004e-02 1.80689206039961e-04
9.77465517241379e+00 1.45877382226200e-02 1.79904003468567e-04
9.80603448275862e+00 1.45010133955406e-02 1.79121290055018e-04
9.83741379310345e+00 1.44148041518615e-02 1.78341068891010e-04
9.86879310344828e+00 1.43291074264139e-02 1.77563342883699e-04
9.90017241379310e+00 1.42439201722514e-02 1.76788114758598e-04
