Energy (eV)          EEDF (eV^-(3/2))     First Anisotropy
6.94871794871795e-03 5.71541122425568e-01 3.40657220294842e-04
2.08461538461538e-02 5.66501237313245e-01 5.61930820502983e-04
3.47435897435897e-02 5.61505794221003e-01 7.40248153365520e-04
4.86410256410256e-02 5.56554401256499e-01 8.74768980478884e-04
6.25384615384615e-02 5.51646669982766e-01 9.86179011642041e-04
7.64358974358974e-02 5.46782215388247e-01 1.08232176713772e-03
9.03333333333333e-02 5.41960655856473e-01 1.16726737489082e-03
1.04230769230769e-01 5.37181613136104e-01 1.24348021691561e-03
1.18128205128205e-01 5.32444712319048e-01 1.31259901237790e-03
1.32025641025641e-01 5.27749581783322e-01 1.37578499025868e-03
1.45923076923077e-01 5.23095853196710e-01 1.43389997190736e-03
1.59820512820513e-01 5.18483161474617e-01 1.48760653789298e-03
1.73717948717949e-01 5.13911144752037e-01 1.53742847966848e-03
1.87615384615385e-01 5.09379444354762e-01 1.58378933110615e-03
2.01512820512821e-01 5.04887704771288e-01 1.62703802126871e-03
2.15410256410256e-01 5.00435573646011e-01 1.66746658308481e-03
2.29307692307692e-01 4.96022701686948e-01 1.70532273560833e-03
2.43205128205128e-01 4.91648742704649e-01 1.74081905833038e-03
2.57102564102564e-01 4.87313353562336e-01 1.77413983775650e-03
2.71000000000000e-01 4.83016194148989e-01 1.80544626148880e-03
2.84897435897436e-01 4.78756927352619e-01 1.83488043149262e-03
2.98794871794872e-01 4.74535219033902e-01 1.86256850991250e-03
3.12692307692308e-01 4.70350738000012e-01 1.88862321766927e-03
3.26589743589744e-01 4.66203155978580e-01 1.91314584259651e-03
3.40487179487179e-01 4.62092147591945e-01 1.93622786938662e-03
3.54384615384615e-01 4.58017390343171e-01 1.95795232176511e-03
3.68282051282051e-01 4.53978564555546e-01 1.97839486709576e-03
3.82179487179487e-01 4.49975353383330e-01 1.99762473749122e-03
3.96076923076923e-01 4.46007442774733e-01 2.01570551055222e-03
4.09974358974359e-01 4.42074521447285e-01 2.03269576518766e-03
4.23871794871795e-01 4.38176280863377e-01 2.04864964140215e-03
4.37769230769231e-01 4.34312415206127e-01 2.06361731992927e-03
4.51666666666667e-01 4.30482621355372e-01 2.07764543546406e-03
4.65564102564103e-01 4.26686598863870e-01 2.09077743450157e-03
4.79461538461538e-01 4.22924049933739e-01 2.10305388567106e-03
4.93358974358974e-01 4.19194679400630e-01 2.11451275504906e-03
5.07256410256410e-01 4.15498194687643e-01 2.12518964294728e-03
5.21153846153846e-01 4.11834305805631e-01 2.13511799232979e-03
5.35051282051282e-01 4.08202725322585e-01 2.14432927830165e-03
5.48948717948718e-01 4.04603168341084e-01 2.15285317238053e-03
5.62846153846154e-01 4.01035352475923e-01 2.16071768978257e-03
5.76743589743590e-01 3.97498997832012e-01 2.16794932104601e-03
5.90641025641026e-01 3.93993826982388e-01 2.17457315001652e-03
6.04538461538462e-01 3.90519564946454e-01 2.18061295904149e-03
6.18435897435897e-01 3.87075939173925e-01 2.18609132714099e-03
6.32333333333333e-01 3.83662679506689e-01 2.19102971466142e-03
6.46230769230769e-01 3.80279518174581e-01 2.19544853979138e-03
6.60128205128205e-01 3.76926189768645e-01 2.19936725228587e-03
6.74025641025641e-01 3.73602431220318e-01 2.20280439726988e-03
6.87923076923077e-01 3.70307981780784e-01 2.20577767425123e-03
7.01820512820513e-01 3.67042583000520e-01 2.20830399105905e-03
7.15717948717949e-01 3.63805978709034e-01 2.21039951325122e-03
7.29615384615385e-01 3.60597914994763e-01 2.21207970945590e-03
7.43512820512821e-01 3.57418140185148e-01 2.21335939234706e-03
7.57410256410256e-01 3.54266404831012e-01 2.21425275916394e-03
7.71307692307692e-01 3.51142461674497e-01 2.21477342569554e-03
7.85205128205128e-01 3.48046065642304e-01 2.21493445755937e-03
7.99102564102564e-01 3.44976973822201e-01 2.21474840267712e-03
8.13000000000000e-01 3.41934945443971e-01 2.21422731861598e-03
8.26897435897436e-01 3.38919741860517e-01 2.21338279864967e-03
8.40794871794872e-01 3.35931126529149e-01 2.21222599598429e-03
8.54692307692308e-01 3.32968864993025e-01 2.21076764631258e-03
8.68589743589744e-01 3.30032724862761e-01 2.20901808883589e-03
8.82487179487179e-01 3.27122475798194e-01 2.20698728528949e-03
8.96384615384615e-01 3.24237889493494e-01 2.20468484006690e-03
9.10282051282051e-01 3.21378739649617e-01 2.20212001616879e-03
9.24179487179487e-01 3.18544801966287e-01 2.19930175004995e-03
9.38076923076923e-01 3.15735854121122e-01 2.19623866852084e-03
9.51974358974359e-01 3.12951675752191e-01 2.19293910227114e-03
9.65871794871795e-01 3.10192048440724e-01 2.18941109915523e-03
9.79769230769231e-01 3.07456755693983e-01 2.18566243669026e-03
9.93666666666667e-01 3.04745582928279e-01 2.18170063125089e-03
1.00756410256410e+00 3.02058317465166e-01 2.17753295897378e-03
1.02146153846154e+00 2.99394748465082e-01 2.17316645689579e-03
1.03535897435897e+00 2.96754666971427e-01 2.16860792253526e-03
1.04925641025641e+00 2.94137865895068e-01 2.16386395047238e-03
1.06315384615385e+00 2.91544139923129e-01 2.15894092154988e-03
1.07705128205128e+00 2.88973285601798e-01 2.15384501544519e-03
1.09094871794872e+00 2.86425101223967e-01 2.14858222434646e-03
1.10484615384615e+00 2.83899386884893e-01 2.14315834074152e-03
1.11874358974359e+00 2.81395944464960e-01 2.13757899334678e-03
1.13264102564103e+00 2.78914577546803e-01 2.13184963516213e-03
1.14653846153846e+00 2.76455091488769e-01 2.12597555382118e-03
1.16043589743590e+00 2.74017293322942e-01 2.11996188302855e-03
1.17433333333333e+00 2.71600991804362e-01 2.11381359007933e-03
1.18823076923077e+00 2.69205997394588e-01 2.10753550815206e-03
1.20212820512821e+00 2.66832122186193e-01 2.10113232418395e-03
1.21602564102564e+00 2.64479179968152e-01 2.09460858757525e-03
1.22992307692308e+00 2.62146986132964e-01 2.08796871589926e-03
1.24382051282051e+00 2.59835357738617e-01 2.08121699859717e-03
1.25771794871795e+00 2.57544113419533e-01 2.07435760610356e-03
1.27161538461538e+00 2.55273073427863e-01 2.06739457760064e-03
1.28551282051282e+00 2.53022059618167e-01 2.06033184907700e-03
1.29941025641026e+00 2.50790895381028e-01 2.05317324149633e-03
1.31330769230769e+00 2.48579405698479e-01 2.04592246777560e-03
1.32720512820513e+00 2.46387417062530e-01 2.03858314072050e-03
1.34110256410256e+00 2.44214757511902e-01 2.03115876106371e-03
1.35500000000000e+00 2.42061256617480e-01 2.02365274312313e-03
1.36889743589744e+00 2.39926745421322e-01 2.01606840329172e-03
1.38279487179487e+00 2.37811056486366e-01 2.00840896610191e-03
1.39669230769231e+00 2.35714023821695e-01 2.00067757120063e-03
1.41058974358974e+00 2.33635482915301e-01 1.99287726178159e-03
1.42448717948718e+00 2.31575270720240e-01 1.98501100816106e-03
1.43838461538462e+00 2.29533225598473e-01 1.97708169666446e-03
1.45228205128205e+00 2.27509187365549e-01 1.96909213496149e-03
1.46617948717949e+00 2.25502997221875e-01 1.96104505825025e-03
1.48007692307692e+00 2.23514497782031e-01 1.95294311814724e-03
1.49397435897436e+00 2.21543533061542e-01 1.94478890443450e-03
1.50787179487180e+00 2.19589948425085e-01 1.93658493438478e-03
1.52176923076923e+00 2.17653590626726e-01 1.92833365750354e-03
1.53566666666667e+00 2.15734307746589e-01 1.92003745809169e-03
1.54956410256410e+00 2.13831949229200e-01 1.91169865650388e-03
1.56346153846154e+00 2.11946365822424e-01 1.90331951442741e-03
1.57735897435897e+00 2.10077409602408e-01 1.89490222450868e-03
1.59125641025641e+00 2.08224933961240e-01 1.88644892979877e-03
1.60515384615385e+00 2.06388793560659e-01 1.87796171379829e-03
1.61905128205128e+00 2.04568844366693e-01 1.86944260450194e-03
1.63294871794872e+00 2.02764943593233e-01 1.86089357916949e-03
1.64684615384615e+00 2.00976949724409e-01 1.85231655443480e-03
1.66074358974359e+00 1.99204722502836e-01 1.84371340436862e-03
1.67464102564103e+00 1.97448122886691e-01 1.83508595099800e-03
1.68853846153846e+00 1.95707013081060e-01 1.82643596795548e-03
1.70243589743590e+00 1.93981256485688e-01 1.81776518480853e-03
1.71633333333333e+00 1.92270717715108e-01 1.80907527765624e-03
1.73023076923077e+00 1.90575262587410e-01 1.80036788594299e-03
1.74412820512821e+00 1.88894758084401e-01 1.79164460343850e-03
1.75802564102564e+00 1.87229072379997e-01 1.78290698155462e-03
1.77192307692308e+00 1.85578074791780e-01 1.77415653091740e-03
1.78582051282051e+00 1.83941635808132e-01 1.76539472195517e-03
1.79971794871795e+00 1.82319627041380e-01 1.75662298869016e-03
1.81361538461538e+00 1.80711921245062e-01 1.74784272003829e-03
1.82751282051282e+00 1.79118392303401e-01 1.73905527500790e-03
1.84141025641026e+00 1.77538915195418e-01 1.73026197434949e-03
1.85530769230769e+00 1.75973366019559e-01 1.72146410346345e-03
1.86920512820513e+00 1.74421621950167e-01 1.71266291588118e-03
1.88310256410256e+00 1.72883561253030e-01 1.70385962500906e-03
1.89700000000000e+00 1.71359063275351e-01 1.69505541833351e-03
1.91089743589744e+00 1.69848008412297e-01 1.68625144950286e-03
1.92479487179487e+00 1.68350278129391e-01 1.67744884099153e-03
1.93869230769231e+00 1.66865754922010e-01 1.66864868730431e-03
1.95258974358974e+00 1.65394322329410e-01 1.65985204715009e-03
1.96648717948718e+00 1.63935864925150e-01 1.65105995673548e-03
1.98038461538462e+00 1.62490268285886e-01 1.64227342225857e-03
1.99428205128205e+00 1.61057419011750e-01 1.63349342236039e-03
2.00817948717949e+00 1.59637204688616e-01 1.62472091108009e-03
2.02207692307692e+00 1.58229513900767e-01 1.61595681044293e-03
2.03597435897436e+00 1.56834236221740e-01 1.60720202291488e-03
2.04987179487180e+00 1.55451262185197e-01 1.59845742428694e-03
2.06376923076923e+00 1.54080483303473e-01 1.58972386594019e-03
2.07766666666667e+00 1.52721792032396e-01 1.58100217577293e-03
2.09156410256410e+00 1.51375081789055e-01 1.57229315841716e-03
2.10546153846154e+00 1.50040246917684e-01 1.56359759788058e-03
2.11935897435897e+00 1.48717182700572e-01 1.55491625070422e-03
2.13325641025641e+00 1.47405785349489e-01 1.54624985731413e-03
2.14715384615385e+00 1.46105951979227e-01 1.53759913545311e-03
2.16105128205128e+00 1.44817580623808e-01 1.52896478220333e-03
2.17494871794872e+00 1.43540570204619e-01 1.52034747644041e-03
2.18884615384615e+00 1.42274820540267e-01 1.51174787235161e-03
2.20274358974359e+00 1.41020232338401e-01 1.50316661009607e-03
2.21664102564103e+00 1.39776707170932e-01 1.49460430958586e-03
2.23053846153846e+00 1.38544147488831e-01 1.48606157236157e-03
2.24443589743590e+00 1.37322456592334e-01 1.47753898387287e-03
2.25833333333333e+00 1.36111538639863e-01 1.46903710734304e-03
2.27223076923077e+00 1.34911298640201e-01 1.46055649378771e-03
2.28612820512821e+00 1.33721642429280e-01 1.45209767612327e-03
2.30002564102564e+00 1.32542476683696e-01 1.44366117091254e-03
2.31392307692308e+00 1.31373708892830e-01 1.43524747901603e-03
2.32782051282051e+00 1.30215247371807e-01 1.42685708568067e-03
2.34171794871795e+00 1.29067001234415e-01 1.41849046259596e-03
2.35561538461538e+00 1.27928880400812e-01 1.41014806223153e-03
2.36951282051282e+00 1.26800795590180e-01 1.40183032700668e-03
2.38341025641026e+00 1.25682658299557e-01 1.39353768384983e-03
2.39730769230769e+00 1.24574380815683e-01 1.38527054577323e-03
2.41120512820513e+00 1.23475876189629e-01 1.37702931379330e-03
2.42510256410256e+00 1.22387058243769e-01 1.36881437156729e-03
2.43900000000000e+00 1.21307841564761e-01 1.36062609402538e-03
2.45289743589744e+00 1.20238141483680e-01 1.35246484221946e-03
2.46679487179487e+00 1.19177874086841e-01 1.34433096479150e-03
2.48069230769231e+00 1.18126956192027e-01 1.33622479976819e-03
2.49458974358974e+00 1.17085305354785e-01 1.32814666948181e-03
2.50848717948718e+00 1.16052839861726e-01 1.32009688870126e-03
2.52238461538462e+00 1.15029478711857e-01 1.31207575975333e-03
2.53628205128205e+00 1.14015141626487e-01 1.30408357389474e-03
2.55017948717949e+00 1.13009749026925e-01 1.29612061298976e-03
2.56407692307692e+00 1.12013222040174e-01 1.28818714470179e-03
2.57797435897436e+00 1.11025482492527e-01 1.28028343015615e-03
2.59187179487179e+00 1.10046452892021e-01 1.27240971931751e-03
2.60576923076923e+00 1.09076056437503e-01 1.26456625227488e-03
2.61966666666667e+00 1.08114216997693e-01 1.25675325967329e-03
2.63356410256410e+00 1.07160859119891e-01 1.24897096272282e-03
2.64746153846154e+00 1.06215908009604e-01 1.24121957472416e-03
2.66135897435897e+00 1.05279289535466e-01 1.23349929662576e-03
2.67525641025641e+00 1.04350930223226e-01 1.22581032406384e-03
2.68915384615385e+00 1.03430757239664e-01 1.21815284309108e-03
2.70305128205128e+00 1.02518698400574e-01 1.21052703134396e-03
2.71694871794872e+00 1.01614682151612e-01 1.20293305947412e-03
2.73084615384615e+00 1.00718637572747e-01 1.19537108693865e-03
2.74474358974359e+00 9.98304943725174e-02 1.18784126864244e-03
2.75864102564103e+00 9.89501828728883e-02 1.18034375089234e-03
2.77253846153846e+00 9.80776340165611e-02 1.17287867249104e-03
2.78643589743590e+00 9.72127793489731e-02 1.16544616607979e-03
2.80033333333333e+00 9.63555510223167e-02 1.15804635415094e-03
2.81423076923077e+00 9.55058817900496e-02 1.15067935531770e-03
2.82812820512821e+00 9.46637049926315e-02 1.14334528047958e-03
2.84202564102564e+00 9.38289545642241e-02 1.13604423384974e-03
2.85592307692308e+00 9.30015650157561e-02 1.12877631327762e-03
2.86982051282051e+00 9.21814714413622e-02 1.12154161022972e-03
2.88371794871795e+00 9.13686095018860e-02 1.11434021101479e-03
2.89761538461538e+00 9.05629154283462e-02 1.10717219309706e-03
2.91151282051282e+00 8.97643260167818e-02 1.10003763086935e-03
2.92541025641026e+00 8.89727786151436e-02 1.09293659210565e-03
2.93930769230769e+00 8.81882111291965e-02 1.08586913889947e-03
2.95320512820513e+00 8.74105620069905e-02 1.07883532881627e-03
2.96710256410256e+00 8.66397702419865e-02 1.07183521139850e-03
2.98100000000000e+00 8.58757753681311e-02 1.06486883361999e-03
2.99489743589744e+00 8.51185174474928e-02 1.05793623652423e-03
3.00879487179487e+00 8.43679370756740e-02 1.05103745610556e-03
3.02269230769231e+00 8.36239753671849e-02 1.04417252439365e-03
3.03658974358974e+00 8.28865739582612e-02 1.03734146614056e-03
3.05048717948718e+00 8.21556750021575e-02 1.03054430397552e-03
3.06438461538462e+00 8.14312211574804e-02 1.02378105521808e-03
3.07828205128205e+00 8.07131555931521e-02 1.01705173270710e-03
3.09217948717949e+00 8.00014219746274e-02 1.01035634582085e-03
3.10607692307692e+00 7.92959644664347e-02 1.00369489733696e-03
3.11997435897436e+00 7.85967277276729e-02 9.97067388305763e-04
3.13387179487180e+00 7.79036569010016e-02 9.90473815027982e-04
3.14776923076923e+00 7.72166976171921e-02 9.83914169835666e-04
3.16166666666667e+00 7.65357959821338e-02 9.77388441318554e-04
3.17556410256410e+00 7.58608985812092e-02 9.70896614287893e-04
3.18946153846154e+00 7.51919524666232e-02 9.64438670711569e-04
3.20335897435897e+00 7.45289051595807e-02 9.58014586806820e-04
3.21725641025641e+00 7.38717046460600e-02 9.51624337537397e-04
3.23115384615385e+00 7.32202993666627e-02 9.45267893815455e-04
3.24505128205128e+00 7.25746382206264e-02 9.38945223216673e-04
3.25894871794872e+00 7.19346705538733e-02 9.32656290861919e-04
3.27284615384615e+00 7.13003461609652e-02 9.26401056659768e-04
3.28674358974359e+00 7.06716152810642e-02 9.20179479560959e-04
3.30064102564103e+00 7.00484285883420e-02 9.13991514904931e-04
3.31453846153846e+00 6.94307371956596e-02 9.07837115093423e-04
3.32843589743590e+00 6.88184926432898e-02 9.01716230421408e-04
3.34233333333333e+00 6.82116469006715e-02 8.95628806462205e-04
3.35623076923077e+00 6.76101523625466e-02 8.89574788093214e-04
3.37012820512821e+00 6.70139618398961e-02 8.83554116978579e-04
3.38402564102564e+00 6.64230285633148e-02 8.77566732204689e-04
3.39792307692308e+00 6.58373061723641e-02 8.71612570454682e-04
3.41182051282051e+00 6.52567487188155e-02 8.65691565968067e-04
3.42571794871795e+00 6.46813106562606e-02 8.59803651303515e-04
3.43961538461538e+00 6.41109468416060e-02 8.53948754916249e-04
3.45351282051282e+00 6.35456125314434e-02 8.48126804878452e-04
3.46741025641026e+00 6.29852633736801e-02 8.42337726545841e-04
3.48130769230769e+00 6.24298554105129e-02 8.36581443141721e-04
3.49520512820513e+00 6.18793450686153e-02 8.30857876477307e-04
3.50910256410256e+00 6.13336891604715e-02 8.25166944652598e-04
3.52300000000000e+00 6.07928448809077e-02 8.19508565579092e-04
3.53689743589744e+00 6.02567697991739e-02 8.13882654766097e-04
3.55079487179487e+00 5.97254218616703e-02 8.08289125871363e-04
3.56469230769231e+00 5.91987593826762e-02 8.02727891381186e-04
3.57858974358974e+00 5.86767410455396e-02 7.97198860428774e-04
3.59248717948718e+00 5.81593258993599e-02 7.91701942130441e-04
3.60638461538462e+00 5.76464733514954e-02 7.86237043484756e-04
3.62028205128205e+00 5.71381431700631e-02 7.80804069892337e-04
3.63417948717949e+00 5.66342954751755e-02 7.75402925797774e-04
3.64807692307692e+00 5.61348907399993e-02 7.70033512619662e-04
3.66197435897436e+00 5.56398897875830e-02 7.64695731910621e-04
3.67587179487179e+00 5.51492537837652e-02 7.59389483363038e-04
3.68976923076923e+00 5.46629442394656e-02 7.54114665300311e-04
3.70366666666667e+00 5.41809230023998e-02 7.48871174802936e-04
3.71756410256410e+00 5.37031522592808e-02 7.43658907667608e-04
3.73146153846154e+00 5.32295945277277e-02 7.38477758998230e-04
3.74535897435897e+00 5.27602126571534e-02 7.33327621285765e-04
3.75925641025641e+00 5.22949698257847e-02 7.28208387333089e-04
3.77315384615385e+00 5.18338295340996e-02 7.23119948404845e-04
3.78705128205128e+00 5.13767556068439e-02 7.18062194679583e-04
3.80094871794872e+00 5.09237121853788e-02 7.13035015808671e-04
3.81484615384615e+00 5.04746637284634e-02 7.08038299093159e-04
3.82874358974359e+00 5.00295750094064e-02 7.03071932255569e-04
3.84264102564103e+00 4.95884111098496e-02 6.98135801683729e-04
3.85653846153846e+00 4.91511374216144e-02 6.93229792857685e-04
3.87043589743590e+00 4.87177196394623e-02 6.88353790877977e-04
3.88433333333333e+00 4.82881237617831e-02 6.83507678735009e-04
3.89823076923077e+00 4.78623160878705e-02 6.78691339936124e-04
3.91212820512821e+00 4.74402632120330e-02 6.73904656837907e-04
3.92602564102564e+00 4.70219320252845e-02 6.69147511050099e-04
3.93992307692308e+00 4.66072897084923e-02 6.64419783534526e-04
3.95382051282051e+00 4.61963037340007e-02 6.59721354565947e-04
3.96771794871795e+00 4.57889418589365e-02 6.55052104219004e-04
3.98161538461538e+00 4.53851721257742e-02 6.50411910761809e-04
3.99551282051282e+00 4.49849628597770e-02 6.45800653089939e-04
4.00941025641026e+00 4.45882826635397e-02 6.41218209177985e-04
4.02330769230769e+00 4.41951004184732e-02 6.36664456451980e-04
4.03720512820513e+00 4.38053852784680e-02 6.32139272250188e-04
4.05110256410256e+00 4.34191066703840e-02 6.27642532297360e-04
4.06500000000000e+00 4.30362342916039e-02 6.23174113012712e-04
4.07889743589744e+00 4.26567381048597e-02 6.18733890039374e-04
4.09279487179487e+00 4.22805883395907e-02 6.14321738596557e-04
4.10669230769231e+00 4.19077554859422e-02 6.09937533915521e-04
4.12058974358974e+00 4.15382102951888e-02 6.05581149790266e-04
4.13448717948718e+00 4.11719237773942e-02 6.01252460766541e-04
4.14838461538462e+00 4.08088671965061e-02 5.96951340744997e-04
4.16228205128205e+00 4.04490120715968e-02 5.92677663314254e-04
4.17617948717949e+00 4.00923301711796e-02 5.88431302163319e-04
4.19007692307692e+00 3.97387935135709e-02 5.84212129705095e-04
4.20397435897436e+00 3.93883743646516e-02 5.80020019152721e-04
4.21787179487179e+00 3.90410452332159e-02 5.75854843192409e-04
4.23176923076923e+00 3.86967788721042e-02 5.71716474298800e-04
4.24566666666667e+00 3.83555482728181e-02 5.67604784807781e-04
4.25956410256410e+00 3.80173266666069e-02 5.63519646880846e-04
4.27346153846154e+00 3.76820875192039e-02 5.59460932885942e-04
4.28735897435897e+00 3.73498045311082e-02 5.55428514118747e-04
4.30125641025641e+00 3.70204516354830e-02 5.51422262728259e-04
4.31515384615385e+00 3.66940029938380e-02 5.47442050483740e-04
4.32905128205128e+00 3.63704329970212e-02 5.43487749065891e-04
4.34294871794872e+00 3.60497162602301e-02 5.39559230427649e-04
4.35684615384615e+00 3.57318276232465e-02 5.35656365578881e-04
4.37074358974359e+00 3.54167421484258e-02 5.31779026413572e-04
4.38464102564103e+00 3.51044351166008e-02 5.27927084538378e-04
