Energy (eV)          EEDF (eV^-(3/2))     First Anisotropy
7.25000000000000e-02 5.36879985474940e-02 4.71383824151284e-05
2.17500000000000e-01 5.26689410573660e-02 7.73602035387798e-05
3.62500000000000e-01 5.16692264035614e-02 1.00863974404216e-04
5.07500000000000e-01 5.06884874376864e-02 1.17971231208572e-04
6.52500000000000e-01 4.97263639802323e-02 1.31632304976478e-04
7.97500000000000e-01 4.87825026882952e-02 1.42983892832386e-04
9.42500000000000e-01 4.78565569258100e-02 1.52624784728797e-04
1.08750000000000e+00 4.69481866362469e-02 1.60922803849100e-04
1.23250000000000e+00 4.60570582177244e-02 1.68125959972955e-04
1.37750000000000e+00 4.51828444004932e-02 1.74412362165449e-04
1.52250000000000e+00 4.43252241267451e-02 1.79915900283484e-04
1.66750000000000e+00 4.34838824327036e-02 1.84740775167979e-04
1.81250000000000e+00 4.26585103329524e-02 1.88970319831527e-04
1.95750000000000e+00 4.18488047069598e-02 1.92672655288192e-04
2.10250000000000e+00 4.10544681877560e-02 1.95904478782323e-04
2.24750000000000e+00 4.02752090527252e-02 1.98713693639086e-04
2.39250000000000e+00 3.95107411164684e-02 2.01141290455508e-04
2.53750000000000e+00 3.87607836257018e-02 2.03222727441412e-04
2.68250000000000e+00 3.80250611561487e-02 2.04988965694372e-04
2.82750000000000e+00 3.73033035113895e-02 2.06467260626990e-04
2.97250000000000e+00 3.65952456236308e-02 2.07681777215975e-04
3.11750000000000e+00 3.59006274563586e-02 2.08654075456804e-04
3.26250000000000e+00 3.52191939088392e-02 2.09403498525452e-04
3.40750000000000e+00 3.45506947224322e-02 2.09947486871704e-04
3.55250000000000e+00 3.38948843886827e-02 2.10301835133117e-04
3.69750000000000e+00 3.32515220591575e-02 2.10480904347256e-04
3.84250000000000e+00 3.26203714569922e-02 2.10497798813528e-04
3.98750000000000e+00 3.20012007901184e-02 2.10364514704918e-04
4.13250000000000e+00 3.13937826661372e-02 2.10092065885516e-04
4.27750000000000e+00 3.07978940088081e-02 2.09690591172236e-04
4.42250000000000e+00 3.02133159761244e-02 2.09169446366731e-04
4.56750000000000e+00 2.96398338799420e-02 2.08537283692061e-04
4.71250000000000e+00 2.90772371071350e-02 2.07802120739038e-04
4.85750000000000e+00 2.85253190422470e-02 2.06971400617679e-04
5.00250000000000e+00 2.79838769916113e-02 2.06052044689624e-04
5.14750000000000e+00 2.74527121089105e-02 2.05050499005962e-04
5.29250000000000e+00 2.69316293221502e-02 2.03972775375481e-04
5.43750000000000e+00 2.64204372620176e-02 2.02824487828995e-04
5.58250000000000e+00 2.59189481916008e-02 2.01610885117289e-04
5.72750000000000e+00 2.54269779374418e-02 2.00336879776363e-04
5.87250000000000e+00 2.49443458218981e-02 1.99007074209102e-04
6.01750000000000e+00 2.44708745967885e-02 1.97625784163218e-04
6.16250000000000e+00 2.40063903782978e-02 1.96197059928144e-04
6.30750000000000e+00 2.35507225831178e-02 1.94724705526288e-04
6.45250000000000e+00 2.31037038657996e-02 1.93212296134642e-04
6.59750000000000e+00 2.26651700572959e-02 1.91663193939818e-04
6.74250000000000e+00 2.22349601046691e-02 1.90080562601891e-04
6.88750000000000e+00 2.18129160119442e-02 1.88467380479085e-04
7.03250000000000e+00 2.13988827820841e-02 1.86826452745540e-04
7.17750000000000e+00 2.09927083600667e-02 1.85160422517572e-04
7.32250000000000e+00 2.05942435770423e-02 1.83471781089498e-04
7.46750000000000e+00 2.02033420955503e-02 1.81762877367744e-04
7.61250000000000e+00 1.98198603557770e-02 1.80035926581414e-04
7.75750000000000e+00 1.94436575228323e-02 1.78293018338355e-04
7.90250000000000e+00 1.90745954350278e-02 1.76536124087842e-04
8.04750000000000e+00 1.87125385531366e-02 1.74767104044188e-04
8.19250000000000e+00 1.83573539106159e-02 1.72987713619590e-04
8.33750000000000e+00 1.80089110647747e-02 1.71199609409344e-04
8.48250000000000e+00 1.76670820488683e-02 1.69404354767965e-04
8.62750000000000e+00 1.73317413251021e-02 1.67603425010795e-04
8.77250000000000e+00 1.70027657385275e-02 1.65798212272142e-04
8.91750000000000e+00 1.66800344718127e-02 1.63990030047885e-04
9.06250000000000e+00 1.63634290008725e-02 1.62180117447761e-04
9.20750000000000e+00 1.60528330513393e-02 1.60369643180117e-04
9.35250000000000e+00 1.57481325558617e-02 1.58559709289735e-04
9.49750000000000e+00 1.54492156122124e-02 1.56751354667429e-04
9.64250000000000e+00 1.51559724421921e-02 1.54945558348441e-04
9.78750000000000e+00 1.48682953513128e-02 1.53143242615060e-04
9.93250000000000e+00 1.45860786892467e-02 1.51345275917595e-04
1.00775000000000e+01 1.43092188110261e-02 1.49552475626580e-04
1.02225000000000e+01 1.40376140389791e-02 1.47765610627952e-04
1.03675000000000e+01 1.37711646253883e-02 1.45985403772023e-04
1.05125000000000e+01 1.35097727158581e-02 1.44212534186109e-04
1.06575000000000e+01 1.32533423133773e-02 1.42447639459923e-04
1.08025000000000e+01 1.30017792430641e-02 1.40691317712070e-04
1.09475000000000e+01 1.27549911175798e-02 1.38944129545334e-04
1.10925000000000e+01 1.25128873031995e-02 1.37206599897880e-04
1.12375000000000e+01 1.22753788865264e-02 1.35479219796894e-04
1.13825000000000e+01 1.20423786418383e-02 1.33762448020729e-04
1.15275000000000e+01 1.18138009990532e-02 1.32056712675168e-04
1.16725000000000e+01 1.15895620123040e-02 1.30362412688966e-04
1.18175000000000e+01 1.13695793291089e-02 1.28679919233534e-04
1.19625000000000e+01 1.11537721601268e-02 1.27009577071210e-04
1.21075000000000e+01 1.09420612494877e-02 1.25351705836262e-04
1.22525000000000e+01 1.07343688456857e-02 1.23706601252531e-04
1.23975000000000e+01 1.05306186730240e-02 1.22074536291281e-04
1.25425000000000e+01 1.03307359036028e-02 1.20455762272633e-04
1.26875000000000e+01 1.01346471298388e-02 1.18850509913717e-04
1.28325000000000e+01 9.94228033750517e-03 1.17258990326470e-04
1.29775000000000e+01 9.75356487928500e-03 1.15681395967807e-04
1.31225000000000e+01 9.56843144882528e-03 1.14117901544741e-04
1.32675000000000e+01 9.38681205528417e-03 1.12568664876857e-04
1.34125000000000e+01 9.20863999836104e-03 1.11033827718359e-04
1.35575000000000e+01 9.03384984380064e-03 1.09513516541822e-04
1.37025000000000e+01 8.86237739936212e-03 1.08007843285636e-04
1.38475000000000e+01 8.69415969124423e-03 1.06516906066972e-04
1.39925000000000e+01 8.52913494095800e-03 1.05040789862047e-04
1.41375000000000e+01 8.36724254263839e-03 1.03579567155319e-04
1.42825000000000e+01 8.20842304078662e-03 1.02133298559167e-04
1.44275000000000e+01 8.05261810843487e-03 1.00702033405503e-04
1.45725000000000e+01 7.89977052572563e-03 9.92858103107074e-05
1.47175000000000e+01 7.74982415889741e-03 9.78846577151766e-05
1.48625000000000e+01 7.60272393966953e-03 9.64985943987021e-05
1.50075000000000e+01 7.45841584501805e-03 9.51276299728490e-05
1.51525000000000e+01 7.31684687733570e-03 9.37717653514224e-05
1.52975000000000e+01 7.17796504496829e-03 9.24309932000478e-05
1.54425000000000e+01 7.04171934312062e-03 9.11052983658510e-05
1.55875000000000e+01 6.90805973512486e-03 8.97946582881660e-05
1.57325000000000e+01 6.77693713406436e-03 8.84990433911422e-05
1.58775000000000e+01 6.64830338474632e-03 8.72184174590717e-05
1.60225000000000e+01 6.52211124601670e-03 8.59527379952469e-05
1.61675000000000e+01 6.39831437341072e-03 8.47019565650810e-05
1.63125000000000e+01 6.27686730213271e-03 8.34660191241932e-05
1.64575000000000e+01 6.15772543035901e-03 8.22448663321523e-05
1.66025000000000e+01 6.04084500285782e-03 8.10384338524962e-05
1.67475000000000e+01 5.92618309491995e-03 7.98466526396499e-05
1.68925000000000e+01 5.81369759659461e-03 7.86694492133181e-05
1.70375000000000e+01 5.70334719722434e-03 7.75067459208908e-05
1.71825000000000e+01 5.59509137027357e-03 7.63584611883950e-05
1.73275000000000e+01 5.48889035844514e-03 7.52245097604863e-05
1.74725000000000e+01 5.38470515907928e-03 7.41048029299548e-05
1.76175000000000e+01 5.28249750982976e-03 7.29992487571962e-05
1.77625000000000e+01 5.18222987461192e-03 7.19077522800752e-05
1.79075000000000e+01 5.08386542981745e-03 7.08302157146001e-05
1.80525000000000e+01 4.98736805079078e-03 6.97665386467892e-05
1.81975000000000e+01 4.89270229856217e-03 6.87166182161013e-05
1.83425000000000e+01 4.79983340683268e-03 6.76803492908000e-05
1.84875000000000e+01 4.70872726920608e-03 6.66576246355745e-05
1.86325000000000e+01 4.61935042666324e-03 6.56483350717513e-05
1.87775000000000e+01 4.53167005527411e-03 6.46523696304029e-05
1.89225000000000e+01 4.44565395414310e-03 6.36696156986474e-05
1.90675000000000e+01 4.36127053358317e-03 6.26999591594319e-05
1.92125000000000e+01 4.27848880351441e-03 6.17432845250542e-05
1.93575000000000e+01 4.19727836208285e-03 6.07994750646903e-05
1.95025000000000e+01 4.11760938449528e-03 5.98684129261782e-05
1.96475000000000e+01 4.03945261206598e-03 5.89499792522860e-05
1.97925000000000e+01 3.96277934147140e-03 5.80440542916947e-05
1.99375000000000e+01 3.88756141420876e-03 5.71505175049119e-05
2.00825000000000e+01 3.81377120625476e-03 5.62692476653252e-05
2.02275000000000e+01 3.74138161792056e-03 5.54001229555912e-05
2.03725000000000e+01 3.67036606389932e-03 5.45430210595493e-05
2.05175000000000e+01 3.60069846350270e-03 5.36978192498451e-05
2.06625000000000e+01 3.53235323108260e-03 5.28643944714380e-05
2.08075000000000e+01 3.46530526663479e-03 5.20426234211566e-05
2.09525000000000e+01 3.39952994658081e-03 5.12323826234659e-05
2.10975000000000e+01 3.33500311472494e-03 5.04335485025985e-05
2.12425000000000e+01 3.27170107338269e-03 4.96459974511969e-05
2.13875000000000e+01 3.20960057467781e-03 4.88696058956075e-05
2.15325000000000e+01 3.14867881200440e-03 4.81042503579632e-05
2.16775000000000e+01 3.08891341165113e-03 4.73498075151814e-05
2.18225000000000e+01 3.03028242458439e-03 4.66061542550087e-05
2.19675000000000e+01 2.97276431838749e-03 4.58731677292263e-05
2.21125000000000e+01 2.91633796935277e-03 4.51507254041311e-05
2.22575000000000e+01 2.86098265472388e-03 4.44387051084049e-05
2.24025000000000e+01 2.80667804508523e-03 4.37369850784749e-05
2.25475000000000e+01 2.75340419689603e-03 4.30454440014731e-05
2.26925000000000e+01 2.70114154516588e-03 4.23639610558859e-05
2.28375000000000e+01 2.64987089626951e-03 4.16924159499872e-05
2.29825000000000e+01 2.59957342089785e-03 4.10306889581518e-05
2.31275000000000e+01 2.55023064714291e-03 4.03786609551276e-05
2.32725000000000e+01 2.50182445371391e-03 3.97362134483555e-05
2.34175000000000e+01 2.45433706328216e-03 3.91032286084142e-05
2.35625000000000e+01 2.40775103595231e-03 3.84795892976659e-05
2.37075000000000e+01 2.36204926285748e-03 3.78651790971790e-05
2.38525000000000e+01 2.31721495987598e-03 3.72598823319991e-05
2.39975000000000e+01 2.27323166146726e-03 3.66635840948303e-05
2.41425000000000e+01 2.23008321462493e-03 3.60761702681991e-05
2.42875000000000e+01 2.18775377294448e-03 3.54975275451635e-05
2.44325000000000e+01 2.14622779080367e-03 3.49275434486188e-05
2.45775000000000e+01 2.10549001765333e-03 3.43661063492716e-05
2.47225000000000e+01 2.06552549241655e-03 3.38131054823291e-05
2.48675000000000e+01 2.02631953799416e-03 3.32684309629582e-05
2.50125000000000e+01 1.98785775587456e-03 3.27319738005684e-05
2.51575000000000e+01 1.95012602084581e-03 3.22036259119683e-05
2.53025000000000e+01 1.91311047580804e-03 3.16832801334409e-05
2.54475000000000e+01 1.87679752668449e-03 3.11708302317858e-05
2.55925000000000e+01 1.84117383742895e-03 3.06661709143728e-05
2.57375000000000e+01 1.80622632512811e-03 3.01691978382465e-05
2.58825000000000e+01 1.77194215519678e-03 2.96798076183264e-05
2.60275000000000e+01 1.73830873666440e-03 2.91978978347405e-05
2.61725000000000e+01 1.70531371755090e-03 2.87233670393289e-05
2.63175000000000e+01 1.67294498033044e-03 2.82561147613544e-05
2.64625000000000e+01 1.64119063748122e-03 2.77960415124572e-05
2.66075000000000e+01 1.61003902711971e-03 2.73430487908858e-05
2.67525000000000e+01 1.57947870871779e-03 2.68970390850331e-05
2.68975000000000e+01 1.54949845890123e-03 2.64579158763161e-05
2.70425000000000e+01 1.52008726732780e-03 2.60255836414243e-05
2.71875000000000e+01 1.49123433264377e-03 2.55999478539639e-05
2.73325000000000e+01 1.46292905851697e-03 2.51809149855310e-05
2.74775000000000e+01 1.43516104974536e-03 2.47683925062363e-05
2.76225000000000e+01 1.40792010843929e-03 2.43622888847079e-05
2.77675000000000e+01 1.38119623027632e-03 2.39625135875987e-05
2.79125000000000e+01 1.35497960082711e-03 2.35689770786187e-05
2.80575000000000e+01 1.32926059195099e-03 2.31815908171175e-05
2.82025000000000e+01 1.30402975826008e-03 2.28002672562386e-05
2.83475000000000e+01 1.27927783365034e-03 2.24249198406664e-05
2.84925000000000e+01 1.25499572789865e-03 2.20554630039851e-05
2.86375000000000e+01 1.23117452332435e-03 2.16918121656710e-05
2.87825000000000e+01 1.20780547151420e-03 2.13338837277345e-05
2.89275000000000e+01 1.18487999010952e-03 2.09815950710337e-05
2.90725000000000e+01 1.16238965965425e-03 2.06348645512719e-05
2.92175000000000e+01 1.14032622050291e-03 2.02936114946981e-05
2.93625000000000e+01 1.11868156978723e-03 1.99577561935299e-05
2.95075000000000e+01 1.09744775844030e-03 1.96272199011070e-05
2.96525000000000e+01 1.07661698827729e-03 1.93019248267947e-05
2.97975000000000e+01 1.05618160913153e-03 1.89817941306545e-05
2.99425000000000e+01 1.03613411604495e-03 1.86667519178865e-05
3.00875000000000e+01 1.01646714651188e-03 1.83567232330641e-05
3.02325000000000e+01 9.97173477775131e-04 1.80516340541742e-05
3.03775000000000e+01 9.78246024173419e-04 1.77514112864671e-05
3.05225000000000e+01 9.59677834539141e-04 1.74559827561370e-05
3.06675000000000e+01 9.41462089645525e-04 1.71652772038393e-05
3.08125000000000e+01 9.23592099702257e-04 1.68792242780553e-05
3.09575000000000e+01 9.06061301898623e-04 1.65977545283158e-05
3.11025000000000e+01 8.88863257993308e-04 1.63207993982937e-05
3.12475000000000e+01 8.71991651949923e-04 1.60482912187740e-05
3.13925000000000e+01 8.55440287617424e-04 1.57801632005111e-05
3.15375000000000e+01 8.39203086454554e-04 1.55163494269819e-05
3.16825000000000e+01 8.23274085297482e-04 1.52567848470430e-05
3.18275000000000e+01 8.07647434169810e-04 1.50014052675000e-05
3.19725000000000e+01 7.92317394134151e-04 1.47501473455961e-05
3.21175000000000e+01 7.77278335184487e-04 1.45029485814291e-05
3.22625000000000e+01 7.62524734178527e-04 1.42597473103004e-05
3.24075000000000e+01 7.48051172809324e-04 1.40204826950078e-05
3.25525000000000e+01 7.33852335615374e-04 1.37850947180837e-05
3.26975000000000e+01 7.19923008028505e-04 1.35535241739861e-05
3.28425000000000e+01 7.06258074458806e-04 1.33257126612530e-05
3.29875000000000e+01 6.92852516415909e-04 1.31016025746175e-05
3.31325000000000e+01 6.79701410665934e-04 1.28811370970961e-05
3.32775000000000e+01 6.66799927423418e-04 1.26642601920523e-05
3.34225000000000e+01 6.54143328577558e-04 1.24509165952409e-05
3.35675000000000e+01 6.41726965952125e-04 1.22410518068382e-05
3.37125000000000e+01 6.29546279598406e-04 1.20346120834612e-05
3.38575000000000e+01 6.17596796120551e-04 1.18315444301824e-05
3.40025000000000e+01 6.05874127032703e-04 1.16317965925428e-05
3.41475000000000e+01 5.94373967147308e-04 1.14353170485667e-05
3.42925000000000e+01 5.83092092994030e-04 1.12420550007830e-05
3.44375000000000e+01 5.72024361268661e-04 1.10519603682573e-05
3.45825000000000e+01 5.61166707311480e-04 1.08649837786355e-05
3.47275000000000e+01 5.50515143614498e-04 1.06810765602049e-05
3.48725000000000e+01 5.40065758357029e-04 1.05001907339746e-05
3.50175000000000e+01 5.29814713969063e-04 1.03222790057785e-05
3.51625000000000e+01 5.19758245721905e-04 1.01472947584035e-05
3.53075000000000e+01 5.09892660345570e-04 9.97519204374485e-06
3.54525000000000e+01 5.00214334672412e-04 9.80592557499335e-06
3.55975000000000e+01 4.90719714306508e-04 9.63945071885419e-06
3.57425000000000e+01 4.81405312318296e-04 9.47572348780138e-06
3.58875000000000e+01 4.72267707963985e-04 9.31470053236952e-06
3.60325000000000e+01 4.63303545429279e-04 9.15633913348428e-06
3.61775000000000e+01 4.54509532596943e-04 9.00059719483454e-06
3.63225000000000e+01 4.45882439837760e-04 8.84743323528741e-06
3.64675000000000e+01 4.37419098824443e-04 8.69680638134743e-06
3.66125000000000e+01 4.29116401368055e-04 8.54867635966258e-06
3.67575000000000e+01 4.20971298276516e-04 8.40300348957843e-06
3.69025000000000e+01 4.12980798234780e-04 8.25974867574047e-06
3.70475000000000e+01 4.05141966706262e-04 8.11887340074784e-06
3.71925000000000e+01 3.97451924855121e-04 7.98033971785847e-06
3.73375000000000e+01 3.89907848489000e-04 7.84411024374697e-06
3.74825000000000e+01 3.82506967021831e-04 7.71014815131702e-06
3.76275000000000e+01 3.75246562456329e-04 7.57841716256895e-06
3.77725000000000e+01 3.68123968385797e-04 7.44888154152263e-06
3.79175000000000e+01 3.61136569014882e-04 7.32150608719723e-06
3.80625000000000e+01 3.54281798198914e-04 7.19625612664962e-06
3.82075000000000e+01 3.47557138501485e-04 7.07309750806998e-06
3.83525000000000e+01 3.40960120269905e-04 6.95199659393707e-06
3.84975000000000e+01 3.34488320728224e-04 6.83292025423355e-06
3.86425000000000e+01 3.28139363087450e-04 6.71583585972071e-06
3.87875000000000e+01 3.21910915672674e-04 6.60071127527470e-06
3.89325000000000e+01 3.15800691066747e-04 6.48751485328354e-06
3.90775000000000e+01 3.09806445270228e-04 6.37621542710585e-06
3.92225000000000e+01 3.03925976877260e-04 6.26678230459188e-06
3.93675000000000e+01 2.98157126267100e-04 6.15918526166637e-06
3.95125000000000e+01 2.92497774810991e-04 6.05339453597416e-06
3.96575000000000e+01 2.86945844094090e-04 5.94938082058878e-06
3.98025000000000e+01 2.81499295152162e-04 5.84711525778386e-06
3.99475000000000e+01 2.76156127722765e-04 5.74656943286774e-06
4.00925000000000e+01 2.70914379510646e-04 5.64771536808141e-06
4.02375000000000e+01 2.65772125467082e-04 5.55052551655951e-06
4.03825000000000e+01 2.60727477082901e-04 5.45497275635458e-06
4.05275000000000e+01 2.55778581694920e-04 5.36103038452544e-06
4.06725000000000e+01 2.50923621805550e-04 5.26867211128846e-06
4.08175000000000e+01 2.46160814415311e-04 5.17787205423189e-06
4.09625000000000e+01 2.41488410368023e-04 5.08860473259367e-06
4.11075000000000e+01 2.36904693708420e-04 5.00084506160270e-06
4.12525000000000e+01 2.32407981051964e-04 4.91456834688253e-06
4.13975000000000e+01 2.27996620966613e-04 4.82975027891839e-06
4.15425000000000e+01 2.23668993366327e-04 4.74636692758670e-06
4.16875000000000e+01 2.19423508916091e-04 4.66439473674689e-06
4.18325000000000e+01 2.15258608448220e-04 4.58381051889597e-06
4.19775000000000e+01 2.11172762389756e-04 4.50459144988458e-06
4.21225000000000e+01 2.07164470200723e-04 4.42671506369523e-06
4.22675000000000e+01 2.03232259823050e-04 4.35015924728204e-06
4.24125000000000e+01 1.99374687139956e-04 4.27490223547126e-06
4.25575000000000e+01 1.95590335445588e-04 4.20092260592283e-06
4.27025000000000e+01 1.91877814924736e-04 4.12819927415328e-06
4.28475000000000e+01 1.88235762142417e-04 4.05671148861804e-06
4.29925000000000e+01 1.84662839543149e-04 3.98643882585362e-06
4.31375000000000e+01 1.81157734959731e-04 3.91736118567977e-06
4.32825000000000e+01 1.77719161131342e-04 3.84945878646073e-06
4.34275000000000e+01 1.74345855230794e-04 3.78271216042507e-06
4.35725000000000e+01 1.71036578400755e-04 3.71710214904411e-06
4.37175000000000e+01 1.67790115298769e-04 3.65260989846808e-06
4.38625000000000e+01 1.64605273650926e-04 3.58921685501984e-06
4.40075000000000e+01 1.61480883813988e-04 3.52690476074631e-06
4.41525000000000e+01 1.58415798345838e-04 3.46565564902598e-06
4.42975000000000e+01 1.55408891584079e-04 3.40545184023266e-06
4.44425000000000e+01 1.52459059232627e-04 3.34627593745558e-06
4.45875000000000e+01 1.49565217956158e-04 3.28811082227451e-06
4.47325000000000e+01 1.46726304982248e-04 3.23093965058976e-06
4.48775000000000e+01 1.43941277711067e-04 3.17474584850675e-06
4.50225000000000e+01 1.41209113332482e-04 3.11951310827454e-06
4.51675000000000e+01 1.38528808450425e-04 3.06522538427786e-06
4.53125000000000e+01 1.35899378714391e-04 3.01186688908218e-06
4.54575000000000e+01 1.33319858457939e-04 2.95942208953126e-06
4.56025000000000e+01 1.30789300344040e-04 2.90787570289681e-06
4.57475000000000e+01 1.28306775017168e-04 2.85721269307981e-06
