Energy (eV)          EEDF (eV^-(3/2))     First Anisotropy
4.20652173913044e-03 9.48107521011157e-01 5.18963555399471e-04
1.26195652173913e-02 9.41013658880988e-01 8.56630230205491e-04
2.10326086956522e-02 9.33972873911257e-01 1.12998540025909e-03
2.94456521739130e-02 9.26984769035145e-01 1.33713060681845e-03
3.78586956521739e-02 9.20048950051130e-01 1.50945846479953e-03
4.62717391304348e-02 9.13165025750904e-01 1.65884863959685e-03
5.46847826086957e-02 9.06332607852655e-01 1.79145404250611e-03
6.30978260869565e-02 8.99551310991263e-01 1.91099328396174e-03
7.15108695652174e-02 8.92820752660604e-01 2.01993460740487e-03
7.99239130434783e-02 8.86140553229022e-01 2.12002391455966e-03
8.83369565217391e-02 8.79510335904962e-01 2.21255464347211e-03
9.67500000000000e-02 8.72929726716203e-01 2.29851945351459e-03
1.05163043478261e-01 8.66398354475154e-01 2.37870170027510e-03
1.13576086956522e-01 8.59915850828666e-01 2.45373371597121e-03
1.21989130434783e-01 8.53481850077288e-01 2.52413556384070e-03
1.30402173913043e-01 8.47095989370363e-01 2.59034177667590e-03
1.38815217391304e-01 8.40757908467749e-01 2.65272034955463e-03
1.47228260869565e-01 8.34467249921786e-01 2.71158657808951e-03
1.55641304347826e-01 8.28223658868500e-01 2.76721336777854e-03
1.64054347826087e-01 8.22026783184155e-01 2.81983905651413e-03
1.72467391304348e-01 8.15876273299590e-01 2.86967345459189e-03
1.80880434782609e-01 8.09771782336658e-01 2.91690257328457e-03
1.89293478260870e-01 8.03712965941208e-01 2.96169238004444e-03
1.97706521739130e-01 7.97699482403232e-01 3.00419180859710e-03
2.06119565217391e-01 7.91730992534038e-01 3.04453522148348e-03
2.14532608695652e-01 7.85807159657309e-01 3.08284439368121e-03
2.22945652173913e-01 7.79927649670553e-01 3.11923018566805e-03
2.31358695652174e-01 7.74092130918643e-01 3.15379392316290e-03
2.39771739130435e-01 7.68300274278165e-01 3.18662855764284e-03
2.48184782608696e-01 7.62551753040050e-01 3.21781964921055e-03
2.56597826086957e-01 7.56846242985986e-01 3.24744620166688e-03
2.65010869565217e-01 7.51183422279005e-01 3.27558137878081e-03
2.73423913043478e-01 7.45562971532976e-01 3.30229311954955e-03
2.81836956521739e-01 7.39984573710214e-01 3.32764467182997e-03
2.90250000000000e-01 7.34447914184901e-01 3.35169505504505e-03
2.98663043478261e-01 7.28952680646931e-01 3.37449946548305e-03
3.07076086956522e-01 7.23498563159977e-01 3.39610963059179e-03
3.15489130434783e-01 7.18085254070904e-01 3.41657412207942e-03
3.23902173913043e-01 7.12712448063082e-01 3.43593863154638e-03
3.32315217391304e-01 7.07379842070811e-01 3.45424621603706e-03
3.40728260869565e-01 7.02087135328386e-01 3.47153751553215e-03
3.49141304347826e-01 6.96834029289064e-01 3.48785094813977e-03
3.57554347826087e-01 6.91620227670305e-01 3.50322288390288e-03
3.65967391304348e-01 6.86445436376869e-01 3.51768780185302e-03
3.74380434782609e-01 6.81309363542621e-01 3.53127843050593e-03
3.82793478260870e-01 6.76211719457393e-01 3.54402587562537e-03
3.91206521739130e-01 6.71152216605678e-01 3.55595973284730e-03
3.99619565217391e-01 6.66130569609318e-01 3.56710820118372e-03
4.08032608695652e-01 6.61146495213779e-01 3.57749816491982e-03
4.16445652173913e-01 6.56199712307920e-01 3.58715528882171e-03
4.24858695652174e-01 6.51289941860495e-01 3.59610409537999e-03
4.33271739130435e-01 6.46416906950810e-01 3.60436803680297e-03
4.41684782608696e-01 6.41580332707907e-01 3.61196956174982e-03
4.50097826086957e-01 6.36779946339103e-01 3.61893017590482e-03
4.58510869565217e-01 6.32015477071668e-01 3.62527049841268e-03
4.66923913043478e-01 6.27286656179421e-01 3.63101031320280e-03
4.75336956521739e-01 6.22593216926737e-01 3.63616861704437e-03
4.83750000000000e-01 6.17934894593341e-01 3.64076366331591e-03
4.92163043478261e-01 6.13311426420496e-01 3.64481300318480e-03
5.00576086956522e-01 6.08722551634139e-01 3.64833352315992e-03
5.08989130434783e-01 6.04168011393108e-01 3.65134148058837e-03
5.17402173913044e-01 5.99647548810747e-01 3.65385253605427e-03
5.25815217391304e-01 5.95160908905040e-01 3.65588178414771e-03
5.34228260869565e-01 5.90707838618803e-01 3.65744378156221e-03
5.42641304347826e-01 5.86288086771618e-01 3.65855257390338e-03
5.51054347826087e-01 5.81901404078699e-01 3.65922172017605e-03
5.59467391304348e-01 5.77547543104530e-01 3.65946431625494e-03
5.67880434782609e-01 5.73226258280502e-01 3.65929301632232e-03
5.76293478260870e-01 5.68937305860156e-01 3.65872005351141e-03
5.84706521739131e-01 5.64680443935676e-01 3.65775725729011e-03
5.93119565217391e-01 5.60455432401629e-01 3.65641607756590e-03
6.01532608695652e-01 5.56262032942400e-01 3.65470759255914e-03
6.09945652173913e-01 5.52100009039169e-01 3.65264253062394e-03
6.18358695652174e-01 5.47969125929372e-01 3.65023128394571e-03
6.26771739130435e-01 5.43869150620107e-01 3.64748392244858e-03
6.35184782608696e-01 5.39799851848875e-01 3.64441020738649e-03
6.43597826086957e-01 5.35761000096138e-01 3.64101960373184e-03
6.52010869565217e-01 5.31752367547277e-01 3.63732129234012e-03
6.60423913043478e-01 5.27773728104343e-01 3.63332418102188e-03
6.68836956521739e-01 5.23824857349183e-01 3.62903691546465e-03
6.77250000000000e-01 5.19905532554439e-01 3.62446788915981e-03
6.85663043478261e-01 5.16015532647782e-01 3.61962525324116e-03
6.94076086956522e-01 5.12154638222199e-01 3.61451692541057e-03
7.02489130434783e-01 5.08322631501298e-01 3.60915059882607e-03
7.10902173913044e-01 5.04519296348923e-01 3.60353375015042e-03
7.19315217391304e-01 5.00744418235468e-01 3.59767364760361e-03
7.27728260869565e-01 4.96997784246879e-01 3.59157735823929e-03
7.36141304347826e-01 4.93279183051931e-01 3.58525175526050e-03
7.44554347826087e-01 4.89588404910638e-01 3.57870352461416e-03
7.52967391304348e-01 4.85925241642467e-01 3.57193917165442e-03
7.61380434782609e-01 4.82289486634189e-01 3.56496502713388e-03
7.69793478260870e-01 4.78680934808984e-01 3.55778725328746e-03
7.78206521739131e-01 4.75099382633771e-01 3.55041184821925e-03
7.86619565217391e-01 4.71544628093590e-01 3.54284465575466e-03
7.95032608695652e-01 4.68016470680712e-01 3.53509136402051e-03
8.03445652173913e-01 4.64514711396336e-01 3.52715751468671e-03
8.11858695652174e-01 4.61039152722039e-01 3.51904850673433e-03
8.20271739130435e-01 4.57589598625668e-01 3.51076960081726e-03
8.28684782608696e-01 4.54165854533540e-01 3.50232592376226e-03
8.37097826086957e-01 4.50767727335921e-01 3.49372247256808e-03
8.45510869565217e-01 4.47395025359964e-01 3.48496411855505e-03
8.53923913043478e-01 4.44047558374795e-01 3.47605561103972e-03
8.62336956521739e-01 4.40725137565149e-01 3.46700158116720e-03
8.70750000000000e-01 4.37427575536095e-01 3.45780654529441e-03
8.79163043478261e-01 4.34154686287346e-01 3.44847490853656e-03
8.87576086956522e-01 4.30906285217639e-01 3.43901096788589e-03
8.95989130434783e-01 4.27682189099698e-01 3.42941891549993e-03
9.04402173913044e-01 4.24482216084280e-01 3.41970284158178e-03
9.12815217391304e-01 4.21306185675772e-01 3.40986673743328e-03
9.21228260869565e-01 4.18153918735932e-01 3.39991449811930e-03
9.29641304347826e-01 4.15025237460082e-01 3.38984992530748e-03
9.38054347826087e-01 4.11919965380565e-01 3.37967672973605e-03
9.46467391304348e-01 4.08837927343520e-01 3.36939853385970e-03
9.54880434782609e-01 4.05778949512063e-01 3.35901887413847e-03
9.63293478260870e-01 4.02742859343628e-01 3.34854120350581e-03
9.71706521739131e-01 3.99729485592887e-01 3.33796889268993e-03
9.80119565217391e-01 3.96738658292621e-01 3.32730523574730e-03
9.88532608695652e-01 3.93770208744432e-01 3.31655344721921e-03
9.96945652173913e-01 3.90823969518029e-01 3.30571666431910e-03
1.00535869565217e+00 3.87899774441365e-01 3.29479796287156e-03
1.01377173913043e+00 3.84997458549078e-01 3.28380033358816e-03
1.02218478260870e+00 3.82116858166427e-01 3.27272669551631e-03
1.03059782608696e+00 3.79257810814792e-01 3.26157992325455e-03
1.03901086956522e+00 3.76420155204742e-01 3.25036280265614e-03
1.04742391304348e+00 3.73603731307319e-01 3.23907805551139e-03
1.05583695652174e+00 3.70808380263772e-01 3.22772836335833e-03
1.06425000000000e+00 3.68033944378657e-01 3.21631632463373e-03
1.07266304347826e+00 3.65280267187624e-01 3.20484448538163e-03
1.08107608695652e+00 3.62547193346447e-01 3.19331533411031e-03
1.08948913043478e+00 3.59834568723130e-01 3.18173129539868e-03
1.09790217391304e+00 3.57142240313680e-01 3.17009475977170e-03
1.10631521739130e+00 3.54470056235352e-01 3.15840804289784e-03
1.11472826086957e+00 3.51817865789461e-01 3.14667340795099e-03
1.12314130434783e+00 3.49185519380768e-01 3.13489308721105e-03
1.13155434782609e+00 3.46572868510854e-01 3.12306924258897e-03
1.13996739130435e+00 3.43979765837890e-01 3.11120398716889e-03
1.14838043478261e+00 3.41406065099451e-01 3.09929940599882e-03
1.15679347826087e+00 3.38851621106007e-01 3.08735751789381e-03
1.16520652173913e+00 3.36316289797834e-01 3.07538029619931e-03
1.17361956521739e+00 3.33799928171069e-01 3.06336968881346e-03
1.18203260869565e+00 3.31302394271318e-01 3.05132758122416e-03
1.19044565217391e+00 3.28823547247865e-01 3.03925581652116e-03
1.19885869565217e+00 3.26363247282833e-01 3.02715621470141e-03
1.20727173913043e+00 3.23921355584844e-01 3.01503053689527e-03
1.21568478260870e+00 3.21497734440731e-01 3.00288050464893e-03
1.22409782608696e+00 3.19092247147618e-01 2.99070781855779e-03
1.23251086956522e+00 3.16704758006652e-01 2.97851412363704e-03
1.24092391304348e+00 3.14335132372338e-01 2.96630102790842e-03
1.24933695652174e+00 3.11983236587402e-01 2.95407012039322e-03
1.25775000000000e+00 3.09648937976591e-01 2.94182293758384e-03
1.26616304347826e+00 3.07332104893768e-01 2.92956098679218e-03
1.27457608695652e+00 3.05032606641790e-01 2.91728574179602e-03
1.28298913043478e+00 3.02750313536980e-01 2.90499863752877e-03
1.29140217391304e+00 3.00485096848010e-01 2.89270109287636e-03
1.29981521739130e+00 2.98236828789879e-01 2.88039447873121e-03
1.30822826086957e+00 2.96005382567765e-01 2.86808013498726e-03
1.31664130434783e+00 2.93790632318327e-01 2.85575938700763e-03
1.32505434782609e+00 2.91592453103805e-01 2.84343351468554e-03
1.33346739130435e+00 2.89410720953891e-01 2.83110376886925e-03
1.34188043478261e+00 2.87245312809338e-01 2.81877138726305e-03
1.35029347826087e+00 2.85096106516169e-01 2.80643756445926e-03
1.35870652173913e+00 2.82962980865687e-01 2.79410346781666e-03
1.36711956521739e+00 2.80845815540265e-01 2.78177025281966e-03
1.37553260869565e+00 2.78744491107673e-01 2.76943903404833e-03
1.38394565217391e+00 2.76658889059309e-01 2.75711090052559e-03
1.39235869565217e+00 2.74588891758097e-01 2.74478693056706e-03
1.40077173913043e+00 2.72534382432896e-01 2.73246816365589e-03
1.40918478260870e+00 2.70495245215060e-01 2.72015561527134e-03
1.41759782608696e+00 2.68471365088346e-01 2.70785029125723e-03
1.42601086956522e+00 2.66462627883395e-01 2.69555316056829e-03
1.43442391304348e+00 2.64468920312722e-01 2.68326516960134e-03
1.44283695652174e+00 2.62490129922525e-01 2.67098725610175e-03
1.45125000000000e+00 2.60526145087249e-01 2.65872032275037e-03
1.45966304347826e+00 2.58576855043081e-01 2.64646525526862e-03
1.46807608695652e+00 2.56642149828706e-01 2.63422291884596e-03
1.47648913043478e+00 2.54721920331509e-01 2.62199415382267e-03
1.48490217391304e+00 2.52816058242174e-01 2.60977979340618e-03
1.49331521739130e+00 2.50924456049429e-01 2.59758063848170e-03
1.50172826086957e+00 2.49047007071340e-01 2.58539747078620e-03
1.51014130434783e+00 2.47183605411600e-01 2.57323106570250e-03
1.51855434782609e+00 2.45334145954377e-01 2.56108216783986e-03
1.52696739130435e+00 2.43498524394282e-01 2.54895150379084e-03
1.53538043478261e+00 2.41676637194255e-01 2.53683979451102e-03
1.54379347826087e+00 2.39868381580529e-01 2.52474773164223e-03
1.55220652173913e+00 2.38073655571319e-01 2.51267598986809e-03
1.56061956521739e+00 2.36292357936256e-01 2.50062523889499e-03
1.56903260869565e+00 2.34524388191443e-01 2.48859612049441e-03
1.57744565217391e+00 2.32769646626944e-01 2.47658926046726e-03
1.58585869565217e+00 2.31028034267694e-01 2.46460528024712e-03
1.59427173913043e+00 2.29299452868639e-01 2.45264477463755e-03
1.60268478260870e+00 2.27583804941087e-01 2.44070832339293e-03
1.61109782608696e+00 2.25880993715031e-01 2.42879650246364e-03
1.61951086956522e+00 2.24190923134372e-01 2.41690986240350e-03
1.62792391304348e+00 2.22513497882184e-01 2.40504893958135e-03
1.63633695652174e+00 2.20848623344392e-01 2.39321426708133e-03
1.64475000000000e+00 2.19196205605076e-01 2.38140635375744e-03
1.65316304347826e+00 2.17556151470700e-01 2.36962569845124e-03
1.66157608695652e+00 2.15928368425531e-01 2.35787278708904e-03
1.66998913043478e+00 2.14312764665326e-01 2.34614808919259e-03
1.67840217391304e+00 2.12709249063012e-01 2.33445207181293e-03
1.68681521739130e+00 2.11117731164150e-01 2.32278517953677e-03
1.69522826086957e+00 2.09538121209643e-01 2.31114784483074e-03
1.70364130434783e+00 2.07970330102628e-01 2.29954049810399e-03
1.71205434782609e+00 2.06414269404027e-01 2.28796354830937e-03
1.72046739130435e+00 2.04869851354337e-01 2.27641739297347e-03
1.72888043478261e+00 2.03336988841668e-01 2.26490242794656e-03
1.73729347826087e+00 2.01815595397399e-01 2.25341902857856e-03
1.74570652173913e+00 2.00305585217078e-01 2.24196755944601e-03
1.75411956521739e+00 1.98806873129569e-01 2.23054838380057e-03
1.76253260869565e+00 1.97319374592798e-01 2.21916184530193e-03
1.77094565217391e+00 1.95843005713813e-01 2.20780827744816e-03
1.77935869565217e+00 1.94377683218997e-01 2.19648801273843e-03
1.78777173913043e+00 1.92923324449897e-01 2.18520136494437e-03
1.79618478260870e+00 1.91479847382478e-01 2.17394863824978e-03
1.80459782608696e+00 1.90047170598371e-01 2.16273013614089e-03
1.81301086956522e+00 1.88625213280768e-01 2.15154614419751e-03
1.82142391304348e+00 1.87213895232923e-01 2.14039693895274e-03
1.82983695652174e+00 1.85813136850379e-01 2.12928279651963e-03
1.83825000000000e+00 1.84422859116942e-01 2.11820397588579e-03
1.84666304347826e+00 1.83042983622448e-01 2.10716073017846e-03
1.85507608695652e+00 1.81673432528740e-01 2.09615330431210e-03
1.86348913043478e+00 1.80314128594572e-01 2.08518193216937e-03
1.87190217391304e+00 1.78964995149309e-01 2.07424684765427e-03
1.88031521739130e+00 1.77625956089042e-01 2.06334826873306e-03
1.88872826086957e+00 1.76296935893272e-01 2.05248640562953e-03
1.89714130434783e+00 1.74977859599499e-01 2.04166146880850e-03
1.90555434782609e+00 1.73668652799416e-01 2.03087365347988e-03
1.91396739130435e+00 1.72369241654941e-01 2.02012314755313e-03
1.92238043478261e+00 1.71079552873655e-01 2.00941013938082e-03
1.93079347826087e+00 1.69799513705073e-01 1.99873480271112e-03
1.93920652173913e+00 1.68529051956052e-01 1.98809730440936e-03
1.94761956521739e+00 1.67268095967044e-01 1.97749781196964e-03
1.95603260869565e+00 1.66016574608447e-01 1.96693647890225e-03
1.96444565217391e+00 1.64774417295415e-01 1.95641345222746e-03
1.97285869565217e+00 1.63541553964893e-01 1.94592887976607e-03
1.98127173913044e+00 1.62317915072050e-01 1.93548289594806e-03
1.98968478260870e+00 1.61103431604503e-01 1.92507562908265e-03
1.99809782608696e+00 1.59898035060129e-01 1.91470720843792e-03
2.00651086956522e+00 1.58701657443550e-01 1.90437775045711e-03
2.01492391304348e+00 1.57514231279824e-01 1.89408736581155e-03
2.02333695652174e+00 1.56335689592978e-01 1.88383616627683e-03
2.03175000000000e+00 1.55165965902568e-01 1.87362425134327e-03
2.04016304347826e+00 1.54004994236842e-01 1.86345171720225e-03
2.04857608695652e+00 1.52852709106492e-01 1.85331865483911e-03
2.05698913043478e+00 1.51709045523264e-01 1.84322514775242e-03
2.06540217391304e+00 1.50573938979582e-01 1.83317128077944e-03
2.07381521739130e+00 1.49447325445238e-01 1.82315712729571e-03
2.08222826086957e+00 1.48329141379770e-01 1.81318275575224e-03
2.09064130434783e+00 1.47219323712761e-01 1.80324823605075e-03
2.09905434782609e+00 1.46117809840585e-01 1.79335362710715e-03
2.10746739130435e+00 1.45024537638327e-01 1.78349898320176e-03
2.11588043478261e+00 1.43939445440706e-01 1.77368436016769e-03
2.12429347826087e+00 1.42862472038897e-01 1.76390980330731e-03
2.13270652173913e+00 1.41793556691994e-01 1.75417535356069e-03
2.14111956521739e+00 1.40732639108548e-01 1.74448105351352e-03
2.14953260869565e+00 1.39679659443457e-01 1.73482693565607e-03
2.15794565217391e+00 1.38634558308995e-01 1.72521302837408e-03
2.16635869565217e+00 1.37597276756937e-01 1.71563936178407e-03
2.17477173913043e+00 1.36567756275519e-01 1.70610595632435e-03
2.18318478260870e+00 1.35545938800047e-01 1.69661282857112e-03
2.19159782608696e+00 1.34531766695600e-01 1.68715999690911e-03
2.20001086956522e+00 1.33525182754041e-01 1.67774747044374e-03
2.20842391304348e+00 1.32526130204237e-01 1.66837525464830e-03
2.21683695652174e+00 1.31534552695308e-01 1.65904335687489e-03
2.22525000000000e+00 1.30550394293701e-01 1.64975177557762e-03
2.23366304347826e+00 1.29573599493026e-01 1.64050050751940e-03
2.24207608695652e+00 1.28604113193624e-01 1.63128954622353e-03
2.25048913043478e+00 1.27641880716589e-01 1.62211888012522e-03
2.25890217391304e+00 1.26686847787853e-01 1.61298849965403e-03
2.26731521739130e+00 1.25738960535361e-01 1.60389838692509e-03
2.27572826086957e+00 1.24798165498345e-01 1.59484852098167e-03
2.28414130434783e+00 1.23864409611901e-01 1.58583888291198e-03
2.29255434782609e+00 1.22937640204228e-01 1.57686944582867e-03
2.30096739130435e+00 1.22017805005556e-01 1.56794017996403e-03
2.30938043478261e+00 1.21104852133208e-01 1.55905105764028e-03
2.31779347826087e+00 1.20198730088895e-01 1.55020204352837e-03
2.32620652173913e+00 1.19299387767314e-01 1.54139309960072e-03
2.33461956521739e+00 1.18406774441674e-01 1.53262418995934e-03
2.34303260869565e+00 1.17520839761052e-01 1.52389527136600e-03
2.35144565217391e+00 1.16641533758670e-01 1.51520629805499e-03
2.35985869565217e+00 1.15768806837874e-01 1.50655722642565e-03
2.36827173913044e+00 1.14902609769541e-01 1.49794800583587e-03
2.37668478260870e+00 1.14042893700056e-01 1.48937858327739e-03
2.38509782608696e+00 1.13189610137723e-01 1.48084890793824e-03
2.39351086956522e+00 1.12342710950226e-01 1.47235892225099e-03
2.40192391304348e+00 1.11502148372313e-01 1.46390856643528e-03
2.41033695652174e+00 1.10667874992630e-01 1.45549778293384e-03
2.41875000000000e+00 1.09839843751229e-01 1.44712650770802e-03
2.42716304347826e+00 1.09018007946979e-01 1.43879467604223e-03
2.43557608695652e+00 1.08202321221530e-01 1.43050222128427e-03
2.44398913043478e+00 1.07392737569967e-01 1.42224907334394e-03
2.45240217391304e+00 1.06589211328280e-01 1.41403516440060e-03
2.46081521739130e+00 1.05791697170967e-01 1.40586042057223e-03
2.46922826086957e+00 1.05000150118014e-01 1.39772476613745e-03
2.47764130434783e+00 1.04214525522755e-01 1.38962812765969e-03
2.48605434782609e+00 1.03434779069519e-01 1.38157042588560e-03
2.49446739130435e+00 1.02660866780365e-01 1.37355157985037e-03
2.50288043478261e+00 1.01892745003302e-01 1.36557151088597e-03
2.51129347826087e+00 1.01130370409995e-01 1.35763013474224e-03
2.51970652173913e+00 1.00373700002250e-01 1.34972736557903e-03
2.52811956521739e+00 9.96226911005902e-02 1.34186311986196e-03
2.53653260869565e+00 9.88773013420183e-02 1.33403730869961e-03
2.54494565217391e+00 9.81374886862603e-02 1.32624984172512e-03
2.55335869565217e+00 9.74032114046916e-02 1.31850063088414e-03
2.56177173913043e+00 9.66744280781414e-02 1.31078958298173e-03
2.57018478260870e+00 9.59510976029160e-02 1.30311660345527e-03
2.57859782608696e+00 9.52331791800581e-02 1.29548160005902e-03
2.58701086956522e+00 9.45206323131960e-02 1.28788447561442e-03
2.59542391304348e+00 9.38134168143515e-02 1.28032513167748e-03
2.60383695652174e+00 9.31114927935225e-02 1.27280347212298e-03
2.61225000000000e+00 9.24148206565763e-02 1.26531939609217e-03
2.62066304347826e+00 9.17233611108502e-02 1.25787280268394e-03
2.62907608695652e+00 9.10370751525024e-02 1.25046358992878e-03
2.63748913043478e+00 9.03559240746451e-02 1.24309165356649e-03
2.64590217391304e+00 8.96798694574222e-02 1.23575689166140e-03
2.65431521739130e+00 8.90088731659777e-02 1.22845919785002e-03
