Energy (eV)          EEDF (eV^-(3/2))     First Anisotropy
9.91489361702128e-03 2.53728705175191e-01 1.38357843931391e-04
2.97446808510638e-02 2.51870421107204e-01 2.28399320733748e-04
4.95744680851064e-02 2.50025746924956e-01 3.01330764644765e-04
6.94042553191489e-02 2.48194582957466e-01 3.56626573579372e-04
8.92340425531915e-02 2.46376830255360e-01 4.02652377408243e-04
1.09063829787234e-01 2.44572390593871e-01 4.42573178407499e-04
1.28893617021277e-01 2.42781166476892e-01 4.78027884569401e-04
1.48723404255319e-01 2.41003061098618e-01 5.10006780704469e-04
1.68553191489362e-01 2.39237978392752e-01 5.39167031512393e-04
1.88382978723404e-01 2.37485822981439e-01 5.65973383348148e-04
2.08212765957447e-01 2.35746500185737e-01 5.90770067314225e-04
2.28042553191489e-01 2.34019916012729e-01 6.13821209541840e-04
2.47872340425532e-01 2.32305977174423e-01 6.35335202689651e-04
2.67702127659574e-01 2.30604591057229e-01 6.55480228094285e-04
2.87531914893617e-01 2.28915665725853e-01 6.74394579934442e-04
3.07361702127660e-01 2.27239109912970e-01 6.92193783905108e-04
3.27191489361702e-01 2.25574833031363e-01 7.08975656254603e-04
3.47021276595745e-01 2.23922745151149e-01 7.24823990286807e-04
3.66851063829787e-01 2.22282757001035e-01 7.39811299117090e-04
3.86680851063830e-01 2.20654779963662e-01 7.54000899806969e-04
4.06510638297872e-01 2.19038726066748e-01 7.67448519555286e-04
4.26340425531915e-01 2.17434507990551e-01 7.80203555733371e-04
4.46170212765957e-01 2.15842039050540e-01 7.92310076008680e-04
4.66000000000000e-01 2.14261233197094e-01 8.03807619686755e-04
4.85829787234043e-01 2.12692005007609e-01 8.14731848231471e-04
5.05659574468085e-01 2.11134269691779e-01 8.25115079877555e-04
5.25489361702128e-01 2.09587943076840e-01 8.34986731795920e-04
5.45319148936170e-01 2.08052941606500e-01 8.44373687048999e-04
5.65148936170213e-01 2.06529182333760e-01 8.53300602852765e-04
5.84978723404255e-01 2.05016582924670e-01 8.61790172591750e-04
6.04808510638298e-01 2.03515061645427e-01 8.69863348885228e-04
6.24638297872340e-01 2.02024537360826e-01 8.77539532722884e-04
6.44468085106383e-01 2.00544929529919e-01 8.84836737986996e-04
6.64297872340426e-01 1.99076158199441e-01 8.91771732184168e-04
6.84127659574468e-01 1.97618144006192e-01 8.98360160315155e-04
7.03957446808511e-01 1.96170808165902e-01 9.04616653117553e-04
7.23787234042553e-01 1.94734072471327e-01 9.10554920689205e-04
7.43617021276596e-01 1.93307859286108e-01 9.16187834991161e-04
7.63446808510638e-01 1.91892091546380e-01 9.21527503874801e-04
7.83276595744681e-01 1.90486692750689e-01 9.26585336797974e-04
8.03106382978723e-01 1.89091586957875e-01 9.31372102099645e-04
8.22936170212766e-01 1.87706698781299e-01 9.35897978197104e-04
8.42765957446809e-01 1.86331953389862e-01 9.40172600469169e-04
8.62595744680851e-01 1.84967276498775e-01 9.44205103408489e-04
8.82425531914894e-01 1.83612594367302e-01 9.48004157456767e-04
9.02255319148936e-01 1.82267833793299e-01 9.51578002321117e-04
9.22085106382979e-01 1.80932922113778e-01 9.54934478100996e-04
9.41914893617021e-01 1.79607787196383e-01 9.58081053569830e-04
9.61744680851064e-01 1.78292357437041e-01 9.61024850603496e-04
9.81574468085106e-01 1.76986561756113e-01 9.63772667680452e-04
1.00140425531915e+00 1.75690329593258e-01 9.66331000405761e-04
1.02123404255319e+00 1.74403590906246e-01 9.68706061181619e-04
1.04106382978723e+00 1.73126276163365e-01 9.70903794104042e-04
1.06089361702128e+00 1.71858316356718e-01 9.72929897703524e-04
1.08072340425532e+00 1.70599642959659e-01 9.74789836240903e-04
1.10055319148936e+00 1.69350187959535e-01 9.76488848297071e-04
1.12038297872340e+00 1.68109883841854e-01 9.78031964241911e-04
1.14021276595745e+00 1.66878663597433e-01 9.79424022017975e-04
1.16004255319149e+00 1.65656460685993e-01 9.80669673704276e-04
1.17987234042553e+00 1.64443209065553e-01 9.81773389199602e-04
1.19970212765957e+00 1.63238843187890e-01 9.82739478119686e-04
1.21953191489362e+00 1.62043297964646e-01 9.83572092266138e-04
1.23936170212766e+00 1.60856508794306e-01 9.84275229574562e-04
1.25919148936170e+00 1.59678411548496e-01 9.84852745916214e-04
1.27902127659574e+00 1.58508942577672e-01 9.85308365773941e-04
1.29885106382979e+00 1.57348038680022e-01 9.85645685005708e-04
1.31868085106383e+00 1.56195637125852e-01 9.85868171291158e-04
1.33851063829787e+00 1.55051675653443e-01 9.85979181138069e-04
1.35834042553191e+00 1.53916092439931e-01 9.85981959717603e-04
1.37817021276596e+00 1.52788826123858e-01 9.85879642235798e-04
1.39800000000000e+00 1.51669815793149e-01 9.85675262516281e-04
1.41782978723404e+00 1.50559000989684e-01 9.85371760760580e-04
1.43765957446809e+00 1.49456321682389e-01 9.84971984343485e-04
1.45748936170213e+00 1.48361718287749e-01 9.84478688283299e-04
1.47731914893617e+00 1.47275131658649e-01 9.83894542608719e-04
1.49714893617021e+00 1.46196503088362e-01 9.83222139013424e-04
1.51697872340426e+00 1.45125774285626e-01 9.82463990949268e-04
1.53680851063830e+00 1.44062887393362e-01 9.81622531929172e-04
1.55663829787234e+00 1.43007784985011e-01 9.80700128124093e-04
1.57646808510638e+00 1.41960410041011e-01 9.79699076443076e-04
1.59629787234043e+00 1.40920705966230e-01 9.78621604054471e-04
1.61612765957447e+00 1.39888616580030e-01 9.77469874201918e-04
1.63595744680851e+00 1.38864086119488e-01 9.76245991448281e-04
1.65578723404255e+00 1.37847059217514e-01 9.74952001032829e-04
1.67561702127660e+00 1.36837480918823e-01 9.73589886648503e-04
1.69544680851064e+00 1.35835296676506e-01 9.72161581235887e-04
1.71527659574468e+00 1.34840452331330e-01 9.70668964641793e-04
1.73510638297872e+00 1.33852894126666e-01 9.69113862635894e-04
1.75493617021277e+00 1.32872568699576e-01 9.67498051670072e-04
1.77476595744681e+00 1.31899423083417e-01 9.65823263162650e-04
1.79459574468085e+00 1.30933404688489e-01 9.64091182458577e-04
1.81442553191489e+00 1.29974461315763e-01 9.62303447656211e-04
1.83425531914894e+00 1.29022541148518e-01 9.60461653920432e-04
1.85408510638298e+00 1.28077592754614e-01 9.58567357360493e-04
1.87391489361702e+00 1.27139565068375e-01 9.56622073843715e-04
1.89374468085106e+00 1.26208407403245e-01 9.54627276479267e-04
1.91357446808511e+00 1.25284069448712e-01 9.52584404428791e-04
1.93340425531915e+00 1.24366501253072e-01 9.50494860356725e-04
1.95323404255319e+00 1.23455653235315e-01 9.48360009082485e-04
1.97306382978723e+00 1.22551476177552e-01 9.46181181254645e-04
1.99289361702128e+00 1.21653921226851e-01 9.43959676648848e-04
2.01272340425532e+00 1.20762939879057e-01 9.41696762850190e-04
2.03255319148936e+00 1.19878483989777e-01 9.39393673845431e-04
2.05238297872340e+00 1.19000505767231e-01 9.37051613413548e-04
2.07221276595745e+00 1.18128957773853e-01 9.34671758167047e-04
2.09204255319149e+00 1.17263792911071e-01 9.32255256186541e-04
2.11187234042553e+00 1.16404964429490e-01 9.29803224519699e-04
2.13170212765957e+00 1.15552425926085e-01 9.27316756583904e-04
2.15153191489362e+00 1.14706131329690e-01 9.24796919661200e-04
2.17136170212766e+00 1.13866034910573e-01 9.22244753458445e-04
2.19119148936170e+00 1.13032091273921e-01 9.19661273070962e-04
2.21102127659574e+00 1.12204255361116e-01 9.17047471637778e-04
2.23085106382979e+00 1.11382482436055e-01 9.14404318962777e-04
2.25068085106383e+00 1.10566728094033e-01 9.11732759092910e-04
2.27051063829787e+00 1.09756948259107e-01 9.09033717001548e-04
2.29034042553192e+00 1.08953099171026e-01 9.06308096175305e-04
2.31017021276596e+00 1.08155137393611e-01 9.03556777187379e-04
2.33000000000000e+00 1.07363019808799e-01 9.00780620319166e-04
2.34982978723404e+00 1.06576703617650e-01 8.97980467906748e-04
2.36965957446809e+00 1.05796146327995e-01 8.95157142982011e-04
2.38948936170213e+00 1.05021305762225e-01 8.92311447857838e-04
2.40931914893617e+00 1.04252140051643e-01 8.89444166590004e-04
2.42914893617021e+00 1.03488607637317e-01 8.86556067180036e-04
2.44897872340426e+00 1.02730667258405e-01 8.83647900230195e-04
2.46880851063830e+00 1.01978277959406e-01 8.80720396688941e-04
2.48863829787234e+00 1.01231399087759e-01 8.77774273618902e-04
2.50846808510638e+00 1.00489990282649e-01 8.74810231958740e-04
2.52829787234043e+00 9.97540114818679e-02 8.71828955156955e-04
2.54812765957447e+00 9.90234229166173e-02 8.68831111379730e-04
2.56795744680851e+00 9.82981851121698e-02 8.65817355484981e-04
2.58778723404255e+00 9.75782588772662e-02 8.62788327727849e-04
2.60761702127660e+00 9.68636053105091e-02 8.59744651626866e-04
2.62744680851064e+00 9.61541857980920e-02 8.56686939237130e-04
2.64727659574468e+00 9.54499620036316e-02 8.53615789034127e-04
2.66710638297872e+00 9.47508958742207e-02 8.50531784608190e-04
2.68693617021277e+00 9.40569496356431e-02 8.47435496657062e-04
2.70676595744681e+00 9.33680857928668e-02 8.44327484766843e-04
2.72659574468085e+00 9.26842671203922e-02 8.41208296175448e-04
2.74642553191489e+00 9.20054566679039e-02 8.38078464497077e-04
2.76625531914894e+00 9.13316177557085e-02 8.34938511611344e-04
2.78608510638298e+00 9.06627139751368e-02 8.31788949351336e-04
2.80591489361702e+00 8.99987091793783e-02 8.28630278297289e-04
2.82574468085106e+00 8.93395674887622e-02 8.25462985829314e-04
2.84557446808511e+00 8.86852532886818e-02 8.22287550745890e-04
2.86540425531915e+00 8.80357312207848e-02 8.19104441336945e-04
2.88523404255319e+00 8.73909661879821e-02 8.15914114174272e-04
2.90506382978723e+00 8.67509233502304e-02 8.12717015830272e-04
2.92489361702128e+00 8.61155681248091e-02 8.09513584413071e-04
2.94472340425532e+00 8.54848661779447e-02 8.06304248423511e-04
2.96455319148936e+00 8.48587834294950e-02 8.03089425579863e-04
2.98438297872340e+00 8.42372860489202e-02 7.99869524452959e-04
3.00421276595745e+00 8.36203404554917e-02 7.96644945927101e-04
3.02404255319149e+00 8.30079133103216e-02 7.93416082088146e-04
3.04387234042553e+00 8.23999715207501e-02 7.90183314457391e-04
3.06370212765957e+00 8.17964822384414e-02 7.86947018060690e-04
3.08353191489362e+00 8.11974128517116e-02 7.83707559680604e-04
3.10336170212766e+00 8.06027309896924e-02 7.80465296747512e-04
3.12319148936170e+00 8.00124045185965e-02 7.77220578835755e-04
3.14302127659575e+00 7.94264015418329e-02 7.73973748999796e-04
3.16285106382979e+00 7.88446903926986e-02 7.70725142726614e-04
3.18268085106383e+00 7.82672396382797e-02 7.67475086279022e-04
3.20251063829787e+00 7.76940180776501e-02 7.64223900454720e-04
3.22234042553192e+00 7.71249947348321e-02 7.60971898947982e-04
3.24217021276596e+00 7.65601388625031e-02 7.57719387305954e-04
3.26200000000000e+00 7.59994199385294e-02 7.54466664301551e-04
3.28182978723404e+00 7.54428076660015e-02 7.51214023159548e-04
3.30165957446809e+00 7.48902719665218e-02 7.47961750570107e-04
3.32148936170213e+00 7.43417829836796e-02 7.44710125677544e-04
3.34131914893617e+00 7.37973110797315e-02 7.41459421392158e-04
3.36114893617021e+00 7.32568268355935e-02 7.38209905561816e-04
3.38097872340426e+00 7.27203010444368e-02 7.34961840015936e-04
3.40080851063830e+00 7.21877047149491e-02 7.31715479067951e-04
3.42063829787234e+00 7.16590090696818e-02 7.28471072850915e-04
3.44046808510638e+00 7.11341855388715e-02 7.25228865836654e-04
3.46029787234043e+00 7.06132057635423e-02 7.21989095885534e-04
3.48012765957447e+00 7.00960415924161e-02 7.18751995454833e-04
3.49995744680851e+00 6.95826650818475e-02 7.15517792677686e-04
3.51978723404255e+00 6.90730484899245e-02 7.12286710465233e-04
3.53961702127660e+00 6.85671642793803e-02 7.09058965103790e-04
3.55944680851064e+00 6.80649851160269e-02 7.05834769348354e-04
3.57927659574468e+00 6.75664838630620e-02 7.02614331035629e-04
3.59910638297872e+00 6.70716335838412e-02 6.99397852192126e-04
3.61893617021277e+00 6.65804075389992e-02 6.96185530149336e-04
3.63876595744681e+00 6.60927791863369e-02 6.92977558539762e-04
3.65859574468085e+00 6.56087221753788e-02 6.89774126453390e-04
3.67842553191489e+00 6.51282103499771e-02 6.86575417574607e-04
3.69825531914894e+00 6.46512177455497e-02 6.83381611250791e-04
3.71808510638298e+00 6.41777185889398e-02 6.80192883446664e-04
3.73791489361702e+00 6.37076872932124e-02 6.77009405928306e-04
3.75774468085106e+00 6.32410984601018e-02 6.73831344996040e-04
3.77757446808511e+00 6.27779268785727e-02 6.70658864243265e-04
3.79740425531915e+00 6.23181475197928e-02 6.67492123304032e-04
3.81723404255319e+00 6.18617355394640e-02 6.64331277043230e-04
3.83706382978723e+00 6.14086662752444e-02 6.61176476545466e-04
3.85689361702128e+00 6.09589152465734e-02 6.58027869998067e-04
3.87672340425532e+00 6.05124581498612e-02 6.54885601925404e-04
3.89655319148936e+00 6.00692708606803e-02 6.51749812406169e-04
3.91638297872340e+00 5.96293294312892e-02 6.48620638021743e-04
3.93621276595745e+00 5.91926100904377e-02 6.45498212703578e-04
3.95604255319149e+00 5.87590892387622e-02 6.42382666992417e-04
3.97587234042553e+00 5.83287434508484e-02 6.39274126894218e-04
3.99570212765957e+00 5.79015494739073e-02 6.36172716346213e-04
4.01553191489362e+00 5.74774842233235e-02 6.33078556085625e-04
4.03536170212766e+00 5.70565247846190e-02 6.29991762915304e-04
4.05519148936170e+00 5.66386484111393e-02 6.26912450583413e-04
4.07502127659574e+00 5.62238325238332e-02 6.23840730569081e-04
4.09485106382979e+00 5.58120547069892e-02 6.20776711387759e-04
4.11468085106383e+00 5.54032927100832e-02 6.17720497519427e-04
4.13451063829787e+00 5.49975244465240e-02 6.14672191705155e-04
4.15434042553191e+00 5.45947279895290e-02 6.11631893887606e-04
4.17417021276596e+00 5.41948815738851e-02 6.08599700522274e-04
4.19400000000000e+00 5.37979635937848e-02 6.05575705394196e-04
4.21382978723404e+00 5.34039526025864e-02 6.02560000347578e-04
4.23365957446808e+00 5.30128273088602e-02 5.99552674633916e-04
4.25348936170213e+00 5.26245665780467e-02 5.96553814246553e-04
4.27331914893617e+00 5.22391494303745e-02 5.93563502705300e-04
4.29314893617021e+00 5.18565550406093e-02 5.90581821757481e-04
4.31297872340426e+00 5.14767627342639e-02 5.87608850747873e-04
4.33280851063830e+00 5.10997519891592e-02 5.84644665650108e-04
4.35263829787234e+00 5.07255024342708e-02 5.81689341126336e-04
4.37246808510638e+00 5.03539938460597e-02 5.78742949569762e-04
4.39229787234043e+00 4.99852061499602e-02 5.75805560480183e-04
4.41212765957447e+00 4.96191194184311e-02 5.72877241193706e-04
4.43195744680851e+00 4.92557138706909e-02 5.69958057534748e-04
4.45178723404255e+00 4.88949698691985e-02 5.67048073224976e-04
4.47161702127660e+00 4.85368679210550e-02 5.64147348975706e-04
4.49144680851064e+00 4.81813886769096e-02 5.61255944409640e-04
4.51127659574468e+00 4.78285129275507e-02 5.58373917163235e-04
4.53110638297872e+00 4.74782216052434e-02 5.55501322301381e-04
4.55093617021277e+00 4.71304957819021e-02 5.52638212996503e-04
4.57076595744681e+00 4.67853166688173e-02 5.49784641135372e-04
4.59059574468085e+00 4.64426656133836e-02 5.46940656764625e-04
4.61042553191489e+00 4.61025241003594e-02 5.44106307524862e-04
4.63025531914894e+00 4.57648737501074e-02 5.41281639303874e-04
4.65008510638298e+00 4.54296963183149e-02 5.38466696820519e-04
4.66991489361702e+00 4.50969736928542e-02 5.35661523088858e-04
4.68974468085106e+00 4.47666878949685e-02 5.32866158597129e-04
4.70957446808511e+00 4.44388210782657e-02 5.30080643035526e-04
4.72940425531915e+00 4.41133555256744e-02 5.27305014484606e-04
4.74923404255319e+00 4.37902736505766e-02 5.24539308884292e-04
4.76906382978723e+00 4.34695579951565e-02 5.21783560642722e-04
4.78889361702128e+00 4.31511912301161e-02 5.19037803180392e-04
4.80872340425532e+00 4.28351561517532e-02 5.16302068427247e-04
4.82855319148936e+00 4.25214356830273e-02 5.13576386309600e-04
4.84838297872340e+00 4.22100128719689e-02 5.10860785336133e-04
4.86821276595745e+00 4.19008708913924e-02 5.08155293121765e-04
4.88804255319149e+00 4.15939930360884e-02 5.05459935901330e-04
4.90787234042553e+00 4.12893627238293e-02 5.02774737786889e-04
4.92770212765957e+00 4.09869634944420e-02 5.00099722323208e-04
4.94753191489362e+00 4.06867790070858e-02 4.97434911753153e-04
4.96736170212766e+00 4.03887930412112e-02 4.94780326536200e-04
4.98719148936170e+00 4.00929894950666e-02 4.92135985895158e-04
5.00702127659575e+00 3.97993523854088e-02 4.89501908304835e-04
5.02685106382979e+00 3.95078658448877e-02 4.86878111035799e-04
5.04668085106383e+00 3.92185141229491e-02 4.84264609457511e-04
5.06651063829787e+00 3.89312815849559e-02 4.81661418493076e-04
5.08634042553192e+00 3.86461527096510e-02 4.79068551930073e-04
5.10617021276596e+00 3.83631120900190e-02 4.76486021968723e-04
5.12600000000000e+00 3.80821444318835e-02 4.73913839732212e-04
5.14582978723404e+00 3.78032345536183e-02 4.71352015722893e-04
5.16565957446809e+00 3.75263673837080e-02 4.68800559394016e-04
5.18548936170213e+00 3.72515279615602e-02 4.66259478712930e-04
5.20531914893617e+00 3.69787014361528e-02 4.63728780652681e-04
5.22514893617021e+00 3.67078730657445e-02 4.61208471631540e-04
5.24497872340426e+00 3.64390282155298e-02 4.58698557098950e-04
5.26480851063830e+00 3.61721523584042e-02 4.56199040904410e-04
5.28463829787234e+00 3.59072310741552e-02 4.53709926609483e-04
5.30446808510638e+00 3.56442500471856e-02 4.51231216863735e-04
5.32429787234043e+00 3.53831950672449e-02 4.48762912994555e-04
5.34412765957447e+00 3.51240520281566e-02 4.46305015466508e-04
5.36395744680851e+00 3.48668069275317e-02 4.43857524292098e-04
5.38378723404255e+00 3.46114458645793e-02 4.41420438642883e-04
5.40361702127660e+00 3.43579550407951e-02 4.38993756257089e-04
5.42344680851064e+00 3.41063207591930e-02 4.36577474668129e-04
5.44327659574468e+00 3.38565294221804e-02 4.34171590618562e-04
5.46310638297872e+00 3.36085675322152e-02 4.31776099675112e-04
5.48293617021277e+00 3.33624216906093e-02 4.29390996658085e-04
5.50276595744681e+00 3.31180785972453e-02 4.27016276025308e-04
5.52259574468085e+00 3.28755250485316e-02 4.24651931506884e-04
5.54242553191489e+00 3.26347479380215e-02 4.22297955732991e-04
5.56225531914894e+00 3.23957342552589e-02 4.19954340647779e-04
5.58208510638298e+00 3.21584710854955e-02 4.17621077879492e-04
5.60191489361702e+00 3.19229456077245e-02 4.15298158387477e-04
5.62174468085106e+00 3.16891450952624e-02 4.12985571925071e-04
5.64157446808511e+00 3.14570569150424e-02 4.10683308149388e-04
5.66140425531915e+00 3.12266685257034e-02 4.08391356090148e-04
5.68123404255319e+00 3.09979674781466e-02 4.06109703799952e-04
5.70106382978723e+00 3.07709414144487e-02 4.03838338741574e-04
5.72089361702128e+00 3.05455780675848e-02 4.01577248134265e-04
5.74072340425532e+00 3.03218652595896e-02 3.99326418621963e-04
5.76055319148936e+00 3.00997909020804e-02 3.97085835935366e-04
5.78038297872340e+00 2.98793429952094e-02 3.94855485265295e-04
5.80021276595745e+00 2.96605096273879e-02 3.92635351596654e-04
5.82004255319149e+00 2.94432789735158e-02 3.90425419387612e-04
5.83987234042553e+00 2.92276392954757e-02 3.88225672082614e-04
5.85970212765957e+00 2.90135789414805e-02 3.86036093115780e-04
5.87953191489362e+00 2.88010863443540e-02 3.83856665428978e-04
5.89936170212766e+00 2.85901500220008e-02 3.81687371154235e-04
5.91919148936170e+00 2.83807585764196e-02 3.79528191963262e-04
5.93902127659574e+00 2.81729006934332e-02 3.77379109380117e-04
5.95885106382979e+00 2.79665651410327e-02 3.75240104479770e-04
5.97868085106383e+00 2.77617407698201e-02 3.73111157430469e-04
5.99851063829787e+00 2.75584165123903e-02 3.70992248434611e-04
6.01834042553191e+00 2.73565813817213e-02 3.68883357275967e-04
6.03817021276596e+00 2.71562244715971e-02 3.66784463021258e-04
6.05800000000000e+00 2.69573349556773e-02 3.64695544347375e-04
6.07782978723404e+00 2.67599020872346e-02 3.62616579834291e-04
6.09765957446809e+00 2.65639151976036e-02 3.60547547681737e-04
6.11748936170213e+00 2.63693636965795e-02 3.58488425420512e-04
6.13731914893617e+00 2.61762370715190e-02 3.56439190228355e-04
6.15714893617021e+00 2.59845248870808e-02 3.54399819212413e-04
6.17697872340426e+00 2.57942167837316e-02 3.52370289135250e-04
6.19680851063830e+00 2.56053024781211e-02 3.50350575999436e-04
6.21663829787234e+00 2.54177717625119e-02 3.48340655899279e-04
6.23646808510638e+00 2.52316145033277e-02 3.46340504609835e-04
6.25629787234043e+00 2.50468206415103e-02 3.44350097315524e-04
