Energy (eV)          EEDF (eV^-(3/2))     First Anisotropy
5.74603174603175e-03 3.71121207157913e-01 1.74743156762408e-04
1.72380952380952e-02 3.69090881027548e-01 2.88731979289377e-04
2.87301587301587e-02 3.67071662386652e-01 3.81639687486929e-04
4.02222222222222e-02 3.65063490467467e-01 4.52515789071201e-04
5.17142857142857e-02 3.63066304835151e-01 5.11870713073006e-04
6.32063492063492e-02 3.61080045385869e-01 5.63670210302488e-04
7.46984126984127e-02 3.59104652344697e-01 6.09962591903223e-04
8.61904761904762e-02 3.57140066266228e-01 6.51982438936267e-04
9.76825396825397e-02 3.55186228025056e-01 6.90547018770040e-04
1.09174603174603e-01 3.53243078828907e-01 7.26232887967480e-04
1.20666666666667e-01 3.51310560184883e-01 7.59466051321754e-04
1.32158730158730e-01 3.49388613951422e-01 7.90572587140856e-04
1.43650793650794e-01 3.47477182274700e-01 8.19809144754444e-04
1.55142857142857e-01 3.45576207645051e-01 8.47382349323248e-04
1.66634920634921e-01 3.43685632842012e-01 8.73461700099009e-04
1.78126984126984e-01 3.41805400981640e-01 8.98188454505226e-04
1.89619047619048e-01 3.39935455469375e-01 9.21681934219461e-04
2.01111111111111e-01 3.38075740040615e-01 9.44044115003096e-04
2.12603174603175e-01 3.36226198719517e-01 9.65363042227897e-04
2.24095238095238e-01 3.34386775854370e-01 9.85715420087783e-04
2.35587301587302e-01 3.32557416081045e-01 1.00516860845030e-03
2.47079365079365e-01 3.30738064354245e-01 1.02378218474798e-03
2.58571428571429e-01 3.28928665914703e-01 1.04160918280009e-03
2.70063492063492e-01 3.27129166317078e-01 1.05869708615995e-03
2.81555555555556e-01 3.25339511400230e-01 1.07508863404354e-03
2.93047619047619e-01 3.23559647312342e-01 1.09082248073631e-03
3.04539682539683e-01 3.21789520483776e-01 1.10593374069685e-03
3.16031746031746e-01 3.20029077649853e-01 1.12045444207128e-03
3.27523809523810e-01 3.18278265825902e-01 1.13441390755220e-03
3.39015873015873e-01 3.16537032328048e-01 1.14783907572393e-03
3.50507936507937e-01 3.14805324750141e-01 1.16075477459359e-03
3.62000000000000e-01 3.13083090982826e-01 1.17318395515012e-03
3.73492063492063e-01 3.11370279192114e-01 1.18514789251377e-03
3.84984126984127e-01 3.09666837836948e-01 1.19666635946020e-03
3.96476190476190e-01 3.07972715649213e-01 1.20775777741210e-03
4.07968253968254e-01 3.06287861649987e-01 1.21843934785320e-03
4.19460317460317e-01 3.04612225130820e-01 1.22872716773009e-03
4.30952380952381e-01 3.02945755668823e-01 1.23863633066772e-03
4.42444444444444e-01 3.01288403109078e-01 1.24818101658615e-03
4.53936507936508e-01 2.99640117578686e-01 1.25737457083262e-03
4.65428571428571e-01 2.98000849470194e-01 1.26622957476967e-03
4.76920634920635e-01 2.96370549454716e-01 1.27475790847376e-03
4.88412698412698e-01 2.94749168466274e-01 1.28297080704755e-03
4.99904761904762e-01 2.93136657714075e-01 1.29087891089798e-03
5.11396825396825e-01 2.91532968667686e-01 1.29849231117879e-03
5.22888888888889e-01 2.89938053068557e-01 1.30582059054840e-03
5.34380952380952e-01 2.88351862915940e-01 1.31287286022457e-03
5.45873015873016e-01 2.86774350477733e-01 1.31965779335240e-03
5.57365079365079e-01 2.85205468277083e-01 1.32618365550703e-03
5.68857142857143e-01 2.83645169102601e-01 1.33245833225759e-03
5.80349206349206e-01 2.82093405995601e-01 1.33848935449629e-03
5.91841269841270e-01 2.80550132259739e-01 1.34428392139635e-03
6.03333333333333e-01 2.79015301448829e-01 1.34984892161274e-03
6.14825396825397e-01 2.77488867375961e-01 1.35519095254888e-03
6.26317460317460e-01 2.75970784101852e-01 1.36031633823330e-03
6.37809523809524e-01 2.74461005943472e-01 1.36523114560192e-03
6.49301587301587e-01 2.72959487462901e-01 1.36994119967442e-03
6.60793650793651e-01 2.71466183475501e-01 1.37445209740359e-03
6.72285714285714e-01 2.69981049039236e-01 1.37876922064106e-03
6.83777777777778e-01 2.68504039462430e-01 1.38289774798784e-03
6.95269841269841e-01 2.67035110293514e-01 1.38684266593686e-03
7.06761904761905e-01 2.65574217328398e-01 1.39060877906994e-03
7.18253968253968e-01 2.64121316600623e-01 1.39420071968580e-03
7.29746031746032e-01 2.62676364388371e-01 1.39762295615987e-03
7.41238095238095e-01 2.61239317206920e-01 1.40087980315038e-03
7.52730158730159e-01 2.59810131807606e-01 1.40397542651082e-03
7.64222222222222e-01 2.58388765182136e-01 1.40691385237140e-03
7.75714285714286e-01 2.56975174553816e-01 1.40969897348497e-03
7.87206349206349e-01 2.55569317383592e-01 1.41233455549417e-03
7.98698412698413e-01 2.54171151361583e-01 1.41482424292924e-03
8.10190476190476e-01 2.52780634412859e-01 1.41717156471459e-03
8.21682539682540e-01 2.51397724689258e-01 1.41937993946033e-03
8.33174603174603e-01 2.50022380574907e-01 1.42145268031935e-03
8.44666666666667e-01 2.48654560678324e-01 1.42339299967380e-03
8.56158730158730e-01 2.47294223837691e-01 1.42520401343511e-03
8.67650793650794e-01 2.45941329113216e-01 1.42688874521011e-03
8.79142857142857e-01 2.44595835792183e-01 1.42845013012160e-03
8.90634920634921e-01 2.43257703381561e-01 1.42989101852396e-03
9.02126984126984e-01 2.41926891612839e-01 1.43121417940870e-03
9.13619047619048e-01 2.40603360434868e-01 1.43242230373033e-03
9.25111111111111e-01 2.39287070018498e-01 1.43351800745094e-03
9.36603174603175e-01 2.37977980749638e-01 1.43450383452646e-03
9.48095238095238e-01 2.36676053233705e-01 1.43538225963683e-03
9.59587301587302e-01 2.35381248288898e-01 1.43615569087484e-03
9.71079365079365e-01 2.34093526950461e-01 1.43682647220151e-03
9.82571428571429e-01 2.32812850464162e-01 1.43739688587448e-03
9.94063492063492e-01 2.31539180290385e-01 1.43786915466180e-03
1.00555555555556e+00 2.30272478097799e-01 1.43824544507965e-03
1.01704761904762e+00 2.29012705763584e-01 1.43852786489358e-03
1.02853968253968e+00 2.27759825383330e-01 1.43871847033691e-03
1.04003174603175e+00 2.26513799252410e-01 1.43881927228026e-03
1.05152380952381e+00 2.25274589860914e-01 1.43883222306787e-03
1.06301587301587e+00 2.24042159927614e-01 1.43875922710896e-03
1.07450793650794e+00 2.22816472363346e-01 1.43860215238872e-03
1.08600000000000e+00 2.21597490270845e-01 1.43836281215695e-03
1.09749206349206e+00 2.20385176977028e-01 1.43804297949710e-03
1.10898412698413e+00 2.19179495987386e-01 1.43764438569820e-03
1.12047619047619e+00 2.17980411028849e-01 1.43716871817619e-03
1.13196825396825e+00 2.16787886015761e-01 1.43661763452246e-03
1.14346031746032e+00 2.15601885049651e-01 1.43599274480935e-03
1.15495238095238e+00 2.14422372449189e-01 1.43529562226029e-03
1.16644444444444e+00 2.13249312717737e-01 1.43452781351764e-03
1.17793650793651e+00 2.12082670543104e-01 1.43369082141277e-03
1.18942857142857e+00 2.10922410826067e-01 1.43278611519835e-03
1.20092063492063e+00 2.09768498649393e-01 1.43181514038463e-03
1.21241269841270e+00 2.08620899277576e-01 1.43077930196775e-03
1.22390476190476e+00 2.07479578184019e-01 1.42967997425477e-03
1.23539682539683e+00 2.06344501021443e-01 1.42851851030543e-03
1.24688888888889e+00 2.05215633621587e-01 1.42729622561050e-03
1.25838095238095e+00 2.04092942021155e-01 1.42601440753131e-03
1.26987301587302e+00 2.02976392433519e-01 1.42467432438452e-03
1.28136507936508e+00 2.01865951248389e-01 1.42327720955934e-03
1.29285714285714e+00 2.00761585056588e-01 1.42182427059253e-03
1.30434920634921e+00 1.99663260622992e-01 1.42031669792515e-03
1.31584126984127e+00 1.98570944886151e-01 1.41875564944655e-03
1.32733333333333e+00 1.97484604981983e-01 1.41714226179865e-03
1.33882539682540e+00 1.96404208209883e-01 1.41547764853517e-03
1.35031746031746e+00 1.95329722064277e-01 1.41376289794055e-03
1.36180952380952e+00 1.94261114209269e-01 1.41199908402613e-03
1.37330158730159e+00 1.93198352478229e-01 1.41018725165832e-03
1.38479365079365e+00 1.92141404895957e-01 1.40832842483726e-03
1.39628571428571e+00 1.91090239654371e-01 1.40642361470734e-03
1.40777777777778e+00 1.90044825112084e-01 1.40447380508722e-03
1.41926984126984e+00 1.89005129815626e-01 1.40247996047138e-03
1.43076190476190e+00 1.87971122476110e-01 1.40044303376493e-03
1.44225396825397e+00 1.86942771968810e-01 1.39836395220320e-03
1.45374603174603e+00 1.85920047353482e-01 1.39624362509182e-03
1.46523809523810e+00 1.84902917851959e-01 1.39408295128093e-03
1.47673015873016e+00 1.83891352847730e-01 1.39188280546389e-03
1.48822222222222e+00 1.82885321905407e-01 1.38964404566491e-03
1.49971428571429e+00 1.81884794749217e-01 1.38736752047279e-03
1.51120634920635e+00 1.80889741262550e-01 1.38505405570725e-03
1.52269841269841e+00 1.79900131506647e-01 1.38270446166041e-03
1.53419047619048e+00 1.78915935699926e-01 1.38031954010798e-03
1.54568253968254e+00 1.77937124217511e-01 1.37790007133027e-03
1.55717460317460e+00 1.76963667609174e-01 1.37544682112006e-03
1.56866666666667e+00 1.75995536579457e-01 1.37296054758187e-03
1.58015873015873e+00 1.75032701987182e-01 1.37044198849659e-03
1.59165079365079e+00 1.74075134862688e-01 1.36789187017541e-03
1.60314285714286e+00 1.73122806382835e-01 1.36531090577382e-03
1.61463492063492e+00 1.72175687894012e-01 1.36269979334016e-03
1.62612698412698e+00 1.71233750893387e-01 1.36005922447120e-03
1.63761904761905e+00 1.70296967028423e-01 1.35738987215753e-03
1.64911111111111e+00 1.69365308113087e-01 1.35469239727124e-03
1.66060317460317e+00 1.68438746109793e-01 1.35196745486169e-03
1.67209523809524e+00 1.67517253128915e-01 1.34921568231960e-03
1.68358730158730e+00 1.66600801444377e-01 1.34643770567623e-03
1.69507936507937e+00 1.65689363476240e-01 1.34363414571012e-03
1.70657142857143e+00 1.64782911790231e-01 1.34080560642084e-03
1.71806349206349e+00 1.63881419112725e-01 1.33795268114535e-03
1.72955555555556e+00 1.62984858313967e-01 1.33507595848679e-03
1.74104761904762e+00 1.62093202407592e-01 1.33217601108849e-03
1.75253968253968e+00 1.61206424565048e-01 1.32925340157077e-03
1.76403174603175e+00 1.60324498099417e-01 1.32630868829307e-03
1.77552380952381e+00 1.59447396464926e-01 1.32334241441830e-03
1.78701587301587e+00 1.58575093270834e-01 1.32035511367630e-03
1.79850793650794e+00 1.57707562265834e-01 1.31734731596739e-03
1.81000000000000e+00 1.56844777337546e-01 1.31431953670724e-03
1.82149206349206e+00 1.55986712525903e-01 1.31127228415684e-03
1.83298412698413e+00 1.55133342003493e-01 1.30820605793263e-03
1.84447619047619e+00 1.54284640093478e-01 1.30512134729748e-03
1.85596825396825e+00 1.53440581254813e-01 1.30201863834424e-03
1.86746031746032e+00 1.52601140081751e-01 1.29889840373880e-03
1.87895238095238e+00 1.51766291316482e-01 1.29576110808824e-03
1.89044444444444e+00 1.50936009834862e-01 1.29260721316439e-03
1.90193650793651e+00 1.50110270645919e-01 1.28943716790726e-03
1.91342857142857e+00 1.49289048904038e-01 1.28625141364907e-03
1.92492063492063e+00 1.48472319895168e-01 1.28305038919289e-03
1.93641269841270e+00 1.47660059036341e-01 1.27983452106873e-03
1.94790476190476e+00 1.46852241887410e-01 1.27660422861758e-03
1.95939682539683e+00 1.46048844137728e-01 1.27335992893173e-03
1.97088888888889e+00 1.45249841605661e-01 1.27010202735664e-03
1.98238095238095e+00 1.44455210249919e-01 1.26683092243709e-03
1.99387301587302e+00 1.43664926156673e-01 1.26354701072706e-03
2.00536507936508e+00 1.42878965539072e-01 1.26025067752933e-03
2.01685714285714e+00 1.42097304748172e-01 1.25694230170701e-03
2.02834920634921e+00 1.41319920260488e-01 1.25362226036957e-03
2.03984126984127e+00 1.40546788677500e-01 1.25029091984228e-03
2.05133333333333e+00 1.39777886736213e-01 1.24694864181179e-03
2.06282539682540e+00 1.39013191293452e-01 1.24359578202915e-03
2.07431746031746e+00 1.38252679340029e-01 1.24023268882910e-03
2.08580952380952e+00 1.37496327988922e-01 1.23685970916333e-03
2.09730158730159e+00 1.36744114474775e-01 1.23347717990052e-03
2.10879365079365e+00 1.35996016163917e-01 1.23008543232466e-03
2.12028571428571e+00 1.35252010542899e-01 1.22668479652270e-03
2.13177777777778e+00 1.34512075218022e-01 1.22327559289852e-03
2.14326984126984e+00 1.33776187924998e-01 1.21985813655747e-03
2.15476190476190e+00 1.33044326517861e-01 1.21643274157914e-03
2.16625396825397e+00 1.32316468968495e-01 1.21299971273844e-03
2.17774603174603e+00 1.31592593375970e-01 1.20955934978009e-03
2.18923809523810e+00 1.30872677955803e-01 1.20611195158015e-03
2.20073015873016e+00 1.30156701039491e-01 1.20265780806918e-03
2.21222222222222e+00 1.29444641083533e-01 1.19919720439803e-03
2.22371428571429e+00 1.28736476659032e-01 1.19573042499455e-03
2.23520634920635e+00 1.28032186451225e-01 1.19225774568280e-03
2.24669841269841e+00 1.27331749268208e-01 1.18877943774102e-03
2.25819047619048e+00 1.26635144030863e-01 1.18529577185860e-03
2.26968253968254e+00 1.25942349772393e-01 1.18180701044550e-03
2.28117460317460e+00 1.25253345646753e-01 1.17831341158617e-03
2.29266666666667e+00 1.24568110918898e-01 1.17481523289980e-03
2.30415873015873e+00 1.23886624964310e-01 1.17131272403443e-03
2.31565079365079e+00 1.23208867277163e-01 1.16780613173391e-03
2.32714285714286e+00 1.22534817458008e-01 1.16429569874124e-03
2.33863492063492e+00 1.21864455224753e-01 1.16078166254975e-03
2.35012698412698e+00 1.21197760403365e-01 1.15726426038452e-03
2.36161904761905e+00 1.20534712927411e-01 1.15374372196440e-03
2.37311111111111e+00 1.19875292845818e-01 1.15022027321413e-03
2.38460317460317e+00 1.19219480313848e-01 1.14669413988767e-03
2.39609523809524e+00 1.18567255592648e-01 1.14316554050212e-03
2.40758730158730e+00 1.17918599056762e-01 1.13963468996017e-03
2.41907936507937e+00 1.17273491185371e-01 1.13610180308342e-03
2.43057142857143e+00 1.16631912561856e-01 1.13256708771363e-03
2.44206349206349e+00 1.15993843881060e-01 1.12903074824733e-03
2.45355555555556e+00 1.15359265940801e-01 1.12549298908288e-03
2.46504761904762e+00 1.14728159641428e-01 1.12195400788472e-03
2.47653968253968e+00 1.14100505992861e-01 1.11841399903087e-03
2.48803174603175e+00 1.13476286106350e-01 1.11487315697794e-03
2.49952380952381e+00 1.12855481194040e-01 1.11133166968342e-03
2.51101587301587e+00 1.12238072575784e-01 1.10778972196843e-03
2.52250793650794e+00 1.11624041671149e-01 1.10424749880355e-03
2.53400000000000e+00 1.11013369998985e-01 1.10070517888456e-03
2.54549206349206e+00 1.10406039184019e-01 1.09716293895080e-03
2.55698412698413e+00 1.09802030946774e-01 1.09362095283637e-03
2.56847619047619e+00 1.09201327112470e-01 1.09007939039120e-03
2.57996825396825e+00 1.08603909603392e-01 1.08653842173021e-03
2.59146031746032e+00 1.08009760438467e-01 1.08299821103457e-03
2.60295238095238e+00 1.07418861739545e-01 1.07945891971387e-03
2.61444444444444e+00 1.06831195723989e-01 1.07592070949788e-03
2.62593650793651e+00 1.06246744704257e-01 1.07238373638125e-03
2.63742857142857e+00 1.05665491093989e-01 1.06884815371231e-03
2.64892063492064e+00 1.05087417400810e-01 1.06531411521019e-03
2.66041269841270e+00 1.04512506225917e-01 1.06178176904938e-03
2.67190476190476e+00 1.03940740269979e-01 1.05825126087626e-03
2.68339682539683e+00 1.03372102326144e-01 1.05472273675481e-03
2.69488888888889e+00 1.02806575279633e-01 1.05119633738734e-03
2.70638095238095e+00 1.02244142113459e-01 1.04767220105958e-03
2.71787301587302e+00 1.01684785901636e-01 1.04415046651804e-03
2.72936507936508e+00 1.01128489808770e-01 1.04063126732319e-03
2.74085714285714e+00 1.00575237095612e-01 1.03711473472460e-03
2.75234920634921e+00 1.00025011112454e-01 1.03360100047232e-03
2.76384126984127e+00 9.94777952987295e-02 1.03009019129907e-03
2.77533333333333e+00 9.89335731883917e-02 1.02658243261776e-03
2.78682539682540e+00 9.83923284015870e-02 1.02307784770022e-03
2.79831746031746e+00 9.78540446519306e-02 1.01957655674473e-03
2.80980952380952e+00 9.73187057401954e-02 1.01607868051716e-03
2.82130158730159e+00 9.67862955539159e-02 1.01258433502315e-03
2.83279365079365e+00 9.62567980725220e-02 1.00909363421568e-03
2.84428571428571e+00 9.57301973612022e-02 1.00560669264566e-03
2.85577777777778e+00 9.52064775705144e-02 1.00212362025444e-03
2.86726984126984e+00 9.46856229413650e-02 9.98644525020313e-04
2.87876190476190e+00 9.41676177990424e-02 9.95169515546812e-04
2.89025396825397e+00 9.36524465528331e-02 9.91698695973008e-04
2.90174603174603e+00 9.31400937008535e-02 9.88232168560030e-04
2.91323809523810e+00 9.26305438242459e-02 9.84770036219085e-04
2.92473015873016e+00 9.21237815868019e-02 9.81312397536717e-04
2.93622222222222e+00 9.16197917396495e-02 9.77859349302055e-04
2.94771428571429e+00 9.11185591156099e-02 9.74410988977289e-04
2.95920634920635e+00 9.06200686288240e-02 9.70967409834678e-04
2.97069841269841e+00 9.01243052793024e-02 9.67528703425136e-04
2.98219047619048e+00 8.96312541474372e-02 9.64094961993791e-04
2.99368253968254e+00 8.91409003936314e-02 9.60666273725543e-04
3.00517460317460e+00 8.86532292627168e-02 9.57242725156567e-04
3.01666666666667e+00 8.81682260786149e-02 9.53824403536185e-04
3.02815873015873e+00 8.76858762439706e-02 9.50411392178373e-04
3.03965079365079e+00 8.72061652444412e-02 9.47003773568085e-04
3.05114285714286e+00 8.67290786419603e-02 9.43601628665081e-04
3.06263492063492e+00 8.62546020805535e-02 9.40205036114855e-04
3.07412698412698e+00 8.57827212812224e-02 9.36814075309524e-04
3.08561904761905e+00 8.53134220415876e-02 9.33428821896401e-04
3.09711111111111e+00 8.48466902399858e-02 9.30049350054027e-04
3.10860317460317e+00 8.43825118304912e-02 9.26675734720902e-04
3.12009523809524e+00 8.39208728425633e-02 9.23308047203623e-04
3.13158730158730e+00 8.34617593850264e-02 9.19946357402495e-04
3.14307936507937e+00 8.30051576412224e-02 9.16590735989470e-04
3.15457142857143e+00 8.25510538686653e-02 9.13241250113396e-04
3.16606349206349e+00 8.20994344029048e-02 9.09897965576222e-04
3.17755555555556e+00 8.16502856528089e-02 9.06560948962117e-04
3.18904761904762e+00 8.12035941002226e-02 9.03230263437384e-04
3.20053968253968e+00 8.07593463037208e-02 8.99905970877435e-04
3.21203174603175e+00 8.03175288940170e-02 8.96588133949699e-04
3.22352380952381e+00 7.98781285736243e-02 8.93276812005398e-04
3.23501587301587e+00 7.94411321205034e-02 8.89972063158342e-04
3.24650793650794e+00 7.90065263835917e-02 8.86673946322538e-04
3.25800000000000e+00 7.85742982824682e-02 8.83382517193888e-04
3.26949206349206e+00 7.81444348108989e-02 8.80097830930865e-04
3.28098412698413e+00 7.77169230311976e-02 8.76819941550039e-04
3.29247619047619e+00 7.72917500790437e-02 8.73548901241333e-04
3.30396825396825e+00 7.68689031591937e-02 8.70284763011153e-04
3.31546031746032e+00 7.64483695451540e-02 8.67027576797909e-04
3.32695238095238e+00 7.60301365825715e-02 8.63777391435961e-04
3.33844444444444e+00 7.56141916850560e-02 8.60534256580705e-04
3.34993650793651e+00 7.52005223338587e-02 8.57298218908743e-04
3.36142857142857e+00 7.47891160811671e-02 8.54069324039144e-04
3.37292063492063e+00 7.43799605460353e-02 8.50847618415764e-04
3.38441269841270e+00 7.39730434140679e-02 8.47633145589747e-04
3.39590476190476e+00 7.35683524406219e-02 8.44425948099169e-04
3.40739682539683e+00 7.31658754468428e-02 8.41226069309751e-04
3.41888888888889e+00 7.27656003193521e-02 8.38033549777917e-04
3.43038095238095e+00 7.23675150133606e-02 8.34848429089349e-04
3.44187301587302e+00 7.19716075488066e-02 8.31670747659534e-04
3.45336507936508e+00 7.15778660100468e-02 8.28500543175562e-04
3.46485714285714e+00 7.11862785488843e-02 8.25337852393923e-04
3.47634920634921e+00 7.07968333808051e-02 8.22182712902581e-04
3.48784126984127e+00 7.04095187846733e-02 8.19035159639264e-04
3.49933333333333e+00 7.00243231056754e-02 8.15895227211181e-04
3.51082539682540e+00 6.96412347505770e-02 8.12762949369680e-04
3.52231746031746e+00 6.92602421917332e-02 8.09638358414960e-04
3.53380952380952e+00 6.88813339634755e-02 8.06521487483978e-04
3.54530158730159e+00 6.85044986618138e-02 8.03412367183644e-04
3.55679365079365e+00 6.81297249472552e-02 8.00311027290039e-04
3.56828571428571e+00 6.77570015412824e-02 7.97217498415339e-04
3.57977777777778e+00 6.73863172260602e-02 7.94131808713026e-04
3.59126984126984e+00 6.70176608471772e-02 7.91053985540858e-04
3.60276190476191e+00 6.66510213102123e-02 7.87984057091451e-04
3.61425396825397e+00 6.62863875804464e-02 7.84922049167685e-04
3.62574603174603e+00 6.59237486855287e-02 7.81867986810454e-04
