Energy (eV)          EEDF (eV^-(3/2))     First Anisotropy
7.70212765957447e-03 3.70770245610811e-01 2.01932581764879e-04
2.31063829787234e-02 3.68053847808055e-01 3.33347255000250e-04
3.85106382978723e-02 3.65357351324931e-01 4.39789110589551e-04
5.39148936170213e-02 3.62680610351034e-01 5.20491476662296e-04
6.93191489361702e-02 3.60023480158057e-01 5.87664033086286e-04
8.47234042553192e-02 3.57385817069305e-01 6.45926135094353e-04
1.00127659574468e-01 3.54767478461164e-01 6.97669792680296e-04
1.15531914893617e-01 3.52168322759567e-01 7.44340348871886e-04
1.30936170212766e-01 3.49588209403719e-01 7.86896952330537e-04
1.46340425531915e-01 3.47026998905286e-01 8.26017911614682e-04
1.61744680851064e-01 3.44484552772847e-01 8.62205646097351e-04
1.77148936170213e-01 3.41960733515800e-01 8.95845657967985e-04
1.92553191489362e-01 3.39455404682750e-01 9.27242105253684e-04
2.07957446808511e-01 3.36968430804984e-01 9.56640457185975e-04
2.23361702127660e-01 3.34499677406558e-01 9.84242561712842e-04
2.38765957446809e-01 3.32049010986978e-01 1.01021703509559e-03
2.54170212765957e-01 3.29616299045122e-01 1.03470664609806e-03
2.69574468085106e-01 3.27201410039335e-01 1.05783369778123e-03
2.84978723404255e-01 3.24804213383622e-01 1.07970402722973e-03
3.00382978723404e-01 3.22424579466110e-01 1.10041004893008e-03
3.15787234042553e-01 3.20062379615319e-01 1.12003310370414e-03
3.31191489361702e-01 3.17717486095646e-01 1.13864529093140e-03
3.46595744680851e-01 3.15389772121942e-01 1.15631092969673e-03
3.62000000000000e-01 3.13079111830232e-01 1.17308773230801e-03
3.77404255319149e-01 3.10785380272793e-01 1.18902774988127e-03
3.92808510638298e-01 3.08508453429837e-01 1.20417815392124e-03
4.08212765957447e-01 3.06248208183623e-01 1.21858188268368e-03
4.23617021276596e-01 3.04004522313266e-01 1.23227817354773e-03
4.39021276595745e-01 3.01777274504207e-01 1.24530301626877e-03
4.54425531914894e-01 2.99566344325012e-01 1.25768953634170e-03
4.69829787234043e-01 2.97371612221986e-01 1.26946831524415e-03
4.85234042553192e-01 2.95192959526928e-01 1.28066767034349e-03
5.00638297872340e-01 2.93030268436079e-01 1.29131389591451e-03
5.16042553191489e-01 2.90883422004639e-01 1.30143146603799e-03
5.31446808510638e-01 2.88752304153134e-01 1.31104321640739e-03
5.46851063829787e-01 2.86636799648134e-01 1.32017050259923e-03
5.62255319148936e-01 2.84536794100468e-01 1.32883333639393e-03
5.77659574468085e-01 2.82452173955498e-01 1.33705050598346e-03
5.93063829787234e-01 2.80382826497792e-01 1.34483968426964e-03
6.08468085106383e-01 2.78328639833984e-01 1.35221752554176e-03
6.23872340425532e-01 2.76289502887287e-01 1.35919974670642e-03
6.39276595744681e-01 2.74265305401285e-01 1.36580120445721e-03
6.54680851063830e-01 2.72255937923961e-01 1.37203596442586e-03
6.70085106382979e-01 2.70261291802274e-01 1.37791735873427e-03
6.85489361702128e-01 2.68281259185215e-01 1.38345804223854e-03
7.00893617021277e-01 2.66315733008848e-01 1.38867004334246e-03
7.16297872340426e-01 2.64364606990961e-01 1.39356480567523e-03
7.31702127659575e-01 2.62427775633503e-01 1.39815323010730e-03
7.47106382978723e-01 2.60505134208511e-01 1.40244571297785e-03
7.62510638297872e-01 2.58596578752853e-01 1.40645217683384e-03
7.77914893617021e-01 2.56702006070116e-01 1.41018210250267e-03
7.93319148936170e-01 2.54821313717352e-01 1.41364455845718e-03
8.08723404255319e-01 2.52954399999881e-01 1.41684822383523e-03
8.24127659574468e-01 2.51101163972736e-01 1.41980141339519e-03
8.39531914893617e-01 2.49261505428124e-01 1.42251210049625e-03
8.54936170212766e-01 2.47435324890307e-01 1.42498793455622e-03
8.70340425531915e-01 2.45622523616657e-01 1.42723626080593e-03
8.85744680851064e-01 2.43823003585769e-01 1.42926413857433e-03
9.01148936170213e-01 2.42036667492418e-01 1.43107835466627e-03
9.16553191489362e-01 2.40263418748279e-01 1.43268543924395e-03
9.31957446808511e-01 2.38503161470628e-01 1.43409168022754e-03
9.47361702127660e-01 2.36755800479218e-01 1.43530313510871e-03
9.62765957446809e-01 2.35021241289357e-01 1.43632564205285e-03
9.78170212765958e-01 2.33299390112187e-01 1.43716483162427e-03
9.93574468085106e-01 2.31590153844145e-01 1.43782613951764e-03
1.00897872340426e+00 2.29893440055385e-01 1.43831480802744e-03
1.02438297872340e+00 2.28209157018454e-01 1.43863590582666e-03
1.03978723404255e+00 2.26537213644698e-01 1.43879432966953e-03
1.05519148936170e+00 2.24877519545255e-01 1.43879481344978e-03
1.07059574468085e+00 2.23229984961808e-01 1.43864193623930e-03
1.08600000000000e+00 2.21594520824583e-01 1.43834012860003e-03
1.10140425531915e+00 2.19971038686136e-01 1.43789367973460e-03
1.11680851063830e+00 2.18359450776563e-01 1.43730674303062e-03
1.13221276595745e+00 2.16759669940120e-01 1.43658334244776e-03
1.14761702127660e+00 2.15171609687830e-01 1.43572737740299e-03
1.16302127659574e+00 2.13595184136758e-01 1.43474262849844e-03
1.17842553191489e+00 2.12030308060185e-01 1.43363276183988e-03
1.19382978723404e+00 2.10476896829373e-01 1.43240133419122e-03
1.20923404255319e+00 2.08934866461460e-01 1.43105179680464e-03
1.22463829787234e+00 2.07404133563566e-01 1.42958750286429e-03
1.24004255319149e+00 2.05884615366438e-01 1.42801169970609e-03
1.25544680851064e+00 2.04376229719306e-01 1.42632754972209e-03
1.27085106382979e+00 2.02878895049068e-01 1.42453812265875e-03
1.28625531914894e+00 2.01392530403952e-01 1.42264640140828e-03
1.30165957446809e+00 1.99917055402063e-01 1.42065528568173e-03
1.31706382978723e+00 1.98452390273145e-01 1.41856759455970e-03
1.33246808510638e+00 1.96998455809096e-01 1.41638606984610e-03
1.34787234042553e+00 1.95555173403949e-01 1.41411337835389e-03
1.36327659574468e+00 1.94122465006240e-01 1.41175211497603e-03
1.37868085106383e+00 1.92700253157310e-01 1.40930480473771e-03
1.39408510638298e+00 1.91288460945431e-01 1.40677390561555e-03
1.40948936170213e+00 1.89887012042519e-01 1.40416181038392e-03
1.42489361702128e+00 1.88495830659926e-01 1.40147084920974e-03
1.44029787234043e+00 1.87114841583652e-01 1.39870329131616e-03
1.45570212765957e+00 1.85743970131720e-01 1.39586134967300e-03
1.47110638297872e+00 1.84383142178818e-01 1.39294717329759e-03
1.48651063829787e+00 1.83032284151819e-01 1.38996286319663e-03
1.50191489361702e+00 1.81691322998362e-01 1.38691046487642e-03
1.51731914893617e+00 1.80360186219214e-01 1.38379197203734e-03
1.53272340425532e+00 1.79038801828710e-01 1.38060932855825e-03
1.54812765957447e+00 1.77727098385841e-01 1.37736442965871e-03
1.56353191489362e+00 1.76425004956056e-01 1.37405912374390e-03
1.57893617021277e+00 1.75132451141135e-01 1.37069521345891e-03
1.59434042553191e+00 1.73849367042282e-01 1.36727445740681e-03
1.60974468085106e+00 1.72575683288851e-01 1.36379857110584e-03
1.62514893617021e+00 1.71311331002673e-01 1.36026922859309e-03
1.64055319148936e+00 1.70056241825683e-01 1.35668806329427e-03
1.65595744680851e+00 1.68810347885427e-01 1.35305666952279e-03
1.67136170212766e+00 1.67573581821652e-01 1.34937660327143e-03
1.68676595744681e+00 1.66345876752926e-01 1.34564938552783e-03
1.70217021276596e+00 1.65127166295168e-01 1.34187649533428e-03
1.71757446808511e+00 1.63917384557699e-01 1.33805938253979e-03
1.73297872340426e+00 1.62716466118452e-01 1.33419946107487e-03
1.74838297872340e+00 1.61524346048553e-01 1.33029811157961e-03
1.76378723404255e+00 1.60340959881172e-01 1.32635668260833e-03
1.77919148936170e+00 1.59166243635205e-01 1.32237649119627e-03
1.79459574468085e+00 1.58000133785103e-01 1.31835882399426e-03
1.81000000000000e+00 1.56842567283700e-01 1.31430493778634e-03
1.82540425531915e+00 1.55693481532985e-01 1.31021606055928e-03
1.84080851063830e+00 1.54552814406103e-01 1.30609339197516e-03
1.85621276595745e+00 1.53420504219027e-01 1.30193810438106e-03
1.87161702127660e+00 1.52296489751785e-01 1.29775134324079e-03
1.88702127659574e+00 1.51180710220989e-01 1.29353422808970e-03
1.90242553191489e+00 1.50073105300313e-01 1.28928785292870e-03
1.91782978723404e+00 1.48973615093854e-01 1.28501328712807e-03
1.93323404255319e+00 1.47882180155893e-01 1.28071157578811e-03
1.94863829787234e+00 1.46798741465046e-01 1.27638374216339e-03
1.96404255319149e+00 1.45723240437946e-01 1.27203078170578e-03
1.97944680851064e+00 1.44655618925807e-01 1.26765367226333e-03
1.99485106382979e+00 1.43595819195081e-01 1.26325336831529e-03
2.01025531914894e+00 1.42543783945809e-01 1.25883080289904e-03
2.02565957446809e+00 1.41499456287384e-01 1.25438688836593e-03
2.04106382978723e+00 1.40462779756288e-01 1.24992251664071e-03
2.05646808510638e+00 1.39433698292548e-01 1.24543855994048e-03
2.07187234042553e+00 1.38412156256876e-01 1.24093587101157e-03
2.08727659574468e+00 1.37398098407803e-01 1.23641528381403e-03
2.10268085106383e+00 1.36391469918244e-01 1.23187761373796e-03
2.11808510638298e+00 1.35392216353282e-01 1.22732365825590e-03
2.13348936170213e+00 1.34400283686176e-01 1.22275419712012e-03
2.14889361702128e+00 1.33415618276784e-01 1.21816999298489e-03
2.16429787234043e+00 1.32438166887033e-01 1.21357179158634e-03
2.17970212765957e+00 1.31467876659946e-01 1.20896032366621e-03
2.19510638297872e+00 1.30504695130274e-01 1.20433629980814e-03
2.21051063829787e+00 1.29548570221463e-01 1.19970041896024e-03
2.22591489361702e+00 1.28599450229846e-01 1.19505336343971e-03
2.24131914893617e+00 1.27657283839069e-01 1.19039580046298e-03
2.25672340425532e+00 1.26722020100356e-01 1.18572838267951e-03
2.27212765957447e+00 1.25793608446462e-01 1.18105174829834e-03
2.28753191489362e+00 1.24871998672474e-01 1.17636652159907e-03
2.30293617021277e+00 1.23957140949321e-01 1.17167331304667e-03
2.31834042553192e+00 1.23048985805095e-01 1.16697271978099e-03
2.33374468085106e+00 1.22147484138123e-01 1.16226532572055e-03
2.34914893617021e+00 1.21252587198798e-01 1.15755170203179e-03
2.36455319148936e+00 1.20364246602229e-01 1.15283240722296e-03
2.37995744680851e+00 1.19482414310561e-01 1.14810798759428e-03
2.39536170212766e+00 1.18607042645225e-01 1.14337897732237e-03
2.41076595744681e+00 1.17738084269724e-01 1.13864590002535e-03
2.42617021276596e+00 1.16875492197992e-01 1.13390926429962e-03
2.44157446808511e+00 1.16019219791692e-01 1.12916957091357e-03
2.45697872340426e+00 1.15169220747175e-01 1.12442730848824e-03
2.47238297872340e+00 1.14325449106932e-01 1.11968295474428e-03
2.48778723404255e+00 1.13487859243351e-01 1.11493697689485e-03
2.50319148936170e+00 1.12656405869814e-01 1.11018983170076e-03
2.51859574468085e+00 1.11831044024873e-01 1.10544196584893e-03
2.53400000000000e+00 1.11011729083007e-01 1.10069381600112e-03
2.54940425531915e+00 1.10198416739207e-01 1.09594580915802e-03
2.56480851063830e+00 1.09391063019401e-01 1.09119836270203e-03
2.58021276595745e+00 1.08589624265432e-01 1.08645188474799e-03
2.59561702127660e+00 1.07794057145166e-01 1.08170677418039e-03
2.61102127659575e+00 1.07004318637856e-01 1.07696342099132e-03
2.62642553191489e+00 1.06220366043935e-01 1.07222220631253e-03
2.64182978723404e+00 1.05442156970757e-01 1.06748350274115e-03
2.65723404255319e+00 1.04669649342092e-01 1.06274767436747e-03
2.67263829787234e+00 1.03902801384222e-01 1.05801507803723e-03
2.68804255319149e+00 1.03141571632362e-01 1.05328605957281e-03
2.70344680851064e+00 1.02385918928291e-01 1.04856095975568e-03
2.71885106382979e+00 1.01635802409758e-01 1.04384011066741e-03
2.73425531914894e+00 1.00891181519379e-01 1.03912383669674e-03
2.74965957446809e+00 1.00152015991486e-01 1.03441245482837e-03
2.76506382978723e+00 9.94182658607625e-02 1.02970627465516e-03
2.78046808510638e+00 9.86898914494136e-02 1.02500559865717e-03
2.79587234042553e+00 9.79668533755457e-02 1.02031072221059e-03
2.81127659574468e+00 9.72491125406545e-02 1.01562193385730e-03
2.82668085106383e+00 9.65366301377536e-02 1.01093951531072e-03
2.84208510638298e+00 9.58293676391704e-02 1.00626374171637e-03
2.85748936170213e+00 9.51272868044340e-02 1.00159488165505e-03
2.87289361702128e+00 9.44303496683685e-02 9.96933197394753e-04
2.88829787234043e+00 9.37385185487494e-02 9.92278944891253e-04
2.90370212765957e+00 9.30517560346843e-02 9.87632374847525e-04
2.91910638297872e+00 9.23700249917424e-02 9.82993729443108e-04
2.93451063829787e+00 9.16932885598451e-02 9.78363247452539e-04
2.94991489361702e+00 9.10215101443692e-02 9.73741161078031e-04
2.96531914893617e+00 9.03546534233320e-02 9.69127696794906e-04
2.98072340425532e+00 8.96926823363832e-02 9.64523075577320e-04
2.99612765957447e+00 8.90355610917814e-02 9.59927512890105e-04
3.01153191489362e+00 8.83832541556481e-02 9.55341218907424e-04
3.02693617021277e+00 8.77357262587430e-02 9.50764398502785e-04
3.04234042553191e+00 8.70929423859728e-02 9.46197251460915e-04
3.05774468085106e+00 8.64548677829711e-02 9.41639972466146e-04
3.07314893617021e+00 8.58214679458549e-02 9.37092751307668e-04
3.08855319148936e+00 8.51927086276161e-02 9.32555772866563e-04
3.10395744680851e+00 8.45685558281181e-02 9.28029217314675e-04
3.11936170212766e+00 8.39489758003048e-02 9.23513260100130e-04
3.13476595744681e+00 8.33339350404308e-02 9.19008072843628e-04
3.15017021276596e+00 8.27234002921826e-02 9.14513820504491e-04
3.16557446808511e+00 8.21173385447952e-02 9.10030665777973e-04
3.18097872340426e+00 8.15157170255398e-02 9.05558766349253e-04
3.19638297872340e+00 8.09185032055577e-02 9.01098275609650e-04
3.21178723404255e+00 8.03256647905907e-02 8.96649342836056e-04
3.22719148936170e+00 7.97371697266512e-02 8.92212113171737e-04
3.24259574468085e+00 7.91529861909660e-02 8.87786727800638e-04
3.25800000000000e+00 7.85730825974862e-02 8.83373323927189e-04
3.27340425531915e+00 7.79974275880396e-02 8.78972034945643e-04
3.28880851063830e+00 7.74259900376859e-02 8.74582990418987e-04
3.30421276595745e+00 7.68587390460701e-02 8.70206316243354e-04
3.31961702127660e+00 7.62956439426290e-02 8.65842134626247e-04
3.33502127659574e+00 7.57366742781409e-02 8.61490564246081e-04
3.35042553191489e+00 7.51817998297870e-02 8.57151720229850e-04
3.36582978723404e+00 7.46309905928920e-02 8.52825714308098e-04
3.38123404255319e+00 7.40842167858451e-02 8.48512654792057e-04
3.39663829787234e+00 7.35414488420270e-02 8.44212647319994e-04
3.41204255319149e+00 7.30026574130380e-02 8.39925792445322e-04
3.42744680851064e+00 7.24678133670432e-02 8.35652189351422e-04
3.44285106382979e+00 7.19368877825338e-02 8.31391933513857e-04
3.45825531914894e+00 7.14098519529571e-02 8.27145117297241e-04
3.47365957446809e+00 7.08866773790458e-02 8.22911830096130e-04
3.48906382978723e+00 7.03673357733210e-02 8.18692158309660e-04
3.50446808510638e+00 6.98517990525923e-02 8.14486185478592e-04
3.51987234042553e+00 6.93400393423369e-02 8.10293992259661e-04
3.53527659574468e+00 6.88320289693666e-02 8.06115656558758e-04
3.55068085106383e+00 6.83277404660863e-02 8.01951253504983e-04
3.56608510638298e+00 6.78271465633238e-02 7.97800855580238e-04
3.58148936170213e+00 6.73302201944716e-02 7.93664532592899e-04
3.59689361702128e+00 6.68369344884747e-02 7.89542351804076e-04
3.61229787234043e+00 6.63472627738596e-02 7.85434377900928e-04
3.62770212765957e+00 6.58611785718758e-02 7.81340673636134e-04
3.64310638297872e+00 6.53786555991101e-02 7.77261297730699e-04
3.65851063829787e+00 6.48996677660094e-02 7.73196308086737e-04
3.67391489361702e+00 6.44241891715583e-02 7.69145759754434e-04
3.68931914893617e+00 6.39521941070747e-02 7.65109705443379e-04
3.70472340425532e+00 6.34836570496853e-02 7.61088195637776e-04
3.72012765957447e+00 6.30185526660189e-02 7.57081278568898e-04
3.73553191489362e+00 6.25568558058232e-02 7.53089000327258e-04
3.75093617021277e+00 6.20985415055591e-02 7.49111404834884e-04
3.76634042553192e+00 6.16435849821553e-02 7.45148533954578e-04
3.78174468085106e+00 6.11919616365059e-02 7.41200427462250e-04
3.79714893617021e+00 6.07436470473597e-02 7.37267123153251e-04
3.81255319148936e+00 6.02986169747238e-02 7.33348656814668e-04
3.82795744680851e+00 5.98568473538846e-02 7.29445062328867e-04
3.84336170212766e+00 5.94183142987200e-02 7.25556371645873e-04
3.85876595744681e+00 5.89829940958484e-02 7.21682615332971e-04
3.87417021276596e+00 5.85508632067530e-02 7.17823820748704e-04
3.88957446808511e+00 5.81218982664620e-02 7.13980014828212e-04
3.90497872340426e+00 5.76960760789909e-02 7.10151222312376e-04
3.92038297872340e+00 5.72733736204651e-02 7.06337466187829e-04
3.93578723404255e+00 5.68537680335486e-02 7.02538767781846e-04
3.95119148936170e+00 5.64372366304846e-02 6.98755146734406e-04
3.96659574468085e+00 5.60237568876416e-02 6.94986621090694e-04
3.98200000000000e+00 5.56133064484735e-02 6.91233207273346e-04
3.99740425531915e+00 5.52058631181815e-02 6.87494920172592e-04
4.01280851063830e+00 5.48014048665953e-02 6.83771773118463e-04
4.02821276595745e+00 5.43999098229475e-02 6.80063777968753e-04
4.04361702127660e+00 5.40013562786791e-02 6.76370945081465e-04
4.05902127659574e+00 5.36057226823236e-02 6.72693283400443e-04
4.07442553191489e+00 5.32129876422382e-02 6.69030800427879e-04
4.08982978723404e+00 5.28231299215952e-02 6.65383502307953e-04
4.10523404255319e+00 5.24361284410420e-02 6.61751393799494e-04
4.12063829787234e+00 5.20519622737961e-02 6.58134478740457e-04
4.13604255319149e+00 5.16706106473272e-02 6.54532758485612e-04
4.15144680851064e+00 5.12920529421952e-02 6.50946234280006e-04
4.16685106382979e+00 5.09162686882140e-02 6.47374905743352e-04
4.18225531914894e+00 5.05432375669604e-02 6.43818771242163e-04
4.19765957446809e+00 5.01729394071008e-02 6.40277827966593e-04
4.21306382978723e+00 4.98053541868349e-02 6.36752071903355e-04
4.22846808510638e+00 4.94404620293182e-02 6.33241497910708e-04
4.24387234042553e+00 4.90782432050429e-02 6.29746099691594e-04
4.25927659574468e+00 4.87186781273546e-02 6.26265869866798e-04
4.27468085106383e+00 4.83617473547707e-02 6.22800799948234e-04
4.29008510638298e+00 4.80074315865901e-02 6.19350880410313e-04
4.30548936170213e+00 4.76557116651510e-02 6.15916100663536e-04
4.32089361702128e+00 4.73065685715307e-02 6.12496449124165e-04
4.33629787234043e+00 4.69599834277447e-02 6.09091913187895e-04
4.35170212765957e+00 4.66159374925348e-02 6.05702479631785e-04
4.36710638297872e+00 4.62744121627405e-02 6.02328133249882e-04
4.38251063829787e+00 4.59353889722610e-02 5.98968858919397e-04
4.39791489361702e+00 4.55988495887481e-02 5.95624640277089e-04
4.41331914893617e+00 4.52647758156827e-02 5.92295460041147e-04
4.42872340425532e+00 4.49331495883573e-02 5.88981300075445e-04
4.44412765957447e+00 4.46039529758992e-02 5.85682141363857e-04
4.45953191489362e+00 4.42771681773340e-02 5.82397964072954e-04
4.47493617021277e+00 4.39527775235572e-02 5.79128747526429e-04
4.49034042553192e+00 4.36307634734775e-02 5.75874470266368e-04
4.50574468085106e+00 4.33111086159369e-02 5.72635110027980e-04
4.52114893617021e+00 4.29937956659329e-02 5.69410643799261e-04
4.53655319148936e+00 4.26788074664887e-02 5.66201047796095e-04
4.55195744680851e+00 4.23661269849515e-02 5.63006297520585e-04
4.56736170212766e+00 4.20557373148153e-02 5.59826367736185e-04
4.58276595744681e+00 4.17476216720928e-02 5.56661232816273e-04
4.59817021276596e+00 4.14417633964362e-02 5.53510865551408e-04
4.61357446808511e+00 4.11381459502095e-02 5.50375238950637e-04
4.62897872340426e+00 4.08367529156299e-02 5.47254325084009e-04
4.64438297872340e+00 4.05375679964902e-02 5.44148095361968e-04
4.65978723404255e+00 4.02405750146966e-02 5.41056520589250e-04
4.67519148936170e+00 3.99457579119465e-02 5.37979570940788e-04
4.69059574468085e+00 3.96531007463355e-02 5.34917216014331e-04
4.70600000000000e+00 3.93625876939924e-02 5.31869424806598e-04
4.72140425531915e+00 3.90742030457539e-02 5.28836165764736e-04
4.73680851063830e+00 3.87879312087583e-02 5.25817406762646e-04
4.75221276595745e+00 3.85037567031853e-02 5.22813115151314e-04
4.76761702127660e+00 3.82216641638099e-02 5.19823257735426e-04
4.78302127659575e+00 3.79416383368068e-02 5.16847800822441e-04
4.79842553191489e+00 3.76636640812646e-02 5.13886710199509e-04
4.81382978723404e+00 3.73877263660535e-02 5.10939951181401e-04
4.82923404255319e+00 3.71138102713011e-02 5.08007488587739e-04
4.84463829787234e+00 3.68419009853218e-02 5.05089287039991e-04
4.86004255319149e+00 3.65719838055080e-02 5.02185309936420e-04
