Energy (eV)          EEDF (eV^-(3/2))     First Anisotropy
4.78947368421053e-02 9.26093679835003e-02 7.92251098406660e-05
1.43684210526316e-01 9.09388813747034e-02 1.30080586497886e-04
2.39473684210526e-01 8.92985269849829e-02 1.69765045546103e-04
3.35263157894737e-01 8.76877612849522e-02 1.98749307592693e-04
4.31052631578947e-01 8.61060505546877e-02 2.21977682630462e-04
5.26842105263158e-01 8.45528707050695e-02 2.41352198122001e-04
6.22631578947368e-01 8.30277070930060e-02 2.57873384898601e-04
7.18421052631579e-01 8.15300543621209e-02 2.72155027964426e-04
8.14210526315789e-01 8.00594162735932e-02 2.84610463805401e-04
9.10000000000000e-01 7.86153055357258e-02 2.95536186326607e-04
1.00578947368421e+00 7.71972436485920e-02 3.05154839434319e-04
1.10157894736842e+00 7.58047607447338e-02 3.13639527851675e-04
1.19736842105263e+00 7.44373954338906e-02 3.21128568199250e-04
1.29315789473684e+00 7.30946946342024e-02 3.27734938628396e-04
1.38894736842105e+00 7.17762134583857e-02 3.33552607254309e-04
1.48473684210526e+00 7.04815150234564e-02 3.38660921412321e-04
1.58052631578947e+00 6.92101703460485e-02 3.43127744856338e-04
1.67631578947368e+00 6.79617581706605e-02 3.47011761186295e-04
1.77210526315789e+00 6.67358648336999e-02 3.50364195160299e-04
1.86789473684211e+00 6.55320841479416e-02 3.53230132031422e-04
1.96368421052632e+00 6.43500172451279e-02 3.55649542558223e-04
2.05947368421053e+00 6.31892724464417e-02 3.57658087224063e-04
2.15526315789474e+00 6.20494651498486e-02 3.59287762625937e-04
2.25105263157895e+00 6.09302176846098e-02 3.60567424184381e-04
2.34684210526316e+00 5.98311591879253e-02 3.61523209878750e-04
2.44263157894737e+00 5.87519254961795e-02 3.62178893696626e-04
2.53842105263158e+00 5.76921590053868e-02 3.62556178338846e-04
2.63421052631579e+00 5.66515085707552e-02 3.62674940792419e-04
2.73000000000000e+00 5.56296293768711e-02 3.62553441930009e-04
2.82578947368421e+00 5.46261828246506e-02 3.62208501724945e-04
2.92157894736842e+00 5.36408364299753e-02 3.61655652346823e-04
3.01736842105263e+00 5.26732637022514e-02 3.60909270214208e-04
3.11315789473684e+00 5.17231440371718e-02 3.59982687856290e-04
3.20894736842105e+00 5.07901626197016e-02 3.58888294274960e-04
3.30473684210526e+00 4.98740103074459e-02 3.57637621576396e-04
3.40052631578947e+00 4.89743835400696e-02 3.56241421066672e-04
3.49631578947368e+00 4.80909842298802e-02 3.54709731916983e-04
3.59210526315789e+00 4.72235196637153e-02 3.53051939509272e-04
3.68789473684211e+00 4.63717024133305e-02 3.51276829630483e-04
3.78368421052632e+00 4.55352502325319e-02 3.49392636907213e-04
3.87947368421053e+00 4.47138859642257e-02 3.47407086159428e-04
3.97526315789474e+00 4.39073374549783e-02 3.45327431627003e-04
4.07105263157895e+00 4.31153374582331e-02 3.43160492358043e-04
4.16684210526316e+00 4.23376235462089e-02 3.40912682339217e-04
4.26263157894737e+00 4.15739380285620e-02 3.38590039859569e-04
4.35842105263158e+00 4.08240278595183e-02 3.36198253292749e-04
4.45421052631579e+00 4.00876445612650e-02 3.33742684510494e-04
4.55000000000000e+00 3.93645441362119e-02 3.31228391286938e-04
4.64578947368421e+00 3.86544869864989e-02 3.28660145965629e-04
4.74157894736842e+00 3.79572378392357e-02 3.26042454204453e-04
4.83736842105263e+00 3.72725656637805e-02 3.23379572205806e-04
4.93315789473684e+00 3.66002435954913e-02 3.20675521081188e-04
5.02894736842105e+00 3.59400488646594e-02 3.17934101734980e-04
5.12473684210526e+00 3.52917627172232e-02 3.15158907878062e-04
5.22052631578947e+00 3.46551703475901e-02 3.12353338005921e-04
5.31631578947368e+00 3.40300608235019e-02 3.09520607316572e-04
5.41210526315789e+00 3.34162270163772e-02 3.06663757291872e-04
5.50789473684210e+00 3.28134655361227e-02 3.03785665909321e-04
5.60368421052632e+00 3.22215766602071e-02 3.00889057146771e-04
5.69947368421053e+00 3.16403642676964e-02 2.97976508628878e-04
5.79526315789474e+00 3.10696357773423e-02 2.95050459962463e-04
5.89105263157895e+00 3.05092020806192e-02 2.92113220522404e-04
5.98684210526316e+00 2.99588774792402e-02 2.89166975618343e-04
6.08263157894737e+00 2.94184796263899e-02 2.86213793483448e-04
6.17842105263158e+00 2.88878294626266e-02 2.83255631272467e-04
6.27421052631579e+00 2.83667511601251e-02 2.80294340640511e-04
6.37000000000000e+00 2.78550720617464e-02 2.77331673587589e-04
6.46578947368421e+00 2.73526226239764e-02 2.74369286844486e-04
6.56157894736842e+00 2.68592363630952e-02 2.71408746975821e-04
6.65736842105263e+00 2.63747497976093e-02 2.68451535182558e-04
6.75315789473684e+00 2.58990023942136e-02 2.65499050916324e-04
6.84894736842105e+00 2.54318365167176e-02 2.62552616280489e-04
6.94473684210526e+00 2.49730973709910e-02 2.59613479729971e-04
7.04052631578947e+00 2.45226329564191e-02 2.56682819525508e-04
7.13631578947368e+00 2.40802940134874e-02 2.53761747493123e-04
7.23210526315789e+00 2.36459339744312e-02 2.50851311671394e-04
7.32789473684211e+00 2.32194089164873e-02 2.47952499616576e-04
7.42368421052632e+00 2.28005775123480e-02 2.45066241529370e-04
7.51947368421053e+00 2.23893009834303e-02 2.42193412468680e-04
7.61526315789474e+00 2.19854430555384e-02 2.39334835190685e-04
7.71105263157895e+00 2.15888699120262e-02 2.36491282838719e-04
7.80684210526316e+00 2.11994501495422e-02 2.33663480802251e-04
7.90263157894737e+00 2.08170547359873e-02 2.30852109236476e-04
7.99842105263158e+00 2.04415569657673e-02 2.28057805109303e-04
8.09421052631579e+00 2.00728324197509e-02 2.25281164115954e-04
8.19000000000000e+00 1.97107589225930e-02 2.22522742875238e-04
8.28578947368421e+00 1.93552165023243e-02 2.19783060325241e-04
8.38157894736842e+00 1.90060873518925e-02 2.17062599661956e-04
8.47736842105263e+00 1.86632557888060e-02 2.14361810181890e-04
8.57315789473684e+00 1.83266082168680e-02 2.11681108463249e-04
8.66894736842105e+00 1.79960330897165e-02 2.09020880114855e-04
8.76473684210526e+00 1.76714208722926e-02 2.06381481155469e-04
8.86052631578947e+00 1.73526640060782e-02 2.03763239303036e-04
8.95631578947368e+00 1.70396568723131e-02 2.01166455515069e-04
9.05210526315789e+00 1.67322957570523e-02 1.98591404883462e-04
9.14789473684210e+00 1.64304788178259e-02 1.96038337993616e-04
9.24368421052631e+00 1.61341060488479e-02 1.93507482219114e-04
9.33947368421053e+00 1.58430792479300e-02 1.90999042481782e-04
9.43526315789474e+00 1.55573019848792e-02 1.88513202447283e-04
9.53105263157895e+00 1.52766795685905e-02 1.86050125664618e-04
9.62684210526316e+00 1.50011190157150e-02 1.83609956212065e-04
9.72263157894737e+00 1.47305290207096e-02 1.81192819795269e-04
9.81842105263158e+00 1.44648199244402e-02 1.78798824574755e-04
9.91421052631579e+00 1.42039036855883e-02 1.76428061937055e-04
1.00100000000000e+01 1.39476938506460e-02 1.74080607307141e-04
1.01057894736842e+01 1.36961055262886e-02 1.71756521259711e-04
1.02015789473684e+01 1.34490553482921e-02 1.69455849793549e-04
1.02973684210526e+01 1.32064614576595e-02 1.67178624767953e-04
1.03931578947368e+01 1.29682434719661e-02 1.64924864840457e-04
1.04889473684211e+01 1.27343224609412e-02 1.62694576989621e-04
1.05847368421053e+01 1.25046209135738e-02 1.60487756354663e-04
1.06805263157895e+01 1.22790627192568e-02 1.58304386017344e-04
1.07763157894737e+01 1.20575731402683e-02 1.56144438423635e-04
1.08721052631579e+01 1.18400787889930e-02 1.54007876565588e-04
1.09678947368421e+01 1.16265075975570e-02 1.51894653790580e-04
1.10636842105263e+01 1.14167888000735e-02 1.49804713237617e-04
1.11594736842105e+01 1.12108529089638e-02 1.47737990392782e-04
1.12552631578947e+01 1.10086316863652e-02 1.45694412514311e-04
1.13510526315789e+01 1.08100581271580e-02 1.43673898383828e-04
1.14468421052632e+01 1.06150664348559e-02 1.41676359453900e-04
1.15426315789474e+01 1.04235920014565e-02 1.39701700795342e-04
1.16384210526316e+01 1.02355713810286e-02 1.37749820879550e-04
1.17342105263158e+01 1.00509422737578e-02 1.35820611319924e-04
1.18300000000000e+01 9.86964350359113e-03 1.33913957892438e-04
1.19257894736842e+01 9.69161499945132e-03 1.32029741374781e-04
1.20215789473684e+01 9.51679777082677e-03 1.30167837319499e-04
1.21173684210526e+01 9.34513389278753e-03 1.28328115791028e-04
1.22131578947368e+01 9.17656648525310e-03 1.26510442274971e-04
1.23089473684211e+01 9.01103969548035e-03 1.24714678422769e-04
1.24047368421053e+01 8.84849867549776e-03 1.22940681820427e-04
1.25005263157895e+01 8.68888956804220e-03 1.21188305725266e-04
1.25963157894737e+01 8.53215948732896e-03 1.19457399877320e-04
1.26921052631579e+01 8.37825650273007e-03 1.17747811161257e-04
1.27878947368421e+01 8.22712961790664e-03 1.16059383374322e-04
1.28836842105263e+01 8.07872875761842e-03 1.14391956754385e-04
1.29794736842105e+01 7.93300475099620e-03 1.12745369554959e-04
1.30752631578947e+01 7.78990931186554e-03 1.11119457573227e-04
1.31710526315789e+01 7.64939502617332e-03 1.09514053895520e-04
1.32668421052632e+01 7.51141533511816e-03 1.07928989561837e-04
1.33626315789474e+01 7.37592452073208e-03 1.06364094104095e-04
1.34584210526316e+01 7.24287768767554e-03 1.04819195321311e-04
1.35542105263158e+01 7.11223075145623e-03 1.03294119031271e-04
1.36500000000000e+01 6.98394042277641e-03 1.01788689665643e-04
1.37457894736842e+01 6.85796419409949e-03 1.00302730750108e-04
1.38415789473684e+01 6.73426032280225e-03 9.88360646845521e-05
1.39373684210526e+01 6.61278782014131e-03 9.73885125022737e-05
1.40331578947368e+01 6.49350643672784e-03 9.59598944035038e-05
1.41289473684211e+01 6.37637665001332e-03 9.45500301841122e-05
1.42247368421053e+01 6.26135964869421e-03 9.31587390220732e-05
1.43205263157895e+01 6.14841732238309e-03 9.17858392451462e-05
1.44163157894737e+01 6.03751224812817e-03 9.04311488096264e-05
1.45121052631579e+01 5.92860767875665e-03 8.90944856834868e-05
1.46078947368421e+01 5.82166752843554e-03 8.77756676399855e-05
1.47036842105263e+01 5.71665636300643e-03 8.64745118943403e-05
1.47994736842105e+01 5.61353938816289e-03 8.51908360967518e-05
1.48952631578947e+01 5.51228243582326e-03 8.39244579720711e-05
1.49910526315789e+01 5.41285195493357e-03 8.26751951050068e-05
1.50868421052632e+01 5.31521499963208e-03 8.14428653355316e-05
1.51826315789474e+01 5.21933921896027e-03 8.02272870729590e-05
1.52784210526316e+01 5.12519284424155e-03 7.90282791047766e-05
1.53742105263158e+01 5.03274468048048e-03 7.78456603913600e-05
1.54700000000000e+01 4.94196409537606e-03 7.66792504215361e-05
1.55657894736842e+01 4.85282100974010e-03 7.55288694938308e-05
1.56615789473684e+01 4.76528588580550e-03 7.43943385334729e-05
1.57573684210526e+01 4.67932971918572e-03 7.32754788967179e-05
1.58531578947368e+01 4.59492402867506e-03 7.21721126907802e-05
1.59489473684211e+01 4.51204084732655e-03 7.10840630258130e-05
1.60447368421053e+01 4.43065271161955e-03 7.00111538402186e-05
1.61405263157895e+01 4.35073265394514e-03 6.89532097145384e-05
1.62363157894737e+01 4.27225419313630e-03 6.79100561594883e-05
1.63321052631579e+01 4.19519132616061e-03 6.68815198418294e-05
1.64278947368421e+01 4.11951851808242e-03 6.58674284179825e-05
1.65236842105263e+01 4.04521069504165e-03 6.48676102638132e-05
1.66194736842105e+01 3.97224323589534e-03 6.38818951099809e-05
1.67152631578947e+01 3.90059196273826e-03 6.29101137751484e-05
1.68110526315789e+01 3.83023313422936e-03 6.19520979970515e-05
1.69068421052632e+01 3.76114343727288e-03 6.10076806715861e-05
1.70026315789474e+01 3.69329997968982e-03 6.00766960387610e-05
1.70984210526316e+01 3.62668028143166e-03 5.91589795314441e-05
1.71942105263158e+01 3.56126226834770e-03 5.82543676154083e-05
1.72900000000000e+01 3.49702426446014e-03 5.73626980048494e-05
1.73857894736842e+01 3.43394498514175e-03 5.64838098292277e-05
1.74815789473684e+01 3.37200352897093e-03 5.56175434898760e-05
1.75773684210526e+01 3.31117937191208e-03 5.47637405087517e-05
1.76731578947368e+01 3.25145236014189e-03 5.39222437227683e-05
1.77689473684211e+01 3.19280270369847e-03 5.30928974335363e-05
1.78647368421053e+01 3.13521096893021e-03 5.22755472716092e-05
1.79605263157895e+01 3.07865807306273e-03 5.14700400536296e-05
1.80563157894737e+01 3.02312527753679e-03 5.06762239576254e-05
1.81521052631579e+01 2.96859418209660e-03 4.98939486574197e-05
1.82478947368421e+01 2.91504671778838e-03 4.91230651942676e-05
1.83436842105263e+01 2.86246514188917e-03 4.83634257792393e-05
1.84394736842105e+01 2.81083203199645e-03 4.76148842038660e-05
1.85352631578947e+01 2.76013027941298e-03 4.68772956455696e-05
1.86310526315789e+01 2.71034308433063e-03 4.61505165391879e-05
1.87268421052632e+01 2.66145394997559e-03 4.54344047228965e-05
1.88226315789474e+01 2.61344667739524e-03 4.47288195490592e-05
1.89184210526316e+01 2.56630535932346e-03 4.40336217686366e-05
1.90142105263158e+01 2.52001437568662e-03 4.33486734101426e-05
1.91100000000000e+01 2.47455838816556e-03 4.26738379113540e-05
1.92057894736842e+01 2.42992233534375e-03 4.20089802188389e-05
1.93015789473684e+01 2.38609142701738e-03 4.13539666789389e-05
1.93973684210526e+01 2.34305114000269e-03 4.07086649238132e-05
1.94931578947368e+01 2.30078721308496e-03 4.00729439903409e-05
1.95889473684211e+01 2.25928564250286e-03 3.94466744094853e-05
1.96847368421053e+01 2.21853267667083e-03 3.88297281035586e-05
1.97805263157895e+01 2.17851481226802e-03 3.82219782790125e-05
1.98763157894737e+01 2.13921878954649e-03 3.76232995337948e-05
1.99721052631579e+01 2.10063158812875e-03 3.70335679375887e-05
2.00678947368421e+01 2.06274042211205e-03 3.64526609350656e-05
2.01636842105263e+01 2.02553273642051e-03 3.58804572026712e-05
2.02594736842105e+01 1.98899620262516e-03 3.53168369159918e-05
2.03552631578947e+01 1.95311871431668e-03 3.47616816090107e-05
2.04510526315789e+01 1.91788838364298e-03 3.42148740781887e-05
2.05468421052632e+01 1.88329353718461e-03 3.36762984719476e-05
2.06426315789474e+01 1.84932271225007e-03 3.31458403568359e-05
2.07384210526316e+01 1.81596465258278e-03 3.26233866308792e-05
2.08342105263158e+01 1.78320830513241e-03 3.21088254334688e-05
2.09300000000000e+01 1.75104281622329e-03 3.16020462261794e-05
2.10257894736842e+01 1.71945752810693e-03 3.11029398521542e-05
2.11215789473684e+01 1.68844197497882e-03 3.06113984546347e-05
2.12173684210526e+01 1.65798587996803e-03 3.01273153923521e-05
2.13131578947368e+01 1.62807915157770e-03 2.96505853125129e-05
2.14089473684211e+01 1.59871188047706e-03 2.91811042040955e-05
2.15047368421053e+01 1.56987433580537e-03 2.87187693212875e-05
2.16005263157895e+01 1.54155696236539e-03 2.82634791040745e-05
2.16963157894737e+01 1.51375037731651e-03 2.78151332441601e-05
2.17921052631579e+01 1.48644536718972e-03 2.73736327327812e-05
2.18878947368421e+01 1.45963288445774e-03 2.69388797887940e-05
2.19836842105263e+01 1.43330404491889e-03 2.65107777554274e-05
2.20794736842105e+01 1.40745012474051e-03 2.60892312753198e-05
2.21752631578947e+01 1.38206255721639e-03 2.56741461891938e-05
2.22710526315789e+01 1.35713293028458e-03 2.52654294650362e-05
2.23668421052632e+01 1.33265298361961e-03 2.48629892530507e-05
2.24626315789474e+01 1.30861460600161e-03 2.44667349250068e-05
2.25584210526316e+01 1.28500983230691e-03 2.40765770100474e-05
2.26542105263158e+01 1.26183084119460e-03 2.36924271282821e-05
2.27500000000000e+01 1.23906995240493e-03 2.33141980404120e-05
2.28457894736842e+01 1.21671962431140e-03 2.29418036830023e-05
2.29415789473684e+01 1.19477245112774e-03 2.25751591082466e-05
2.30373684210526e+01 1.17322116075180e-03 2.22141804217203e-05
2.31331578947368e+01 1.15205861225554e-03 2.18587848271897e-05
2.32289473684210e+01 1.13127779360738e-03 2.15088906582193e-05
2.33247368421053e+01 1.11087181907986e-03 2.11644173216684e-05
2.34205263157895e+01 1.09083392724037e-03 2.08252852393610e-05
2.35163157894737e+01 1.07115747861900e-03 2.04914158885422e-05
2.36121052631579e+01 1.05183595358948e-03 2.01627318301868e-05
2.37078947368421e+01 1.03286294996284e-03 1.98391566560163e-05
2.38036842105263e+01 1.01423218111522e-03 1.95206149143053e-05
2.38994736842105e+01 9.95937473896562e-04 1.92070322249522e-05
2.39952631578947e+01 9.77972766355115e-04 1.88983352067463e-05
2.40910526315789e+01 9.60332105961727e-04 1.85944514254556e-05
2.41868421052632e+01 9.43009647558792e-04 1.82953094275226e-05
2.42826315789474e+01 9.25999651492894e-04 1.80008387632695e-05
2.43784210526316e+01 9.09296481502483e-04 1.77109699397078e-05
2.44742105263158e+01 8.92894603063439e-04 1.74256343719243e-05
2.45700000000000e+01 8.76788581483279e-04 1.71447644134896e-05
2.46657894736842e+01 8.60973080163867e-04 1.68682933772099e-05
2.47615789473684e+01 8.45442858640443e-04 1.65961554909068e-05
2.48573684210526e+01 8.30192771040321e-04 1.63282858519014e-05
2.49531578947368e+01 8.15217764312000e-04 1.60646204544514e-05
2.50489473684211e+01 8.00512876608932e-04 1.58050962082965e-05
2.51447368421053e+01 7.86073235468971e-04 1.55496508972318e-05
2.52405263157895e+01 7.71894056378557e-04 1.52982231365027e-05
2.53363157894737e+01 7.57970641127156e-04 1.50507523975539e-05
2.54321052631579e+01 7.44298376303677e-04 1.48071790245913e-05
2.55278947368421e+01 7.30872731606212e-04 1.45674441957831e-05
2.56236842105263e+01 7.17689258504570e-04 1.43314898700511e-05
2.57194736842105e+01 7.04743588760888e-04 1.40992588629672e-05
2.58152631578947e+01 6.92031432831022e-04 1.38706947946397e-05
2.59110526315789e+01 6.79548578596304e-04 1.36457420518501e-05
2.60068421052632e+01 6.67290889916148e-04 1.34243458086258e-05
2.61026315789474e+01 6.55254305303236e-04 1.32064520397331e-05
2.61984210526316e+01 6.43434836439216e-04 1.29920074861719e-05
2.62942105263158e+01 6.31828566993444e-04 1.27809596197498e-05
2.63900000000000e+01 6.20431651277975e-04 1.25732566616245e-05
2.64857894736842e+01 6.09240313015125e-04 1.23688475943256e-05
2.65815789473684e+01 5.98250843959256e-04 1.21676821294525e-05
2.66773684210526e+01 5.87459602796602e-04 1.19697106745340e-05
2.67731578947368e+01 5.76863013895365e-04 1.17748843497366e-05
2.68689473684211e+01 5.66457566159254e-04 1.15831549985635e-05
2.69647368421053e+01 5.56239811747709e-04 1.13944751576214e-05
2.70605263157895e+01 5.46206365051303e-04 1.12087980256235e-05
2.71563157894737e+01 5.36353901530208e-04 1.10260774784389e-05
2.72521052631579e+01 5.26679156647713e-04 1.08462680786042e-05
2.73478947368421e+01 5.17178924681832e-04 1.06693250470314e-05
2.74436842105263e+01 5.07850057771128e-04 1.04952042249032e-05
2.75394736842105e+01 4.98689464868147e-04 1.03238621238563e-05
2.76352631578947e+01 4.89694110615308e-04 1.01552558886882e-05
2.77310526315789e+01 4.80861014440292e-04 9.98934326983899e-06
2.78268421052632e+01 4.72187249534267e-04 9.82608263586124e-06
2.79226315789474e+01 4.63669941912309e-04 9.66543298109701e-06
2.80184210526316e+01 4.55306269369494e-04 9.50735390054410e-06
2.81142105263158e+01 4.47093460638529e-04 9.35180556412701e-06
2.82100000000000e+01 4.39028794440188e-04 9.19874872791533e-06
2.83057894736842e+01 4.31109598609312e-04 9.04814474092297e-06
2.84015789473684e+01 4.23333249125351e-04 8.89995552159759e-06
2.84973684210526e+01 4.15697169327993e-04 8.75414353376765e-06
2.85931578947368e+01 4.08198829034690e-04 8.61067179672891e-06
2.86889473684211e+01 4.00835743727674e-04 8.46950389125798e-06
2.87847368421053e+01 3.93605473653611e-04 8.33060393762273e-06
2.88805263157895e+01 3.86505623093263e-04 8.19393657309826e-06
2.89763157894737e+01 3.79533839541360e-04 8.05946696103138e-06
2.90721052631579e+01 3.72687812950375e-04 7.92716079615121e-06
2.91678947368421e+01 3.65965274894339e-04 7.79698428400387e-06
2.92636842105263e+01 3.59363997888850e-04 7.66890411368956e-06
2.93594736842105e+01 3.52881794650671e-04 7.54288749111003e-06
2.94552631578947e+01 3.46516517306691e-04 7.41890211230241e-06
2.95510526315789e+01 3.40266056749345e-04 7.29691614349355e-06
2.96468421052632e+01 3.34128341915102e-04 7.17689822857735e-06
2.97426315789474e+01 3.28101339118286e-04 7.05881749333684e-06
2.98384210526316e+01 3.22183051316365e-04 6.94264352719157e-06
2.99342105263158e+01 3.16371517509848e-04 6.82834636455845e-06
3.00300000000000e+01 3.10664812071717e-04 6.71589649155889e-06
3.01257894736842e+01 3.05061044127782e-04 6.60526484972608e-06
3.02215789473684e+01 2.99558356874276e-04 6.49642281894014e-06
