Energy (eV)          EEDF (eV^-(3/2))     First Anisotropy
8.82926829268293e-03 3.70567954441440e-01 2.15970101588266e-04
2.64878048780488e-02 3.67457401438833e-01 3.56329161096595e-04
4.41463414634146e-02 3.64372958465063e-01 4.69603802951934e-04
6.18048780487805e-02 3.61314406352935e-01 5.55179481297825e-04
7.94634146341464e-02 3.58281527778203e-01 6.26154559817462e-04
9.71219512195122e-02 3.55274107231272e-01 6.87492469707165e-04
1.14780487804878e-01 3.52291931001521e-01 7.41767258528825e-04
1.32439024390244e-01 3.49334787221559e-01 7.90536547463039e-04
1.50097560975610e-01 3.46402465741860e-01 8.34835494288930e-04
1.67756097560976e-01 3.43494758224496e-01 8.75397211632127e-04
1.85414634146341e-01 3.40611458040884e-01 9.12765481697466e-04
2.03073170731707e-01 3.37752360330994e-01 9.47358137107157e-04
2.20731707317073e-01 3.34917261924750e-01 9.79505307060649e-04
2.38390243902439e-01 3.32105961371995e-01 1.00947378324893e-03
2.56048780487805e-01 3.29318258925524e-01 1.03748324920687e-03
2.73707317073171e-01 3.26553956491005e-01 1.06371746803005e-03
2.91365853658537e-01 3.23812857658519e-01 1.08833223820912e-03
3.09024390243902e-01 3.21094767647185e-01 1.11146119485473e-03
3.26682926829268e-01 3.18399493320820e-01 1.13322012753682e-03
3.44341463414634e-01 3.15726843172754e-01 1.15371026768561e-03
3.62000000000000e-01 3.13076627287175e-01 1.17302081945969e-03
3.79658536585366e-01 3.10448657357924e-01 1.19123094636747e-03
3.97317073170732e-01 3.07842746645092e-01 1.20841134866534e-03
4.14975609756098e-01 3.05258709989726e-01 1.22462553020955e-03
4.32634146341463e-01 3.02696363774490e-01 1.23993082855792e-03
4.50292682926829e-01 3.00155525929614e-01 1.25437925595779e-03
4.67951219512195e-01 2.97636015919214e-01 1.26801820183928e-03
4.85609756097561e-01 2.95137654711654e-01 1.28089101251284e-03
5.03268292682927e-01 2.92660264788658e-01 1.29303748107022e-03
5.20926829268293e-01 2.90203670112049e-01 1.30449426231008e-03
5.38585365853659e-01 2.87767696126286e-01 1.31529522276073e-03
5.56243902439024e-01 2.85352169745555e-01 1.32547174644992e-03
5.73902439024390e-01 2.82956919327929e-01 1.33505299267185e-03
5.91560975609756e-01 2.80581774680822e-01 1.34406612166401e-03
6.09219512195122e-01 2.78226567032076e-01 1.35253649071752e-03
6.26878048780488e-01 2.75891129034015e-01 1.36048782520834e-03
6.44536585365854e-01 2.73575294736214e-01 1.36794236950324e-03
6.62195121951220e-01 2.71278899584974e-01 1.37492101717015e-03
6.79853658536585e-01 2.69001780411270e-01 1.38144343117165e-03
6.97512195121951e-01 2.66743775408895e-01 1.38752814574968e-03
7.15170731707317e-01 2.64504724136394e-01 1.39319265934306e-03
7.32829268292683e-01 2.62284467492775e-01 1.39845351783683e-03
7.50487804878049e-01 2.60082847715676e-01 1.40332638667579e-03
7.68146341463415e-01 2.57899708369897e-01 1.40782612024495e-03
7.85804878048781e-01 2.55734894327558e-01 1.41196682002404e-03
8.03463414634146e-01 2.53588251768511e-01 1.41576188913368e-03
8.21121951219512e-01 2.51459628158397e-01 1.41922408194224e-03
8.38780487804878e-01 2.49348872245922e-01 1.42236554685187e-03
8.56439024390244e-01 2.47255834051882e-01 1.42519786940327e-03
8.74097560975610e-01 2.45180364851018e-01 1.42773210758313e-03
8.91756097560976e-01 2.43122317171293e-01 1.42997882594296e-03
9.09414634146342e-01 2.41081544773894e-01 1.43194812663294e-03
9.27073170731707e-01 2.39057902652047e-01 1.43364967767617e-03
9.44731707317073e-01 2.37051247011803e-01 1.43509273950522e-03
9.62390243902439e-01 2.35061435268404e-01 1.43628618743236e-03
9.80048780487805e-01 2.33088326035986e-01 1.43723853603492e-03
9.97707317073171e-01 2.31131779111406e-01 1.43795795989928e-03
1.01536585365854e+00 2.29191655462750e-01 1.43845230520240e-03
1.03302439024390e+00 2.27267817253722e-01 1.43872911939694e-03
1.05068292682927e+00 2.25360127765408e-01 1.43879566311763e-03
1.06834146341463e+00 2.23468451445425e-01 1.43865891284311e-03
1.08600000000000e+00 2.21592653896564e-01 1.43832559567449e-03
1.10365853658537e+00 2.19732601814843e-01 1.43780218927768e-03
1.12131707317073e+00 2.17888163049098e-01 1.43709493681521e-03
1.13897560975610e+00 2.16059206524611e-01 1.43620986214439e-03
1.15663414634146e+00 2.14245602283405e-01 1.43515276779784e-03
1.17429268292683e+00 2.12447221473574e-01 1.43392926351073e-03
1.19195121951220e+00 2.10663936294218e-01 1.43254476644515e-03
1.20960975609756e+00 2.08895620032549e-01 1.43100450106474e-03
1.22726829268293e+00 2.07142147053612e-01 1.42931352507073e-03
1.24492682926829e+00 2.05403392748495e-01 1.42747672844789e-03
1.26258536585366e+00 2.03679233568568e-01 1.42549883225471e-03
1.28024390243902e+00 2.01969547015563e-01 1.42338441238763e-03
1.29790243902439e+00 2.00274211592778e-01 1.42113789775314e-03
1.31556097560976e+00 1.98593106836735e-01 1.41876356825222e-03
1.33321951219512e+00 1.96926113307580e-01 1.41626557669899e-03
1.35087804878049e+00 1.95273112543053e-01 1.41364794634626e-03
1.36853658536585e+00 1.93633987087784e-01 1.41091456827361e-03
1.38619512195122e+00 1.92008620484018e-01 1.40806922171775e-03
1.40385365853659e+00 1.90396897228105e-01 1.40511557112344e-03
1.42151219512195e+00 1.88798702797675e-01 1.40205716309353e-03
1.43917073170732e+00 1.87213923642646e-01 1.39889744533680e-03
1.45682926829268e+00 1.85642447144059e-01 1.39563976337521e-03
1.47448780487805e+00 1.84084161639298e-01 1.39228735717660e-03
1.49214634146341e+00 1.82538956413389e-01 1.38884337888809e-03
1.50980487804878e+00 1.81006721659984e-01 1.38531088929550e-03
1.52746341463415e+00 1.79487348504824e-01 1.38169285423687e-03
1.54512195121951e+00 1.77980728997273e-01 1.37799216125810e-03
1.56278048780488e+00 1.76486756073327e-01 1.37421161589707e-03
1.58043902439024e+00 1.75005323577453e-01 1.37035393795300e-03
1.59809756097561e+00 1.73536326254360e-01 1.36642177717683e-03
1.61575609756098e+00 1.72079659713876e-01 1.36241770944108e-03
1.63341463414634e+00 1.70635220451303e-01 1.35834423291938e-03
1.65107317073171e+00 1.69202905839417e-01 1.35420378290688e-03
1.66873170731707e+00 1.67782614095082e-01 1.34999872792296e-03
1.68639024390244e+00 1.66374244298243e-01 1.34573136584338e-03
1.70404878048781e+00 1.64977696384138e-01 1.34140393793140e-03
1.72170731707317e+00 1.63592871111544e-01 1.33701862491036e-03
1.73936585365854e+00 1.62219670080508e-01 1.33257754308095e-03
1.75702439024390e+00 1.60857995724764e-01 1.32808275763234e-03
1.77468292682927e+00 1.59507751281507e-01 1.32353627871318e-03
1.79234146341463e+00 1.58168840807951e-01 1.31894005755953e-03
1.81000000000000e+00 1.56841169173960e-01 1.31429599914565e-03
1.82765853658537e+00 1.55524642033236e-01 1.30960595656177e-03
1.84531707317073e+00 1.54219165845797e-01 1.30487173404296e-03
1.86297560975610e+00 1.52924647842776e-01 1.30009509042682e-03
1.88063414634146e+00 1.51640996041073e-01 1.29527773354667e-03
1.89829268292683e+00 1.50368119236328e-01 1.29042133181881e-03
1.91595121951220e+00 1.49105926976418e-01 1.28552751044837e-03
1.93360975609756e+00 1.47854329575172e-01 1.28059784769833e-03
1.95126829268293e+00 1.46613238105543e-01 1.27563388594554e-03
1.96892682926829e+00 1.45382564374286e-01 1.27063712794742e-03
1.98658536585366e+00 1.44162220934801e-01 1.26560903316806e-03
2.00424390243902e+00 1.42952121080500e-01 1.26055102833989e-03
2.02190243902439e+00 1.41752178820595e-01 1.25546450379892e-03
2.03956097560976e+00 1.40562308892135e-01 1.25035080987600e-03
2.05721951219512e+00 1.39382426753552e-01 1.24521126699691e-03
2.07487804878049e+00 1.38212448561509e-01 1.24004716209240e-03
2.09253658536585e+00 1.37052291182172e-01 1.23485974506065e-03
2.11019512195122e+00 1.35901872184945e-01 1.22965023843473e-03
2.12785365853659e+00 1.34761109820303e-01 1.22441983387185e-03
2.14551219512195e+00 1.33629923030364e-01 1.21916968869152e-03
2.16317073170732e+00 1.32508231442799e-01 1.21390093513685e-03
2.18082926829268e+00 1.31395955349600e-01 1.20861467694614e-03
2.19848780487805e+00 1.30293015717000e-01 1.20331198596970e-03
2.21614634146342e+00 1.29199334179549e-01 1.19799391104936e-03
2.23380487804878e+00 1.28114833019764e-01 1.19266147467280e-03
2.25146341463415e+00 1.27039435177452e-01 1.18731566967313e-03
2.26912195121951e+00 1.25973064243934e-01 1.18195746774814e-03
2.28678048780488e+00 1.24915644442540e-01 1.17658781619683e-03
2.30443902439024e+00 1.23867100637368e-01 1.17120763470437e-03
2.32209756097561e+00 1.22827358327653e-01 1.16581782352074e-03
2.33975609756098e+00 1.21796343629068e-01 1.16041926027989e-03
2.35741463414634e+00 1.20773983281947e-01 1.15501279687034e-03
2.37507317073171e+00 1.19760204645806e-01 1.14959926729160e-03
2.39273170731707e+00 1.18754935681397e-01 1.14417948455619e-03
2.41039024390244e+00 1.17758104958442e-01 1.13875423764566e-03
2.42804878048781e+00 1.16769641650289e-01 1.13332429906135e-03
2.44570731707317e+00 1.15789475516690e-01 1.12789042180924e-03
2.46336585365854e+00 1.14817536911070e-01 1.12245333644042e-03
2.48102439024390e+00 1.13853756775323e-01 1.11701375831192e-03
2.49868292682927e+00 1.12898066623271e-01 1.11157238465384e-03
2.51634146341463e+00 1.11950398547501e-01 1.10612989169317e-03
2.53400000000000e+00 1.11010685214297e-01 1.10068694163903e-03
2.55165853658537e+00 1.10078859847744e-01 1.09524417880369e-03
2.56931707317073e+00 1.09154856239712e-01 1.08980223092664e-03
2.58697560975610e+00 1.08238608730688e-01 1.08436171075257e-03
2.60463414634146e+00 1.07330052215890e-01 1.07892321221456e-03
2.62229268292683e+00 1.06429122140418e-01 1.07348731695689e-03
2.63995121951220e+00 1.05535754484429e-01 1.06805459163475e-03
2.65760975609756e+00 1.04649885768888e-01 1.06262558526623e-03
2.67526829268293e+00 1.03771453050846e-01 1.05720083551473e-03
2.69292682926829e+00 1.02900393909182e-01 1.05178086606771e-03
2.71058536585366e+00 1.02036646450010e-01 1.04636618406398e-03
2.72824390243902e+00 1.01180149302086e-01 1.04095728614680e-03
2.74590243902439e+00 1.00330841603084e-01 1.03555465591969e-03
2.76356097560976e+00 9.94886630046827e-02 1.03015876144754e-03
2.78121951219512e+00 9.86535536680996e-02 1.02477006109099e-03
2.79887804878049e+00 9.78254542508738e-02 1.01938900103748e-03
2.81653658536585e+00 9.70043059116579e-02 1.01401601287447e-03
2.83419512195122e+00 9.61900503058638e-02 1.00865151921462e-03
2.85185365853659e+00 9.53826295729410e-02 1.00329593130033e-03
2.86951219512195e+00 9.45819863408830e-02 9.97949646647574e-04
2.88717073170732e+00 9.37880637219890e-02 9.92613054470772e-04
2.90482926829268e+00 9.30008053006098e-02 9.87286533359075e-04
2.92248780487805e+00 9.22201551373891e-02 9.81970448989094e-04
2.94014634146341e+00 9.14460577651358e-02 9.76665159358166e-04
2.95780487804878e+00 9.06784581770175e-02 9.71371012529810e-04
2.97546341463415e+00 8.99173018305540e-02 9.66088344414492e-04
2.99312195121951e+00 8.91625346435946e-02 9.60817483819489e-04
3.01078048780488e+00 8.84141029829408e-02 9.55558750260620e-04
3.02843902439024e+00 8.76719536681070e-02 9.50312451809932e-04
3.04609756097561e+00 8.69360339673989e-02 9.45078889969708e-04
3.06375609756098e+00 8.62062915869483e-02 9.39858357548705e-04
3.08141463414634e+00 8.54826746742531e-02 9.34651136574913e-04
3.09907317073171e+00 8.47651318143558e-02 9.29457503000945e-04
3.11673170731707e+00 8.40536120192711e-02 9.24277724642974e-04
3.13439024390244e+00 8.33480647313191e-02 9.19112059156705e-04
3.15204878048781e+00 8.26484398194006e-02 9.13960758580953e-04
3.16970731707317e+00 8.19546875688014e-02 9.08824067337721e-04
3.18736585365854e+00 8.12667586843307e-02 9.03702220269474e-04
3.20502439024390e+00 8.05846042866899e-02 8.98595447027339e-04
3.22268292682927e+00 7.99081759026390e-02 8.93503970130593e-04
3.24034146341463e+00 7.92374254679498e-02 8.88428003063525e-04
3.25800000000000e+00 7.85723053238678e-02 8.83367754514364e-04
3.27565853658537e+00 7.79127682076238e-02 8.78323425850679e-04
3.29331707317073e+00 7.72587672571723e-02 8.73295211847048e-04
3.31097560975610e+00 7.66102559998926e-02 8.68283301565777e-04
3.32863414634146e+00 7.59671883552325e-02 8.63287875875729e-04
3.34629268292683e+00 7.53295186313209e-02 8.58309111439748e-04
3.36395121951220e+00 7.46972015160468e-02 8.53347178933365e-04
3.38160975609756e+00 7.40701920795468e-02 8.48402241297857e-04
3.39926829268293e+00 7.34484457709049e-02 8.43474457594352e-04
3.41692682926829e+00 7.28319184095390e-02 8.38563981276557e-04
3.43458536585366e+00 7.22205661875401e-02 8.33670958495633e-04
3.45224390243902e+00 7.16143456664580e-02 8.28795531825882e-04
3.46990243902439e+00 7.10132137689820e-02 8.23937838589986e-04
3.48756097560976e+00 7.04171277811412e-02 8.19098009214116e-04
3.50521951219512e+00 6.98260453491727e-02 8.14276170830203e-04
3.52287804878049e+00 6.92399244714861e-02 8.09472445651928e-04
3.54053658536585e+00 6.86587235007314e-02 8.04686949378737e-04
3.55819512195122e+00 6.80824011407484e-02 7.99919794679222e-04
3.57585365853659e+00 6.75109164388032e-02 7.95171089616181e-04
3.59351219512195e+00 6.69442287875321e-02 7.90440936098278e-04
3.61117073170732e+00 6.63822979219693e-02 7.85729433248849e-04
3.62882926829268e+00 6.58250839120449e-02 7.81036675878662e-04
3.64648780487805e+00 6.52725471644117e-02 7.76362752983614e-04
3.66414634146342e+00 6.47246484195491e-02 7.71707751003432e-04
3.68180487804878e+00 6.41813487445128e-02 7.67071752340279e-04
3.69946341463415e+00 6.36426095346513e-02 7.62454833901519e-04
3.71712195121951e+00 6.31083925107828e-02 7.57857070252237e-04
3.73478048780488e+00 6.25786597121881e-02 7.53278532177963e-04
3.75243902439024e+00 6.20533734982221e-02 7.48719285271442e-04
3.77009756097561e+00 6.15324965455630e-02 7.44179392982829e-04
3.78775609756098e+00 6.10159918414374e-02 7.39658915225113e-04
3.80541463414634e+00 6.05038226851348e-02 7.35157907003586e-04
3.82307317073171e+00 5.99959526853250e-02 7.30676421367337e-04
3.84073170731707e+00 5.94923457535083e-02 7.26214508056040e-04
3.85839024390244e+00 5.89929661054371e-02 7.21772212170926e-04
3.87604878048781e+00 5.84977782585010e-02 7.17349577031082e-04
3.89370731707317e+00 5.80067470253928e-02 7.12946642860425e-04
3.91136585365854e+00 5.75198375154425e-02 7.08563445498686e-04
3.92902439024390e+00 5.70370151320683e-02 7.04200019165984e-04
3.94668292682927e+00 5.65582455666509e-02 6.99856395188742e-04
3.96434146341463e+00 5.60834947997841e-02 6.95532600749541e-04
3.98200000000000e+00 5.56127290987907e-02 6.91228661563256e-04
3.99965853658537e+00 5.51459150117960e-02 6.86944600229340e-04
4.01731707317073e+00 5.46830193700372e-02 6.82680436667871e-04
4.03497560975610e+00 5.42240092808880e-02 6.78436188650673e-04
4.05263414634146e+00 5.37688521289696e-02 6.74211870181490e-04
4.07029268292683e+00 5.33175155737705e-02 6.70007494023264e-04
4.08795121951220e+00 5.28699675440491e-02 6.65823070526876e-04
4.10560975609756e+00 5.24261762388732e-02 6.61658606481894e-04
4.12326829268293e+00 5.19861101253012e-02 6.57514107563691e-04
4.14092682926829e+00 5.15497379329641e-02 6.53389577197338e-04
4.15858536585366e+00 5.11170286550389e-02 6.49285015442192e-04
4.17624390243903e+00 5.06879515459881e-02 6.45200421361791e-04
4.19390243902439e+00 5.02624761163164e-02 6.41135791921683e-04
4.21156097560976e+00 4.98405721334796e-02 6.37091120906836e-04
4.22921951219512e+00 4.94222096196828e-02 6.33066401216949e-04
4.24687804878049e+00 4.90073588468040e-02 6.29061623797302e-04
4.26453658536585e+00 4.85959903372436e-02 6.25076776587974e-04
4.28219512195122e+00 4.81880748617782e-02 6.21111846746952e-04
4.29985365853659e+00 4.77835834346460e-02 6.17166819612988e-04
4.31751219512195e+00 4.73824873143399e-02 6.13241677685756e-04
4.33517073170732e+00 4.69847580015159e-02 6.09336402779327e-04
4.35282926829268e+00 4.65903672342345e-02 6.05450975015952e-04
4.37048780487805e+00 4.61992869886998e-02 6.01585371836142e-04
4.38814634146341e+00 4.58114894772216e-02 5.97739570084897e-04
4.40580487804878e+00 4.54269471436072e-02 5.93913545035299e-04
4.42346341463415e+00 4.50456326638500e-02 5.90107269427992e-04
4.44112195121951e+00 4.46675189441434e-02 5.86320715492360e-04
4.45878048780488e+00 4.42925791164173e-02 5.82553853998702e-04
4.47643902439024e+00 4.39207865389801e-02 5.78806653326386e-04
4.49409756097561e+00 4.35521147945818e-02 5.75079081422148e-04
4.51175609756098e+00 4.31865376860914e-02 5.71371104880077e-04
4.52941463414634e+00 4.28240292370938e-02 5.67682688037418e-04
4.54707317073171e+00 4.24645636900019e-02 5.64013794872261e-04
4.56473170731707e+00 4.21081155018688e-02 5.60364388110352e-04
4.58239024390244e+00 4.17546593449435e-02 5.56734428347730e-04
4.60004878048781e+00 4.14041701048292e-02 5.53123875889788e-04
4.61770731707317e+00 4.10566228764274e-02 5.49532689884144e-04
4.63536585365854e+00 4.07119929644527e-02 5.45960827469327e-04
4.65302439024390e+00 4.03702558816381e-02 5.42408245557061e-04
4.67068292682927e+00 4.00313873448048e-02 5.38874899990473e-04
4.68834146341463e+00 3.96953632753400e-02 5.35360744718021e-04
4.70600000000000e+00 3.93621597974464e-02 5.31865733520823e-04
4.72365853658537e+00 3.90317532343347e-02 5.28389818927627e-04
4.74131707317073e+00 3.87041201093462e-02 5.24932952487001e-04
4.75897560975610e+00 3.83792371415171e-02 5.21495085099881e-04
4.77663414634146e+00 3.80570812459915e-02 5.18076165952468e-04
4.79429268292683e+00 3.77376295323452e-02 5.14676144151627e-04
4.81195121951220e+00 3.74208593009766e-02 5.11294967949577e-04
4.82960975609756e+00 3.71067480434877e-02 5.07932583982958e-04
4.84726829268293e+00 3.67952734410497e-02 5.04588938858268e-04
4.86492682926829e+00 3.64864133609059e-02 5.01263978399458e-04
4.88258536585366e+00 3.61801458567210e-02 4.97957646909084e-04
4.90024390243902e+00 3.58764491669889e-02 4.94669888705281e-04
4.91790243902439e+00 3.55753017116423e-02 4.91400647391512e-04
4.93556097560976e+00 3.52766820923733e-02 4.88149865139238e-04
4.95321951219512e+00 3.49805690910818e-02 4.84917484178017e-04
4.97087804878049e+00 3.46869416665882e-02 4.81703446086775e-04
4.98853658536585e+00 3.43957789549271e-02 4.78507691097165e-04
5.00619512195122e+00 3.41070602678351e-02 4.75330159538520e-04
5.02385365853659e+00 3.38207650895633e-02 4.72170791149820e-04
5.04151219512195e+00 3.35368730771457e-02 4.69029524403245e-04
5.05917073170732e+00 3.32553640589250e-02 4.65906297905307e-04
5.07682926829268e+00 3.29762180314623e-02 4.62801049728971e-04
5.09448780487805e+00 3.26994151597808e-02 4.59713716756887e-04
5.11214634146341e+00 3.24249357759295e-02 4.56644236039948e-04
5.12980487804878e+00 3.21527603759858e-02 4.53592544149032e-04
5.14746341463415e+00 3.18828696202774e-02 4.50558576537215e-04
5.16512195121951e+00 3.16152443319814e-02 4.47542268857350e-04
5.18278048780488e+00 3.13498654942180e-02 4.44543556332540e-04
5.20043902439024e+00 3.10867142502508e-02 4.41562373136990e-04
5.21809756097561e+00 3.08257719021211e-02 4.38598653673906e-04
5.23575609756098e+00 3.05670199078296e-02 4.35652331963997e-04
5.25341463414634e+00 3.03104398815162e-02 4.32723341044509e-04
5.27107317073171e+00 3.00560135921292e-02 4.29811614208621e-04
5.28873170731707e+00 2.98037229606908e-02 4.26917084411578e-04
5.30639024390244e+00 2.95535500604593e-02 4.24039683687247e-04
5.32404878048781e+00 2.93054771156303e-02 4.21179344350242e-04
5.34170731707317e+00 2.90594864986857e-02 4.18335998419207e-04
5.35936585365854e+00 2.88155607305368e-02 4.15509577050339e-04
5.37702439024390e+00 2.85736824792592e-02 4.12700011703422e-04
5.39468292682927e+00 2.83338345575202e-02 4.09907233581696e-04
5.41234146341463e+00 2.80959999227063e-02 4.07131173081886e-04
5.43000000000000e+00 2.78601616756885e-02 4.04371760925357e-04
5.44765853658537e+00 2.76263030583279e-02 4.01628927437475e-04
5.46531707317073e+00 2.73944074540041e-02 3.98902602721360e-04
5.48297560975610e+00 2.71644583847374e-02 3.96192716870919e-04
5.50063414634146e+00 2.69364395112860e-02 3.93499199261786e-04
5.51829268292683e+00 2.67103346319637e-02 3.90821979624042e-04
5.53595121951220e+00 2.64861276802705e-02 3.88160987525454e-04
5.55360975609756e+00 2.62638027249759e-02 3.85516151864045e-04
5.57126829268293e+00 2.60433439689667e-02 3.82887401908868e-04
