Energy (eV)          EEDF (eV^-(3/2))     First Anisotropy
1.52000000000000e-01 1.17901431669596e-01 1.91513915281883e-04
4.56000000000000e-01 1.10033212515314e-01 3.06722691135987e-04
7.60000000000000e-01 1.02690083445034e-01 3.80444859680108e-04
1.06400000000000e+00 9.58370022731122e-02 4.23310554527261e-04
1.36800000000000e+00 8.94412653741069e-02 4.49337653057100e-04
1.67200000000000e+00 8.34723516176359e-02 4.64327905173446e-04
1.97600000000000e+00 7.79017767183262e-02 4.71509094240327e-04
2.28000000000000e+00 7.27029573058028e-02 4.72944241070443e-04
2.58400000000000e+00 6.78510840660446e-02 4.70061269456245e-04
2.88800000000000e+00 6.33230033487234e-02 4.63899919784038e-04
3.19200000000000e+00 5.90971066755453e-02 4.55243675583963e-04
3.49600000000000e+00 5.51532276223154e-02 4.44697284788384e-04
3.80000000000000e+00 5.14725455826364e-02 4.32735630662795e-04
4.10400000000000e+00 4.80374959539922e-02 4.19736253302401e-04
4.40800000000000e+00 4.48316863176134e-02 4.06001936791347e-04
4.71200000000000e+00 4.18398182121284e-02 3.91776947133625e-04
5.01600000000000e+00 3.90476141276932e-02 3.77259039966979e-04
5.32000000000000e+00 3.64417493722104e-02 3.62608550063019e-04
5.62400000000000e+00 3.40097884844942e-02 3.47955407431051e-04
5.92800000000000e+00 3.17401258909398e-02 3.33404642590730e-04
6.23200000000000e+00 2.96219305225030e-02 3.19040766685399e-04
6.53600000000000e+00 2.76450941276973e-02 3.04931297652304e-04
6.84000000000000e+00 2.58001830349532e-02 2.91129627504437e-04
7.14400000000000e+00 2.40783931341431e-02 2.77677373824048e-04
7.44800000000000e+00 2.24715078624403e-02 2.64606322330921e-04
7.75200000000000e+00 2.09718589940153e-02 2.51940041605175e-04
8.05600000000000e+00 1.95722900464544e-02 2.39695232365427e-04
8.36000000000000e+00 1.82661221292711e-02 2.27882859947978e-04
8.66400000000000e+00 1.70471220715376e-02 2.16509108351342e-04
8.96800000000000e+00 1.59094726765358e-02 2.05576186420349e-04
9.27200000000000e+00 1.48477449614819e-02 1.95083010767451e-04
9.57600000000000e+00 1.38568722498484e-02 1.85025785390841e-04
9.88000000000000e+00 1.29321259926501e-02 1.75398494311690e-04
1.01840000000000e+01 1.20690932033097e-02 1.66193320672429e-04
1.04880000000000e+01 1.12636553984212e-02 1.57401003436749e-04
1.07920000000000e+01 1.05119689439129e-02 1.49011140978057e-04
1.10960000000000e+01 9.81044671282109e-03 1.41012449338290e-04
1.14000000000000e+01 9.15574096714141e-03 1.33392981708889e-04
1.17040000000000e+01 8.54472738207108e-03 1.26140314673666e-04
1.20080000000000e+01 7.97449013640139e-03 1.19241705915689e-04
1.23120000000000e+01 7.44230799791175e-03 1.12684227393221e-04
1.26160000000000e+01 6.94564133736276e-03 1.06454877406633e-04
1.29200000000000e+01 6.48212000911796e-03 1.00540674488259e-04
1.32240000000000e+01 6.04953204055905e-03 9.49287356335315e-05
1.35280000000000e+01 5.64581307631951e-03 8.96063410413351e-05
1.38320000000000e+01 5.26903652696328e-03 8.45609872334815e-05
1.41360000000000e+01 4.91740437509698e-03 7.97804301688849e-05
1.44400000000000e+01 4.58923859504142e-03 7.52527197503646e-05
1.47440000000000e+01 4.28297314511630e-03 7.09662269351650e-05
1.50480000000000e+01 3.99714649432426e-03 6.69096644995136e-05
1.53520000000000e+01 3.73039464777099e-03 6.30721023688606e-05
1.56560000000000e+01 3.48144463753785e-03 5.94429783055765e-05
1.59600000000000e+01 3.24910844794488e-03 5.60121046420763e-05
1.62640000000000e+01 3.03227734621473e-03 5.27696716572766e-05
1.65680000000000e+01 2.82991659148307e-03 4.97062481160433e-05
1.68720000000000e+01 2.64106049690617e-03 4.68127794231978e-05
1.71760000000000e+01 2.46480782130146e-03 4.40805837843391e-05
1.74800000000000e+01 2.30031746832972e-03 4.15013467140149e-05
1.77840000000000e+01 2.14680447269471e-03 3.90671141866243e-05
1.80880000000000e+01 2.00353625420602e-03 3.67702846860014e-05
1.83920000000000e+01 1.86982912182927e-03 3.46036003751563e-05
1.86960000000000e+01 1.74504501104041e-03 3.25601375775073e-05
1.90000000000000e+01 1.62858843891462e-03 3.06332967345745e-05
1.93040000000000e+01 1.51990366241903e-03 2.88167919820348e-05
1.96080000000000e+01 1.41847202634838e-03 2.71046404658549e-05
1.99120000000000e+01 1.32380948824779e-03 2.54911515025631e-05
2.02160000000000e+01 1.23546430851113e-03 2.39709156722770e-05
2.05200000000000e+01 1.15301489463201e-03 2.25387939196036e-05
2.08240000000000e+01 1.07606778931995e-03 2.11899067257309e-05
2.11280000000000e+01 1.00425579288069e-03 1.99196234047317e-05
2.14320000000000e+01 9.37236210900611e-04 1.87235515681142e-05
2.17360000000000e+01 8.74689218872840e-04 1.75975267938286e-05
2.20400000000000e+01 8.16316335961022e-04 1.65376025291261e-05
2.23440000000000e+01 7.61839000617320e-04 1.55400402507525e-05
2.26480000000000e+01 7.10997241257353e-04 1.46012999008264e-05
2.29520000000000e+01 6.63548435648404e-04 1.37180306123144e-05
2.32560000000000e+01 6.19266153090564e-04 1.28870617341879e-05
2.35600000000000e+01 5.77939073865569e-04 1.21053941630501e-05
2.38640000000000e+01 5.39369980796841e-04 1.13701919851942e-05
2.41680000000000e+01 5.03374818108343e-04 1.06787744306468e-05
2.44720000000000e+01 4.69781813091018e-04 1.00286081386981e-05
2.47760000000000e+01 4.38430656385324e-04 9.41729973268701e-06
2.50800000000000e+01 4.09171736968081e-04 8.84258870035974e-06
2.53840000000000e+01 3.81865428192901e-04 8.30234057490770e-06
2.56880000000000e+01 3.56381421477122e-04 7.79454041079563e-06
2.59920000000000e+01 3.32598104455519e-04 7.31728654767944e-06
2.62960000000000e+01 3.10401980633286e-04 6.86878465506519e-06
2.66000000000000e+01 2.89687127768800e-04 6.44734204985261e-06
2.69040000000000e+01 2.70354692401528e-04 6.05136227852077e-06
2.72080000000000e+01 2.52312418112895e-04 5.67933995543483e-06
2.75120000000000e+01 2.35474205268931e-04 5.32985584856290e-06
2.78160000000000e+01 2.19759700143752e-04 5.00157220378249e-06
2.81200000000000e+01 2.05093911463107e-04 4.69322829891317e-06
2.84240000000000e+01 1.91406852538121e-04 4.40363621862555e-06
2.87280000000000e+01 1.78633207281438e-04 4.13167684143983e-06
2.90320000000000e+01 1.66712018511970e-04 3.87629603012976e-06
2.93360000000000e+01 1.55586397060808e-04 3.63650101698564e-06
2.96400000000000e+01 1.45203250290112e-04 3.41135697555485e-06
2.99440000000000e+01 1.35513028729451e-04 3.19998377066687e-06
3.02480000000000e+01 1.26469489620505e-04 3.00155287875648e-06
3.05520000000000e+01 1.18029476241755e-04 2.81528447071958e-06
3.08560000000000e+01 1.10152711960058e-04 2.64044464976840e-06
3.11600000000000e+01 1.02801608026310e-04 2.47634283699302e-06
3.14640000000000e+01 9.59410841979731e-05 2.32232929758196e-06
3.17680000000000e+01 8.95384013324659e-05 2.17779280090348e-06
3.20720000000000e+01 8.35630051525215e-05 2.04215840789935e-06
3.23760000000000e+01 7.79863804379590e-05 1.91488537949368e-06
3.26800000000000e+01 7.27819149480475e-05 1.79546519996740e-06
3.29840000000000e+01 6.79247724250896e-05 1.68341970949489e-06
3.32880000000000e+01 6.33917740731824e-05 1.57829934028172e-06
3.35920000000000e+01 5.91612879465618e-05 1.47968145097943e-06
3.38960000000000e+01 5.52131257196773e-05 1.38716875428603e-06
3.42000000000000e+01 5.15284463463756e-05 1.30038783286735e-06
3.45040000000000e+01 4.80896661484433e-05 1.21898773895495e-06
3.48080000000000e+01 4.48803749044414e-05 1.14263867318997e-06
3.51120000000000e+01 4.18852575383998e-05 1.07103073848998e-06
3.54160000000000e+01 3.90900210346609e-05 1.00387276491592e-06
3.57200000000000e+01 3.64813262301026e-05 9.40891201709814e-07
3.60240000000000e+01 3.40467241582470e-05 8.81829072860056e-07
3.63280000000000e+01 3.17745966414801e-05 8.26444992730791e-07
3.66320000000000e+01 2.96541008478845e-05 7.74512238463676e-07
3.69360000000000e+01 2.76751175481024e-05 7.25817876026100e-07
3.72400000000000e+01 2.58282028253076e-05 6.80161936938297e-07
3.75440000000000e+01 2.41045430078387e-05 6.37356642863618e-07
3.78480000000000e+01 2.24959126094298e-05 5.97225675391508e-07
3.81520000000000e+01 2.09946350763228e-05 5.59603488481570e-07
3.84560000000000e+01 1.95935461539444e-05 5.24334661169655e-07
3.87600000000000e+01 1.82859596983284e-05 4.91273288263491e-07
3.90640000000000e+01 1.70656357691319e-05 4.60282406875968e-07
3.93680000000000e+01 1.59267508519828e-05 4.31233456759185e-07
3.96720000000000e+01 1.48638700680553e-05 4.04005772511836e-07
3.99760000000000e+01 1.38719212382559e-05 3.78486105836648e-07
4.02800000000000e+01 1.29461706782500e-05 3.54568176123707e-07
4.05840000000000e+01 1.20822006088216e-05 3.32152247729652e-07
4.08880000000000e+01 1.12758880737652e-05 3.11144732412175e-07
4.11920000000000e+01 1.05233852647048e-05 2.91457815464262e-07
4.14960000000000e+01 9.82110115894651e-06 2.73009104173188e-07
4.18000000000000e+01 9.16568438273993e-06 2.55721297305800e-07
4.21040000000000e+01 8.55400721816963e-06 2.39521874394128e-07
4.24080000000000e+01 7.98315067735564e-06 2.24342803664146e-07
4.27120000000000e+01 7.45039057273565e-06 2.10120267515603e-07
4.30160000000000e+01 6.95318451695503e-06 1.96794404522560e-07
4.33200000000000e+01 6.48915979032640e-06 1.84309066982688e-07
4.36240000000000e+01 6.05610201796136e-06 1.72611593098641e-07
4.39280000000000e+01 5.65194460254012e-06 1.61652592927143e-07
4.42320000000000e+01 5.27475886229137e-06 1.51385747280905e-07
4.45360000000000e+01 4.92274482711968e-06 1.41767618815250e-07
4.48400000000000e+01 4.59422264895850e-06 1.32757474575582e-07
4.51440000000000e+01 4.28762458535820e-06 1.24317119323592e-07
4.54480000000000e+01 4.00148751805393e-06 1.16410738999596e-07
4.57520000000000e+01 3.73444597081106e-06 1.09004753715710e-07
4.60560000000000e+01 3.48522559322876e-06 1.02067679709750e-07
4.63600000000000e+01 3.25263707940556e-06 9.55699997230367e-08
4.66640000000000e+01 3.03557049244632e-06 8.94840412966261e-08
4.69680000000000e+01 2.83298996772638e-06 8.37838625101441e-08
4.72720000000000e+01 2.64392876963645e-06 7.84451447153078e-08
4.75760000000000e+01 2.46748467821841e-06 7.34450918425990e-08
4.78800000000000e+01 2.30281568367661e-06 6.87623358843988e-08
4.81840000000000e+01 2.14913596821840e-06 6.43768481813313e-08
4.84880000000000e+01 2.00571215604880e-06 6.02698561606587e-08
4.87920000000000e+01 1.87185981362401e-06 5.64237651964009e-08
4.90960000000000e+01 1.74694018346232e-06 5.28220852804746e-08
4.94000000000000e+01 1.63035713592619e-06 4.94493622126394e-08
4.97040000000000e+01 1.52155432442875e-06 4.62911130344597e-08
5.00080000000000e+01 1.42001253048930e-06 4.33337654489091e-08
5.03120000000000e+01 1.32524718596798e-06 4.05646009826894e-08
5.06160000000000e+01 1.23680606065560e-06 3.79717016628946e-08
5.09200000000000e+01 1.15426710418337e-06 3.55438999933561e-08
5.12240000000000e+01 1.07723643195411e-06 3.32707320288994e-08
5.15280000000000e+01 1.00534644548345e-06 3.11423933578876e-08
5.18320000000000e+01 9.38254078181105e-07 2.91496978148559e-08
5.21360000000000e+01 8.75639158200980e-07 2.72840387557926e-08
5.24400000000000e+01 8.17202880547375e-07 2.55373527387401e-08
5.27440000000000e+01 7.62666381146065e-07 2.39020854619129e-08
5.30480000000000e+01 7.11769406075551e-07 2.23711598204782e-08
5.33520000000000e+01 6.64269069607928e-07 2.09379459515723e-08
5.36560000000000e+01 6.19938695132600e-07 1.95962331450454e-08
5.39600000000000e+01 5.78566733431606e-07 1.83402035048749e-08
5.42640000000000e+01 5.39955753144464e-07 1.71644072531952e-08
5.45680000000000e+01 5.03921498604915e-07 1.60637395754738e-08
5.48720000000000e+01 4.70292010553470e-07 1.50334189115554e-08
5.51760000000000e+01 4.38906805529706e-07 1.40689666031156e-08
5.54800000000000e+01 4.09616110028280e-07 1.31661878135348e-08
5.57840000000000e+01 3.82280145763982e-07 1.23211536413429e-08
5.60880000000000e+01 3.56768462635032e-07 1.15301843532162e-08
5.63920000000000e+01 3.32959316201445e-07 1.07898336670490e-08
5.66960000000000e+01 3.10739086707738e-07 1.00968740198834e-08
5.70000000000000e+01 2.90001736877486e-07 9.44828275949174e-09
5.73040000000000e+01 2.70648305892265e-07 8.84122920216783e-09
5.76080000000000e+01 2.52586437140196e-07 8.27306250281927e-09
5.79120000000000e+01 2.35729937480469e-07 7.74130028677496e-09
5.82160000000000e+01 2.19998365920585e-07 7.24361799584074e-09
5.85200000000000e+01 2.05316649743470e-07 6.77783890406533e-09
5.88240000000000e+01 1.91614726252557e-07 6.34192476142943e-09
5.91280000000000e+01 1.78827208425216e-07 5.93396702625423e-09
5.94320000000000e+01 1.66893072878989e-07 5.55217864955089e-09
5.97360000000000e+01 1.55755368661584e-07 5.19488637680895e-09
6.00400000000000e+01 1.45360945474929e-07 4.86052353486007e-09
6.03440000000000e+01 1.35660200036346e-07 4.54762327345976e-09
6.06480000000000e+01 1.26606839366461e-07 4.25481223311334e-09
6.09520000000000e+01 1.18157659874233e-07 3.98080461244107e-09
6.12560000000000e+01 1.10272341184859e-07 3.72439661003600e-09
6.15600000000000e+01 1.02913253726698e-07 3.48446121732608e-09
6.18640000000000e+01 9.60452791589949e-08 3.25994334041360e-09
6.21680000000000e+01 8.96356427834541e-08 3.04985523023626e-09
6.24720000000000e+01 8.36537571399264e-08 2.85327220168124e-09
6.27760000000000e+01 7.80710760398266e-08 2.66932862349144e-09
6.30800000000000e+01 7.28609583407140e-08 2.49721416193594e-09
6.33840000000000e+01 6.79985408119534e-08 2.33617026227935e-09
6.36880000000000e+01 6.34606194847585e-08 2.18548685308249e-09
6.39920000000000e+01 5.92255389204081e-08 2.04449925930202e-09
6.42960000000000e+01 5.52730888682110e-08 1.91258531103411e-09
6.46000000000000e+01 5.15844078200597e-08 1.78916263557061e-09
6.49040000000000e+01 4.81418930013267e-08 1.67368612120809e-09
6.52080000000000e+01 4.49291163685692e-08 1.56564554197426e-09
6.55120000000000e+01 4.19307462131745e-08 1.46456333311544e-09
6.58160000000000e+01 3.91324739968314e-08 1.36999250782575e-09
6.61200000000000e+01 3.65209460696776e-08 1.28151470629583e-09
6.64240000000000e+01 3.40836999452756e-08 1.19873836871911e-09
6.67280000000000e+01 3.18091048283141e-08 1.12129702441891e-09
6.70320000000000e+01 2.96863061112274e-08 1.04884768975190e-09
6.73360000000000e+01 2.77051735748643e-08 9.81069367905556e-10
6.76400000000000e+01 2.58562530460151e-08 9.17661644139861e-10
6.79440000000000e+01 2.41307212811006e-08 8.58343370429588e-10
6.82480000000000e+01 2.25203438607243e-08 8.02851433843956e-10
6.85520000000000e+01 2.10174358941555e-08 7.50939603357217e-10
6.88560000000000e+01 1.96148253462204e-08 7.02377450118163e-10
6.91600000000000e+01 1.83058188115953e-08 6.56949336520000e-10
6.94640000000000e+01 1.70841695731708e-08 6.14453469705899e-10
6.97680000000000e+01 1.59440477920593e-08 5.74701015420999e-10
7.00720000000000e+01 1.48800126869901e-08 5.37515268379765e-10
7.03760000000000e+01 1.38869865703274e-08 5.02730875559572e-10
7.06800000000000e+01 1.29602306168102e-08 4.70193109058226e-10
7.09840000000000e+01 1.20953222493788e-08 4.39757185365620e-10
7.12880000000000e+01 1.12881340341707e-08 4.11287628098896e-10
7.15920000000000e+01 1.05348139839721e-08 3.84657671437221e-10
7.18960000000000e+01 9.83176717612801e-09 3.59748701667144e-10
7.22000000000000e+01 9.17563859719353e-09 3.36449734413444e-10
7.25040000000000e+01 8.56329713245555e-09 3.14656925283974e-10
7.28080000000000e+01 7.99182062392369e-09 2.94273111800943e-10
7.31120000000000e+01 7.45848192548438e-09 2.75207384625904e-10
7.34160000000000e+01 6.96073588867232e-09 2.57374686212114e-10
7.37200000000000e+01 6.49620721695376e-09 2.40695435136266e-10
7.40240000000000e+01 6.06267913056121e-09 2.25095174472556e-10
7.43280000000000e+01 5.65808278778679e-09 2.10504242675929e-10
7.46320000000000e+01 5.28048741225164e-09 1.96857465538711e-10
7.49360000000000e+01 4.92809107903755e-09 1.84093867876053e-10
7.52400000000000e+01 4.59921211571144e-09 1.72156403681013e-10
7.55440000000000e+01 4.29228107720728e-09 1.60991703570170e-10
7.58480000000000e+01 4.00583325626889e-09 1.50549838415616e-10
7.61520000000000e+01 3.73850169371257e-09 1.40784098129426e-10
7.64560000000000e+01 3.48901065515383e-09 1.31650784632451e-10
7.67600000000000e+01 3.25616954306853e-09 1.23109018100925e-10
7.70640000000000e+01 3.03886721513599e-09 1.15120555642097e-10
7.73680000000000e+01 2.83606668175080e-09 1.07649621604102e-10
7.76720000000000e+01 2.64680015739913e-09 1.00662748775995e-10
7.79760000000000e+01 2.47016444228429e-09 9.41286297812101e-11
7.82800000000000e+01 2.30531661216218e-09 8.80179780121723e-11
7.85840000000000e+01 2.15146999581790e-09 8.23033974953505e-11
7.88880000000000e+01 2.00789042098788e-09 7.69592611149975e-11
7.91920000000000e+01 1.87389271081247e-09 7.19615966603058e-11
7.94960000000000e+01 1.74883741409975e-09 6.72879801948586e-11
7.98000000000000e+01 1.63212775379709e-09 6.29174362792437e-11
8.01040000000000e+01 1.52320677910817e-09 5.88303446076588e-11
8.04080000000000e+01 1.42155470766507e-09 5.50083526473798e-11
8.07120000000000e+01 1.32668644507210e-09 5.14342938962302e-11
8.10160000000000e+01 1.23814926998415e-09 4.80921113977841e-11
8.13200000000000e+01 1.15552067367279e-09 4.49667861770613e-11
8.16240000000000e+01 1.07840634377011e-09 4.20442702810399e-11
8.19280000000000e+01 1.00643828256847e-09 3.93114241284914e-11
8.22320000000000e+01 9.39273050896763e-10 3.67559578925532e-11
8.25360000000000e+01 8.76590129192441e-10 3.43663766571458e-11
8.28400000000000e+01 8.18090387948410e-10 3.21319291049131e-11
8.31440000000000e+01 7.63494660235505e-10 3.00425595098776e-11
8.34480000000000e+01 7.12542409488485e-10 2.80888628225219e-11
8.37520000000000e+01 6.64990486198093e-10 2.62620426486056e-11
8.40560000000000e+01 6.20611967575976e-10 2.45538719357581e-11
8.43600000000000e+01 5.79195074655233e-10 2.29566561937978e-11
8.46640000000000e+01 5.40542161658868e-10 2.14631990858889e-11
8.49680000000000e+01 5.04468772813315e-10 2.00667702380854e-11
8.52720000000000e+01 4.70802762106053e-10 1.87610751245872e-11
8.55760000000000e+01 4.39383471786696e-10 1.75402268951875e-11
8.58800000000000e+01 4.10060965691281e-10 1.63987200199501e-11
8.61840000000000e+01 3.82695313731092e-10 1.53314056341787e-11
8.64880000000000e+01 3.57155924131535e-10 1.43334684742402e-11
8.67920000000000e+01 3.33320920234427e-10 1.34004053018328e-11
8.70960000000000e+01 3.11076558889747e-10 1.25280047208621e-11
8.74000000000000e+01 2.90316687661333e-10 1.17123282972447e-11
8.77040000000000e+01 2.70942238256275e-10 1.09496928977173e-11
8.80080000000000e+01 2.52860753760582e-10 1.02366541691218e-11
8.83120000000000e+01 2.35985947425046e-10 9.56999108468398e-12
8.86160000000000e+01 2.20237290895784e-10 8.94669148852365e-12
8.89200000000000e+01 2.05539629924448e-10 8.36393857405583e-12
8.92240000000000e+01 1.91822825724233e-10 7.81909823607998e-12
8.95280000000000e+01 1.79021420260194e-10 7.30970724022406e-12
8.98320000000000e+01 1.67074323876610e-10 6.83346215703496e-12
9.01360000000000e+01 1.55924523770707e-10 6.38820901139744e-12
9.04400000000000e+01 1.45518811921558e-10 5.97193360113629e-12
9.07440000000000e+01 1.35807531175798e-10 5.58275244162738e-12
9.10480000000000e+01 1.26744338278458e-10 5.21890429602122e-12
9.13520000000000e+01 1.18285982718071e-10 4.87874225328431e-12
9.16560000000000e+01 1.10392100330668e-10 4.56072631869652e-12
9.19600000000000e+01 1.03025020677742e-10 4.26341648372051e-12
9.22640000000000e+01 9.61495872789410e-11 3.98546624429043e-12
9.25680000000000e+01 8.97329898416412e-11 3.72561653856095e-12
9.28720000000000e+01 8.37446076867733e-11 3.48269007702393e-12
9.31760000000000e+01 7.81558636237157e-11 3.25558603964618e-12
9.34800000000000e+01 7.29400875769294e-11 3.04327511631538e-12
9.37840000000000e+01 6.80723893135480e-11 2.84479486841031e-12
9.40880000000000e+01 6.35295396645631e-11 2.65924539074168e-12
9.43920000000000e+01 5.92898596727827e-11 2.48578525444852e-12
9.46960000000000e+01 5.53331171385632e-11 2.32362771268728e-12
9.50000000000000e+01 5.16404300696207e-11 2.17203715212250e-12
9.53040000000000e+01 4.81941765741743e-11 2.03032577432461e-12
9.56080000000000e+01 4.49779107674219e-11 1.89785049220550e-12
9.59120000000000e+01 4.19762842900450e-11 1.77401002758286e-12
