Energy (eV)          EEDF (eV^-(3/2))     First Anisotropy
1.98076923076923e-03 6.84033597803393e+00 4.79218993154818e-03
5.94230769230769e-03 6.75043482267496e+00 7.88778360521215e-03
9.90384615384615e-03 6.66171522006481e+00 1.03454742285844e-02
1.38653846153846e-02 6.57416164112683e+00 1.21721523697389e-02
1.78269230769231e-02 6.48775876154028e+00 1.36625164053533e-02
2.17884615384615e-02 6.40249145739734e+00 1.49290533379537e-02
2.57500000000000e-02 6.31834480408637e+00 1.60305033552597e-02
2.97115384615385e-02 6.23530407344792e+00 1.70026505099797e-02
3.36730769230769e-02 6.15335473027903e+00 1.78694323451327e-02
3.76346153846154e-02 6.07248243070619e+00 1.86479109076010e-02
4.15961538461538e-02 5.99267301957651e+00 1.93508216438545e-02
4.55576923076923e-02 5.91391252736488e+00 1.99880104338514e-02
4.95192307692308e-02 5.83618716850288e+00 2.05673029985381e-02
5.34807692307692e-02 5.75948333829363e+00 2.10950603885296e-02
5.74423076923077e-02 5.68378761099559e+00 2.15765496771181e-02
6.14038461538462e-02 5.60908673744142e+00 2.20162004507486e-02
6.53653846153846e-02 5.53536764235158e+00 2.24177875433024e-02
6.93269230769231e-02 5.46261742251233e+00 2.27845646466008e-02
7.32884615384615e-02 5.39082334409479e+00 2.31193641474618e-02
7.72500000000000e-02 5.31997284072767e+00 2.34246731184523e-02
8.12115384615385e-02 5.25005351127977e+00 2.37026922223632e-02
8.51730769230769e-02 5.18105311743927e+00 2.39553819540548e-02
8.91346153846154e-02 5.11295958182281e+00 2.41844994615615e-02
9.30961538461538e-02 5.04576098584750e+00 2.43916282694659e-02
9.70576923076923e-02 4.97944556743332e+00 2.45782024377949e-02
1.01019230769231e-01 4.91400171921835e+00 2.47455264555072e-02
1.04980769230769e-01 4.84941798627145e+00 2.48947917303848e-02
1.08942307692308e-01 4.78568306453653e+00 2.50270904748236e-02
1.12903846153846e-01 4.72278579773265e+00 2.51434272242207e-02
1.16865384615385e-01 4.66071517723822e+00 2.52447287988936e-02
1.20826923076923e-01 4.59946033812536e+00 2.53318527330667e-02
1.24788461538462e-01 4.53901055920974e+00 2.54055945142264e-02
1.28750000000000e-01 4.47935525930444e+00 2.54666938640070e-02
1.32711538461538e-01 4.42048399716049e+00 2.55158401691472e-02
1.36673076923077e-01 4.36238646791922e+00 2.55536772455897e-02
1.40634615384615e-01 4.30505250296036e+00 2.55808074922383e-02
1.44596153846154e-01 4.24847206653494e+00 2.55977955711089e-02
1.48557692307692e-01 4.19263525553501e+00 2.56051716387374e-02
1.52519230769231e-01 4.13753229629165e+00 2.56034342352840e-02
1.56480769230769e-01 4.08315354427824e+00 2.55930528038578e-02
1.60442307692308e-01 4.02948948136815e+00 2.55744701231065e-02
1.64403846153846e-01 3.97653071424498e+00 2.55481041540906e-02
1.68365384615385e-01 3.92426797364192e+00 2.55143500200604e-02
1.72326923076923e-01 3.87269211154118e+00 2.54735816447531e-02
1.76288461538462e-01 3.82179410071121e+00 2.54261532490492e-02
1.80250000000000e-01 3.77156503202612e+00 2.53724007248239e-02
1.84211538461538e-01 3.72199611397058e+00 2.53126428671418e-02
1.88173076923077e-01 3.67307867007138e+00 2.52471825130245e-02
1.92134615384615e-01 3.62480413837524e+00 2.51763075655310e-02
1.96096153846154e-01 3.57716406898544e+00 2.51002919463462e-02
2.00057692307692e-01 3.53015012351717e+00 2.50193964542491e-02
2.04019230769231e-01 3.48375407273277e+00 2.49338695686596e-02
2.07980769230769e-01 3.43796779597872e+00 2.48439481510251e-02
2.11942307692308e-01 3.39278327910925e+00 2.47498582240321e-02
2.15903846153846e-01 3.34819261312306e+00 2.46518154456432e-02
2.19865384615385e-01 3.30418799334583e+00 2.45500257842418e-02
2.23826923076923e-01 3.26076171730890e+00 2.44446860345962e-02
2.27788461538462e-01 3.21790618413450e+00 2.43359843087364e-02
2.31750000000000e-01 3.17561389249296e+00 2.42241005044561e-02
2.35711538461538e-01 3.13387743998184e+00 2.41092067296662e-02
2.39673076923077e-01 3.09268952115769e+00 2.39914677096644e-02
2.43634615384615e-01 3.05204292691111e+00 2.38710411559827e-02
2.47596153846154e-01 3.01193054256929e+00 2.37480781223354e-02
2.51557692307692e-01 2.97234534726882e+00 2.36227233268427e-02
2.55519230769231e-01 2.93328041212561e+00 2.34951154646793e-02
2.59480769230769e-01 2.89472889960697e+00 2.33653874728377e-02
2.63442307692308e-01 2.85668406189792e+00 2.32336668785241e-02
2.67403846153846e-01 2.81913923974314e+00 2.31000759404642e-02
2.71365384615385e-01 2.78208786166685e+00 2.29647319616879e-02
2.75326923076923e-01 2.74552344230925e+00 2.28277475002779e-02
2.79288461538462e-01 2.70943958179138e+00 2.26892305774288e-02
2.83250000000000e-01 2.67382996410780e+00 2.25492848828267e-02
2.87211538461538e-01 2.63868835649572e+00 2.24080099598391e-02
2.91173076923077e-01 2.60400860788152e+00 2.22655013892806e-02
2.95134615384615e-01 2.56978464825493e+00 2.21218509548116e-02
2.99096153846154e-01 2.53601048716707e+00 2.19771468079225e-02
3.03057692307692e-01 2.50268021311048e+00 2.18314736161251e-02
3.07019230769231e-01 2.46978799206648e+00 2.16849127115515e-02
3.10980769230769e-01 2.43732806689160e+00 2.15375422102386e-02
3.14942307692308e-01 2.40529475600533e+00 2.13894372021329e-02
3.18903846153846e-01 2.37368245241020e+00 2.12406697880174e-02
3.22865384615385e-01 2.34248562298249e+00 2.10913092536869e-02
3.26826923076923e-01 2.31169880714143e+00 2.09414221706305e-02
3.30788461538462e-01 2.28131661624709e+00 2.07910724992935e-02
3.34750000000000e-01 2.25133373231192e+00 2.06403216943382e-02
3.38711538461538e-01 2.22174490740702e+00 2.04892287982825e-02
3.42673076923077e-01 2.19254496241442e+00 2.03378505374514e-02
3.46634615384615e-01 2.16372878644200e+00 2.01862414070811e-02
3.50596153846154e-01 2.13529133561498e+00 2.00344537589770e-02
3.54557692307692e-01 2.10722763249970e+00 1.98825378790237e-02
3.58519230769231e-01 2.07953276493288e+00 1.97305420674367e-02
3.62480769230769e-01 2.05220188545445e+00 1.95785126986605e-02
3.66442307692308e-01 2.02523021024037e+00 1.94264943384885e-02
3.70403846153846e-01 1.99861301827490e+00 1.92745297439172e-02
3.74365384615385e-01 1.97234565072157e+00 1.91226599718457e-02
3.78326923076923e-01 1.94642350984510e+00 1.89709244321834e-02
3.82288461538462e-01 1.92084205846340e+00 1.88193609446184e-02
3.86250000000000e-01 1.89559681890234e+00 1.86680057983638e-02
3.90211538461538e-01 1.87068337245754e+00 1.85168938042734e-02
3.94173076923077e-01 1.84609735838083e+00 1.83660583499855e-02
3.98134615384615e-01 1.82183447335179e+00 1.82155314478359e-02
4.02096153846154e-01 1.79789047049488e+00 1.80653437858274e-02
4.06057692307692e-01 1.77426115886071e+00 1.79155247717453e-02
4.10019230769231e-01 1.75094240247276e+00 1.77661025803347e-02
4.13980769230769e-01 1.72793011981840e+00 1.76171041854343e-02
4.17942307692308e-01 1.70522028297377e+00 1.74685554379789e-02
4.21903846153846e-01 1.68280891690548e+00 1.73204810524722e-02
4.25865384615385e-01 1.66069209892063e+00 1.71729046799270e-02
4.29826923076923e-01 1.63886595778610e+00 1.70258489376968e-02
4.33788461538462e-01 1.61732667324099e+00 1.68793354428782e-02
4.37750000000000e-01 1.59607047514189e+00 1.67333848486352e-02
4.41711538461538e-01 1.57509364298510e+00 1.65880168751161e-02
4.45673076923077e-01 1.55439250507717e+00 1.64432503432615e-02
4.49634615384615e-01 1.53396343806670e+00 1.62991032034492e-02
4.53596153846154e-01 1.51380286613934e+00 1.61555925669927e-02
4.57557692307692e-01 1.49390726055912e+00 1.60127347327055e-02
4.61519230769231e-01 1.47427313888705e+00 1.58705452162782e-02
4.65480769230769e-01 1.45489706453195e+00 1.57290387681534e-02
4.69442307692308e-01 1.43577564602903e+00 1.55882294281673e-02
4.73403846153846e-01 1.41690553645093e+00 1.54481305078989e-02
4.77365384615385e-01 1.39828343293142e+00 1.53087546419952e-02
4.81326923076923e-01 1.37990607594154e+00 1.51701138055831e-02
4.85288461538462e-01 1.36177024886182e+00 1.50322193348316e-02
4.89250000000000e-01 1.34387277727943e+00 1.48950819500943e-02
4.93211538461538e-01 1.32621052856955e+00 1.47587117750478e-02
4.97173076923077e-01 1.30878041121283e+00 1.46231183583556e-02
5.01134615384615e-01 1.29157937438580e+00 1.44883106914868e-02
5.05096153846154e-01 1.27460440729797e+00 1.43542972290128e-02
5.09057692307692e-01 1.25785253879117e+00 1.42210859052105e-02
5.13019230769231e-01 1.24132083669568e+00 1.40886841530868e-02
5.16980769230769e-01 1.22500640743836e+00 1.39570989144412e-02
5.20942307692308e-01 1.20890639544542e+00 1.38263366794584e-02
5.24903846153846e-01 1.19301798264606e+00 1.36964034687414e-02
5.28865384615385e-01 1.17733838806230e+00 1.35673048706078e-02
5.32826923076923e-01 1.16186486721157e+00 1.34390460514459e-02
5.36788461538462e-01 1.14659471173484e+00 1.33116317687489e-02
5.40750000000000e-01 1.13152524881620e+00 1.31850663863414e-02
5.44711538461539e-01 1.11665384081926e+00 1.30593538865512e-02
5.48673076923077e-01 1.10197788472332e+00 1.29344978845175e-02
5.52634615384615e-01 1.08749481176793e+00 1.28105016395620e-02
5.56596153846154e-01 1.07320208690499e+00 1.26873680686413e-02
5.60557692307692e-01 1.05909720845145e+00 1.25650997569712e-02
5.64519230769231e-01 1.04517770755687e+00 1.24436989706819e-02
5.68480769230769e-01 1.03144114786401e+00 1.23231676623971e-02
5.72442307692308e-01 1.01788512501305e+00 1.22035075006067e-02
5.76403846153846e-01 1.00450726622326e+00 1.20847198529298e-02
5.80365384615385e-01 9.91305229941451e-01 1.19668058138292e-02
5.84326923076923e-01 9.78276705347244e-01 1.18497662107788e-02
5.88288461538462e-01 9.65419412031848e-01 1.17336016126719e-02
5.92250000000000e-01 9.52731099517267e-01 1.16183123400552e-02
5.96211538461539e-01 9.40209546942472e-01 1.15038984729931e-02
6.00173076923077e-01 9.27852562596121e-01 1.13903598607103e-02
6.04134615384615e-01 9.15657983609999e-01 1.12776961289494e-02
6.08096153846154e-01 9.03623675504837e-01 1.11659066890580e-02
6.12057692307692e-01 8.91747531890888e-01 1.10549907448722e-02
6.16019230769231e-01 8.80027474026456e-01 1.09449473012844e-02
6.19980769230769e-01 8.68461450525456e-01 1.08357751671757e-02
6.23942307692308e-01 8.57047436944950e-01 1.07274729775746e-02
6.27903846153846e-01 8.45783435432663e-01 1.06200391787030e-02
6.31865384615385e-01 8.34667474426563e-01 1.05134720489063e-02
6.35826923076923e-01 8.23697608244198e-01 1.04077697022568e-02
6.39788461538462e-01 8.12871916806488e-01 1.03029300940181e-02
6.43750000000000e-01 8.02188505238491e-01 1.01989510276169e-02
6.47711538461539e-01 7.91645503599720e-01 1.00958301597540e-02
6.51673076923077e-01 7.81241066496004e-01 9.99356500698458e-03
6.55634615384615e-01 7.70973372816198e-01 9.89215295049937e-03
6.59596153846154e-01 7.60840625354810e-01 9.79159124233479e-03
6.63557692307692e-01 7.50841050554967e-01 9.69187700984498e-03
6.67519230769231e-01 7.40972898141507e-01 9.59300726156287e-03
6.71480769230769e-01 7.31234440870057e-01 9.49497888854585e-03
6.75442307692308e-01 7.21623974183250e-01 9.39778868130006e-03
6.79403846153846e-01 7.12139815913776e-01 9.30143331671716e-03
6.83365384615385e-01 7.02780306028284e-01 9.20590937406890e-03
6.87326923076923e-01 6.93543806285797e-01 9.11121333701274e-03
6.91288461538462e-01 6.84428700001061e-01 9.01734159713348e-03
6.95250000000000e-01 6.75433391712385e-01 8.92429045872833e-03
6.99211538461538e-01 6.66556306950672e-01 8.83205614211628e-03
7.03173076923077e-01 6.57795891916421e-01 8.74063478815532e-03
7.07134615384615e-01 6.49150613254317e-01 8.65002246133449e-03
7.11096153846154e-01 6.40618957739123e-01 8.56021515403955e-03
7.15057692307692e-01 6.32199432055710e-01 8.47120878943860e-03
7.19019230769231e-01 6.23890562493593e-01 8.38299922551123e-03
7.22980769230769e-01 6.15690894732271e-01 8.29558225543853e-03
7.26942307692308e-01 6.07598993554293e-01 8.20895362064982e-03
7.30903846153846e-01 5.99613442595122e-01 8.12310899956137e-03
7.34865384615385e-01 5.91732844125224e-01 8.03804401990976e-03
7.38826923076923e-01 5.83955818765487e-01 7.95375425975138e-03
7.42788461538462e-01 5.76281005285006e-01 7.87023524972838e-03
7.46750000000000e-01 5.68707060324297e-01 7.78748247635767e-03
7.50711538461538e-01 5.61232658198000e-01 7.70549138414185e-03
7.54673076923077e-01 5.53856490625679e-01 7.62425737867397e-03
7.58634615384615e-01 5.46577266539332e-01 7.54377582860238e-03
7.62596153846154e-01 5.39393711821551e-01 7.46404206856115e-03
7.66557692307692e-01 5.32304569117735e-01 7.38505140099697e-03
7.70519230769231e-01 5.25308597581408e-01 7.30679909893541e-03
7.74480769230769e-01 5.18404572691020e-01 7.22928040580528e-03
7.78442307692308e-01 5.11591286010192e-01 7.15249054556899e-03
7.82403846153846e-01 5.04867544977017e-01 7.07642471309204e-03
7.86365384615385e-01 4.98232172718932e-01 7.00107808371840e-03
7.90326923076923e-01 4.91684007815306e-01 6.92644581363860e-03
7.94288461538462e-01 4.85221904125019e-01 6.85252304130013e-03
7.98250000000000e-01 4.78844730555523e-01 6.77930488965890e-03
8.02211538461538e-01 4.72551370894658e-01 6.70678646748556e-03
8.06173076923077e-01 4.66340723586005e-01 6.63496287148886e-03
8.10134615384615e-01 4.60211701564837e-01 6.56382918752346e-03
8.14096153846154e-01 4.54163232039589e-01 6.49338049259166e-03
8.18057692307692e-01 4.48194256331843e-01 6.42361185595845e-03
8.22019230769231e-01 4.42303729663753e-01 6.35451834103762e-03
8.25980769230769e-01 4.36490621001969e-01 6.28609500489245e-03
8.29942307692308e-01 4.30753912857130e-01 6.21833690614453e-03
8.33903846153846e-01 4.25092601106398e-01 6.15123909678248e-03
8.37865384615385e-01 4.19505694836352e-01 6.08479662963695e-03
8.41826923076923e-01 4.13992216144727e-01 6.01900455835440e-03
8.45788461538462e-01 4.08551199993636e-01 5.95385793823159e-03
8.49750000000000e-01 4.03181694016693e-01 5.88935182774191e-03
8.53711538461538e-01 3.97882758375865e-01 5.82548128929927e-03
8.57673076923077e-01 3.92653465573824e-01 5.76224139069408e-03
8.61634615384615e-01 3.87492900314353e-01 5.69962720579064e-03
8.65596153846154e-01 3.82400159319781e-01 5.63763381587771e-03
8.69557692307692e-01 3.77374351194850e-01 5.57625631030380e-03
8.73519230769231e-01 3.72414596249099e-01 5.51548978774634e-03
8.77480769230769e-01 3.67520026364111e-01 5.45532935554040e-03
8.81442307692308e-01 3.62689784825686e-01 5.39577013588009e-03
8.85403846153846e-01 3.57923026174384e-01 5.33680725887585e-03
8.89365384615385e-01 3.53218916072323e-01 5.27843586841371e-03
8.93326923076923e-01 3.48576631137467e-01 5.22065112189213e-03
8.97288461538462e-01 3.43995358818848e-01 5.16344819066927e-03
9.01250000000000e-01 3.39474297235327e-01 5.10682226107878e-03
9.05211538461538e-01 3.35012655053934e-01 5.05076853482836e-03
9.09173076923077e-01 3.30609651332977e-01 4.99528222995243e-03
9.13134615384615e-01 3.26264515403419e-01 4.94035858116707e-03
9.17096153846154e-01 3.21976486716226e-01 4.88599284076166e-03
9.21057692307692e-01 3.17744814726705e-01 4.83218027891228e-03
9.25019230769231e-01 3.13568758745965e-01 4.77891618451623e-03
9.28980769230769e-01 3.09447587828151e-01 4.72619586444483e-03
9.32942307692308e-01 3.05380580629879e-01 4.67401464842341e-03
9.36903846153846e-01 3.01367025284364e-01 4.62236788315973e-03
9.40865384615385e-01 2.97406219288585e-01 4.57125093695258e-03
9.44826923076923e-01 2.93497469364667e-01 4.52065919929434e-03
9.48788461538462e-01 2.89640091353926e-01 4.47058808105862e-03
9.52750000000000e-01 2.85833410081983e-01 4.42103301515618e-03
9.56711538461538e-01 2.82076759255469e-01 4.37198945669114e-03
9.60673076923077e-01 2.78369481330768e-01 4.32345288357267e-03
9.64634615384615e-01 2.74710927413313e-01 4.27541879664145e-03
9.68596153846154e-01 2.71100457129859e-01 4.22788272023893e-03
9.72557692307692e-01 2.67537438530309e-01 4.18084020230639e-03
9.76519230769231e-01 2.64021247963421e-01 4.13428681491377e-03
9.80480769230769e-01 2.60551269981101e-01 4.08821815349640e-03
9.84442307692308e-01 2.57126897220614e-01 4.04262984070531e-03
9.88403846153846e-01 2.53747530298582e-01 3.99751752145013e-03
9.92365384615385e-01 2.50412577715460e-01 3.95287686653322e-03
9.96326923076923e-01 2.47121455739506e-01 3.90870357218428e-03
1.00028846153846e+00 2.43873588316901e-01 3.86499335930358e-03
1.00425000000000e+00 2.40668406961730e-01 3.82174197773700e-03
1.00821153846154e+00 2.37505350653875e-01 3.77894520083367e-03
1.01217307692308e+00 2.34383865752477e-01 3.73659882648836e-03
1.01613461538462e+00 2.31303405893076e-01 3.69469867322766e-03
1.02009615384615e+00 2.28263431919076e-01 3.65324060082569e-03
1.02405769230769e+00 2.25263411705250e-01 3.61222049566923e-03
1.02801923076923e+00 2.22302820147531e-01 3.57163425559730e-03
1.03198076923077e+00 2.19381139043188e-01 3.53147781304100e-03
1.03594230769231e+00 2.16497857000098e-01 3.49174712738001e-03
1.03990384615385e+00 2.13652469347279e-01 3.45243818504417e-03
1.04386538461538e+00 2.10844478046535e-01 3.41354699305111e-03
1.04782692307692e+00 2.08073391629348e-01 3.37506959896506e-03
1.05178846153846e+00 2.05338725037953e-01 3.33700207767634e-03
1.05575000000000e+00 2.02639999614053e-01 3.29934051770745e-03
1.05971153846154e+00 1.99976742990248e-01 3.26208104197040e-03
1.06367307692308e+00 1.97348489007367e-01 3.22521980084187e-03
1.06763461538462e+00 1.94754777632878e-01 3.18875296621237e-03
1.07159615384615e+00 1.92195154902089e-01 3.15267674967240e-03
1.07555769230769e+00 1.89669172772873e-01 3.11698739039714e-03
1.07951923076923e+00 1.87176389113705e-01 3.08168114259924e-03
1.08348076923077e+00 1.84716367603903e-01 3.04675429444515e-03
1.08744230769231e+00 1.82288677657238e-01 3.01220316168728e-03
1.09140384615385e+00 1.79892894346606e-01 2.97802408765975e-03
1.09536538461538e+00 1.77528598329630e-01 2.94421343787966e-03
1.09932692307692e+00 1.75195375794575e-01 2.91076761636732e-03
1.10328846153846e+00 1.72892818329417e-01 2.87768305469719e-03
1.10725000000000e+00 1.70620522909430e-01 2.84495620065975e-03
1.11121153846154e+00 1.68378091806750e-01 2.81258353524304e-03
1.11517307692308e+00 1.66165132520769e-01 2.78056156686206e-03
1.11913461538462e+00 1.63981257709440e-01 2.74888682638713e-03
1.12309615384615e+00 1.61826085138923e-01 2.71755588202435e-03
1.12705769230769e+00 1.59699237563818e-01 2.68656532927779e-03
1.13101923076923e+00 1.57600342714518e-01 2.65591178055720e-03
1.13498076923077e+00 1.55529033214074e-01 2.62559188066245e-03
1.13894230769231e+00 1.53484946513887e-01 2.59560230147651e-03
1.14290384615385e+00 1.51467724830268e-01 2.56593974189247e-03
1.14686538461538e+00 1.49477015081808e-01 2.53660092330263e-03
1.15082692307692e+00 1.47512468843102e-01 2.50758260296107e-03
1.15478846153846e+00 1.45573742236725e-01 2.47888156490888e-03
1.15875000000000e+00 1.43660495920537e-01 2.45049461057928e-03
1.16271153846154e+00 1.41772395012298e-01 2.42241857270762e-03
1.16667307692308e+00 1.39909109031055e-01 2.39465031052098e-03
1.17063461538462e+00 1.38070311839304e-01 2.36718670558385e-03
1.17459615384615e+00 1.36255681599947e-01 2.34002467398828e-03
1.17855769230769e+00 1.34464900677406e-01 2.31316115803179e-03
1.18251923076923e+00 1.32697655624994e-01 2.28659311760281e-03
1.18648076923077e+00 1.30953637115589e-01 2.26031754287166e-03
1.19044230769231e+00 1.29232539887483e-01 2.23433144986581e-03
1.19440384615385e+00 1.27534062690966e-01 2.20863188035458e-03
1.19836538461538e+00 1.25857908235593e-01 2.18321589807909e-03
1.20232692307692e+00 1.24203783150661e-01 2.15808059970586e-03
1.20628846153846e+00 1.22571397895950e-01 2.13322310730012e-03
1.21025000000000e+00 1.20960466749321e-01 2.10864056053547e-03
1.21421153846154e+00 1.19370707743820e-01 2.08433012810107e-03
1.21817307692308e+00 1.17801842618322e-01 2.06028900368988e-03
1.22213461538462e+00 1.16253596768839e-01 2.03651440252657e-03
1.22609615384615e+00 1.14725699211775e-01 2.01300357136459e-03
1.23005769230769e+00 1.13217882502177e-01 1.98975378158160e-03
1.23401923076923e+00 1.11729882721578e-01 1.96676232203418e-03
1.23798076923077e+00 1.10261439420132e-01 1.94402650947014e-03
1.24194230769231e+00 1.08812295571029e-01 1.92154368483779e-03
1.24590384615385e+00 1.07382197525514e-01 1.89931121314697e-03
1.24986538461538e+00 1.05970894968486e-01 1.87732648031746e-03
