Energy (eV)          EEDF (eV^-(3/2))     First Anisotropy
1.05909090909091e-02 2.53664232058265e-01 1.42924798034071e-04
3.17727272727273e-02 2.51680246548486e-01 2.35879494554938e-04
5.29545454545455e-02 2.49711778395600e-01 3.11043539853470e-04
7.41363636363636e-02 2.47758706237713e-01 3.67937238901417e-04
9.53181818181818e-02 2.45820909653629e-01 4.15214626425675e-04
1.16500000000000e-01 2.43898269166581e-01 4.56152226020732e-04
1.37681818181818e-01 2.41990666241668e-01 4.92447877705408e-04
1.58863636363636e-01 2.40097983264311e-01 5.25128175463344e-04
1.80045454545455e-01 2.38220103540575e-01 5.54874838501411e-04
2.01227272727273e-01 2.36356911279873e-01 5.82170296621981e-04
2.22409090909091e-01 2.34508291617576e-01 6.07372115511494e-04
2.43590909090909e-01 2.32674130576498e-01 6.30754835963595e-04
2.64772727272727e-01 2.30854315070857e-01 6.52535208441173e-04
2.85954545454545e-01 2.29048732899642e-01 6.72888271551248e-04
3.07136363636364e-01 2.27257272733490e-01 6.91958049031770e-04
3.28318181818182e-01 2.25479824126249e-01 7.09864929573210e-04
3.49500000000000e-01 2.23716277489049e-01 7.26710911159597e-04
3.70681818181818e-01 2.21966524090145e-01 7.42583420735680e-04
3.91863636363636e-01 2.20230456048255e-01 7.57558161450453e-04
4.13045454545455e-01 2.18507966325930e-01 7.71701274227678e-04
4.34227272727273e-01 2.16798948718961e-01 7.85071004680352e-04
4.55409090909091e-01 2.15103297861960e-01 7.97719010984378e-04
4.76590909090909e-01 2.13420909209404e-01 8.09691402258392e-04
4.97772727272727e-01 2.11751679033424e-01 8.21029570516056e-04
5.18954545454545e-01 2.10095504417493e-01 8.31770868111224e-04
5.40136363636364e-01 2.08452283246981e-01 8.41949161247210e-04
5.61318181818182e-01 2.06821914212212e-01 8.51595289516682e-04
5.82500000000000e-01 2.05204296792649e-01 8.60737449194115e-04
6.03681818181818e-01 2.03599331253949e-01 8.69401513355877e-04
6.24863636363636e-01 2.02006918641830e-01 8.77611304071072e-04
6.46045454545455e-01 2.00426960775981e-01 8.85388824085435e-04
6.67227272727273e-01 1.98859360241649e-01 8.92754453934044e-04
6.88409090909091e-01 1.97304020390789e-01 8.99727123179786e-04
7.09590909090909e-01 1.95760845328812e-01 9.06324458695725e-04
7.30772727272727e-01 1.94229739911137e-01 9.12562912002491e-04
7.51954545454546e-01 1.92710609737360e-01 9.18457872034077e-04
7.73136363636364e-01 1.91203361143466e-01 9.24023762616272e-04
7.94318181818182e-01 1.89707901201992e-01 9.29274129695114e-04
8.15500000000000e-01 1.88224137710257e-01 9.34221718519395e-04
8.36681818181818e-01 1.86751979186724e-01 9.38878540669894e-04
8.57863636363636e-01 1.85291334865360e-01 9.43255934846902e-04
8.79045454545455e-01 1.83842114690052e-01 9.47364621139629e-04
9.00227272727273e-01 1.82404229307455e-01 9.51214748623109e-04
9.21409090909091e-01 1.80977590066322e-01 9.54815939342008e-04
9.42590909090909e-01 1.79562109007121e-01 9.58177327981763e-04
9.63772727272727e-01 1.78157698858277e-01 9.61307596412469e-04
9.84954545454546e-01 1.76764273030798e-01 9.64215006197530e-04
1.00613636363636e+00 1.75381745611568e-01 9.66907426243910e-04
1.02731818181818e+00 1.74010031366148e-01 9.69392362213150e-04
1.04850000000000e+00 1.72649045714776e-01 9.71676978778964e-04
1.06968181818182e+00 1.71298704745937e-01 9.73768119496968e-04
1.09086363636364e+00 1.69958925204406e-01 9.75672330217032e-04
1.11204545454545e+00 1.68629624486154e-01 9.77395874246915e-04
1.13322727272727e+00 1.67310720644852e-01 9.78944755718794e-04
1.15440909090909e+00 1.66002132351568e-01 9.80324730895278e-04
1.17559090909091e+00 1.64703778925354e-01 9.81541318225031e-04
1.19677272727273e+00 1.63415580316236e-01 9.82599818155113e-04
1.21795454545455e+00 1.62137457100386e-01 9.83505321276249e-04
1.23913636363636e+00 1.60869330485365e-01 9.84262725591530e-04
1.26031818181818e+00 1.59611122274388e-01 9.84876743127643e-04
1.28150000000000e+00 1.58362754892676e-01 9.85351905764865e-04
1.30268181818182e+00 1.57124151372158e-01 9.85692580353638e-04
1.32386363636364e+00 1.55895235346754e-01 9.85902975187755e-04
1.34504545454545e+00 1.54675931047683e-01 9.85987146167135e-04
1.36622727272727e+00 1.53466163307604e-01 9.85949009538314e-04
1.38740909090909e+00 1.52265857529244e-01 9.85792345227369e-04
1.40859090909091e+00 1.51074939707780e-01 9.85520799698225e-04
1.42977272727273e+00 1.49893336417167e-01 9.85137897462328e-04
1.45095454545455e+00 1.48720974805679e-01 9.84647043301997e-04
1.47213636363636e+00 1.47557782599245e-01 9.84051532559289e-04
1.49331818181818e+00 1.46403688073203e-01 9.83354552844479e-04
1.51450000000000e+00 1.45258620071875e-01 9.82559185417251e-04
1.53568181818182e+00 1.44122507996097e-01 9.81668414675715e-04
1.55686363636364e+00 1.42995281798882e-01 9.80685130652723e-04
1.57804545454545e+00 1.41876871981112e-01 9.79612131481735e-04
1.59922727272727e+00 1.40767209594155e-01 9.78452131657677e-04
1.62040909090909e+00 1.39666226214698e-01 9.77207762537685e-04
1.64159090909091e+00 1.38573853961622e-01 9.75881572620383e-04
1.66277272727273e+00 1.37490025484702e-01 9.74476035320720e-04
1.68395454545455e+00 1.36414673960502e-01 9.72993549025685e-04
1.70513636363636e+00 1.35347733094447e-01 9.71436444147105e-04
1.72631818181818e+00 1.34289137097932e-01 9.69806982999672e-04
1.74750000000000e+00 1.33238820703224e-01 9.68107359514371e-04
1.76868181818182e+00 1.32196719153062e-01 9.66339705963842e-04
1.78986363636364e+00 1.31162768196667e-01 9.64506093831903e-04
1.81104545454545e+00 1.30136904085794e-01 9.62608534738051e-04
1.83222727272727e+00 1.29119063576318e-01 9.60648986407232e-04
1.85340909090909e+00 1.28109183907621e-01 9.58629352073544e-04
1.87459090909091e+00 1.27107202815573e-01 9.56551479763134e-04
1.89577272727273e+00 1.26113058523011e-01 9.54417168060373e-04
1.91695454545455e+00 1.25126689735966e-01 9.52228165319118e-04
1.93813636363636e+00 1.24148035644881e-01 9.49986174939543e-04
1.95931818181818e+00 1.23177035905702e-01 9.47692854529337e-04
1.98050000000000e+00 1.22213630651436e-01 9.45349814969001e-04
2.00168181818182e+00 1.21257760483320e-01 9.42958625550610e-04
2.02286363636364e+00 1.20309366467167e-01 9.40520814123161e-04
2.04404545454545e+00 1.19368390129739e-01 9.38037867317167e-04
2.06522727272727e+00 1.18434773459624e-01 9.35511235160571e-04
2.08640909090909e+00 1.17508458890081e-01 9.32942330059970e-04
2.10759090909091e+00 1.16589389309180e-01 9.30332525706395e-04
2.12877272727273e+00 1.15677508051664e-01 9.27683161607864e-04
2.14995454545455e+00 1.14772758895488e-01 9.24995541985685e-04
2.17113636363636e+00 1.13875086062434e-01 9.22270939944716e-04
2.19231818181818e+00 1.12984434202279e-01 9.19510596370842e-04
2.21350000000000e+00 1.12100748401874e-01 9.16715718766177e-04
2.23468181818182e+00 1.11223974177554e-01 9.13887485365314e-04
2.25586363636364e+00 1.10354057471791e-01 9.11027044945495e-04
2.27704545454545e+00 1.09490944649860e-01 9.08135516719320e-04
2.29822727272727e+00 1.08634582500227e-01 9.05213994060319e-04
2.31940909090909e+00 1.07784918220090e-01 9.02263543348186e-04
2.34059090909091e+00 1.06941899423386e-01 8.99285202762066e-04
2.36177272727273e+00 1.06105474133770e-01 8.96279985977959e-04
2.38295454545455e+00 1.05275590781431e-01 8.93248880978300e-04
2.40413636363636e+00 1.04452198203292e-01 8.90192853465757e-04
2.42531818181818e+00 1.03635245629601e-01 8.87112845695421e-04
2.44650000000000e+00 1.02824682691135e-01 8.84009775262318e-04
2.46768181818182e+00 1.02020459412618e-01 8.80884538500830e-04
2.48886363636364e+00 1.01222526209648e-01 8.77738010142063e-04
2.51004545454545e+00 1.00430833885640e-01 8.74571043049056e-04
2.53122727272727e+00 9.96453336318696e-02 8.71384471309177e-04
2.55240909090909e+00 9.88659770151573e-02 8.68179109071523e-04
2.57359090909091e+00 9.80927159842576e-02 8.64955749345636e-04
2.59477272727273e+00 9.73255028637411e-02 8.61715167092161e-04
2.61595454545455e+00 9.65642903510688e-02 8.58458118048446e-04
2.63713636363636e+00 9.58090315165074e-02 8.55185341589063e-04
2.65831818181818e+00 9.50596797916590e-02 8.51897559581890e-04
2.67950000000000e+00 9.43161889752291e-02 8.48595475210164e-04
2.70068181818182e+00 9.35785132272739e-02 8.45279775838014e-04
2.72186363636364e+00 9.28466070663776e-02 8.41951132605002e-04
2.74304545454545e+00 9.21204253668512e-02 8.38610200091621e-04
2.76422727272727e+00 9.13999233585323e-02 8.35257618935223e-04
2.78540909090909e+00 9.06850566162140e-02 8.31894014717226e-04
2.80659090909091e+00 8.99757810647722e-02 8.28519996819995e-04
2.82777272727273e+00 8.92720529738027e-02 8.25136161053882e-04
2.84895454545455e+00 8.85738289549350e-02 8.21743088544348e-04
2.87013636363636e+00 8.78810659615432e-02 8.18341348167549e-04
2.89131818181818e+00 8.71937212788678e-02 8.14931495470389e-04
2.91250000000000e+00 8.65117525286574e-02 8.11514071563010e-04
2.93368181818182e+00 8.58351176641111e-02 8.08089605568613e-04
2.95486363636364e+00 8.51637749672888e-02 8.04658614201494e-04
2.97604545454545e+00 8.44976830465410e-02 8.01221601408557e-04
2.99722727272727e+00 8.38368008361409e-02 7.97779060611671e-04
3.01840909090909e+00 8.31810875871484e-02 7.94331473669314e-04
3.03959090909091e+00 8.25305028715477e-02 7.90879309813543e-04
3.06077272727273e+00 8.18850065775187e-02 7.87423027909599e-04
3.08195454545455e+00 8.12445589069718e-02 7.83963075423185e-04
3.10313636363636e+00 8.06091203751185e-02 7.80499890518201e-04
3.12431818181818e+00 7.99786518019102e-02 7.77033901056216e-04
3.14550000000000e+00 7.93531143157918e-02 7.73565523573342e-04
3.16668181818182e+00 7.87324693492322e-02 7.70095165396460e-04
3.18786363636364e+00 7.81166786363487e-02 7.66623224228442e-04
3.20904545454545e+00 7.75057042105495e-02 7.63150087789881e-04
3.23022727272727e+00 7.68995084040506e-02 7.59676135759774e-04
3.25140909090909e+00 7.62980538399357e-02 7.56201738820148e-04
3.27259090909091e+00 7.57013034355083e-02 7.52727257680033e-04
3.29377272727273e+00 7.51092203981034e-02 7.49253045035812e-04
3.31495454545455e+00 7.45217682228262e-02 7.45779444624180e-04
3.33613636363636e+00 7.39389106920269e-02 7.42306793044138e-04
3.35731818181818e+00 7.33606118678439e-02 7.38835418840031e-04
3.37850000000000e+00 7.27868360952480e-02 7.35365641565835e-04
3.39968181818182e+00 7.22175479980772e-02 7.31897773627094e-04
3.42086363636364e+00 7.16527124768570e-02 7.28432119885361e-04
3.44204545454545e+00 7.10922947066381e-02 7.24968977313030e-04
3.46322727272727e+00 7.05362601364383e-02 7.21508636685098e-04
3.48440909090909e+00 6.99845744823077e-02 7.18051381707057e-04
3.50559090909091e+00 6.94372037300523e-02 7.14597488125506e-04
3.52677272727273e+00 6.88941141315106e-02 7.11147225440167e-04
3.54795454545455e+00 6.83552722024783e-02 7.07700856041043e-04
3.56913636363636e+00 6.78206447221239e-02 7.04258636801135e-04
3.59031818181818e+00 6.72901987264623e-02 7.00820818241773e-04
3.61150000000000e+00 6.67639015108309e-02 6.97387643681428e-04
3.63268181818182e+00 6.62417206263588e-02 6.93959350848341e-04
3.65386363636364e+00 6.57236238779674e-02 6.90536171510271e-04
3.67504545454545e+00 6.52095793223869e-02 6.87118331148449e-04
3.69622727272727e+00 6.46995552675521e-02 6.83706050440656e-04
3.71740909090909e+00 6.41935202665209e-02 6.80299544469183e-04
3.73859090909091e+00 6.36914431196906e-02 6.76899021913621e-04
3.75977272727273e+00 6.31932928714781e-02 6.73504686553748e-04
3.78095454545455e+00 6.26990388084153e-02 6.70116736486875e-04
3.80213636363636e+00 6.22086504585296e-02 6.66735365526943e-04
3.82331818181818e+00 6.17220975856111e-02 6.63360762447410e-04
3.84450000000000e+00 6.12393501912279e-02 6.59993110209950e-04
3.86568181818182e+00 6.07603785115743e-02 6.56632587382851e-04
3.88686363636364e+00 6.02851530156360e-02 6.53279367797965e-04
3.90804545454546e+00 5.98136444033708e-02 6.49933620246977e-04
3.92922727272727e+00 5.93458236050800e-02 6.46595509787154e-04
3.95040909090909e+00 5.88816617760556e-02 6.43265197024026e-04
3.97159090909091e+00 5.84211302983862e-02 6.39942837380791e-04
3.99277272727273e+00 5.79642007779876e-02 6.36628582422968e-04
4.01395454545455e+00 5.75108450428563e-02 6.33322579150241e-04
4.03513636363636e+00 5.70610351424336e-02 6.30024971230313e-04
4.05631818181818e+00 5.66147433425515e-02 6.26735898313842e-04
4.07750000000000e+00 5.61719421270754e-02 6.23455495336952e-04
4.09868181818182e+00 5.57326041950817e-02 6.20183893773345e-04
4.11986363636364e+00 5.52967024591760e-02 6.16921221318762e-04
4.14104545454545e+00 5.48642100438230e-02 6.13667601610346e-04
4.16222727272727e+00 5.44351002847100e-02 6.10423155380385e-04
4.18340909090909e+00 5.40093467240205e-02 6.07187999807719e-04
4.20459090909091e+00 5.35869231119056e-02 6.03962247857630e-04
4.22577272727273e+00 5.31678034038226e-02 6.00746009453258e-04
4.24695454545455e+00 5.27519617589325e-02 5.97539390835604e-04
4.26813636363636e+00 5.23393725394620e-02 5.94342495655443e-04
4.28931818181818e+00 5.19300103062346e-02 5.91155424354167e-04
4.31050000000000e+00 5.15238498200088e-02 5.87978273533730e-04
4.33168181818182e+00 5.11208660389461e-02 5.84811137065534e-04
4.35286363636364e+00 5.07210341170679e-02 5.81654105801457e-04
4.37404545454546e+00 5.03243294027243e-02 5.78507267315879e-04
4.39522727272727e+00 4.99307274379596e-02 5.75370706928203e-04
4.41640909090909e+00 4.95402039543284e-02 5.72244507117077e-04
4.43759090909091e+00 4.91527348740925e-02 5.69128746924286e-04
4.45877272727273e+00 4.87682963078320e-02 5.66023502993571e-04
4.47995454545455e+00 4.83868645529747e-02 5.62928848992826e-04
4.50113636363636e+00 4.80084160931647e-02 5.59844856582908e-04
4.52231818181818e+00 4.76329275943023e-02 5.56771594858482e-04
4.54350000000000e+00 4.72603759056317e-02 5.53709129779280e-04
4.56468181818182e+00 4.68907380574659e-02 5.50657525154606e-04
4.58586363636364e+00 4.65239912597704e-02 5.47616842379527e-04
4.60704545454545e+00 4.61601129007593e-02 5.44587140198673e-04
4.62822727272727e+00 4.57990805462723e-02 5.41568475614675e-04
4.64940909090909e+00 4.54408719360607e-02 5.38560903359295e-04
4.67059090909091e+00 4.50854649847608e-02 5.35564475355447e-04
4.69177272727273e+00 4.47328377797441e-02 5.32579241640671e-04
4.71295454545455e+00 4.43829685797685e-02 5.29605249845510e-04
4.73413636363636e+00 4.40358358143620e-02 5.26642546055053e-04
4.75531818181818e+00 4.36914180803030e-02 5.23691174304254e-04
4.77650000000000e+00 4.33496941425047e-02 5.20751176064641e-04
4.79768181818182e+00 4.30106429319658e-02 5.17822591120270e-04
4.81886363636364e+00 4.26742435444718e-02 5.14905457327409e-04
4.84004545454545e+00 4.23404752393073e-02 5.11999810398909e-04
4.86122727272727e+00 4.20093174386499e-02 5.09105684712872e-04
4.88240909090909e+00 4.16807497242674e-02 5.06223112835309e-04
4.90359090909091e+00 4.13547518383061e-02 5.03352125034646e-04
4.92477272727273e+00 4.10313036813543e-02 5.00492750104258e-04
4.94595454545455e+00 4.07103853112050e-02 4.97645014891811e-04
4.96713636363636e+00 4.03919769422589e-02 4.94808945066761e-04
4.98831818181818e+00 4.00760589423911e-02 4.91984564664883e-04
5.00950000000000e+00 3.97626118336665e-02 4.89171895625106e-04
5.03068181818182e+00 3.94516162904925e-02 4.86370958570271e-04
5.05186363636364e+00 3.91430531384277e-02 4.83581772588617e-04
5.07304545454546e+00 3.88369033530002e-02 4.80804355037155e-04
5.09422727272727e+00 3.85331480591245e-02 4.78038722262946e-04
5.11540909090909e+00 3.82317685281561e-02 4.75284889172242e-04
5.13659090909091e+00 3.79327461785297e-02 4.72542868792330e-04
5.15777272727273e+00 3.76360625740112e-02 4.69812673005397e-04
5.17895454545455e+00 3.73416994225625e-02 4.67094312123745e-04
5.20013636363636e+00 3.70496385757687e-02 4.64387795574859e-04
5.22131818181818e+00 3.67598620260421e-02 4.61693131490205e-04
5.24250000000000e+00 3.64723519071995e-02 4.59010326287207e-04
5.26368181818182e+00 3.61870904927942e-02 4.56339385366417e-04
5.28486363636364e+00 3.59040601950232e-02 4.53680312912906e-04
5.30604545454545e+00 3.56232435636435e-02 4.51033111717265e-04
5.32722727272727e+00 3.53446232854133e-02 4.48397783819873e-04
5.34840909090909e+00 3.50681821814622e-02 4.45774330121956e-04
5.36959090909091e+00 3.47939032078043e-02 4.43162749990097e-04
5.39077272727273e+00 3.45217694537592e-02 4.40563041912009e-04
5.41195454545455e+00 3.42517641409106e-02 4.37975203113120e-04
5.43313636363636e+00 3.39838706225587e-02 4.35399230168815e-04
5.45431818181818e+00 3.37180723812227e-02 4.32835118633260e-04
5.47550000000000e+00 3.34543530291024e-02 4.30282862662064e-04
5.49668181818182e+00 3.31926963065715e-02 4.27742455635583e-04
5.51786363636364e+00 3.29330860811753e-02 4.25213889978585e-04
5.53904545454546e+00 3.26755063466359e-02 4.22697156997425e-04
5.56022727272727e+00 3.24199412223202e-02 4.20192247456350e-04
5.58140909090909e+00 3.21663749508881e-02 4.17699151226268e-04
5.60259090909091e+00 3.19147918987022e-02 4.15217856927739e-04
5.62377272727273e+00 3.16651765543997e-02 4.12748352517723e-04
5.64495454545455e+00 3.14175135279377e-02 4.10290624943330e-04
5.66613636363636e+00 3.11717875500720e-02 4.07844660689856e-04
5.68731818181818e+00 3.09279834701219e-02 4.05410445445539e-04
5.70850000000000e+00 3.06860862563380e-02 4.02987963760827e-04
5.72968181818182e+00 3.04460809945386e-02 4.00577199606437e-04
5.75086363636364e+00 3.02079528871904e-02 3.98178136209634e-04
5.77204545454545e+00 2.99716872524963e-02 3.95790755906176e-04
5.79322727272727e+00 2.97372695238902e-02 3.93415040656528e-04
5.81440909090909e+00 2.95046852479308e-02 3.91050971728565e-04
5.83559090909091e+00 2.92739200846261e-02 3.88698529375120e-04
5.85677272727273e+00 2.90449598061412e-02 3.86357693359675e-04
5.87795454545455e+00 2.88177902959217e-02 3.84028442643604e-04
5.89913636363636e+00 2.85923975482010e-02 3.81710755877257e-04
5.92031818181818e+00 2.83687676659961e-02 3.79404611097098e-04
5.94150000000000e+00 2.81468868613985e-02 3.77109985417913e-04
5.96268181818182e+00 2.79267414543390e-02 3.74826855533041e-04
5.98386363636364e+00 2.77083178717441e-02 3.72555197565774e-04
6.00504545454546e+00 2.74916026466998e-02 3.70294986934793e-04
6.02622727272727e+00 2.72765824179738e-02 3.68046198816944e-04
6.04740909090909e+00 2.70632439281265e-02 3.65808807860611e-04
6.06859090909091e+00 2.68515740237656e-02 3.63582787894444e-04
6.08977272727273e+00 2.66415596543749e-02 3.61368112398759e-04
6.11095454545455e+00 2.64331878715108e-02 3.59164754222921e-04
6.13213636363636e+00 2.62264458283363e-02 3.56972686025870e-04
6.15331818181818e+00 2.60213207778240e-02 3.54791880002441e-04
6.17450000000000e+00 2.58178000729811e-02 3.52622307605260e-04
6.19568181818182e+00 2.56158711657309e-02 3.50463939993533e-04
6.21686363636364e+00 2.54155216061390e-02 3.48316747898185e-04
6.23804545454546e+00 2.52167390416457e-02 3.46180701499619e-04
6.25922727272727e+00 2.50195112166164e-02 3.44055770843065e-04
6.28040909090909e+00 2.48238259706447e-02 3.41941925579489e-04
6.30159090909091e+00 2.46296712387496e-02 3.39839134702351e-04
6.32277272727273e+00 2.44370350503134e-02 3.37747366970743e-04
6.34395454545455e+00 2.42459055283448e-02 3.35666590653985e-04
6.36513636363636e+00 2.40562708890405e-02 3.33596773927156e-04
6.38631818181818e+00 2.38681194401697e-02 3.31537884623668e-04
6.40750000000000e+00 2.36814395812478e-02 3.29489889983894e-04
6.42868181818182e+00 2.34962198025211e-02 3.27452757058177e-04
6.44986363636364e+00 2.33124486842570e-02 3.25426452584472e-04
6.47104545454545e+00 2.31301148960402e-02 3.23410942877274e-04
6.49222727272727e+00 2.29492071963497e-02 3.21406194200720e-04
6.51340909090909e+00 2.27697144310339e-02 3.19412172534357e-04
6.53459090909091e+00 2.25916255334597e-02 3.17428843335124e-04
6.55577272727273e+00 2.24149295235490e-02 3.15456171917515e-04
6.57695454545455e+00 2.22396155071027e-02 3.13494123222666e-04
6.59813636363636e+00 2.20656726753890e-02 3.11542662173768e-04
6.61931818181818e+00 2.18930903036908e-02 3.09601753452314e-04
6.64050000000000e+00 2.17218577514354e-02 3.07671361270835e-04
6.66168181818182e+00 2.15519644612733e-02 3.05751449735112e-04
6.68286363636364e+00 2.13833999584270e-02 3.03841982733092e-04
