Energy (eV)          EEDF (eV^-(3/2))     First Anisotropy
1.34285714285714e-02 2.74912502420102e+00 3.73451332613950e-03
4.02857142857143e-02 2.61645875001631e+00 6.03824613578219e-03
6.71428571428571e-02 2.49019463690726e+00 7.63785331912833e-03
9.40000000000000e-02 2.37002373129186e+00 8.66669228583539e-03
1.20857142857143e-01 2.25565198987065e+00 9.38170514893692e-03
1.47714285714286e-01 2.14679955810850e+00 9.88663359591648e-03
1.74571428571429e-01 2.04320008722972e+00 1.02383133109030e-02
2.01428571428571e-01 1.94460008179735e+00 1.04728038834341e-02
2.28285714285714e-01 1.85075827944119e+00 1.06150534618032e-02
2.55142857142857e-01 1.76144506055168e+00 1.06833314208196e-02
2.82000000000000e-01 1.67644188641156e+00 1.06915583879825e-02
3.08857142857143e-01 1.59554076471936e+00 1.06506534929090e-02
3.35714285714286e-01 1.51854373984151e+00 1.05693704732202e-02
3.62571428571429e-01 1.44526240930534e+00 1.04548458557494e-02
3.89428571428571e-01 1.37551746249403e+00 1.03129745287849e-02
4.16285714285714e-01 1.30913824189347e+00 1.01486763986998e-02
4.43142857142857e-01 1.24596232551949e+00 9.96609148572913e-03
4.70000000000000e-01 1.18583512948776e+00 9.76872629770851e-03
4.96857142857143e-01 1.12860952987680e+00 9.55956605620232e-03
5.23714285714286e-01 1.07414550238547e+00 9.34116231759504e-03
5.50571428571429e-01 1.02230978007561e+00 9.11570250325882e-03
5.77428571428571e-01 9.72975527155873e-01 8.88506587716077e-03
6.04285714285714e-01 9.26022028629192e-01 8.65086913246192e-03
6.31142857142857e-01 8.81334394919412e-01 8.41450393804270e-03
6.58000000000000e-01 8.38803280749359e-01 8.17716815323496e-03
6.84857142857143e-01 7.98324617642471e-01 7.93989201059077e-03
7.11714285714286e-01 7.59799359103562e-01 7.70356022295391e-03
7.38571428571429e-01 7.23133238448022e-01 7.46893078302086e-03
7.65428571428571e-01 6.88236538078370e-01 7.23665106080936e-03
7.92285714285714e-01 6.55023869955803e-01 7.00727163762009e-03
8.19142857142857e-01 6.23413966666608e-01 6.78125826338913e-03
8.46000000000000e-01 5.93329482570180e-01 6.55900223187979e-03
8.72857142857143e-01 5.64696804574639e-01 6.34082942466589e-03
8.99714285714286e-01 5.37445871917387e-01 6.12700820831837e-03
9.26571428571429e-01 5.11510004835974e-01 5.91775635682003e-03
9.53428571428571e-01 4.86825741375551e-01 5.71324714531368e-03
9.80285714285714e-01 4.63332682104953e-01 5.51361471233126e-03
1.00714285714286e+00 4.40973342326857e-01 5.31895879714934e-03
1.03400000000000e+00 4.19693011399689e-01 5.12934892293513e-03
1.06085714285714e+00 3.99439618983004e-01 4.94482811749317e-03
1.08771428571429e+00 3.80163607443830e-01 4.76541621744899e-03
1.11457142857143e+00 3.61817810531665e-01 4.59111275479670e-03
1.14142857142857e+00 3.44357338448228e-01 4.42189958209734e-03
1.16828571428571e+00 3.27739467502965e-01 4.25774321448358e-03
1.19514285714286e+00 3.11923535627773e-01 4.09859683550555e-03
1.22200000000000e+00 2.96870843268384e-01 3.94440215963329e-03
1.24885714285714e+00 2.82544558284858e-01 3.79509108478556e-03
1.27571428571429e+00 2.68909625969925e-01 3.65058712876445e-03
1.30257142857143e+00 2.55932683181671e-01 3.51080671916098e-03
1.32942857142857e+00 2.43581976997898e-01 3.37566036240165e-03
1.35628571428571e+00 2.31827286716443e-01 3.24505369189520e-03
1.38314285714286e+00 2.20639849940208e-01 3.11888834873456e-03
1.41000000000000e+00 2.09992292434871e-01 2.99706281426033e-03
1.43685714285714e+00 1.99858560900109e-01 2.87947314515777e-03
1.46371428571429e+00 1.90213859306643e-01 2.76601360192354e-03
1.49057142857143e+00 1.81034588166067e-01 2.65657721191156e-03
1.51742857142857e+00 1.72298286964738e-01 2.55105628037769e-03
1.54428571428571e+00 1.63983579018215e-01 2.44934284627108e-03
1.57114285714286e+00 1.56070119183831e-01 2.35132904909554e-03
1.59800000000000e+00 1.48538544225217e-01 2.25690748331509e-03
1.62485714285714e+00 1.41370425279284e-01 2.16597150562614e-03
1.65171428571429e+00 1.34548222816512e-01 2.07841548710337e-03
1.67857142857143e+00 1.28055243687861e-01 1.99413503582814e-03
1.70542857142857e+00 1.21875600390965e-01 1.91302719759849e-03
1.73228571428571e+00 1.15994172077908e-01 1.83499063128610e-03
1.75914285714286e+00 1.10396567567763e-01 1.75992573521761e-03
1.78600000000000e+00 1.05069090225638e-01 1.68773477456667e-03
1.81285714285714e+00 9.99987043519229e-02 1.61832198578811e-03
1.83971428571429e+00 9.51730033191729e-02 1.55159365193616e-03
1.86657142857143e+00 9.05801791917013e-02 1.48745816522315e-03
1.89342857142857e+00 8.62089939043726e-02 1.42582608133570e-03
1.92028571428571e+00 8.20487516898658e-02 1.36661016264146e-03
1.94714285714286e+00 7.80892729145153e-02 1.30972539390452e-03
1.97400000000000e+00 7.43208692290546e-02 1.25508900358649e-03
2.00085714285714e+00 7.07343198006954e-02 1.20262047425867e-03
2.02771428571429e+00 6.73208487723123e-02 1.15224153759909e-03
2.05457142857143e+00 6.40721037742715e-02 1.10387616460228e-03
2.08142857142857e+00 6.09801355330346e-02 1.05745055376923e-03
2.10828571428571e+00 5.80373783724145e-02 1.01289311506882e-03
2.13514285714286e+00 5.52366317057452e-02 9.70134438358367e-04
2.16200000000000e+00 5.25710424549956e-02 9.29107268336111e-04
2.18885714285714e+00 5.00340882423803e-02 8.89746474717526e-04
2.21571428571429e+00 4.76195614446894e-02 8.51989014378894e-04
2.24257142857143e+00 4.53215539944528e-02 8.15773892454491e-04
2.26942857142857e+00 4.31344429533038e-02 7.81042124116319e-04
2.29628571428571e+00 4.10528767223721e-02 7.47736695395436e-04
2.32314285714286e+00 3.90717619504112e-02 7.15802515242115e-04
2.35000000000000e+00 3.71862510957232e-02 6.85186373646664e-04
2.37685714285714e+00 3.53917305390132e-02 6.55836898055240e-04
2.40371428571429e+00 3.36838093033732e-02 6.27704505763232e-04
2.43057142857143e+00 3.20583083038709e-02 6.00741356916781e-04
2.45742857142857e+00 3.05112501412021e-02 5.74901309216842e-04
2.48428571428571e+00 2.90388493492939e-02 5.50139873129144e-04
2.51114285714286e+00 2.76375031345550e-02 5.26414162217266e-04
2.53800000000000e+00 2.63037825764555e-02 5.03682848599464e-04
2.56485714285714e+00 2.50344242205111e-02 4.81906118190167e-04
2.59171428571429e+00 2.38263220988528e-02 4.61045624086525e-04
2.61857142857143e+00 2.26765201262134e-02 4.41064441188241e-04
2.64542857142857e+00 2.15822048794558e-02 4.21927022749610e-04
2.67228571428571e+00 2.05406987002285e-02 4.03599158000278e-04
2.69914285714286e+00 1.95494531442439e-02 3.86047927118504e-04
2.72600000000000e+00 1.86060427561862e-02 3.69241660330594e-04
2.75285714285714e+00 1.77081591238301e-02 3.53149897460469e-04
2.77971428571429e+00 1.68536052334775e-02 3.37743346772965e-04
2.80657142857143e+00 1.60402900914346e-02 3.22993845180489e-04
2.83342857142857e+00 1.52662236159889e-02 3.08874320262026e-04
2.86028571428571e+00 1.45295117591903e-02 2.95358753475373e-04
2.88714285714286e+00 1.38283518731176e-02 2.82422141994220e-04
2.91400000000000e+00 1.31610283060521e-02 2.70040463772670e-04
2.94085714285714e+00 1.25259081971610e-02 2.58190643302358e-04
2.96771428571429e+00 1.19214374836216e-02 2.46850517247962e-04
2.99457142857143e+00 1.13461370962304e-02 2.35998801353441e-04
3.02142857142857e+00 1.07985993458569e-02 2.25615058908659e-04
3.04828571428571e+00 1.02774844732153e-02 2.15679670334175e-04
3.07514285714286e+00 9.78151737114294e-03 2.06173802107081e-04
3.10200000000000e+00 9.30948446923732e-03 1.97079378163664e-04
3.12885714285714e+00 8.86023075953566e-03 1.88379052028342e-04
3.15571428571429e+00 8.43265697203333e-03 1.80056179096149e-04
3.18257142857143e+00 8.02571688371320e-03 1.72094790008406e-04
3.20942857142857e+00 7.63841476226227e-03 1.64479565308922e-04
3.23628571428571e+00 7.26980292578853e-03 1.57195811065664e-04
3.26314285714286e+00 6.91897942429241e-03 1.50229434226872e-04
3.29000000000000e+00 6.58508583581629e-03 1.43566919852864e-04
3.31685714285714e+00 6.26730516275208e-03 1.37195309012977e-04
3.34371428571429e+00 5.96485983386759e-03 1.31102176944885e-04
3.37057142857143e+00 5.67700980088912e-03 1.25275612112130e-04
3.39742857142857e+00 5.40305073016187e-03 1.19704196281193e-04
3.42428571428571e+00 5.14231227666301e-03 1.14376985394010e-04
3.45114285714286e+00 4.89415644397003e-03 1.09283490382228e-04
3.47800000000000e+00 4.65797602524138e-03 1.04413659388252e-04
3.50485714285714e+00 4.43319311529069e-03 9.97578605548339e-05
3.53171428571429e+00 4.21925769727150e-03 9.53068650999905e-05
3.55857142857143e+00 4.01564629632006e-03 9.10518311084876e-05
3.58542857142857e+00 3.82186070032957e-03 8.69842881185021e-05
3.61228571428571e+00 3.63742673916589e-03 8.30961223442215e-05
3.63914285714286e+00 3.46189312457795e-03 7.93795619417341e-05
3.66600000000000e+00 3.29483034734537e-03 7.58271633223312e-05
3.69285714285714e+00 3.13582962487043e-03 7.24317979320660e-05
3.71971428571429e+00 2.98450190143834e-03 6.91866392984194e-05
3.74657142857143e+00 2.84047689588727e-03 6.60851506370768e-05
3.77342857142857e+00 2.70340219668601e-03 6.31210730697563e-05
3.80028571428571e+00 2.57294239847085e-03 6.02884143400179e-05
3.82714285714286e+00 2.44877828144756e-03 5.75814376152075e-05
3.85400000000000e+00 2.33060603123751e-03 5.49946510638040e-05
3.88085714285714e+00 2.21813649450515e-03 5.25227978048094e-05
3.90771428571429e+00 2.11109447177211e-03 5.01608460890983e-05
3.93457142857143e+00 2.00921804379637e-03 4.79039799121600e-05
3.96142857142857e+00 1.91225793143570e-03 4.57475900911950e-05
3.98828571428571e+00 1.81997688491422e-03 4.36872657263171e-05
4.01514285714286e+00 1.73214910336681e-03 4.17187857593978e-05
4.04200000000000e+00 1.64855968296415e-03 3.98381111043358e-05
4.06885714285714e+00 1.56900409041164e-03 3.80413770684951e-05
4.09571428571429e+00 1.49328766270849e-03 3.63248859667657e-05
4.12257142857143e+00 1.42122513066818e-03 3.46851000641696e-05
4.14942857142857e+00 1.35264016609209e-03 3.31186348683162e-05
4.17628571428571e+00 1.28736494979113e-03 3.16222527147673e-05
4.20314285714286e+00 1.22523976099662e-03 3.01928564458787e-05
4.23000000000000e+00 1.16611258697019e-03 2.88274835091862e-05
4.25685714285714e+00 1.10983875060299e-03 2.75233002804331e-05
4.28371428571429e+00 1.05628055656176e-03 2.62775965418766e-05
4.31057142857143e+00 1.00530695425491e-03 2.50877802086434e-05
4.33742857142857e+00 9.56793217509174e-04 2.39513723168635e-05
4.36428571428571e+00 9.10620639024873e-04 2.28660022331884e-05
4.39114285714286e+00 8.66676239943287e-04 2.18294029467401e-05
4.41800000000000e+00 8.24852493690293e-04 2.08394066681470e-05
4.44485714285714e+00 7.85047062571317e-04 1.98939405999963e-05
4.47171428571429e+00 7.47162547467219e-04 1.89910228298734e-05
4.49857142857143e+00 7.11106249435815e-04 1.81287584093733e-05
4.52542857142857e+00 6.76789943120251e-04 1.73053356279033e-05
4.55228571428571e+00 6.44129660631795e-04 1.65190224526250e-05
4.57914285714286e+00 6.13045486110635e-04 1.57681630376469e-05
4.60600000000000e+00 5.83461360377601e-04 1.50511744574066e-05
4.63285714285714e+00 5.55304894622773e-04 1.43665435697290e-05
4.65971428571429e+00 5.28507193349216e-04 1.37128239741706e-05
4.68657142857143e+00 5.03002685743368e-04 1.30886331090058e-05
4.71342857142857e+00 4.78728965388336e-04 1.24926494924925e-05
4.74028571428571e+00 4.55626637399736e-04 1.19236100880975e-05
4.76714285714286e+00 4.33639173107161e-04 1.13803077260753e-05
4.79400000000000e+00 4.12712771868626e-04 1.08615886883555e-05
4.82085714285714e+00 3.92796229288483e-04 1.03663503908453e-05
4.84771428571429e+00 3.73840811974268e-04 9.89353913892252e-06
4.87457142857143e+00 3.55800138257529e-04 9.44214798579634e-06
4.90142857142857e+00 3.38630064810343e-04 9.01121469732581e-06
4.92828571428571e+00 3.22288578520976e-04 8.59981980888143e-06
4.95514285714286e+00 3.06735693702062e-04 8.20708472704696e-06
4.98200000000000e+00 2.91933354341140e-04 7.83216995005455e-06
5.00885714285714e+00 2.77845340888021e-04 7.47427336098163e-06
5.03571428571429e+00 2.64437181662450e-04 7.13262857663861e-06
5.06257142857143e+00 2.51676068482605e-04 6.80650337247909e-06
5.08942857142857e+00 2.39530776460213e-04 6.49519818580371e-06
5.11628571428571e+00 2.27971587521465e-04 6.19804468703270e-06
5.14314285714286e+00 2.16970217696720e-04 5.91440438606865e-06
5.17000000000000e+00 2.06499747974836e-04 5.64366732484077e-06
5.19685714285714e+00 1.96534558371446e-04 5.38525082393662e-06
5.22371428571429e+00 1.87050265262106e-04 5.13859827128795e-06
5.25057142857143e+00 1.78023661702508e-04 4.90317796685029e-06
5.27742857142857e+00 1.69432660693519e-04 4.67848202470083e-06
5.30428571428571e+00 1.61256241085442e-04 4.46402532530174e-06
5.33114285714286e+00 1.53474396146046e-04 4.25934449487566e-06
5.35800000000000e+00 1.46068084648663e-04 4.06399694724360e-06
5.38485714285714e+00 1.39019184236841e-04 3.87755996570570e-06
5.41171428571429e+00 1.32310447096239e-04 3.69962981648056e-06
5.43857142857143e+00 1.25925457740377e-04 3.52982090326620e-06
5.46542857142857e+00 1.19848592877813e-04 3.36776496380718e-06
5.49228571428571e+00 1.14064983148660e-04 3.21311030332331e-06
5.51914285714286e+00 1.08560476743946e-04 3.06552104867573e-06
5.54600000000000e+00 1.03321604806648e-04 2.92467644774562e-06
5.57285714285714e+00 9.83355484451271e-05 2.79027019835546e-06
5.59971428571429e+00 9.35901073771687e-05 2.66200980074869e-06
5.62657142857143e+00 8.90736700698964e-05 2.53961594019293e-06
5.65342857142857e+00 8.47751853509176e-05 2.42282190024820e-06
5.68028571428571e+00 8.06841353433967e-05 2.31137300305135e-06
5.70714285714286e+00 7.67905097320467e-05 2.20502606533283e-06
5.73400000000000e+00 7.30847812887967e-05 2.10354888712233e-06
5.76085714285714e+00 6.95578825403679e-05 2.00671976218473e-06
5.78771428571429e+00 6.62011835883192e-05 1.91432700596452e-06
5.81457142857143e+00 6.30064709876134e-05 1.82616850554785e-06
5.84142857142857e+00 5.99659276651646e-05 1.74205129196877e-06
5.86828571428571e+00 5.70721137759499e-05 1.66179113227055e-06
5.89514285714286e+00 5.43179484999493e-05 1.58521213342287e-06
5.92200000000000e+00 5.16966927297230e-05 1.51214636984813e-06
5.94885714285714e+00 4.92019325666295e-05 1.44243352688999e-06
5.97571428571429e+00 4.68275636316220e-05 1.37592055724478e-06
6.00257142857143e+00 4.45677761250656e-05 1.31246135345437e-06
6.02942857142857e+00 4.24170406217217e-05 1.25191643665264e-06
6.05628571428571e+00 4.03700945296404e-05 1.19415265972899e-06
6.08314285714286e+00 3.84219292141496e-05 1.13904291937586e-06
6.11000000000000e+00 3.65677777515771e-05 1.08646588517202e-06
6.13685714285714e+00 3.48031032555689e-05 1.03630574033450e-06
6.16371428571429e+00 3.31235877791870e-05 9.88451932036494e-07
6.19057142857143e+00 3.15251217470108e-05 9.42798933421337e-07
6.21742857142857e+00 3.00037939069529e-05 8.99246017422014e-07
6.24428571428571e+00 2.85558817521665e-05 8.57697041083275e-07
6.27114285714286e+00 2.71778424131484e-05 8.18060236509290e-07
6.29800000000000e+00 2.58663039951083e-05 7.80248014093235e-07
6.32485714285714e+00 2.46180573207671e-05 7.44176774270311e-07
6.35171428571429e+00 2.34300480801584e-05 7.09766726309601e-07
6.37857142857143e+00 2.22993693554509e-05 6.76941715609802e-07
6.40542857142857e+00 2.12232545131854e-05 6.45629059558216e-07
6.43228571428571e+00 2.01990704293511e-05 6.15759391028524e-07
6.45914285714286e+00 1.92243110468777e-05 5.87266506799599e-07
6.48600000000000e+00 1.82965912479735e-05 5.60087224822123e-07
6.51285714285714e+00 1.74136410135094e-05 5.34161247699788e-07
6.53971428571429e+00 1.65732998701157e-05 5.09431031336795e-07
6.56657142857143e+00 1.57735116026310e-05 4.85841659759593e-07
6.59342857142857e+00 1.50123192263054e-05 4.63340726142458e-07
6.62028571428571e+00 1.42878601946498e-05 4.41878219381000e-07
6.64714285714286e+00 1.35983618423039e-05 4.21406414307799e-07
6.67400000000000e+00 1.29421370505320e-05 4.01879768277340e-07
6.70085714285714e+00 1.23175801159409e-05 3.83254822274759e-07
6.72771428571429e+00 1.17231628225892e-05 3.65490105807982e-07
6.75457142857143e+00 1.11574307018472e-05 3.48546046276978e-07
6.78142857142857e+00 1.06189994759045e-05 3.32384882832563e-07
6.80828571428571e+00 1.01065516681021e-05 3.16970584259345e-07
6.83514285714286e+00 9.61883337942867e-06 3.02268769545935e-07
6.86200000000000e+00 9.15465122244028e-06 2.88246633037244e-07
6.88885714285714e+00 8.71286939904865e-06 2.74872872874955e-07
6.91571428571429e+00 8.29240692209750e-06 2.62117622203156e-07
6.94257142857143e+00 7.89223496978073e-06 2.49952383616662e-07
6.96942857142857e+00 7.51137436990232e-06 2.38349966855060e-07
6.99628571428571e+00 7.14889320223544e-06 2.27284429412200e-07
7.02314285714286e+00 6.80390451836490e-06 2.16731019123003e-07
7.05000000000000e+00 6.47556417284903e-06 2.06666120044653e-07
7.07685714285714e+00 6.16306875622706e-06 1.97067200724642e-07
7.10371428571429e+00 5.86565362968036e-06 1.87912764486155e-07
7.13057142857143e+00 5.58259105368397e-06 1.79182302059619e-07
7.15742857142857e+00 5.31318840846078e-06 1.70856246558566e-07
7.18428571428571e+00 5.05678649803687e-06 1.62915930565432e-07
7.21114285714286e+00 4.81275793736394e-06 1.55343544668804e-07
7.23800000000000e+00 4.58050561816028e-06 1.48122098367873e-07
7.26485714285714e+00 4.35946124684592e-06 1.41235382707391e-07
7.29171428571429e+00 4.14908395434618e-06 1.34667934382013e-07
7.31857142857143e+00 3.94885897239558e-06 1.28405001536515e-07
7.34542857142857e+00 3.75829637475112e-06 1.22432511257807e-07
7.37228571428571e+00 3.57692987758344e-06 1.16737038592450e-07
7.39914285714286e+00 3.40431569860214e-06 1.11305776627282e-07
7.42600000000000e+00 3.24003147184730e-06 1.06126508270156e-07
7.45285714285714e+00 3.08367521351261e-06 1.01187579283926e-07
7.47971428571429e+00 2.93486433858039e-06 9.64778723891294e-08
7.50657142857143e+00 2.79323472450648e-06 9.19867825914108e-08
7.53342857142857e+00 2.65843982080048e-06 8.77041937288964e-08
7.56028571428571e+00 2.53014980049416e-06 8.36204561215130e-08
7.58714285714286e+00 2.40805075313984e-06 7.97263649975018e-08
7.61400000000000e+00 2.29184391717375e-06 7.60131401403229e-08
7.64085714285714e+00 2.18124494840088e-06 7.24724064422555e-08
7.66771428571429e+00 2.07598322440515e-06 6.90961752342524e-08
7.69457142857143e+00 1.97580118224777e-06 6.58768264995485e-08
7.72142857142857e+00 1.88045368861729e-06 6.28070919663500e-08
7.74828571428571e+00 1.78970743962858e-06 5.98800389958436e-08
7.77514285714286e+00 1.70334038998745e-06 5.70890550373838e-08
7.80200000000000e+00 1.62114120999311e-06 5.44278329593226e-08
7.82885714285714e+00 1.54290876810750e-06 5.18903570352039e-08
7.85571428571429e+00 1.46845163892528e-06 4.94708894931008e-08
7.88257142857143e+00 1.39758763469527e-06 4.71639577021806e-08
7.90942857142857e+00 1.33014335978825e-06 4.49643419922946e-08
7.93628571428571e+00 1.26595378614991e-06 4.28670640471441e-08
7.96314285714286e+00 1.20486184951855e-06 4.08673757107072e-08
7.99000000000000e+00 1.14671806532917e-06 3.89607484216807e-08
8.01685714285714e+00 1.09138016271315e-06 3.71428631212132e-08
8.04371428571429e+00 1.03871273645782e-06 3.54096005687232e-08
8.07057142857143e+00 9.88586915628343e-07 3.37570321168673e-08
8.09742857142857e+00 9.40880048415210e-07 3.21814109420620e-08
8.12428571428571e+00 8.95475401834348e-07 3.06791636883683e-08
8.15114285714286e+00 8.52261876110364e-07 2.92468824120587e-08
8.17800000000000e+00 8.11133732981748e-07 2.78813169764157e-08
8.20485714285714e+00 7.71990336813491e-07 2.65793677880623e-08
8.23171428571429e+00 7.34735908408512e-07 2.53380788287114e-08
8.25857142857143e+00 6.99279290607535e-07 2.41546310175361e-08
8.28542857142857e+00 6.65533725362315e-07 2.30263359011861e-08
8.31228571428571e+00 6.33416641320791e-07 2.19506296415088e-08
8.33914285714286e+00 6.02849451795160e-07 2.09250672217527e-08
8.36600000000000e+00 5.73757362575464e-07 1.99473169754302e-08
8.39285714285714e+00 5.46069188807536e-07 1.90151553614476e-08
8.41971428571429e+00 5.19717180850045e-07 1.81264619528937e-08
8.44657142857143e+00 4.94636858471650e-07 1.72792146637527e-08
8.47342857142857e+00 4.70766853161263e-07 1.64714852111421e-08
