Energy (eV)          EEDF (eV^-(3/2))     First Anisotropy
2.73076923076923e-02 3.40945654819485e-02 1.58706059302644e-05
8.19230769230769e-02 3.39140791886886e-02 2.62256812489064e-05
1.36538461538462e-01 3.37345483353542e-02 3.46707111040383e-05
1.91153846153846e-01 3.35559678634177e-02 4.11168922222867e-05
2.45769230769231e-01 3.33783327428960e-02 4.65183340388513e-05
3.00384615384615e-01 3.32016379685751e-02 5.12349458176549e-05
3.55000000000000e-01 3.30258785625891e-02 5.54525760464256e-05
4.09615384615385e-01 3.28510495739278e-02 5.92832152634595e-05
4.64230769230769e-01 3.26771460767694e-02 6.28009818311528e-05
5.18846153846154e-01 3.25041631718602e-02 6.60581516596966e-05
5.73461538461538e-01 3.23320959862280e-02 6.90933416172050e-05
6.28076923076923e-01 3.21609396719963e-02 7.19361034661492e-05
6.82692307692308e-01 3.19906894075670e-02 7.46096914031000e-05
7.37307692307692e-01 3.18213403963297e-02 7.71328228435638e-05
7.91923076923077e-01 3.16528878673278e-02 7.95208484807952e-05
8.46538461538462e-01 3.14853270750792e-02 8.17865584465462e-05
9.01153846153846e-01 3.13186532987905e-02 8.39407542039777e-05
9.55769230769231e-01 3.11528618430527e-02 8.59926649107216e-05
1.01038461538462e+00 3.09879480369531e-02 8.79502572326114e-05
1.06500000000000e+00 3.08239072341564e-02 8.98204698736430e-05
1.11961538461538e+00 3.06607348143466e-02 9.16093951908419e-05
1.17423076923077e+00 3.04984261790790e-02 9.33224202930515e-05
1.22884615384615e+00 3.03369767571682e-02 9.49643395822625e-05
1.28346153846154e+00 3.01763819988464e-02 9.65394448127070e-05
1.33807692307692e+00 3.00166373810844e-02 9.80515980764561e-05
1.39269230769231e+00 2.98577384022583e-02 9.95042916358438e-05
1.44730769230769e+00 2.96996805870043e-02 1.00900697092728e-04
1.50192307692308e+00 2.95424594823829e-02 1.02243707229791e-04
1.55653846153846e+00 2.93860706580684e-02 1.03535969443947e-04
1.61115384615385e+00 2.92305097092249e-02 1.04779915570182e-04
1.66576923076923e+00 2.90757722523691e-02 1.05977786494849e-04
1.72038461538462e+00 2.89218539291188e-02 1.07131653299185e-04
1.77500000000000e+00 2.87687504023313e-02 1.08243435492483e-04
1.82961538461538e+00 2.86164573595945e-02 1.09314916714572e-04
1.88423076923077e+00 2.84649705096108e-02 1.10347758422739e-04
1.93884615384615e+00 2.83142855854587e-02 1.11343511778519e-04
1.99346153846154e+00 2.81643983411966e-02 1.12303628108976e-04
2.04807692307692e+00 2.80153045549181e-02 1.13229468057644e-04
2.10269230769231e+00 2.78670000255539e-02 1.14122309709107e-04
2.15730769230769e+00 2.77194805757420e-02 1.14983355609063e-04
2.21192307692308e+00 2.75727420494773e-02 1.15813739688050e-04
2.26653846153846e+00 2.74267803121310e-02 1.16614532142301e-04
2.32115384615385e+00 2.72815912522603e-02 1.17386745045240e-04
2.37576923076923e+00 2.71371707789224e-02 1.18131336790112e-04
2.43038461538462e+00 2.69935148240628e-02 1.18849216170917e-04
2.48500000000000e+00 2.68506193399609e-02 1.19541246098685e-04
2.53961538461538e+00 2.67084803014944e-02 1.20208246924198e-04
2.59423076923077e+00 2.65670937037066e-02 1.20850999483806e-04
2.64884615384615e+00 2.64264555639562e-02 1.21470247830278e-04
2.70346153846154e+00 2.62865619195969e-02 1.22066701751936e-04
2.75807692307692e+00 2.61474088300215e-02 1.22641039036260e-04
2.81269230769231e+00 2.60089923744457e-02 1.23193907571007e-04
2.86730769230769e+00 2.58713086538543e-02 1.23725927129415e-04
2.92192307692308e+00 2.57343537893528e-02 1.24237691560354e-04
2.97653846153846e+00 2.55981239221340e-02 1.24729769745869e-04
3.03115384615385e+00 2.54626152147380e-02 1.25202707506833e-04
3.08576923076923e+00 2.53278238491187e-02 1.25657028870378e-04
3.14038461538462e+00 2.51937460283234e-02 1.26093237314204e-04
3.19500000000000e+00 2.50603779746355e-02 1.26511816944409e-04
3.24961538461538e+00 2.49277159311825e-02 1.26913233559118e-04
3.30423076923077e+00 2.47957561601507e-02 1.27297935661231e-04
3.35884615384615e+00 2.46644949443254e-02 1.27666355372661e-04
3.41346153846154e+00 2.45339285853739e-02 1.28018909309989e-04
3.46807692307692e+00 2.44040534053213e-02 1.28355999374284e-04
3.52269230769231e+00 2.42748657448979e-02 1.28678013512169e-04
3.57730769230769e+00 2.41463619649553e-02 1.28985326312957e-04
3.63192307692308e+00 2.40185384452266e-02 1.29278300027978e-04
3.68653846153846e+00 2.38913915842718e-02 1.29557284638389e-04
3.74115384615385e+00 2.37649178004081e-02 1.29822618782747e-04
3.79576923076923e+00 2.36391135302331e-02 1.30074630211540e-04
3.85038461538462e+00 2.35139752298756e-02 1.30313636278234e-04
3.90500000000000e+00 2.33894993735690e-02 1.30539944421979e-04
3.95961538461538e+00 2.32656824548548e-02 1.30753852600140e-04
4.01423076923077e+00 2.31425209852041e-02 1.30955649716201e-04
4.06884615384615e+00 2.30200114951769e-02 1.31145616002060e-04
4.12346153846154e+00 2.28981505330883e-02 1.31324023398831e-04
4.17807692307692e+00 2.27769346661260e-02 1.31491135895928e-04
4.23269230769231e+00 2.26563604790598e-02 1.31647209871051e-04
4.28730769230769e+00 2.25364245753189e-02 1.31792494316456e-04
4.34192307692308e+00 2.24171235760177e-02 1.31927231446052e-04
4.39653846153846e+00 2.22984541198921e-02 1.32051656512534e-04
4.45115384615385e+00 2.21804128640128e-02 1.32165998375456e-04
4.50576923076923e+00 2.20629964826144e-02 1.32270479682470e-04
4.56038461538462e+00 2.19462016680611e-02 1.32365317097807e-04
4.61500000000000e+00 2.18300251297111e-02 1.32450721536777e-04
4.66961538461538e+00 2.17144635948496e-02 1.32526898371131e-04
4.72423076923077e+00 2.15995138075871e-02 1.32594047641350e-04
4.77884615384615e+00 2.14851725297617e-02 1.32652364241666e-04
4.83346153846154e+00 2.13714365398688e-02 1.32702038112834e-04
4.88807692307692e+00 2.12583026339345e-02 1.32743254409204e-04
4.94269230769231e+00 2.11457676244762e-02 1.32776193674221e-04
4.99730769230769e+00 2.10338283413473e-02 1.32801031926370e-04
5.05192307692308e+00 2.09224816309479e-02 1.32817941080856e-04
5.10653846153846e+00 2.08117243561592e-02 1.32827088695753e-04
5.16115384615385e+00 2.07015533969037e-02 1.32828638373227e-04
5.21576923076923e+00 2.05919656491923e-02 1.32822749831919e-04
5.27038461538462e+00 2.04829580258898e-02 1.32809579026063e-04
5.32500000000000e+00 2.03745274557871e-02 1.32789278274047e-04
5.37961538461538e+00 2.02666708843434e-02 1.32761996367010e-04
5.43423076923077e+00 2.01593852727834e-02 1.32727878687109e-04
5.48884615384615e+00 2.00526675988165e-02 1.32687067306683e-04
5.54346153846154e+00 1.99465148557586e-02 1.32639701097267e-04
5.59807692307692e+00 1.98409240532291e-02 1.32585915820302e-04
5.65269230769231e+00 1.97358922162959e-02 1.32525844227843e-04
5.70730769230769e+00 1.96314163861518e-02 1.32459616088627e-04
5.76192307692308e+00 1.95274936194615e-02 1.32387358509723e-04
5.81653846153846e+00 1.94241209882959e-02 1.32309195671197e-04
5.87115384615385e+00 1.93212955805812e-02 1.32225249135218e-04
5.92576923076923e+00 1.92190144993083e-02 1.32135637870085e-04
5.98038461538462e+00 1.91172748631501e-02 1.32040478317607e-04
6.03500000000000e+00 1.90160738056909e-02 1.31939884470370e-04
6.08961538461538e+00 1.89154084760260e-02 1.31833967933789e-04
6.14423076923077e+00 1.88152760380097e-02 1.31722837998037e-04
6.19884615384615e+00 1.87156736708386e-02 1.31606601695289e-04
6.25346153846154e+00 1.86165985683173e-02 1.31485363866796e-04
6.30807692307692e+00 1.85180479394259e-02 1.31359227215744e-04
6.36269230769231e+00 1.84200190076032e-02 1.31228292369943e-04
6.41730769230769e+00 1.83225090112980e-02 1.31092657880482e-04
6.47192307692308e+00 1.82255152034202e-02 1.30952420481468e-04
6.52653846153846e+00 1.81290348512760e-02 1.30807674834534e-04
6.58115384615385e+00 1.80330652369337e-02 1.30658513779922e-04
6.63576923076923e+00 1.79376036565570e-02 1.30505028337643e-04
6.69038461538462e+00 1.78426474209118e-02 1.30347307747953e-04
6.74500000000000e+00 1.77481938547147e-02 1.30185439521192e-04
6.79961538461538e+00 1.76542402971261e-02 1.30019509475372e-04
6.85423076923077e+00 1.75607841011141e-02 1.29849601783030e-04
6.90884615384615e+00 1.74678226339337e-02 1.29675799006145e-04
6.96346153846154e+00 1.73753532765060e-02 1.29498182140252e-04
7.01807692307692e+00 1.72833734238843e-02 1.29316830646929e-04
7.07269230769231e+00 1.71918804846472e-02 1.29131822495326e-04
7.12730769230769e+00 1.71008718813529e-02 1.28943234148015e-04
7.18192307692308e+00 1.70103450500715e-02 1.28751140778274e-04
7.23653846153846e+00 1.69202974403229e-02 1.28555616031895e-04
7.29115384615385e+00 1.68307265153774e-02 1.28356732238096e-04
7.34576923076923e+00 1.67416297516881e-02 1.28154560399493e-04
7.40038461538462e+00 1.66530046393100e-02 1.27949170217586e-04
7.45500000000000e+00 1.65648486813447e-02 1.27740630126741e-04
7.50961538461538e+00 1.64771593943492e-02 1.27529007318009e-04
7.56423076923077e+00 1.63899343077923e-02 1.27314367771341e-04
7.61884615384615e+00 1.63031709644529e-02 1.27096776277809e-04
7.67346153846154e+00 1.62168669198886e-02 1.26876296470183e-04
7.72807692307692e+00 1.61310197428238e-02 1.26652990843722e-04
7.78269230769231e+00 1.60456270146290e-02 1.26426920785158e-04
7.83730769230769e+00 1.59606863297000e-02 1.26198146552602e-04
7.89192307692308e+00 1.58761952950550e-02 1.25966727461649e-04
7.94653846153846e+00 1.57921515302754e-02 1.25732721666470e-04
8.00115384615385e+00 1.57085526677554e-02 1.25496186340839e-04
8.05576923076923e+00 1.56253963522133e-02 1.25257177662759e-04
8.11038461538462e+00 1.55426802410428e-02 1.25015750831061e-04
8.16500000000000e+00 1.54604020038335e-02 1.24771960089691e-04
8.21961538461538e+00 1.53785593227143e-02 1.24525858743293e-04
8.27423076923077e+00 1.52971498918837e-02 1.24277499180356e-04
8.32884615384615e+00 1.52161714179447e-02 1.24026932887842e-04
8.38346153846154e+00 1.51356216194449e-02 1.23774210473282e-04
8.43807692307692e+00 1.50554982272027e-02 1.23519381678481e-04
8.49269230769231e+00 1.49757989838576e-02 1.23262495400645e-04
8.54730769230769e+00 1.48965216441882e-02 1.23003599669871e-04
8.60192307692308e+00 1.48176639747629e-02 1.22742741811039e-04
8.65653846153846e+00 1.47392237538835e-02 1.22479968243956e-04
8.71115384615385e+00 1.46611987717942e-02 1.22215324641089e-04
8.76576923076923e+00 1.45835868302577e-02 1.21948855909838e-04
8.82038461538462e+00 1.45063857428509e-02 1.21680606203639e-04
8.87500000000000e+00 1.44295933345493e-02 1.21410618939981e-04
8.92961538461538e+00 1.43532074420160e-02 1.21138936810846e-04
8.98423076923077e+00 1.42772259131945e-02 1.20865601799964e-04
9.03884615384615e+00 1.42016466075905e-02 1.20590655192679e-04
9.09346153846154e+00 1.41264673958726e-02 1.20314137592464e-04
9.14807692307692e+00 1.40516861601479e-02 1.20036088930190e-04
9.20269230769231e+00 1.39773007935703e-02 1.19756548480023e-04
9.25730769230769e+00 1.39033092006097e-02 1.19475554836417e-04
9.31192307692308e+00 1.38297092967468e-02 1.19193146056460e-04
9.36653846153846e+00 1.37564990084196e-02 1.18909359477953e-04
9.42115384615385e+00 1.36836762731996e-02 1.18624231858308e-04
9.47576923076923e+00 1.36112390394211e-02 1.18337799356084e-04
9.53038461538462e+00 1.35391852664327e-02 1.18050097538556e-04
9.58500000000000e+00 1.34675129242338e-02 1.17761161395493e-04
9.63961538461538e+00 1.33962199937201e-02 1.17471025346287e-04
9.69423076923077e+00 1.33253044663275e-02 1.17179723253207e-04
9.74884615384615e+00 1.32547643442713e-02 1.16887288428156e-04
9.80346153846154e+00 1.31845976401974e-02 1.16593753645391e-04
9.85807692307692e+00 1.31148023774156e-02 1.16299151147895e-04
9.91269230769231e+00 1.30453765895576e-02 1.16003512659666e-04
9.96730769230769e+00 1.29763183208055e-02 1.15706869363168e-04
1.00219230769231e+01 1.29076256256234e-02 1.15409252110767e-04
1.00765384615385e+01 1.28392965685039e-02 1.15110691058765e-04
1.01311538461538e+01 1.27713292245967e-02 1.14811215542083e-04
1.01857692307692e+01 1.27037216797664e-02 1.14510855153355e-04
1.02403846153846e+01 1.26364720286791e-02 1.14209638957544e-04
1.02950000000000e+01 1.25695783767560e-02 1.13907594991624e-04
1.03496153846154e+01 1.25030388394471e-02 1.13604751124342e-04
1.04042307692308e+01 1.24368515421787e-02 1.13301134778259e-04
1.04588461538462e+01 1.23710146203009e-02 1.12996772671932e-04
1.05134615384615e+01 1.23055262196560e-02 1.12691691627492e-04
1.05680769230769e+01 1.22403844946532e-02 1.12385918042766e-04
1.06226923076923e+01 1.21755876100985e-02 1.12079477358482e-04
1.06773076923077e+01 1.21111337405133e-02 1.11772394877354e-04
1.07319230769231e+01 1.20470210700814e-02 1.11464695498455e-04
1.07865384615385e+01 1.19832477925999e-02 1.11156403723816e-04
1.08411538461538e+01 1.19198121114272e-02 1.10847543413967e-04
1.08957692307692e+01 1.18567122400108e-02 1.10538138551618e-04
1.09503846153846e+01 1.17939464000941e-02 1.10228212741391e-04
1.10050000000000e+01 1.17315128234174e-02 1.09917788704895e-04
1.10596153846154e+01 1.16694097510812e-02 1.09606889055377e-04
1.11142307692308e+01 1.16076354334973e-02 1.09295536045964e-04
1.11688461538462e+01 1.15461881303395e-02 1.08983751335793e-04
1.12234615384615e+01 1.14850661110373e-02 1.08671556718410e-04
1.12780769230769e+01 1.14242676530904e-02 1.08358973644128e-04
1.13326923076923e+01 1.13637910436645e-02 1.08046022737877e-04
1.13873076923077e+01 1.13036345789929e-02 1.07732724538055e-04
1.14419230769231e+01 1.12437965643274e-02 1.07419099255814e-04
1.14965384615385e+01 1.11842753138917e-02 1.07105166780191e-04
1.15511538461538e+01 1.11250691508338e-02 1.06790946456217e-04
1.16057692307692e+01 1.10661764076844e-02 1.06476457774614e-04
1.16603846153846e+01 1.10075954247843e-02 1.06161719918751e-04
1.17150000000000e+01 1.09493245517707e-02 1.05846751307303e-04
1.17696153846154e+01 1.08913621470172e-02 1.05531570293916e-04
1.18242307692308e+01 1.08337065775876e-02 1.05216194938915e-04
1.18788461538462e+01 1.07763562191901e-02 1.04900642796904e-04
1.19334615384615e+01 1.07193094566083e-02 1.04584931575301e-04
1.19880769230769e+01 1.06625646822185e-02 1.04269078701436e-04
1.20426923076923e+01 1.06061202973881e-02 1.03953100885514e-04
1.20973076923077e+01 1.05499747119474e-02 1.03637014788658e-04
1.21519230769231e+01 1.04941263441438e-02 1.03320836804472e-04
1.22065384615385e+01 1.04385736205988e-02 1.03004583063074e-04
1.22611538461538e+01 1.03833149762624e-02 1.02688269229476e-04
1.23157692307692e+01 1.03283488548154e-02 1.02371911127821e-04
1.23703846153846e+01 1.02736737072822e-02 1.02055524330443e-04
1.24250000000000e+01 1.02192879933365e-02 1.01739123742997e-04
1.24796153846154e+01 1.01651901808057e-02 1.01422724237739e-04
1.25342307692308e+01 1.01113787456281e-02 1.01106340446234e-04
1.25888461538462e+01 1.00578521718101e-02 1.00789986566260e-04
1.26434615384615e+01 1.00046089518031e-02 1.00473676958363e-04
1.26980769230769e+01 9.95164758519577e-03 1.00157425752900e-04
1.27526923076923e+01 9.89896657994277e-03 9.98412464533433e-05
1.28073076923077e+01 9.84656445189734e-03 9.95251525414621e-05
1.28619230769231e+01 9.79443972476889e-03 9.92091572788551e-05
1.29165384615385e+01 9.74259093008226e-03 9.88932737102075e-05
1.29711538461538e+01 9.69101660713590e-03 9.85775144798485e-05
1.30257692307692e+01 9.63971530335373e-03 9.82618923977864e-05
1.30803846153846e+01 9.58868557305991e-03 9.79464200664454e-05
1.31350000000000e+01 9.53792597862786e-03 9.76311095037628e-05
1.31896153846154e+01 9.48743509004116e-03 9.73159727174753e-05
1.32442307692308e+01 9.43721148485347e-03 9.70010215166443e-05
1.32988461538462e+01 9.38725374814859e-03 9.66862673359089e-05
1.33534615384615e+01 9.33756047287151e-03 9.63717217768569e-05
1.34080769230769e+01 9.28813025867048e-03 9.60573962508328e-05
1.34626923076923e+01 9.23896171298099e-03 9.57433016183672e-05
1.35173076923077e+01 9.19005345061032e-03 9.54294487383716e-05
1.35719230769231e+01 9.14140409369817e-03 9.51158482876038e-05
1.36265384615385e+01 9.09301227167858e-03 9.48025107632782e-05
1.36811538461538e+01 9.04487662124090e-03 9.44894463160424e-05
1.37357692307692e+01 8.99699578663917e-03 9.41766652640900e-05
1.37903846153846e+01 8.94936841860594e-03 9.38641777536169e-05
1.38450000000000e+01 8.90199317536704e-03 9.35519934160163e-05
1.38996153846154e+01 8.85486872225105e-03 9.32401218894731e-05
1.39542307692308e+01 8.80799373165191e-03 9.29285726474191e-05
1.40088461538462e+01 8.76136688299162e-03 9.26173548384095e-05
1.40634615384615e+01 8.71498686301173e-03 9.23064777781664e-05
1.41180769230769e+01 8.66885236474542e-03 9.19959506245163e-05
1.41726923076923e+01 8.62296208847610e-03 9.16857820491879e-05
1.42273076923077e+01 8.57731474136748e-03 9.13759807369905e-05
1.42819230769231e+01 8.53190903742684e-03 9.10665552214233e-05
1.43365384615385e+01 8.48674369746940e-03 9.07575138867922e-05
1.43911538461538e+01 8.44181744908198e-03 9.04488648159518e-05
1.44457692307692e+01 8.39712902689570e-03 9.01406162579183e-05
1.45003846153846e+01 8.35267717162052e-03 8.98327763186688e-05
1.45550000000000e+01 8.30846063094379e-03 8.95253526489733e-05
1.46096153846154e+01 8.26447815918209e-03 8.92183529187921e-05
1.46642307692308e+01 8.22072851724624e-03 8.89117846609674e-05
1.47188461538462e+01 8.17721047260656e-03 8.86056551252290e-05
1.47734615384615e+01 8.13392279955009e-03 8.82999717259714e-05
1.48280769230769e+01 8.09086427826582e-03 8.79947417461003e-05
1.48826923076923e+01 8.04803369569456e-03 8.76899720379921e-05
1.49373076923077e+01 8.00542984519866e-03 8.73856694777948e-05
1.49919230769231e+01 7.96305152652778e-03 8.70818408155542e-05
1.50465384615385e+01 7.92089754578561e-03 8.67784926769818e-05
1.51011538461538e+01 7.87896671539591e-03 8.64756314245273e-05
1.51557692307692e+01 7.83725785434358e-03 8.61732635832278e-05
1.52103846153846e+01 7.79576978731431e-03 8.58713955588468e-05
1.52650000000000e+01 7.75450134549224e-03 8.55700333532502e-05
1.53196153846154e+01 7.71345136624872e-03 8.52691829964818e-05
1.53742307692308e+01 7.67261869310972e-03 8.49688504041874e-05
1.54288461538462e+01 7.63200217572331e-03 8.46690412443300e-05
1.54834615384615e+01 7.59160067008728e-03 8.43697613452523e-05
1.55380769230769e+01 7.55141303773313e-03 8.40710164255427e-05
1.55926923076923e+01 7.51143814648124e-03 8.37728118212560e-05
1.56473076923077e+01 7.47167487014542e-03 8.34751528999043e-05
1.57019230769231e+01 7.43212208850092e-03 8.31780449237082e-05
1.57565384615385e+01 7.39277868725336e-03 8.28814930510368e-05
1.58111538461538e+01 7.35364355800705e-03 8.25855022095438e-05
1.58657692307692e+01 7.31471559847848e-03 8.22900774844714e-05
1.59203846153846e+01 7.27599371172802e-03 8.19952238614016e-05
1.59750000000000e+01 7.23747680686951e-03 8.17009459665118e-05
1.60296153846154e+01 7.19916379879150e-03 8.14072484605645e-05
1.60842307692308e+01 7.16105360812680e-03 8.11141359086950e-05
1.61388461538462e+01 7.12314516122215e-03 8.08216126586720e-05
1.61934615384615e+01 7.08543739033994e-03 8.05296832131694e-05
1.62480769230769e+01 7.04792923292886e-03 8.02383519830958e-05
1.63026923076923e+01 7.01061963229631e-03 7.99476230385684e-05
1.63573076923077e+01 6.97350753734352e-03 7.96575004865632e-05
1.64119230769231e+01 6.93659190253571e-03 7.93679883460188e-05
1.64665384615385e+01 6.89987168787304e-03 7.90790905490453e-05
1.65211538461538e+01 6.86334585886109e-03 7.87908108249518e-05
1.65757692307692e+01 6.82701338670028e-03 7.85031530546928e-05
1.66303846153846e+01 6.79087324759837e-03 7.82161210358839e-05
1.66850000000000e+01 6.75492442340303e-03 7.79297182455209e-05
1.67396153846154e+01 6.71916590135164e-03 7.76439481995880e-05
1.67942307692308e+01 6.68359667404282e-03 7.73588143341081e-05
1.68488461538462e+01 6.64821573940814e-03 7.70743198938101e-05
1.69034615384615e+01 6.61302210089132e-03 7.67904682720698e-05
1.69580769230769e+01 6.57801476679492e-03 7.65072627855252e-05
1.70126923076923e+01 6.54319275088037e-03 7.62247064464765e-05
1.70673076923077e+01 6.50855507212991e-03 7.59428023077514e-05
1.71219230769231e+01 6.47410075471888e-03 7.56615533485423e-05
1.71765384615385e+01 6.43982882798845e-03 7.53809624754246e-05
1.72311538461538e+01 6.40573832641817e-03 7.51010324162532e-05
