Energy (eV)          EEDF (eV^-(3/2))     First Anisotropy
1.03092783505155e-03 6.15104383587527e-01 2.82824372185947e-08
3.09278350515464e-03 6.15104364814334e-01 8.21147564100336e-08
5.15463917525773e-03 6.15104320591406e-01 1.94481429454073e-07
7.21649484536083e-03 6.15104249151776e-01 3.36932284762399e-07
9.27835051546392e-03 6.15104151109789e-01 4.98171110876949e-07
1.13402061855670e-02 6.15104027998163e-01 6.78155523868269e-07
1.34020618556701e-02 6.15103878604355e-01 8.78714022496305e-07
1.54639175257732e-02 6.15103702956108e-01 1.08837171391951e-06
1.75257731958763e-02 6.15103503530778e-01 1.29802628043956e-06
1.95876288659794e-02 6.15103282464004e-01 1.50723308142429e-06
2.16494845360825e-02 6.15103041346006e-01 1.71723317604894e-06
2.37113402061856e-02 6.15102781225943e-01 1.93179033743956e-06
2.57731958762887e-02 6.15102502165834e-01 2.15335441363478e-06
2.78350515463918e-02 6.15102204324243e-01 2.38092583452740e-06
2.98969072164948e-02 6.15101887917645e-01 2.61070221349040e-06
3.19587628865979e-02 6.15101553954563e-01 2.83904936367253e-06
3.40206185567010e-02 6.15101203367251e-01 3.07066509782641e-06
3.60824742268041e-02 6.15100835837359e-01 3.31028657609507e-06
3.81443298969072e-02 6.15100451118611e-01 3.55736420952749e-06
4.02061855670103e-02 6.15100049025633e-01 3.81360017746946e-06
4.22680412371134e-02 6.15099628939908e-01 4.08124005066460e-06
4.43298969072165e-02 6.15099190225054e-01 4.35957962295796e-06
4.63917525773196e-02 6.15098732466850e-01 4.64754112582547e-06
4.84536082474227e-02 6.15098255287553e-01 4.94488128315761e-06
5.05154639175258e-02 6.15097758340591e-01 5.24278439885708e-06
5.25773195876289e-02 6.15097242996875e-01 5.53794538303252e-06
5.46391752577320e-02 6.15096709468340e-01 5.83894493966080e-06
5.67010309278351e-02 6.15096157393666e-01 6.14868782410127e-06
5.87628865979381e-02 6.15095586431709e-01 6.46705885465893e-06
6.08247422680412e-02 6.15094996258295e-01 6.79408828734891e-06
6.28865979381443e-02 6.15094386541185e-01 7.13021014372773e-06
6.49484536082474e-02 6.15093756893592e-01 7.47579517458227e-06
6.70103092783505e-02 6.15093106934356e-01 7.83083824431294e-06
6.90721649484536e-02 6.15092436293917e-01 8.19446383490385e-06
7.11340206185567e-02 6.15091744755107e-01 8.55026607191784e-06
7.31958762886598e-02 6.15091034715925e-01 8.89826419507503e-06
7.52577319587629e-02 6.15090305859983e-01 9.25440886111703e-06
7.73195876288660e-02 6.15089557879837e-01 9.61866853225927e-06
7.93814432989691e-02 6.15088790476316e-01 9.99102603823610e-06
8.14432989690722e-02 6.15088003355817e-01 1.03715604535890e-05
8.35051546391753e-02 6.15087196217445e-01 1.07604910663571e-05
8.55670103092784e-02 6.15086368744115e-01 1.11579114776514e-05
8.76288659793815e-02 6.15085520630936e-01 1.15637241027477e-05
8.96907216494845e-02 6.15084651585356e-01 1.19778465227804e-05
9.17525773195876e-02 6.15083761323554e-01 1.24002971452624e-05
9.38144329896907e-02 6.15082849558376e-01 1.28312064334072e-05
9.58762886597938e-02 6.15081915994627e-01 1.32706533154055e-05
9.79381443298969e-02 6.15080960341290e-01 1.37186516188217e-05
1.00000000000000e-01 6.15079982308600e-01 1.41645681766743e-05
1.02061855670103e-01 6.15078983150160e-01 1.45966550312216e-05
1.04123711340206e-01 6.15077964224968e-01 1.50240284793966e-05
1.06185567010309e-01 6.15076925412444e-01 1.54569123684839e-05
1.08247422680412e-01 6.15075866590910e-01 1.58953236340901e-05
1.10309278350515e-01 6.15074787637358e-01 1.63392810759966e-05
1.12371134020619e-01 6.15073688427526e-01 1.67888032088871e-05
1.14432989690722e-01 6.15072568835965e-01 1.72439083068253e-05
1.16494845360825e-01 6.15071428736098e-01 1.77046144278907e-05
1.18556701030928e-01 6.15070268000268e-01 1.81709394419646e-05
1.20618556701031e-01 6.15069086499794e-01 1.86429010516353e-05
1.22680412371134e-01 6.15067884105008e-01 1.91205168271132e-05
1.24742268041237e-01 6.15066660685295e-01 1.96038042148433e-05
1.26804123711340e-01 6.15065416109133e-01 2.00927805534404e-05
1.28865979381443e-01 6.15064150244122e-01 2.05874630969765e-05
1.30927835051546e-01 6.15062862957014e-01 2.10878690267107e-05
1.32989690721649e-01 6.15061554113737e-01 2.15940154566961e-05
1.35051546391753e-01 6.15060223579427e-01 2.21059194637952e-05
1.37113402061856e-01 6.15058871218441e-01 2.26235980914937e-05
1.39175257731959e-01 6.15057496894383e-01 2.31470683445225e-05
1.41237113402062e-01 6.15056100470118e-01 2.36763472110353e-05
1.43298969072165e-01 6.15054681807794e-01 2.42114516749632e-05
1.45360824742268e-01 6.15053240768851e-01 2.47523987093836e-05
1.47422680412371e-01 6.15051777214039e-01 2.52992052908436e-05
1.49484536082474e-01 6.15050291003429e-01 2.58518884086554e-05
1.51546391752577e-01 6.15048781996424e-01 2.64104650610970e-05
1.53608247422680e-01 6.15047250051770e-01 2.69749522669513e-05
1.55670103092784e-01 6.15045695027566e-01 2.75453670607612e-05
1.57731958762887e-01 6.15044116781270e-01 2.81217265024421e-05
1.59793814432990e-01 6.15042515169711e-01 2.87040476869789e-05
1.61855670103093e-01 6.15040890049092e-01 2.92923477352581e-05
1.63917525773196e-01 6.15039241275000e-01 2.98866438061653e-05
1.65979381443299e-01 6.15037568702406e-01 3.04869530925881e-05
1.68041237113402e-01 6.15035872185679e-01 3.10932928210519e-05
1.70103092783505e-01 6.15034151578583e-01 3.17056800641082e-05
1.72164948453608e-01 6.15032406734307e-01 3.23241311308838e-05
1.74226804123711e-01 6.15030637505534e-01 3.29486604626373e-05
1.76288659793814e-01 6.15028843744582e-01 3.35792786007442e-05
1.78350515463918e-01 6.15027025303691e-01 3.42159884852137e-05
1.80412371134021e-01 6.15025182035549e-01 3.48587796081204e-05
1.82474226804124e-01 6.15023313794181e-01 3.55076203186504e-05
1.84536082474227e-01 6.15021420436263e-01 3.61624395389332e-05
1.86597938144330e-01 6.15019501823883e-01 3.68231195501029e-05
1.88659793814433e-01 6.15017557826513e-01 3.74895180017450e-05
1.90721649484536e-01 6.15015588321356e-01 3.81614855618835e-05
1.92783505154639e-01 6.15013593193420e-01 3.88388805645379e-05
1.94845360824742e-01 6.15011572334329e-01 3.95215906412361e-05
1.96907216494845e-01 6.15009525640200e-01 4.02095449003905e-05
1.98969072164948e-01 6.15007453009287e-01 4.09027110594288e-05
2.01030927835052e-01 6.15005354340271e-01 4.15562140171447e-05
2.03092783505155e-01 6.15003234387360e-01 4.21688821005534e-05
2.05154639175258e-01 6.15001093119660e-01 4.27845611003682e-05
2.07216494845361e-01 6.14998930522027e-01 4.34030798613136e-05
2.09278350515464e-01 6.14996746579251e-01 4.40244234126535e-05
2.11340206185567e-01 6.14994541276044e-01 4.46485772004499e-05
2.13402061855670e-01 6.14992314597029e-01 4.52755270830336e-05
2.15463917525773e-01 6.14990066526734e-01 4.59052592994023e-05
2.17525773195876e-01 6.14987797049585e-01 4.65377604641201e-05
2.19587628865979e-01 6.14985506149895e-01 4.71730175667764e-05
2.21649484536082e-01 6.14983193811863e-01 4.78110179487167e-05
2.23711340206186e-01 6.14980860019562e-01 4.84517492976782e-05
2.25773195876289e-01 6.14978504756934e-01 4.90951996424323e-05
2.27835051546392e-01 6.14976128007788e-01 4.97413573428064e-05
2.29896907216495e-01 6.14973729755788e-01 5.03902110877254e-05
2.31958762886598e-01 6.14971309984454e-01 5.10417498700228e-05
2.34020618556701e-01 6.14968868677153e-01 5.16959629841916e-05
2.36082474226804e-01 6.14966405817096e-01 5.23528400312701e-05
2.38144329896907e-01 6.14963921387334e-01 5.30123709039233e-05
2.40206185567010e-01 6.14961415370751e-01 5.36745457772241e-05
2.42268041237113e-01 6.14958887750066e-01 5.43393551041045e-05
2.44329896907216e-01 6.14956338507821e-01 5.50067896060599e-05
2.46391752577320e-01 6.14953767626384e-01 5.56768402673604e-05
2.48453608247423e-01 6.14951175087944e-01 5.63494983364659e-05
2.50515463917526e-01 6.14948560874505e-01 5.70247553070928e-05
2.52577319587629e-01 6.14945924967889e-01 5.77026029207672e-05
2.54639175257732e-01 6.14943267349725e-01 5.83830331659100e-05
2.56701030927835e-01 6.14940588001455e-01 5.90660382672633e-05
2.58762886597938e-01 6.14937886904322e-01 5.97516106739782e-05
2.60824742268041e-01 6.14935164039379e-01 6.04397430549279e-05
2.62886597938144e-01 6.14932419387474e-01 6.11304283051172e-05
2.64948453608247e-01 6.14929652929260e-01 6.18236595399739e-05
2.67010309278351e-01 6.14926864645184e-01 6.25194300784651e-05
2.69072164948454e-01 6.14924054515488e-01 6.32177334077612e-05
2.71134020618557e-01 6.14921222520213e-01 6.39185630678238e-05
2.73195876288660e-01 6.14918368639205e-01 6.46219123578150e-05
2.75257731958763e-01 6.14915492852141e-01 6.53277738279802e-05
2.77319587628866e-01 6.14912595138584e-01 6.60361383583465e-05
2.79381443298969e-01 6.14909675478089e-01 6.67469935897852e-05
2.81443298969072e-01 6.14906733850395e-01 6.74603217336100e-05
2.83505154639175e-01 6.14903770235714e-01 6.81760952099564e-05
2.85567010309278e-01 6.14900784615302e-01 6.88942723256950e-05
2.87628865979381e-01 6.14897776972112e-01 6.96147999173186e-05
2.89690721649485e-01 6.14894747291110e-01 7.03376200199587e-05
2.91752577319588e-01 6.14891695559334e-01 7.10626753144178e-05
2.93814432989691e-01 6.14888621765733e-01 7.17899153087028e-05
2.95876288659794e-01 6.14885525900690e-01 7.25193020403189e-05
2.97938144329897e-01 6.14882407955376e-01 7.32508114923189e-05
3.00000000000000e-01 6.14879267921179e-01 7.39761982132370e-05
3.02061855670103e-01 6.14876106622802e-01 7.47043474398691e-05
3.04123711340206e-01 6.14872923427254e-01 7.54775140026981e-05
3.06185567010309e-01 6.14869715453843e-01 7.63197690524777e-05
3.08247422680412e-01 6.14866479936280e-01 7.72290139744575e-05
3.10309278350515e-01 6.14863214218845e-01 7.82032031875747e-05
3.12371134020619e-01 6.14859915752716e-01 7.92403423367049e-05
3.14432989690722e-01 6.14856582092426e-01 8.03384868420644e-05
3.16494845360825e-01 6.14853210892453e-01 8.14957405213724e-05
3.18556701030928e-01 6.14849799903925e-01 8.27102542196156e-05
3.20618556701031e-01 6.14846346971451e-01 8.39802244694924e-05
3.22680412371134e-01 6.14842850030054e-01 8.53038922557735e-05
3.24742268041237e-01 6.14839307102221e-01 8.66795417856092e-05
3.26804123711340e-01 6.14835716295047e-01 8.81054992997501e-05
3.28865979381443e-01 6.14832075797486e-01 8.95801319182487e-05
3.30927835051546e-01 6.14828383877698e-01 9.11018465248191e-05
3.32989690721649e-01 6.14824638880477e-01 9.26690886940041e-05
3.35051546391753e-01 6.14820839224781e-01 9.42803416420235e-05
3.37113402061856e-01 6.14816983401341e-01 9.59341252173047e-05
3.39175257731959e-01 6.14813069970348e-01 9.76289948960773e-05
3.41237113402062e-01 6.14809097559226e-01 9.93635408564600e-05
3.43298969072165e-01 6.14805064860473e-01 1.01136387044259e-04
3.45360824742268e-01 6.14800970629585e-01 1.02946190245682e-04
3.47422680412371e-01 6.14796813683040e-01 1.04791639262980e-04
3.49484536082474e-01 6.14792592896355e-01 1.06671454063954e-04
3.51546391752577e-01 6.14788307202203e-01 1.08584384931285e-04
3.53608247422680e-01 6.14783955588605e-01 1.10529211684291e-04
3.55670103092784e-01 6.14779537097163e-01 1.12504742905425e-04
3.57731958762887e-01 6.14775050821374e-01 1.14509815178355e-04
3.59793814432990e-01 6.14770495904977e-01 1.16543292381175e-04
3.61855670103093e-01 6.14765871540374e-01 1.18604064967481e-04
3.63917525773196e-01 6.14761176967089e-01 1.20691049262994e-04
3.65979381443299e-01 6.14756411470287e-01 1.22803186822927e-04
3.68041237113402e-01 6.14751574379335e-01 1.24939443772417e-04
3.70103092783505e-01 6.14746665066411e-01 1.27098810129617e-04
3.72164948453608e-01 6.14741682945166e-01 1.29280299115911e-04
3.74226804123711e-01 6.14736627469426e-01 1.31482946385911e-04
3.76288659793814e-01 6.14731498131951e-01 1.33705809092493e-04
3.78350515463918e-01 6.14726294463254e-01 1.35947964716316e-04
3.80412371134021e-01 6.14721016030476e-01 1.38208509534456e-04
3.82474226804124e-01 6.14715662436365e-01 1.40486556872119e-04
3.84536082474227e-01 6.14710233318319e-01 1.42781233773320e-04
3.86597938144330e-01 6.14704728347644e-01 1.45091679397892e-04
3.88659793814433e-01 6.14699147228750e-01 1.47417047954856e-04
3.90721649484536e-01 6.14693489698201e-01 1.49756511193082e-04
3.92783505154639e-01 6.14687755523750e-01 1.52109260845466e-04
3.94845360824742e-01 6.14681944503218e-01 1.54474511817234e-04
3.96907216494845e-01 6.14676056463312e-01 1.56851503619435e-04
3.98969072164948e-01 6.14670091258435e-01 1.59239499004919e-04
4.01030927835052e-01 6.14664048769637e-01 1.61584339867471e-04
4.03092783505155e-01 6.14657933557040e-01 1.63924313606183e-04
4.05154639175258e-01 6.14651742626749e-01 1.66350526788323e-04
4.07216494845361e-01 6.14645473082534e-01 1.68860606930040e-04
4.09278350515464e-01 6.14639122144303e-01 1.71451953414983e-04
4.11340206185567e-01 6.14632687144521e-01 1.74122030548156e-04
4.13402061855670e-01 6.14626165524734e-01 1.76868366017796e-04
4.15463917525773e-01 6.14619554832195e-01 1.79688549427603e-04
4.17525773195876e-01 6.14612852716594e-01 1.82580230841775e-04
4.19587628865979e-01 6.14606056926876e-01 1.85541119371519e-04
4.21649484536082e-01 6.14599165308161e-01 1.88568981814031e-04
4.23711340206186e-01 6.14592175798751e-01 1.91661641293103e-04
4.25773195876289e-01 6.14585086427224e-01 1.94816975985916e-04
4.27835051546392e-01 6.14577895309612e-01 1.98032917864085e-04
4.29896907216495e-01 6.14570600646661e-01 2.01307451433553e-04
4.31958762886598e-01 6.14563200721177e-01 2.04638612556697e-04
4.34020618556701e-01 6.14555693895435e-01 2.08024487259605e-04
4.36082474226804e-01 6.14548078608678e-01 2.11463210595701e-04
4.38144329896907e-01 6.14540353374678e-01 2.14952965530668e-04
4.40206185567010e-01 6.14532516779374e-01 2.18491981856043e-04
4.42268041237113e-01 6.14524567478569e-01 2.22078535132765e-04
4.44329896907217e-01 6.14516504195705e-01 2.25710945658224e-04
4.46391752577320e-01 6.14508325719687e-01 2.29387577451775e-04
4.48453608247423e-01 6.14500030902786e-01 2.33106837259735e-04
4.50515463917526e-01 6.14491618658588e-01 2.36867173622818e-04
4.52577319587629e-01 6.14483087960007e-01 2.40667075936016e-04
4.54639175257732e-01 6.14474437837353e-01 2.44505073507775e-04
4.56701030927835e-01 6.14465667376460e-01 2.48379734684664e-04
4.58762886597938e-01 6.14456775716858e-01 2.52289665989905e-04
4.60824742268041e-01 6.14447762050006e-01 2.56233511271843e-04
4.62886597938144e-01 6.14438625617565e-01 2.60209950872516e-04
4.64948453608247e-01 6.14429365709729e-01 2.64217700818708e-04
4.67010309278351e-01 6.14419981663599e-01 2.68255512028479e-04
4.69072164948454e-01 6.14410472861602e-01 2.72322169539071e-04
4.71134020618557e-01 6.14400838729954e-01 2.76416491725285e-04
4.73195876288660e-01 6.14391078737173e-01 2.80537329472411e-04
4.75257731958763e-01 6.14381192392634e-01 2.84683565306636e-04
4.77319587628866e-01 6.14371179245169e-01 2.88854112453469e-04
4.79381443298969e-01 6.14361038881725e-01 2.93047913675252e-04
4.81443298969072e-01 6.14350770926075e-01 2.97263939933946e-04
4.83505154639175e-01 6.14340375037594e-01 3.01501188529232e-04
4.85567010309278e-01 6.14329850910132e-01 3.05758681153071e-04
4.87628865979381e-01 6.14319198270952e-01 3.10035464132014e-04
4.89690721649485e-01 6.14308416879602e-01 3.14330610097729e-04
4.91752577319588e-01 6.14297506526757e-01 3.18643219116252e-04
4.93814432989691e-01 6.14286467033040e-01 3.22972419875362e-04
4.95876288659794e-01 6.14275298247798e-01 3.27317371100482e-04
4.97938144329897e-01 6.14264000047841e-01 3.31677261122244e-04
5.00000000000000e-01 6.14252572336285e-01 3.36020980249050e-04
5.02061855670103e-01 6.14241017358609e-01 3.40320449352281e-04
5.04123711340206e-01 6.14229337177216e-01 3.44611625059135e-04
5.06185567010309e-01 6.14217531333142e-01 3.48927155132000e-04
5.08247422680412e-01 6.14205599414654e-01 3.53265696547968e-04
5.10309278350515e-01 6.14193541055824e-01 3.57625938193357e-04
5.12371134020619e-01 6.14181355935127e-01 3.62006600472313e-04
5.14432989690722e-01 6.14169043774077e-01 3.66406434689555e-04
5.16494845360825e-01 6.14156604335896e-01 3.70824222446797e-04
5.18556701030928e-01 6.14144037424215e-01 3.75258775061572e-04
5.20618556701031e-01 6.14131342881807e-01 3.79708932959501e-04
5.22680412371134e-01 6.14118520589358e-01 3.84173565144216e-04
5.24742268041237e-01 6.14105570464262e-01 3.88651568631802e-04
5.26804123711340e-01 6.14092492459446e-01 3.93141867892771e-04
5.28865979381443e-01 6.14079286562233e-01 3.97643414340192e-04
5.30927835051546e-01 6.14065952793223e-01 4.02155185798141e-04
5.32989690721649e-01 6.14052491205211e-01 4.06676185993874e-04
5.35051546391753e-01 6.14038901882123e-01 4.11205444065898e-04
5.37113402061856e-01 6.14025184937987e-01 4.15742014068261e-04
5.39175257731959e-01 6.14011340515924e-01 4.20284974486343e-04
5.41237113402062e-01 6.13997368787170e-01 4.24833427772889e-04
5.43298969072165e-01 6.13983269950112e-01 4.29386499887933e-04
5.45360824742268e-01 6.13969044229365e-01 4.33943339849567e-04
5.47422680412371e-01 6.13954691874850e-01 4.38503119284085e-04
5.49484536082474e-01 6.13940213160919e-01 4.43065031994285e-04
5.51546391752577e-01 6.13925608385479e-01 4.47628293536145e-04
5.53608247422680e-01 6.13910877869157e-01 4.52192140799080e-04
5.55670103092784e-01 6.13896021954474e-01 4.56755831596763e-04
5.57731958762887e-01 6.13881041005044e-01 4.61318644267130e-04
5.59793814432990e-01 6.13865935404791e-01 4.65879877281791e-04
5.61855670103093e-01 6.13850705557190e-01 4.70438848841243e-04
5.63917525773196e-01 6.13835351884520e-01 4.74994896524270e-04
5.65979381443299e-01 6.13819874827145e-01 4.79547376910052e-04
5.68041237113402e-01 6.13804274842801e-01 4.84095665195257e-04
5.70103092783505e-01 6.13788552405912e-01 4.88639154844599e-04
5.72164948453608e-01 6.13772708006919e-01 4.93177257200972e-04
5.74226804123711e-01 6.13756742151627e-01 4.97709401052355e-04
5.76288659793814e-01 6.13740655360573e-01 5.02235032167954e-04
5.78350515463918e-01 6.13724448168417e-01 5.06753612704710e-04
5.80412371134021e-01 6.13708121123356e-01 5.11264620484418e-04
5.82474226804124e-01 6.13691674786575e-01 5.15767548159436e-04
5.84536082474227e-01 6.13675109731723e-01 5.20261901806364e-04
5.86597938144330e-01 6.13658426544464e-01 5.24747200589069e-04
5.88659793814433e-01 6.13641625821980e-01 5.29222978065849e-04
5.90721649484536e-01 6.13624708172445e-01 5.33688782360329e-04
5.92783505154639e-01 6.13607674214528e-01 5.38144177152992e-04
5.94845360824742e-01 6.13590524576799e-01 5.42588743706512e-04
5.96907216494845e-01 6.13573259897101e-01 5.47022080952386e-04
5.98969072164948e-01 6.13555880821970e-01 5.51443803780088e-04
6.01030927835052e-01 6.13538388006143e-01 5.55909070593639e-04
6.03092783505155e-01 6.13520778605984e-01 5.60579228284755e-04
6.05154639175258e-01 6.13503043111222e-01 5.65607855324812e-04
6.07216494845361e-01 6.13485169061803e-01 5.71036681493146e-04
6.09278350515464e-01 6.13467144418803e-01 5.76854138718659e-04
6.11340206185567e-01 6.13448957553582e-01 5.83048916508705e-04
6.13402061855670e-01 6.13430597237193e-01 5.89609956307498e-04
6.15463917525773e-01 6.13412052630068e-01 5.96526446016049e-04
6.17525773195876e-01 6.13393313271958e-01 6.03787814629036e-04
6.19587628865979e-01 6.13374369072121e-01 6.11383726982596e-04
6.21649484536082e-01 6.13355210299764e-01 6.19304078619452e-04
6.23711340206186e-01 6.13335827574714e-01 6.27538990799136e-04
6.25773195876289e-01 6.13316211858330e-01 6.36078805602714e-04
6.27835051546392e-01 6.13296354444632e-01 6.44914081125484e-04
6.29896907216495e-01 6.13276246951661e-01 6.54035586808454e-04
6.31958762886598e-01 6.13255881313047e-01 6.63434298850315e-04
6.34020618556701e-01 6.13235249769791e-01 6.73101395723672e-04
6.36082474226804e-01 6.13214344862247e-01 6.83028253787086e-04
6.38144329896907e-01 6.13193159422308e-01 6.93206442989764e-04
6.40206185567010e-01 6.13171686565789e-01 7.03627722667422e-04
6.42268041237113e-01 6.13149919684987e-01 7.14284037440491e-04
6.44329896907217e-01 6.13127852441442e-01 7.25167513189653e-04
6.46391752577320e-01 6.13105478758868e-01 7.36270453110598e-04
6.48453608247423e-01 6.13082792816263e-01 7.47585333862585e-04
6.50515463917526e-01 6.13059789041189e-01 7.59104801801869e-04
