Energy (eV)          EEDF (eV^-(3/2))     First Anisotropy
7.05357142857143e-03 3.25188029316401e-01 1.62383843772914e-04
2.11607142857143e-02 3.23188518244915e-01 2.68219206812212e-04
3.52678571428571e-02 3.21201301745130e-01 3.54284659297294e-04
4.93750000000000e-02 3.19226304208220e-01 4.19794151026687e-04
6.34821428571428e-02 3.17263450507706e-01 4.74533369939031e-04
7.75892857142857e-02 3.15312665969936e-01 5.22198222797507e-04
9.16964285714286e-02 3.13373876386869e-01 5.64699414755693e-04
1.05803571428571e-01 3.11447008001947e-01 6.03189627868383e-04
1.19910714285714e-01 3.09531987512524e-01 6.38432595633726e-04
1.34017857142857e-01 3.07628742069121e-01 6.70967585532322e-04
1.48125000000000e-01 3.05737199269974e-01 7.01193404322670e-04
1.62232142857143e-01 3.03857287170489e-01 7.29415583846247e-04
1.76339285714286e-01 3.01988934243217e-01 7.55874814610555e-04
1.90446428571429e-01 3.00132069413590e-01 7.80765042750745e-04
2.04553571428571e-01 2.98286622044004e-01 8.04245507465126e-04
2.18660714285714e-01 2.96452521931023e-01 8.26449032138357e-04
2.32767857142857e-01 2.94629699302998e-01 8.47487911702824e-04
2.46875000000000e-01 2.92818084817255e-01 8.67458199032442e-04
2.60982142857143e-01 2.91017609564513e-01 8.86442898283162e-04
2.75089285714286e-01 2.89228205044748e-01 9.04514383441821e-04
2.89196428571429e-01 2.87449803186525e-01 9.21736263274627e-04
3.03303571428571e-01 2.85682336336948e-01 9.38164845029932e-04
3.17410714285714e-01 2.83925737259038e-01 9.53850292331121e-04
3.31517857142857e-01 2.82179939129295e-01 9.68837555138425e-04
3.45625000000000e-01 2.80444875535091e-01 9.83167123412050e-04
3.59732142857143e-01 2.78720480476990e-01 9.96875646998393e-04
3.73839285714286e-01 2.77006688351499e-01 1.00999644475495e-03
3.87946428571429e-01 2.75303433963532e-01 1.02255992843373e-03
4.02053571428571e-01 2.73610652518866e-01 1.03459396170366e-03
4.16160714285714e-01 2.71928279621650e-01 1.04612416103007e-03
4.30267857142857e-01 2.70256251272018e-01 1.05717415215767e-03
4.44375000000000e-01 2.68594503863621e-01 1.06776578894774e-03
4.58482142857143e-01 2.66942974184828e-01 1.07791934384042e-03
4.72589285714286e-01 2.65301599405328e-01 1.08765366984351e-03
4.86696428571429e-01 2.63670317084872e-01 1.09698634109889e-03
5.00803571428571e-01 2.62049065167141e-01 1.10593377835462e-03
5.14910714285714e-01 2.60437781977362e-01 1.11451135675303e-03
5.29017857142857e-01 2.58836406220010e-01 1.12273350119548e-03
5.43125000000000e-01 2.57244876976446e-01 1.13061377006632e-03
5.57232142857143e-01 2.55663133705448e-01 1.13816493137961e-03
5.71339285714286e-01 2.54091116232290e-01 1.14539902813273e-03
5.85446428571429e-01 2.52528764755163e-01 1.15232743649144e-03
5.99553571428571e-01 2.50976019839965e-01 1.15896092030589e-03
6.13660714285714e-01 2.49432822418028e-01 1.16530967812085e-03
6.27767857142857e-01 2.47899113783895e-01 1.17138338594298e-03
6.41875000000000e-01 2.46374835593077e-01 1.17719123538387e-03
6.55982142857143e-01 2.44859929862136e-01 1.18274196987865e-03
6.70089285714286e-01 2.43354338959495e-01 1.18804391541674e-03
6.84196428571428e-01 2.41858005610302e-01 1.19310500837416e-03
6.98303571428571e-01 2.40370872891874e-01 1.19793282303225e-03
7.12410714285714e-01 2.38892884231523e-01 1.20253459498567e-03
7.26517857142857e-01 2.37423983404424e-01 1.20691724296109e-03
7.40625000000000e-01 2.35964114531464e-01 1.21108738841138e-03
7.54732142857143e-01 2.34513222079036e-01 1.21505137503913e-03
7.68839285714286e-01 2.33071250851122e-01 1.21881528485567e-03
7.82946428571428e-01 2.31638145993050e-01 1.22238495289969e-03
7.97053571428571e-01 2.30213852987436e-01 1.22576598276268e-03
8.11160714285714e-01 2.28798317652106e-01 1.22896375940228e-03
8.25267857142857e-01 2.27391486138044e-01 1.23198346137433e-03
8.39375000000000e-01 2.25993304927343e-01 1.23483007181389e-03
8.53482142857143e-01 2.24603720832785e-01 1.23750839001683e-03
8.67589285714286e-01 2.23222680990913e-01 1.24002304049105e-03
8.81696428571428e-01 2.21850132864972e-01 1.24237848132136e-03
8.95803571428571e-01 2.20486024241241e-01 1.24457901372277e-03
9.09910714285714e-01 2.19130303227046e-01 1.24662878956619e-03
9.24017857142857e-01 2.17782918248792e-01 1.24853181874823e-03
9.38125000000000e-01 2.16443818050003e-01 1.25029197576163e-03
9.52232142857143e-01 2.15112951690754e-01 1.25191300710951e-03
9.66339285714286e-01 2.13790268541535e-01 1.25339853669604e-03
9.80446428571428e-01 2.12475718285561e-01 1.25475207083672e-03
9.94553571428571e-01 2.11169250915431e-01 1.25597700366013e-03
1.00866071428571e+00 2.09870816735026e-01 1.25707662659982e-03
1.02276785714286e+00 2.08580366337345e-01 1.25805412402060e-03
1.03687500000000e+00 2.07297850644519e-01 1.25891258189923e-03
1.05098214285714e+00 2.06023220867579e-01 1.25965499902486e-03
1.06508928571429e+00 2.04756428517562e-01 1.26028428450485e-03
1.07919642857143e+00 2.03497425392167e-01 1.26080325603102e-03
1.09330357142857e+00 2.02246163608819e-01 1.26121464918533e-03
1.10741071428571e+00 2.01002595567487e-01 1.26152112922712e-03
1.12151785714286e+00 1.99766673949976e-01 1.26172527720434e-03
1.13562500000000e+00 1.98538351751140e-01 1.26182960148005e-03
1.14973214285714e+00 1.97317582243648e-01 1.26183654610074e-03
1.16383928571429e+00 1.96104318987492e-01 1.26174848760515e-03
1.17794642857143e+00 1.94898515818133e-01 1.26156773255797e-03
1.19205357142857e+00 1.93700126875351e-01 1.26129652526619e-03
1.20616071428571e+00 1.92509106570511e-01 1.26093705784087e-03
1.22026785714286e+00 1.91325409585745e-01 1.26049145676153e-03
1.23437500000000e+00 1.90148990901264e-01 1.25996179278627e-03
1.24848214285714e+00 1.88979805764248e-01 1.25935008802348e-03
1.26258928571429e+00 1.87817809697060e-01 1.25865831244043e-03
1.27669642857143e+00 1.86662958486638e-01 1.25788838104663e-03
1.29080357142857e+00 1.85515208209842e-01 1.25704216048168e-03
1.30491071428571e+00 1.84374515204434e-01 1.25612147780382e-03
1.31901785714286e+00 1.83240836068185e-01 1.25512810768317e-03
1.33312500000000e+00 1.82114127682933e-01 1.25406378110000e-03
1.34723214285714e+00 1.80994347186934e-01 1.25293019146721e-03
1.36133928571429e+00 1.79881451981996e-01 1.25172899105456e-03
1.37544642857143e+00 1.78775399723931e-01 1.25046178803393e-03
1.38955357142857e+00 1.77676148344970e-01 1.24913015222533e-03
1.40366071428571e+00 1.76583656027864e-01 1.24773562290120e-03
1.41776785714286e+00 1.75497881204951e-01 1.24627969667583e-03
1.43187500000000e+00 1.74418782579472e-01 1.24476383525494e-03
1.44598214285714e+00 1.73346319100844e-01 1.24318947083183e-03
1.46008928571429e+00 1.72280449970897e-01 1.24155800254588e-03
1.47419642857143e+00 1.71221134635246e-01 1.23987079351098e-03
1.48830357142857e+00 1.70168332803193e-01 1.23812917590699e-03
1.50241071428571e+00 1.69122004424520e-01 1.23633445799477e-03
1.51651785714286e+00 1.68082109688514e-01 1.23448791271341e-03
1.53062500000000e+00 1.67048609042948e-01 1.23259078466117e-03
1.54473214285714e+00 1.66021463171868e-01 1.23064429491561e-03
1.55883928571429e+00 1.65000633001065e-01 1.22864963759187e-03
1.57294642857143e+00 1.63986079690237e-01 1.22660797692286e-03
1.58705357142857e+00 1.62977764650761e-01 1.22452045182524e-03
1.60116071428571e+00 1.61975649524771e-01 1.22238818226214e-03
1.61526785714286e+00 1.60979696184188e-01 1.22021225853208e-03
1.62937500000000e+00 1.59989866747682e-01 1.21799374761028e-03
1.64348214285714e+00 1.59006123560624e-01 1.21573369749776e-03
1.65758928571429e+00 1.58028429199918e-01 1.21343313391424e-03
1.67169642857143e+00 1.57056746466850e-01 1.21109305746954e-03
1.68580357142857e+00 1.56091038403014e-01 1.20871444779551e-03
1.69991071428571e+00 1.55131268271388e-01 1.20629826935733e-03
1.71401785714286e+00 1.54177399555360e-01 1.20384546140383e-03
1.72812500000000e+00 1.53229395973954e-01 1.20135694376492e-03
1.74223214285714e+00 1.52287221463668e-01 1.19883362080655e-03
1.75633928571429e+00 1.51350840182748e-01 1.19627637827517e-03
1.77044642857143e+00 1.50420216504645e-01 1.19368608058155e-03
1.78455357142857e+00 1.49495315032340e-01 1.19106357456656e-03
1.79866071428571e+00 1.48576100581165e-01 1.18840969483748e-03
1.81276785714286e+00 1.47662538177830e-01 1.18572525434345e-03
1.82687500000000e+00 1.46754593074140e-01 1.18301104970199e-03
1.84098214285714e+00 1.45852230730486e-01 1.18026786481835e-03
1.85508928571429e+00 1.44955416819632e-01 1.17749646788781e-03
1.86919642857143e+00 1.44064117220719e-01 1.17469760880217e-03
1.88330357142857e+00 1.43178298032182e-01 1.17187202260123e-03
1.89741071428571e+00 1.42297925556107e-01 1.16902043439372e-03
1.91151785714286e+00 1.41422966297275e-01 1.16614355051942e-03
1.92562500000000e+00 1.40553386975545e-01 1.16324206346375e-03
1.93973214285714e+00 1.39689154510802e-01 1.16031665518505e-03
1.95383928571429e+00 1.38830236026336e-01 1.15736799427541e-03
1.96794642857143e+00 1.37976598843314e-01 1.15439673349381e-03
1.98205357142857e+00 1.37128210492471e-01 1.15140351294371e-03
1.99616071428571e+00 1.36285038699825e-01 1.14838896462662e-03
2.01026785714286e+00 1.35447051385733e-01 1.14535370415289e-03
2.02437500000000e+00 1.34614216676111e-01 1.14229833529066e-03
2.03848214285714e+00 1.33786502888668e-01 1.13922345303729e-03
2.05258928571429e+00 1.32963878535922e-01 1.13612964093516e-03
2.06669642857143e+00 1.32146312320104e-01 1.13301746873086e-03
2.08080357142857e+00 1.31333773143757e-01 1.12988749531170e-03
2.09491071428571e+00 1.30526230096661e-01 1.12674027293134e-03
2.10901785714286e+00 1.29723652454906e-01 1.12357633943224e-03
2.12312500000000e+00 1.28926009691076e-01 1.12039622246786e-03
2.13723214285714e+00 1.28133271461640e-01 1.11720044234681e-03
2.15133928571429e+00 1.27345407609642e-01 1.11398950949826e-03
2.16544642857143e+00 1.26562388159991e-01 1.11076392225487e-03
2.17955357142857e+00 1.25784183329099e-01 1.10752416957423e-03
2.19366071428571e+00 1.25010763512880e-01 1.10427073496970e-03
2.20776785714286e+00 1.24242099285845e-01 1.10100408920967e-03
2.22187500000000e+00 1.23478161410369e-01 1.09772469424520e-03
2.23598214285714e+00 1.22718920825107e-01 1.09443300585120e-03
2.25008928571429e+00 1.21964348647407e-01 1.09112947123478e-03
2.26419642857143e+00 1.21214416168945e-01 1.08781452693745e-03
2.27830357142857e+00 1.20469094864506e-01 1.08448860136376e-03
2.29241071428571e+00 1.19728356380943e-01 1.08115211844512e-03
2.30651785714286e+00 1.18992172536304e-01 1.07780549078349e-03
2.32062500000000e+00 1.18260515328275e-01 1.07444912331221e-03
2.33473214285714e+00 1.17533356923517e-01 1.07108341575402e-03
2.34883928571429e+00 1.16810669659834e-01 1.06770876036511e-03
2.36294642857143e+00 1.16092426042124e-01 1.06432553995160e-03
2.37705357142857e+00 1.15378598750388e-01 1.06093413022448e-03
2.39116071428571e+00 1.14669160629562e-01 1.05753490322036e-03
2.40526785714286e+00 1.13964084688665e-01 1.05412822085867e-03
2.41937500000000e+00 1.13263344108512e-01 1.05071443835977e-03
2.43348214285714e+00 1.12566912231880e-01 1.04729390653695e-03
2.44758928571429e+00 1.11874762565459e-01 1.04386696966912e-03
2.46169642857143e+00 1.11186868776085e-01 1.04043396362610e-03
2.47580357142857e+00 1.10503204698066e-01 1.03699521806543e-03
2.48991071428571e+00 1.09823744323794e-01 1.03355105963130e-03
2.50401785714286e+00 1.09148461802920e-01 1.03010180589711e-03
2.51812500000000e+00 1.08477331449407e-01 1.02664776856140e-03
2.53223214285714e+00 1.07810327732453e-01 1.02318925558901e-03
2.54633928571429e+00 1.07147425278240e-01 1.01972656920459e-03
2.56044642857143e+00 1.06488598866431e-01 1.01626000412139e-03
2.57455357142857e+00 1.05833823436878e-01 1.01278984959405e-03
2.58866071428571e+00 1.05183074080942e-01 1.00931639241368e-03
2.60276785714286e+00 1.04536326040694e-01 1.00583991120984e-03
2.61687500000000e+00 1.03893554715380e-01 1.00236067944282e-03
2.63098214285714e+00 1.03254735653017e-01 9.98878967406211e-04
2.64508928571429e+00 1.02619844551975e-01 9.95395040334741e-04
2.65919642857143e+00 1.01988857257710e-01 9.91909156730933e-04
2.67330357142857e+00 1.01361749768913e-01 9.88421570285810e-04
2.68741071428571e+00 1.00738498229479e-01 9.84932532686420e-04
2.70151785714286e+00 1.00119078927726e-01 9.81442288253301e-04
2.71562500000000e+00 9.95034683023309e-02 9.77951076745041e-04
2.72973214285714e+00 9.88916429345483e-02 9.74459135233767e-04
2.74383928571429e+00 9.82835795496284e-02 9.70966696320431e-04
2.75794642857143e+00 9.76792550137739e-02 9.67473986553927e-04
2.77205357142857e+00 9.70786463397854e-02 9.63981228230459e-04
2.78616071428571e+00 9.64817306796112e-02 9.60488642028048e-04
2.80026785714286e+00 9.58884853235999e-02 9.56996441956971e-04
2.81437500000000e+00 9.52988877059497e-02 9.53504837991113e-04
2.82848214285714e+00 9.47129153974886e-02 9.50014037826610e-04
2.84258928571429e+00 9.41305461069568e-02 9.46524245197908e-04
2.85669642857143e+00 9.35517576781628e-02 9.43035658384259e-04
2.87080357142857e+00 9.29765280951726e-02 9.39548471897294e-04
2.88491071428571e+00 9.24048354753940e-02 9.36062878955228e-04
2.89901785714286e+00 9.18366580688553e-02 9.32579066725913e-04
2.91312500000000e+00 9.12719742632171e-02 9.29097218797866e-04
2.92723214285714e+00 9.07107625770666e-02 9.25617516830893e-04
2.94133928571429e+00 9.01530016610761e-02 9.22140138967054e-04
2.95544642857143e+00 8.95986702953423e-02 9.18665258419412e-04
2.96955357142857e+00 8.90477473941631e-02 9.15193045056281e-04
2.98366071428571e+00 8.85002119996097e-02 9.11723667726922e-04
2.99776785714286e+00 8.79560432808308e-02 9.08257289778007e-04
3.01187500000000e+00 8.74152205386675e-02 9.04794071376080e-04
3.02598214285714e+00 8.68777231994183e-02 9.01334171058337e-04
3.04008928571429e+00 8.63435308158855e-02 8.97877744232657e-04
3.05419642857143e+00 8.58126230648835e-02 8.94424941843604e-04
3.06830357142857e+00 8.52849797516414e-02 8.90975911861238e-04
3.08241071428571e+00 8.47605808038218e-02 8.87530801468938e-04
3.09651785714286e+00 8.42394062708491e-02 8.84089752835530e-04
3.11062500000000e+00 8.37214363281647e-02 8.80652905299853e-04
3.12473214285714e+00 8.32066512714221e-02 8.77220396828759e-04
3.13883928571429e+00 8.26950315174332e-02 8.73792362600873e-04
3.15294642857143e+00 8.21865576018333e-02 8.70368933745591e-04
3.16705357142857e+00 8.16812101831418e-02 8.66950238743095e-04
3.18116071428571e+00 8.11789700371909e-02 8.63536405483956e-04
3.19526785714286e+00 8.06798180564788e-02 8.60127557280543e-04
3.20937500000000e+00 8.01837352540958e-02 8.56723814923386e-04
3.22348214285714e+00 7.96907027583155e-02 8.53325298053146e-04
3.23758928571429e+00 7.92007018134499e-02 8.49932123822610e-04
3.25169642857143e+00 7.87137137776601e-02 8.46544405704877e-04
3.26580357142857e+00 7.82297201267047e-02 8.43162254810740e-04
3.27991071428571e+00 7.77487024487455e-02 8.39785781828482e-04
3.29401785714286e+00 7.72706424437250e-02 8.36415093259992e-04
3.30812500000000e+00 7.67955219269919e-02 8.33050293357277e-04
3.32223214285714e+00 7.63233228242571e-02 8.29691485414279e-04
3.33633928571429e+00 7.58540271723662e-02 8.26338770503007e-04
3.35044642857143e+00 7.53876171172449e-02 8.22992246346200e-04
3.36455357142857e+00 7.49240749173626e-02 8.19652008558024e-04
3.37866071428571e+00 7.44633829388854e-02 8.16318152472369e-04
3.39276785714286e+00 7.40055236550763e-02 8.12990769589044e-04
3.40687500000000e+00 7.35504796496475e-02 8.09669949399043e-04
3.42098214285714e+00 7.30982336120501e-02 8.06355780601386e-04
3.43508928571429e+00 7.26487683381747e-02 8.03048349908758e-04
3.44919642857143e+00 7.22020667284199e-02 7.99747740981374e-04
3.46330357142857e+00 7.17581117908963e-02 7.96454035595867e-04
3.47741071428571e+00 7.13168866368990e-02 7.93167315369327e-04
3.49151785714286e+00 7.08783744803308e-02 7.89887658402976e-04
3.50562500000000e+00 7.04425586408030e-02 7.86615141003112e-04
3.51973214285714e+00 7.00094225392353e-02 7.83349838828167e-04
3.53383928571429e+00 6.95789496984888e-02 7.80091825759849e-04
3.54794642857143e+00 6.91511237415508e-02 7.76841172894267e-04
3.56205357142857e+00 6.87259283945002e-02 7.73597949644028e-04
3.57616071428571e+00 6.83033474822752e-02 7.70362225364894e-04
3.59026785714286e+00 6.78833649281184e-02 7.67134066184535e-04
3.60437500000000e+00 6.74659647564483e-02 7.63913536626138e-04
3.61848214285714e+00 6.70511310887441e-02 7.60700700690284e-04
3.63258928571429e+00 6.66388481441191e-02 7.57495620787439e-04
3.64669642857143e+00 6.62291002376125e-02 7.54298356783333e-04
3.66080357142857e+00 6.58218717829365e-02 7.51108967038487e-04
3.67491071428571e+00 6.54171472885170e-02 7.47927509943734e-04
3.68901785714286e+00 6.50149113569598e-02 7.44754040922942e-04
3.70312500000000e+00 6.46151486877114e-02 7.41588613965198e-04
3.71723214285714e+00 6.42178440732081e-02 7.38431282645800e-04
3.73133928571429e+00 6.38229823993947e-02 7.35282099116705e-04
3.74544642857143e+00 6.34305486441164e-02 7.32141113203037e-04
3.75955357142857e+00 6.30405278796651e-02 7.29008373383914e-04
3.77366071428571e+00 6.26529052690732e-02 7.25883928242406e-04
3.78776785714286e+00 6.22676660656002e-02 7.22767823631889e-04
3.80187500000000e+00 6.18847956151994e-02 7.19660104122837e-04
3.81598214285714e+00 6.15042793529127e-02 7.16560813966738e-04
3.83008928571429e+00 6.11261028033387e-02 7.13469996140807e-04
3.84419642857143e+00 6.07502515791187e-02 7.10387691492588e-04
3.85830357142857e+00 6.03767113832987e-02 7.07313939666201e-04
3.87241071428571e+00 6.00054680058563e-02 7.04248780472094e-04
3.88651785714286e+00 5.96365073232086e-02 7.01192251207110e-04
3.90062500000000e+00 5.92698153004998e-02 6.98144388021123e-04
3.91473214285714e+00 5.89053779882234e-02 6.95105226827290e-04
3.92883928571429e+00 5.85431815226452e-02 6.92074802398244e-04
3.94294642857143e+00 5.81832121243769e-02 6.89053147556123e-04
3.95705357142857e+00 5.78254561005673e-02 6.86040294047309e-04
3.97116071428571e+00 5.74698998416479e-02 6.83036273836970e-04
3.98526785714286e+00 5.71165298208587e-02 6.80041116573696e-04
3.99937500000000e+00 5.67653325963730e-02 6.77054850881021e-04
4.01348214285714e+00 5.64162948081296e-02 6.74077505217579e-04
4.02758928571429e+00 5.60694031782153e-02 6.71109107021502e-04
4.04169642857143e+00 5.57246445095194e-02 6.68149681943179e-04
4.05580357142857e+00 5.53820056877694e-02 6.65199254671815e-04
4.06991071428571e+00 5.50414736784777e-02 6.62257850159465e-04
4.08401785714286e+00 5.47030355264865e-02 6.59325491221720e-04
4.09812500000000e+00 5.43666783579412e-02 6.56402199758528e-04
4.11223214285714e+00 5.40323893773184e-02 6.53487997567367e-04
4.12633928571429e+00 5.37001558677716e-02 6.50582905533086e-04
4.14044642857143e+00 5.33699651898615e-02 6.47686942900977e-04
4.15455357142857e+00 5.30418047834479e-02 6.44800128058318e-04
4.16866071428571e+00 5.27156621648238e-02 6.41922479691824e-04
4.18276785714286e+00 5.23915249262782e-02 6.39054014516491e-04
4.19687500000000e+00 5.20693807379306e-02 6.36194748430214e-04
4.21098214285714e+00 5.17492173449404e-02 6.33344697282566e-04
4.22508928571429e+00 5.14310225678195e-02 6.30503876107567e-04
4.23919642857143e+00 5.11147843012338e-02 6.27672298435035e-04
4.25330357142857e+00 5.08004905157617e-02 6.24849977029376e-04
4.26741071428571e+00 5.04881292552031e-02 6.22036924984661e-04
4.28151785714286e+00 5.01776886361597e-02 6.19233153574394e-04
4.29562500000000e+00 4.98691568497405e-02 6.16438673343566e-04
4.30973214285714e+00 4.95625221589410e-02 6.13653494835874e-04
4.32383928571429e+00 4.92577728989251e-02 6.10877627866985e-04
4.33794642857143e+00 4.89548974758932e-02 6.08111080871767e-04
4.35205357142857e+00 4.86538843687181e-02 6.05353861603293e-04
4.36616071428571e+00 4.83547221264167e-02 6.02605978169054e-04
4.38026785714286e+00 4.80573993677464e-02 5.99867436994442e-04
4.39437500000000e+00 4.77619047827926e-02 5.97138243856341e-04
4.40848214285714e+00 4.74682271305054e-02 5.94418404571088e-04
4.42258928571429e+00 4.71763552389538e-02 5.91707924305828e-04
4.43669642857143e+00 4.68862780042559e-02 5.89006806959848e-04
4.45080357142857e+00 4.65979843921023e-02 5.86315055825920e-04
