Energy (eV)          EEDF (eV^-(3/2))     First Anisotropy
5.27419354838710e-02 3.85081692476387e-02 2.58904076043185e-05
1.58225806451613e-01 3.80815667845133e-02 4.26590224148439e-05
2.63709677419355e-01 3.76596903228159e-02 5.60678542423043e-05
3.69193548387097e-01 3.72424875068156e-02 6.61056430634305e-05
4.74677419354839e-01 3.68299065607469e-02 7.43548791649309e-05
5.80161290322581e-01 3.64218962824500e-02 8.14176694143468e-05
6.85645161290323e-01 3.60184060369997e-02 8.76074778905732e-05
7.91129032258065e-01 3.56193857504182e-02 9.31147041856326e-05
8.96612903225806e-01 3.52247859034595e-02 9.80663514572266e-05
1.00209677419355e+00 3.48345575254636e-02 1.02552692772426e-04
1.10758064516129e+00 3.44486521882795e-02 1.06640927632446e-04
1.21306451612903e+00 3.40670220005757e-02 1.10382872854025e-04
1.31854838709677e+00 3.36896196011793e-02 1.13819609954532e-04
1.42403225806452e+00 3.33163981536250e-02 1.16984450929881e-04
1.52951612903226e+00 3.29473113403216e-02 1.19904915399095e-04
1.63500000000000e+00 3.25823133568013e-02 1.22604096770811e-04
1.74048387096774e+00 3.22213589039173e-02 1.25101634079422e-04
1.84596774193548e+00 3.18644031887576e-02 1.27414422343171e-04
1.95145161290323e+00 3.15114019123391e-02 1.29557142762650e-04
2.05693548387097e+00 3.11623112664389e-02 1.31542665119106e-04
2.16241935483871e+00 3.08170879281567e-02 1.33382359614407e-04
2.26790322580645e+00 3.04756890545336e-02 1.35086341475962e-04
2.37338709677419e+00 3.01380722772357e-02 1.36663665492261e-04
2.47887096774194e+00 2.98041956973056e-02 1.38122482575386e-04
2.58435483870968e+00 2.94740178799541e-02 1.39470167117830e-04
2.68983870967742e+00 2.91474978494173e-02 1.40713421728101e-04
2.79532258064516e+00 2.88245950827043e-02 1.41858363539742e-04
2.90080645161290e+00 2.85052695081454e-02 1.42910596902916e-04
3.00629032258065e+00 2.81894814967604e-02 1.43875274613096e-04
3.11177419354839e+00 2.78771918585899e-02 1.44757149187858e-04
3.21725806451613e+00 2.75683618378310e-02 1.45560617081689e-04
3.32274193548387e+00 2.72629531080276e-02 1.46289756510539e-04
3.42822580645161e+00 2.69609277673100e-02 1.46948360086803e-04
3.53370967741935e+00 2.66622483336994e-02 1.47539963124492e-04
3.63919354838710e+00 2.63668777404519e-02 1.48067868308021e-04
3.74467741935484e+00 2.60747793314582e-02 1.48535167286917e-04
3.85016129032258e+00 2.57859168566942e-02 1.48944759755084e-04
3.95564516129032e+00 2.55002544669988e-02 1.49299369926728e-04
4.06112903225806e+00 2.52177567118336e-02 1.49601561577413e-04
4.16661290322581e+00 2.49383885326350e-02 1.49853751440863e-04
4.27209677419355e+00 2.46621152592265e-02 1.50058220696660e-04
4.37758064516129e+00 2.43889026055165e-02 1.50217125614672e-04
4.48306451612903e+00 2.41187166652417e-02 1.50332507022158e-04
4.58854838709677e+00 2.38515239077615e-02 1.50406298828076e-04
4.69403225806452e+00 2.35872911738964e-02 1.50440335720081e-04
4.79951612903226e+00 2.33259856718125e-02 1.50436360131763e-04
4.90500000000000e+00 2.30675749729515e-02 1.50396028639454e-04
5.01048387096774e+00 2.28120270074960e-02 1.50320917489075e-04
5.11596774193548e+00 2.25593100619445e-02 1.50212527992035e-04
5.22145161290323e+00 2.23093927735960e-02 1.50072291470003e-04
5.32693548387097e+00 2.20622441271931e-02 1.49901573409647e-04
5.43241935483871e+00 2.18178334510730e-02 1.49701677566544e-04
5.53790322580645e+00 2.15761304133603e-02 1.49473849665357e-04
5.64338709677419e+00 2.13371050182030e-02 1.49219280807166e-04
5.74887096774194e+00 2.11007276020514e-02 1.48939110613264e-04
5.85435483870968e+00 2.08669688299753e-02 1.48634430130407e-04
5.95983870967742e+00 2.06357996920241e-02 1.48306284579925e-04
6.06532258064516e+00 2.04071914992492e-02 1.47955675667951e-04
6.17080645161290e+00 2.01811158812904e-02 1.47583564023207e-04
6.27629032258065e+00 1.99575447816922e-02 1.47190871473744e-04
6.38177419354839e+00 1.97364504548151e-02 1.46778482862007e-04
6.48725806451613e+00 1.95178054623924e-02 1.46347247977095e-04
6.59274193548387e+00 1.93015826701250e-02 1.45897983299384e-04
6.69822580645161e+00 1.90877552443131e-02 1.45431473631025e-04
6.80370967741935e+00 1.88762966485281e-02 1.44948473622254e-04
6.90919354838710e+00 1.86671806403179e-02 1.44449709201842e-04
7.01467741935484e+00 1.84603812679506e-02 1.43935878918648e-04
7.12016129032258e+00 1.82558728671937e-02 1.43407655250343e-04
7.22564516129032e+00 1.80536300578499e-02 1.42865685640348e-04
7.33112903225806e+00 1.78536277414559e-02 1.42310593712107e-04
7.43661290322581e+00 1.76558410973077e-02 1.41742980420037e-04
7.54209677419355e+00 1.74602455796710e-02 1.41163424887222e-04
7.64758064516129e+00 1.72668169147349e-02 1.40572485391616e-04
7.75306451612903e+00 1.70755310975993e-02 1.39970700248972e-04
7.85854838709677e+00 1.68863643892961e-02 1.39358588647682e-04
7.96403225806452e+00 1.66992933138432e-02 1.38736651439022e-04
8.06951612903226e+00 1.65142946553311e-02 1.38105371885471e-04
8.17500000000000e+00 1.63313454550415e-02 1.37465216410721e-04
8.28048387096774e+00 1.61504230083802e-02 1.36816635149132e-04
8.38596774193548e+00 1.59715048627214e-02 1.36160062667529e-04
8.49145161290323e+00 1.57945688139509e-02 1.35495918656251e-04
8.59693548387097e+00 1.56195929039369e-02 1.34824608378601e-04
8.70241935483871e+00 1.54465554178051e-02 1.34146523262662e-04
8.80790322580645e+00 1.52754348812434e-02 1.33462041423806e-04
8.91338709677419e+00 1.51062100578373e-02 1.32771528162373e-04
9.01887096774194e+00 1.49388599464342e-02 1.32075336438196e-04
9.12435483870968e+00 1.47733637785374e-02 1.31373807323207e-04
9.22983870967742e+00 1.46097010157285e-02 1.30667270467614e-04
9.33532258064516e+00 1.44478513469454e-02 1.29956044408401e-04
9.44080645161290e+00 1.42877946864869e-02 1.29240437033301e-04
9.54629032258065e+00 1.41295111709885e-02 1.28520746028478e-04
9.65177419354839e+00 1.39729811571369e-02 1.27797259131552e-04
9.75725806451613e+00 1.38181852192319e-02 1.27070254512584e-04
9.86274193548387e+00 1.36651041467759e-02 1.26340001104335e-04
9.96822580645161e+00 1.35137189420893e-02 1.25606758797242e-04
1.00737096774194e+01 1.33640108185416e-02 1.24870779199181e-04
1.01791935483871e+01 1.32159611960048e-02 1.24132305497676e-04
1.02846774193548e+01 1.30695517012332e-02 1.23391572489010e-04
1.03901612903226e+01 1.29247641645243e-02 1.22648807123219e-04
1.04956451612903e+01 1.27815806188312e-02 1.21904229408365e-04
1.06011290322581e+01 1.26399832933960e-02 1.21158052077101e-04
1.07066129032258e+01 1.24999546157126e-02 1.20410479953603e-04
1.08120967741935e+01 1.23614772092306e-02 1.19661711902984e-04
1.09175806451613e+01 1.22245338873220e-02 1.18911940199872e-04
1.10230645161290e+01 1.20891076550524e-02 1.18161350172020e-04
1.11285483870968e+01 1.19551817057627e-02 1.17410120996855e-04
1.12340322580645e+01 1.18227394201623e-02 1.16658426389516e-04
1.13395161290323e+01 1.16917643606935e-02 1.15906434271528e-04
1.14450000000000e+01 1.15622402730938e-02 1.15154306174343e-04
1.15504838709677e+01 1.14341510842793e-02 1.14402198954247e-04
1.16559677419355e+01 1.13074808969952e-02 1.13650264199340e-04
1.17614516129032e+01 1.11822139912216e-02 1.12898647651238e-04
1.18669354838710e+01 1.10583348221307e-02 1.12147490827379e-04
1.19724193548387e+01 1.09358280150078e-02 1.11396930446957e-04
1.20779032258065e+01 1.08146783665180e-02 1.10647098094872e-04
1.21833870967742e+01 1.06948708417512e-02 1.09898120867546e-04
1.22888709677419e+01 1.05763905733218e-02 1.09150121929086e-04
1.23943548387097e+01 1.04592228566084e-02 1.08403220200579e-04
1.24998387096774e+01 1.03433531508651e-02 1.07657529822538e-04
1.26053225806452e+01 1.02287670773403e-02 1.06913161592911e-04
1.27108064516129e+01 1.01154504147473e-02 1.06170222435113e-04
1.28162903225806e+01 1.00033891002650e-02 1.05428815079623e-04
1.29217741935484e+01 9.89256922686285e-03 1.04689038628399e-04
1.30272580645161e+01 9.78297704241700e-03 1.03950989040060e-04
1.31327419354839e+01 9.67459894545959e-03 1.03214758836307e-04
1.32382258064516e+01 9.56742148605308e-03 1.02480436605201e-04
1.33437096774194e+01 9.46143136405579e-03 1.01748108280900e-04
1.34491935483871e+01 9.35661542507221e-03 1.01017856653183e-04
1.35546774193548e+01 9.25296066123669e-03 1.00289761068864e-04
1.36601612903226e+01 9.15045420878784e-03 9.95638979280889e-05
1.37656451612903e+01 9.04908334720817e-03 9.88403411103802e-05
1.38711290322581e+01 8.94883549541873e-03 9.81191616995026e-05
1.39766129032258e+01 8.84969821246138e-03 9.74004275266008e-05
1.40820967741935e+01 8.75165919589765e-03 9.66842043127924e-05
1.41875806451613e+01 8.65470627817964e-03 9.59705552181357e-05
1.42930645161290e+01 8.55882742725738e-03 9.52595405638079e-05
1.43985483870968e+01 8.46401074437536e-03 9.45512182706097e-05
1.45040322580645e+01 8.37024446324117e-03 9.38456442349922e-05
1.46095161290323e+01 8.27751694661080e-03 9.31428720728666e-05
1.47150000000000e+01 8.18581668681448e-03 9.24429527004774e-05
1.48204838709677e+01 8.09513230427839e-03 9.17459353572861e-05
1.49259677419355e+01 8.00545254426499e-03 9.10518671921632e-05
1.50314516129032e+01 7.91676627733699e-03 9.03607928601643e-05
1.51369354838710e+01 7.82906249792928e-03 8.96727554968718e-05
1.52424193548387e+01 7.74233032123700e-03 8.89877963204612e-05
1.53479032258065e+01 7.65655898362451e-03 8.83059543842538e-05
1.54533870967742e+01 7.57173784069751e-03 8.76272669456376e-05
1.55588709677419e+01 7.48785636652124e-03 8.69517697819556e-05
1.56643548387097e+01 7.40490415068655e-03 8.62794969623364e-05
1.57698387096774e+01 7.32287089865732e-03 8.56104804783336e-05
1.58753225806452e+01 7.24174643045253e-03 8.49447511190051e-05
1.59808064516129e+01 7.16152067784234e-03 8.42823381067502e-05
1.60862903225806e+01 7.08218368465072e-03 8.36232688688617e-05
1.61917741935484e+01 7.00372560499819e-03 8.29675693664191e-05
1.62972580645161e+01 6.92613670255556e-03 8.23152643756142e-05
1.64027419354839e+01 6.84940734789848e-03 8.16663772771993e-05
1.65082258064516e+01 6.77352801875994e-03 8.10209297184741e-05
1.66137096774194e+01 6.69848929881375e-03 8.03789424006335e-05
1.67191935483871e+01 6.62428187514379e-03 7.97404347457943e-05
1.68246774193548e+01 6.55089653846022e-03 7.91054246865212e-05
1.69301612903226e+01 6.47832418149591e-03 7.84739289598089e-05
1.70356451612903e+01 6.40655579829658e-03 7.78459633583587e-05
1.71411290322581e+01 6.33558248183158e-03 7.72215425365105e-05
1.72466129032258e+01 6.26539542416970e-03 7.66006797012956e-05
1.73520967741935e+01 6.19598591535526e-03 7.59833873219682e-05
1.74575806451613e+01 6.12734534112096e-03 7.53696768255141e-05
1.75630645161290e+01 6.05946518303376e-03 7.47595584031823e-05
1.76685483870968e+01 5.99233701703004e-03 7.41530412738098e-05
1.77740322580645e+01 5.92595251274262e-03 7.35501339087912e-05
1.78795161290323e+01 5.86030343133950e-03 7.29508438534813e-05
1.79850000000000e+01 5.79538162563765e-03 7.23551774448777e-05
1.80904838709677e+01 5.73117903906454e-03 7.17631404519265e-05
1.81959677419355e+01 5.66768770358815e-03 7.11747377971838e-05
1.83014516129032e+01 5.60489973980600e-03 7.05899732854827e-05
1.84069354838710e+01 5.54280735594146e-03 7.00088502159382e-05
1.85124193548387e+01 5.48140284586116e-03 6.94313711144705e-05
1.86179032258065e+01 5.42067858914216e-03 6.88575375632035e-05
1.87233870967742e+01 5.36062704978202e-03 6.82873504256993e-05
1.88288709677419e+01 5.30124077557847e-03 6.77208100391899e-05
1.89343548387097e+01 5.24251239625363e-03 6.71579160570165e-05
1.90398387096774e+01 5.18443462349723e-03 6.65986672006222e-05
1.91453225806452e+01 5.12700025003955e-03 6.60430618128108e-05
1.92508064516129e+01 5.07020214785357e-03 6.54910976134013e-05
1.93562903225806e+01 5.01403326818055e-03 6.49427715425833e-05
1.94617741935484e+01 4.95848664034941e-03 6.43980799635783e-05
1.95672580645161e+01 4.90355537119177e-03 6.38570188355016e-05
1.96727419354839e+01 4.84923264334003e-03 6.33195835687081e-05
1.97782258064516e+01 4.79551171523395e-03 6.27857687981121e-05
1.98837096774194e+01 4.74238592026429e-03 6.22555688838716e-05
1.99891935483871e+01 4.68984866514054e-03 6.17289776881542e-05
2.00946774193548e+01 4.63789342988346e-03 6.12059884313746e-05
2.02001612903226e+01 4.58651376674366e-03 6.06865938748138e-05
2.03056451612903e+01 4.53570329965090e-03 6.01707864763061e-05
2.04111290322581e+01 4.48545572266838e-03 5.96585582574175e-05
2.05166129032258e+01 4.43576479997024e-03 5.91499005963458e-05
2.06220967741935e+01 4.38662436505015e-03 5.86448046814496e-05
2.07275806451613e+01 4.33802831923813e-03 5.81432613071881e-05
2.08330645161290e+01 4.28997063166678e-03 5.76452607423081e-05
2.09385483870968e+01 4.24244533828015e-03 5.71507928945815e-05
2.10440322580645e+01 4.19544654131617e-03 5.66598474512107e-05
2.11495161290323e+01 4.14896840790123e-03 5.61724137569188e-05
2.12550000000000e+01 4.10300517000502e-03 5.56884806246989e-05
2.13604838709677e+01 4.05755112370891e-03 5.52080367469866e-05
2.14659677419355e+01 4.01260062785706e-03 5.47310705091169e-05
2.15714516129032e+01 3.96814810400201e-03 5.42575698073884e-05
2.16769354838710e+01 3.92418803569752e-03 5.37875224428690e-05
2.17824193548387e+01 3.88071496720379e-03 5.33209159420711e-05
2.18879032258065e+01 3.83772350342527e-03 5.28577374409034e-05
2.19933870967742e+01 3.79520830903435e-03 5.23979738268433e-05
2.20988709677419e+01 3.75316410799904e-03 5.19416118600226e-05
2.22043548387097e+01 3.71158568235503e-03 5.14886380658347e-05
2.23098387096774e+01 3.67046787213549e-03 5.10390385685842e-05
2.24153225806452e+01 3.62980557471757e-03 5.05927994489067e-05
2.25208064516129e+01 3.58959374364320e-03 5.01499065798657e-05
2.26262903225806e+01 3.54982738854282e-03 4.97103455205010e-05
2.27317741935484e+01 3.51050157433132e-03 4.92741016444339e-05
2.28372580645161e+01 3.47161142076525e-03 4.88411602493439e-05
2.29427419354839e+01 3.43315210132427e-03 4.84115064584604e-05
2.30482258064516e+01 3.39511884312883e-03 4.79851250684399e-05
2.31537096774194e+01 3.35750692633633e-03 4.75620008739829e-05
2.32591935483871e+01 3.32031168306632e-03 4.71421185179866e-05
2.33646774193548e+01 3.28352849731379e-03 4.67254623939158e-05
2.34701612903226e+01 3.24715280421094e-03 4.63120167622281e-05
2.35756451612903e+01 3.21118008961264e-03 4.59017658494472e-05
2.36811290322581e+01 3.17560588907654e-03 4.54946937577864e-05
2.37866129032258e+01 3.14042578777219e-03 4.50907843260383e-05
2.38920967741935e+01 3.10563541992274e-03 4.46900214245948e-05
2.39975806451613e+01 3.07123046782473e-03 4.42923888183784e-05
2.41030645161290e+01 3.03720666175386e-03 4.38978700773282e-05
2.42085483870968e+01 3.00355977928689e-03 4.35064486818835e-05
2.43140322580645e+01 2.97028564491389e-03 4.31181081127175e-05
2.44195161290323e+01 2.93738012910774e-03 4.27328317678043e-05
2.45250000000000e+01 2.90483914822716e-03 4.23506028351991e-05
2.46304838709677e+01 2.87265866400054e-03 4.19714045613117e-05
2.47359677419355e+01 2.84083468263145e-03 4.15952201254889e-05
2.48414516129032e+01 2.80936325469921e-03 4.12220325176460e-05
2.49469354838710e+01 2.77824047465984e-03 4.08518247955674e-05
2.50524193548387e+01 2.74746247998627e-03 4.04845799642797e-05
2.51579032258065e+01 2.71702545106696e-03 4.01202808971982e-05
2.52633870967742e+01 2.68692561060485e-03 3.97589104276725e-05
2.53688709677419e+01 2.65715922326549e-03 3.94004514268195e-05
2.54743548387097e+01 2.62772259486030e-03 3.90448867304279e-05
2.55798387096774e+01 2.59861207224386e-03 3.86921990269664e-05
2.56853225806452e+01 2.56982404285274e-03 3.83423710917434e-05
2.57908064516129e+01 2.54135493391999e-03 3.79953856765416e-05
2.58962903225806e+01 2.51320121237141e-03 3.76512254372733e-05
2.60017741935484e+01 2.48535938427299e-03 3.73098730170654e-05
2.61072580645161e+01 2.45782599450236e-03 3.69713111168775e-05
2.62127419354839e+01 2.43059762600250e-03 3.66355224284395e-05
2.63182258064516e+01 2.40367089967750e-03 3.63024895317292e-05
2.64237096774194e+01 2.37704247396620e-03 3.59721951081852e-05
2.65291935483871e+01 2.35070904412432e-03 3.56446218397022e-05
2.66346774193548e+01 2.32466734211971e-03 3.53197523422554e-05
2.67401612903226e+01 2.29891413612427e-03 3.49975692413547e-05
2.68456451612903e+01 2.27344623020728e-03 3.46780552361455e-05
2.69511290322581e+01 2.24826046365320e-03 3.43611930378636e-05
2.70566129032258e+01 2.22335371085716e-03 3.40469652759983e-05
2.71620967741936e+01 2.19872288093076e-03 3.37353546925078e-05
2.72675806451613e+01 2.17436491704563e-03 3.34263440493312e-05
2.73730645161290e+01 2.15027679632893e-03 3.31199160675123e-05
2.74785483870968e+01 2.12645552939594e-03 3.28160534957538e-05
2.75840322580645e+01 2.10289816006405e-03 3.25147391686393e-05
2.76895161290323e+01 2.07960176472879e-03 3.22159559501373e-05
2.77950000000000e+01 2.05656345226010e-03 3.19196866476964e-05
2.79004838709677e+01 2.03378036363780e-03 3.16259141892356e-05
2.80059677419355e+01 2.01124967135115e-03 3.13346215384396e-05
2.81114516129032e+01 1.98896857929536e-03 3.10457916120817e-05
2.82169354838710e+01 1.96693432241924e-03 3.07594074499505e-05
2.83224193548387e+01 1.94514416614724e-03 3.04754521333381e-05
2.84279032258065e+01 1.92359540627667e-03 3.01939087313412e-05
2.85333870967742e+01 1.90228536856257e-03 2.99147603605884e-05
2.86388709677419e+01 1.88121140845914e-03 2.96379902359444e-05
2.87443548387097e+01 1.86037091057013e-03 2.93635816206567e-05
2.88498387096774e+01 1.83976128854731e-03 2.90915177506168e-05
2.89553225806452e+01 1.81937998476463e-03 2.88217819893086e-05
2.90608064516129e+01 1.79922446978919e-03 2.85543577531497e-05
2.91662903225806e+01 1.77929224228059e-03 2.82892284622025e-05
2.92717741935484e+01 1.75958082860881e-03 2.80263775945133e-05
2.93772580645161e+01 1.74008778261332e-03 2.77657887322127e-05
2.94827419354839e+01 1.72081068509987e-03 2.75074455157590e-05
2.95882258064516e+01 1.70174714374137e-03 2.72513315745427e-05
2.96937096774194e+01 1.68289479277667e-03 2.69974306682222e-05
2.97991935483871e+01 1.66425129252601e-03 2.67457266183349e-05
2.99046774193548e+01 1.64581432929307e-03 2.64962032630492e-05
3.00101612903226e+01 1.62758161501315e-03 2.62488445066144e-05
3.01156451612903e+01 1.60955088702888e-03 2.60036343613080e-05
3.02211290322581e+01 1.59171990762920e-03 2.57605569054157e-05
3.03266129032258e+01 1.57408646395322e-03 2.55195962196456e-05
3.04320967741935e+01 1.55664836771166e-03 2.52807365161015e-05
3.05375806451613e+01 1.53940345474294e-03 2.50439620756039e-05
3.06430645161290e+01 1.52234958491821e-03 2.48092572061564e-05
3.07485483870968e+01 1.50548464181750e-03 2.45766062879652e-05
3.08540322580645e+01 1.48880653252080e-03 2.43459938116201e-05
3.09595161290323e+01 1.47231318718571e-03 2.41174043395010e-05
3.10650000000000e+01 1.45600255895442e-03 2.38908224475072e-05
3.11704838709677e+01 1.43987262369623e-03 2.36662328427856e-05
3.12759677419355e+01 1.42392137960061e-03 2.34436203062712e-05
3.13814516129032e+01 1.40814684708565e-03 2.32229696365839e-05
3.14869354838710e+01 1.39254706854895e-03 2.30042657631411e-05
3.15924193548387e+01 1.37712010797580e-03 2.27874936908354e-05
3.16979032258065e+01 1.36186405084897e-03 2.25726384633579e-05
3.18033870967742e+01 1.34677700386064e-03 2.23596852025339e-05
3.19088709677419e+01 1.33185709472405e-03 2.21486191416610e-05
3.20143548387097e+01 1.31710247180046e-03 2.19394255914150e-05
3.21198387096774e+01 1.30251130401105e-03 2.17320898884097e-05
3.22253225806452e+01 1.28808178060665e-03 2.15265974984919e-05
3.23308064516129e+01 1.27381211080845e-03 2.13229339660277e-05
3.24362903225806e+01 1.25970052372132e-03 2.11210848802147e-05
3.25417741935484e+01 1.24574526806852e-03 2.09210359109264e-05
3.26472580645161e+01 1.23194461201642e-03 2.07227728390826e-05
3.27527419354839e+01 1.21829684283242e-03 2.05262815253343e-05
3.28582258064516e+01 1.20480026680049e-03 2.03315478628868e-05
3.29637096774194e+01 1.19145320900828e-03 2.01385578718601e-05
3.30691935483871e+01 1.17825401301750e-03 1.99472976527885e-05
3.31746774193548e+01 1.16520104078098e-03 1.97577533556730e-05
3.32801612903226e+01 1.15229267239826e-03 1.95699112126599e-05
