Energy (eV)          EEDF (eV^-(3/2))     First Anisotropy
8.35714285714286e-02 1.77278120802116e-01 2.45911376936646e-04
2.50714285714286e-01 1.68716543142122e-01 3.97600748694896e-04
4.17857142857143e-01 1.60568443534996e-01 5.02910638999209e-04
5.85000000000000e-01 1.52813853218938e-01 5.70631858547790e-04
7.52142857142857e-01 1.45433767805259e-01 6.17685697745079e-04
9.19285714285714e-01 1.38410100739597e-01 6.50904587356113e-04
1.08642857142857e+00 1.31725638953156e-01 6.74031877254042e-04
1.25357142857143e+00 1.25364000623769e-01 6.89442608300150e-04
1.42071428571429e+00 1.19309595121131e-01 6.98779993089361e-04
1.58785714285714e+00 1.13547584798130e-01 7.03247351333320e-04
1.75500000000000e+00 1.08063848504685e-01 7.03761564271545e-04
1.92214285714286e+00 1.02844947107150e-01 7.01041804027141e-04
2.08928571428571e+00 9.78780905092627e-02 6.95664607796807e-04
2.25642857142857e+00 9.31511063291936e-02 6.88099987054458e-04
2.42357142857143e+00 8.86524099997772e-02 6.78736162681582e-04
2.59071428571429e+00 8.43709764490695e-02 6.67897128133759e-04
2.75785714285714e+00 8.02963130719480e-02 6.55855505350037e-04
2.92500000000000e+00 7.64184339683182e-02 6.42842185209256e-04
3.09214285714286e+00 7.27278355191373e-02 6.29053718298198e-04
3.25928571428571e+00 6.92154730788531e-02 6.14658089322525e-04
3.42642857142857e+00 6.58727388194251e-02 5.99799298904166e-04
3.59357142857143e+00 6.26914406039396e-02 5.84601049458236e-04
3.76071428571429e+00 5.96637819419608e-02 5.69169747442427e-04
3.92785714285714e+00 5.67823428789377e-02 5.53596979469589e-04
4.09500000000000e+00 5.40400617889314e-02 5.37961567705740e-04
4.26214285714286e+00 5.14302180922270e-02 5.22331293495678e-04
4.42928571428571e+00 4.89464157768526e-02 5.06764355059206e-04
4.59642857142857e+00 4.65825677288875e-02 4.91310606773776e-04
4.76357142857143e+00 4.43328807985342e-02 4.76012618526099e-04
4.93071428571429e+00 4.21918416193227e-02 4.60906586459623e-04
5.09785714285714e+00 4.01542030946646e-02 4.46023122230477e-04
5.26500000000000e+00 3.82149715262586e-02 4.31387935834155e-04
5.43214285714286e+00 3.63693943886998e-02 4.17022430553217e-04
5.59928571428571e+00 3.46129486779284e-02 4.02944223943813e-04
5.76642857142857e+00 3.29413298294822e-02 3.89167604296817e-04
5.93357142857143e+00 3.13504411602025e-02 3.75703931304223e-04
6.10071428571429e+00 2.98363838376753e-02 3.62561988855034e-04
6.26785714285714e+00 2.83954473243614e-02 3.49748297946222e-04
6.43500000000000e+00 2.70241002770003e-02 3.37267392125969e-04
6.60214285714286e+00 2.57189818995696e-02 3.25122061624814e-04
6.76928571428571e+00 2.44768937043717e-02 3.13313570574959e-04
6.93642857142857e+00 2.32947916751100e-02 3.01841849782165e-04
7.10357142857143e+00 2.21697788015861e-02 2.90705667754635e-04
7.27071428571429e+00 2.10990979853509e-02 2.79902782742773e-04
7.43785714285714e+00 2.00801252823045e-02 2.69430079023344e-04
7.60500000000000e+00 1.91103634679236e-02 2.59283687422908e-04
7.77214285714286e+00 1.81874359215898e-02 2.49459092765678e-04
7.93928571428571e+00 1.73090808006454e-02 2.39951230023096e-04
8.10642857142857e+00 1.64731454982582e-02 2.30754569873419e-04
8.27357142857143e+00 1.56775813648054e-02 2.21863194676241e-04
8.44071428571429e+00 1.49204386904669e-02 2.13270866025481e-04
8.60785714285714e+00 1.41998619267227e-02 2.04971085458168e-04
8.77500000000000e+00 1.35140851363517e-02 1.96957147861397e-04
8.94214285714286e+00 1.28614276682471e-02 1.89222188948841e-04
9.10928571428571e+00 1.22402900376890e-02 1.81759227641514e-04
9.27642857142857e+00 1.16491500070748e-02 1.74561203535103e-04
9.44357142857143e+00 1.10865588533804e-02 1.67621009867978e-04
9.61071428571429e+00 1.05511378197538e-02 1.60931522544865e-04
9.77785714285714e+00 1.00415747363795e-02 1.54485626073389e-04
9.94500000000000e+00 9.55662080311961e-03 1.48276235852427e-04
1.01121428571429e+01 9.09508753201133e-03 1.42296318203387e-04
1.02792857142857e+01 8.65584382826408e-03 1.36538906882705e-04
1.04464285714286e+01 8.23781323003897e-03 1.30997118591285e-04
1.06135714285714e+01 7.83997125477110e-03 1.25664165819457e-04
1.07807142857143e+01 7.46134290096081e-03 1.20533366601817e-04
1.09478571428571e+01 7.10100025768407e-03 1.15598155649369e-04
1.11150000000000e+01 6.75806022042269e-03 1.10852091085960e-04
1.12821428571429e+01 6.43168234010140e-03 1.06288861058649e-04
1.14492857142857e+01 6.12106675096664e-03 1.01902289279372e-04
1.16164285714286e+01 5.82545222193097e-03 9.76863390670054e-05
1.17835714285714e+01 5.54411428016379e-03 9.36351170240546e-05
1.19507142857143e+01 5.27636344356017e-03 8.97428745936744e-05
1.21178571428571e+01 5.02154353036108e-03 8.60040109761120e-05
1.22850000000000e+01 4.77903004458492e-03 8.24130734195862e-05
1.24521428571429e+01 4.54822865403402e-03 7.89647577251009e-05
1.26192857142857e+01 4.32857372581719e-03 7.56539083040291e-05
1.27864285714286e+01 4.11952694756289e-03 7.24755174815173e-05
1.29535714285714e+01 3.92057600121085e-03 6.94247247837612e-05
1.31207142857143e+01 3.73123331256680e-03 6.64968150125461e-05
1.32878571428571e+01 3.55103485597844e-03 6.36872174332933e-05
1.34550000000000e+01 3.37953901298617e-03 6.09915033750193e-05
1.36221428571429e+01 3.21632549549637e-03 5.84053841441900e-05
1.37892857142857e+01 3.06099431065351e-03 5.59247087917105e-05
1.39564285714286e+01 2.91316478536361e-03 5.35454615169300e-05
1.41235714285714e+01 2.77247462887115e-03 5.12637591941736e-05
1.42907142857143e+01 2.63857904818975e-03 4.90758482044967e-05
1.44578571428571e+01 2.51114990284292e-03 4.69781021371184e-05
1.46250000000000e+01 2.38987489798906e-03 4.49670185234983e-05
1.47921428571429e+01 2.27445682261700e-03 4.30392158849912e-05
1.49592857142857e+01 2.16461281783665e-03 4.11914307738478e-05
1.51264285714286e+01 2.06007368679132e-03 3.94205146562123e-05
1.52935714285714e+01 1.96058323199905e-03 3.77234309590245e-05
1.54607142857143e+01 1.86589762963873e-03 3.60972517215631e-05
1.56278571428571e+01 1.77578483183204e-03 3.45391549085864e-05
1.57950000000000e+01 1.69002399619854e-03 3.30464211324427e-05
1.59621428571429e+01 1.60840494694848e-03 3.16164306505381e-05
1.61292857142857e+01 1.53072765762280e-03 3.02466604158126e-05
1.62964285714286e+01 1.45680176292806e-03 2.89346810744653e-05
1.64635714285714e+01 1.38644609028139e-03 2.76781541256561e-05
1.66307142857143e+01 1.31948821722078e-03 2.64748288597395e-05
1.67978571428571e+01 1.25576404873195e-03 2.53225397917658e-05
1.69650000000000e+01 1.19511741394044e-03 2.42192037339787e-05
1.71321428571429e+01 1.13739968490292e-03 2.31628170953637e-05
1.72992857142857e+01 1.08246941092838e-03 2.21514532538681e-05
1.74664285714286e+01 1.03019197326816e-03 2.11832599274435e-05
1.76335714285714e+01 9.80439253935362e-04 2.02564566878312e-05
1.78007142857143e+01 9.33089322655822e-04 1.93693323536814e-05
1.79678571428571e+01 8.88026137976187e-04 1.85202427505348e-05
1.81350000000000e+01 8.45139262114646e-04 1.77076082510273e-05
1.83021428571429e+01 8.04323591314668e-04 1.69299114956224e-05
1.84692857142857e+01 7.65479097317310e-04 1.61856951866428e-05
1.86364285714286e+01 7.28510583110675e-04 1.54735599040299e-05
1.88035714285714e+01 6.93327448789126e-04 1.47921620396616e-05
1.89707142857143e+01 6.59843470135903e-04 1.41402116689575e-05
1.91378571428571e+01 6.27976587262197e-04 1.35164706922550e-05
1.93050000000000e+01 5.97648702994399e-04 1.29197508432414e-05
1.94721428571429e+01 5.68785492147203e-04 1.23489118376175e-05
1.96392857142857e+01 5.41316218743976e-04 1.18028595874668e-05
1.98064285714286e+01 5.15173563254528e-04 1.12805444452997e-05
1.99735714285714e+01 4.90293457055520e-04 1.07809595431285e-05
2.01407142857143e+01 4.66614925827020e-04 1.03031391016185e-05
2.03078571428571e+01 4.44079940088649e-04 9.84615693656987e-06
2.04750000000000e+01 4.22633272647990e-04 9.40912488578474e-06
2.06421428571429e+01 4.02222363698736e-04 8.99119134313432e-06
2.08092857142857e+01 3.82797191591803e-04 8.59153984799413e-06
2.09764285714286e+01 3.64310150640956e-04 8.20938770485626e-06
2.11435714285714e+01 3.46715934082050e-04 7.84398467734853e-06
2.13107142857143e+01 3.29971423313057e-04 7.49461167039432e-06
2.14778571428571e+01 3.14035582200549e-04 7.16057955614842e-06
2.16450000000000e+01 2.98869356286037e-04 6.84122795294470e-06
2.18121428571429e+01 2.84435577371536e-04 6.53592408525514e-06
2.19792857142857e+01 2.70698872150153e-04 6.24406168858007e-06
2.21464285714286e+01 2.57625575780086e-04 5.96505994164528e-06
2.23135714285714e+01 2.45183649132110e-04 5.69836245590660e-06
2.24807142857143e+01 2.33342600454267e-04 5.44343626272230e-06
2.26478571428571e+01 2.22073410630474e-04 5.19977090496312e-06
2.28150000000000e+01 2.11348461911599e-04 4.96687750146970e-06
2.29821428571429e+01 2.01141470431253e-04 4.74428787220111e-06
2.31492857142857e+01 1.91427421603208e-04 4.53155369894126e-06
2.33164285714286e+01 1.82182508994844e-04 4.32824570922274e-06
2.34835714285714e+01 1.73384075816793e-04 4.13395290385636e-06
2.36507142857143e+01 1.65010559520801e-04 3.94828178678311e-06
2.38178571428571e+01 1.57041438946136e-04 3.77085567060664e-06
2.39850000000000e+01 1.49457183926355e-04 3.60131396691537e-06
2.41521428571429e+01 1.42239207560198e-04 3.43931152176886e-06
2.43192857142857e+01 1.35369820533747e-04 3.28451797882672e-06
2.44864285714286e+01 1.28832187888072e-04 3.13661716147280e-06
2.46535714285714e+01 1.22610287648750e-04 2.99530648781460e-06
2.48207142857143e+01 1.16688871643502e-04 2.86029638994711e-06
2.49878571428571e+01 1.11053428126588e-04 2.73130978795210e-06
2.51550000000000e+01 1.05690146146117e-04 2.60808155577878e-06
2.53221428571429e+01 1.00585881787473e-04 2.49035802055532e-06
2.54892857142857e+01 9.57281258759444e-05 2.37789648310726e-06
2.56564285714286e+01 9.11049734006253e-05 2.27046475361861e-06
2.58235714285714e+01 8.67050942625230e-05 2.16784071189926e-06
2.59907142857143e+01 8.25177055636711e-05 2.06981187240926e-06
2.61578571428571e+01 7.85325451768127e-05 1.97617498880658e-06
2.63250000000000e+01 7.47398465495692e-05 1.88673565450620e-06
2.64921428571429e+01 7.11303148302695e-05 1.80130792787778e-06
2.66592857142857e+01 6.76951040312300e-05 1.71971397354836e-06
2.68264285714286e+01 6.44257954040398e-05 1.64178371555447e-06
2.69935714285714e+01 6.13143767561536e-05 1.56735450880430e-06
2.71607142857143e+01 5.83532228531251e-05 1.49627081506549e-06
2.73278571428571e+01 5.55350767282839e-05 1.42838390745423e-06
2.74950000000000e+01 5.28530318666608e-05 1.36355157327282e-06
2.76621428571429e+01 5.03005153202728e-05 1.30163783494142e-06
2.78292857142857e+01 4.78712715606473e-05 1.24251268306231e-06
2.79964285714286e+01 4.55593471850576e-05 1.18605181862848e-06
2.81635714285714e+01 4.33590762915729e-05 1.13213640879228e-06
2.83307142857143e+01 4.12650666191776e-05 1.08065284661288e-06
2.84978571428571e+01 3.92721863308127e-05 1.03149253133330e-06
2.86650000000000e+01 3.73755514154741e-05 9.84551648272690e-07
2.88321428571429e+01 3.55705137468137e-05 9.39730961966962e-07
2.89992857142857e+01 3.38526496654186e-05 8.96935618390182e-07
2.91664285714286e+01 3.22177491626136e-05 8.56074954157183e-07
2.93335714285714e+01 3.06618055392743e-05 8.17062315728693e-07
2.95007142857143e+01 2.91810056039436e-05 7.79814881953757e-07
2.96678571428571e+01 2.77717203263852e-05 7.44253501384989e-07
2.98350000000000e+01 2.64304959294463e-05 7.10302529848459e-07
3.00021428571429e+01 2.51540454437939e-05 6.77889677688985e-07
3.01692857142857e+01 2.39392406344950e-05 6.46945863775944e-07
3.03364285714286e+01 2.27831043515431e-05 6.17405074793497e-07
3.05035714285714e+01 2.16828032176330e-05 5.89204231884443e-07
3.06707142857143e+01 2.06356406961831e-05 5.62283060007408e-07
3.08378571428571e+01 1.96390504819412e-05 5.36583967915290e-07
3.10050000000000e+01 1.86905902018938e-05 5.12051928668959e-07
3.11721428571429e+01 1.77879354426019e-05 4.88634367201560e-07
3.13392857142857e+01 1.69288740414813e-05 4.66281052893496e-07
3.15064285714286e+01 1.61113006769499e-05 4.44943996119815e-07
3.16735714285714e+01 1.53332116979379e-05 4.24577350188366e-07
3.18407142857143e+01 1.45927002215588e-05 4.05137315435749e-07
3.20078571428571e+01 1.38879514592342e-05 3.86582050953986e-07
3.21750000000000e+01 1.32172382624842e-05 3.68871586935880e-07
3.23421428571429e+01 1.25789168989620e-05 3.51967742148428e-07
3.25092857142857e+01 1.19714230157906e-05 3.35834045106034e-07
3.26764285714286e+01 1.13932678136357e-05 3.20435658212780e-07
3.28435714285714e+01 1.08430343906194e-05 3.05739305846708e-07
3.30107142857143e+01 1.03193742753853e-05 2.91713204132287e-07
3.31778571428571e+01 9.82100412193638e-06 2.78326996191355e-07
3.33450000000000e+01 9.34670255996360e-06 2.65551687994389e-07
3.35121428571429e+01 8.89530720760583e-06 2.53359587935337e-07
3.36792857142857e+01 8.46571181709048e-06 2.41724249129432e-07
3.38464285714286e+01 8.05686356899550e-06 2.30620413919534e-07
3.40135714285714e+01 7.66776048699497e-06 2.20023961258874e-07
3.41807142857143e+01 7.29744898604591e-06 2.09911855397947e-07
3.43478571428571e+01 6.94502153512112e-06 2.00262098502324e-07
3.45150000000000e+01 6.60961442999720e-06 1.91053683805642e-07
3.46821428571429e+01 6.29040568065276e-06 1.82266551462315e-07
3.48492857142857e+01 5.98661299291605e-06 1.73881546398710e-07
3.50164285714286e+01 5.69749185494686e-06 1.65880377800439e-07
3.51835714285714e+01 5.42233370916866e-06 1.58245580694517e-07
3.53507142857143e+01 5.16046421835542e-06 1.50960478528956e-07
3.55178571428571e+01 4.91124161281678e-06 1.44009148571354e-07
3.56850000000000e+01 4.67405511547550e-06 1.37376387761268e-07
3.58521428571429e+01 4.44832344782400e-06 1.31047680517410e-07
3.60192857142857e+01 4.23349340271651e-06 1.25009168007993e-07
3.61864285714286e+01 4.02903849112066e-06 1.19247618628899e-07
3.63535714285714e+01 3.83445764946080e-06 1.13750400004943e-07
3.65207142857143e+01 3.64927401340514e-06 1.08505451747846e-07
3.66878571428571e+01 3.47303374906582e-06 1.03501260234798e-07
3.68550000000000e+01 3.30530493932477e-06 9.87268337593124e-08
3.70221428571429e+01 3.14567652724243e-06 9.41716790958577e-08
3.71892857142857e+01 2.99375730685315e-06 8.98257791334198e-08
3.73564285714286e+01 2.84917496614576e-06 8.56795713979865e-08
3.75235714285714e+01 2.71157517300140e-06 8.17239276807751e-08
3.76907142857143e+01 2.58062070802580e-06 7.79501342366946e-08
3.78578571428571e+01 2.45599063802377e-06 7.43498734304702e-08
3.80250000000000e+01 2.33737952848530e-06 7.09152056811551e-08
3.81921428571429e+01 2.22449669636433e-06 6.76385524280462e-08
3.83592857142857e+01 2.11706549644926e-06 6.45126798760130e-08
3.85264285714286e+01 2.01482264455973e-06 6.15306833933362e-08
3.86935714285714e+01 1.91751757119352e-06 5.86859727111972e-08
3.88607142857143e+01 1.82491180827432e-06 5.59722575504875e-08
3.90278571428571e+01 1.73677840466801e-06 5.33835342853745e-08
3.91950000000000e+01 1.65290136930546e-06 5.09140728419008e-08
3.93621428571429e+01 1.57307514274963e-06 4.85584043338038e-08
3.95292857142857e+01 1.49710409257160e-06 4.63113092656877e-08
3.96964285714286e+01 1.42480203471766e-06 4.41678062140315e-08
3.98635714285714e+01 1.35599177645753e-06 4.21231410886903e-08
4.00307142857143e+01 1.29050468269969e-06 4.01727767130953e-08
4.01978571428571e+01 1.22818026266926e-06 3.83123831466457e-08
4.03650000000000e+01 1.16886577612079e-06 3.65378281897814e-08
4.05321428571429e+01 1.11241585963299e-06 3.48451684206899e-08
4.06992857142857e+01 1.05869216977643e-06 3.32306406443694e-08
4.08664285714286e+01 1.00756304462689e-06 3.16906536908924e-08
4.10335714285714e+01 9.58903180572242e-07 3.02217806335488e-08
4.12007142857143e+01 9.12593325616483e-07 2.88207512437078e-08
4.13678571428571e+01 8.68519987095731e-07 2.74844449768139e-08
4.15350000000000e+01 8.26575153217106e-07 2.62098840988703e-08
4.17021428571429e+01 7.86656028776879e-07 2.49942271959966e-08
4.18692857142857e+01 7.48664782834609e-07 2.38347629832757e-08
4.20364285714286e+01 7.12508309337913e-07 2.27289043683203e-08
4.22035714285714e+01 6.78097998583584e-07 2.16741828182447e-08
4.23707142857143e+01 6.45349520326818e-07 2.06682429018352e-08
4.25378571428571e+01 6.14182617090246e-07 1.97088372116938e-08
4.27050000000000e+01 5.84520907253653e-07 1.87938213934944e-08
4.28721428571429e+01 5.56291698156116e-07 1.79211494510626e-08
4.30392857142857e+01 5.29425807669062e-07 1.70888692684112e-08
4.32064285714286e+01 5.03857394912304e-07 1.62951183172668e-08
4.33735714285714e+01 4.79523798647427e-07 1.55381195836347e-08
4.35407142857143e+01 4.56365383896179e-07 1.48161776236331e-08
4.37078571428571e+01 4.34325395777286e-07 1.41276748910730e-08
4.38750000000000e+01 4.13349820263576e-07 1.34710681461268e-08
4.40421428571429e+01 3.93387252009733e-07 1.28448850624625e-08
4.42092857142857e+01 3.74388768181129e-07 1.22477209914700e-08
4.43764285714286e+01 3.56307808738036e-07 1.16782358613638e-08
4.45435714285714e+01 3.39100062158543e-07 1.11351512342827e-08
4.47107142857143e+01 3.22723356969783e-07 1.06172474585100e-08
4.48778571428571e+01 3.07137558387434e-07 1.01233610149806e-08
4.50450000000000e+01 2.92304469851555e-07 9.65238192481230e-09
4.52121428571429e+01 2.78187739555921e-07 9.20325129954991e-09
4.53792857142857e+01 2.64752771228337e-07 8.77495900503838e-09
4.55464285714286e+01 2.51966639469104e-07 8.36654142323440e-09
4.57135714285714e+01 2.39798008941956e-07 7.97707932789602e-09
4.58807142857143e+01 2.28217057666977e-07 7.60569583009565e-09
4.60478571428571e+01 2.17195403928371e-07 7.25155446260404e-09
4.62150000000000e+01 2.06706036646428e-07 6.91385730996314e-09
4.63821428571429e+01 1.96723249276314e-07 6.59184324112362e-09
4.65492857142857e+01 1.87222576717828e-07 6.28478622419361e-09
4.67164285714286e+01 1.78180735443928e-07 5.99199371221605e-09
4.68835714285714e+01 1.69575566357889e-07 5.71280511096695e-09
4.70507142857143e+01 1.61385980547573e-07 5.44659029789599e-09
4.72178571428571e+01 1.53591907597646e-07 5.19274824030242e-09
4.73850000000000e+01 1.46174246352691e-07 4.95070564757062e-09
4.75521428571429e+01 1.39114818171389e-07 4.71991569707561e-09
4.77192857142857e+01 1.32396322313212e-07 4.49985681937274e-09
4.78864285714286e+01 1.26002293598212e-07 4.29003153484189e-09
4.80535714285714e+01 1.19917061999297e-07 4.08996534936730e-09
4.82207142857143e+01 1.14125714280780e-07 3.89920568740457e-09
4.83878571428571e+01 1.08614057446926e-07 3.71732089594298e-09
4.85550000000000e+01 1.03368583924450e-07 3.54389927376147e-09
4.87221428571429e+01 9.83764385046133e-08 3.37854815357401e-09
4.88892857142857e+01 9.36253867955386e-08 3.22089302694317e-09
4.90564285714286e+01 8.91037852799027e-08 3.07057670642934e-09
4.92235714285714e+01 8.48005527411587e-08 2.92725853020583e-09
4.93907142857143e+01 8.07051431351487e-08 2.79061359395749e-09
4.95578571428571e+01 7.68075197424349e-08 2.66033203341631e-09
4.97250000000000e+01 7.30981305473262e-08 2.53611832561889e-09
4.98921428571429e+01 6.95678848598934e-08 2.41769062811630e-09
5.00592857142857e+01 6.62081310074239e-08 2.30478014901437e-09
5.02264285714286e+01 6.30106351597406e-08 2.19713054393409e-09
5.03935714285714e+01 5.99675611236089e-08 2.09449734350119e-09
5.05607142857143e+01 5.70714511581534e-08 1.99664740071472e-09
5.07278571428571e+01 5.43152076964563e-08 1.90335837447495e-09
5.08950000000000e+01 5.16920759349784e-08 1.81441822692843e-09
5.10621428571429e+01 4.91956273010687e-08 1.72962474803497e-09
5.12292857142857e+01 4.68197436777381e-08 1.64878510234368e-09
5.13964285714286e+01 4.45586024293136e-08 1.57171539521446e-09
5.15635714285714e+01 4.24066621132827e-08 1.49824026097535e-09
5.17307142857143e+01 4.03586489134039e-08 1.42819246554278e-09
5.18978571428571e+01 3.84095437139773e-08 1.36141253485781e-09
5.20650000000000e+01 3.65545697880405e-08 1.29774839349298e-09
5.22321428571429e+01 3.47891811059066e-08 1.23705502277639e-09
5.23992857142857e+01 3.31090511798815e-08 1.17919413490413e-09
5.25664285714286e+01 3.15100624746963e-08 1.12403386108730e-09
5.27335714285714e+01 2.99882963037865e-08 1.07144845545246e-09
