Energy (eV)          EEDF (eV^-(3/2))     First Anisotropy
2.78461538461538e-02 3.67159057110284e-01 3.76610143339615e-04
8.35384615384615e-02 3.57526175155348e-01 6.15802557402986e-04
1.39230769230769e-01 3.48146024059806e-01 7.96959378472610e-04
1.94923076923077e-01 3.39011973064900e-01 9.25235836044761e-04
2.50615384615385e-01 3.30117565428889e-01 1.02474319694635e-03
3.06307692307692e-01 3.21456513843057e-01 1.10488200058181e-03
3.62000000000000e-01 3.13022695884336e-01 1.17065808987208e-03
4.17692307692308e-01 3.04810149793206e-01 1.22517696156936e-03
4.73384615384615e-01 2.96813070224069e-01 1.27055137946210e-03
5.29076923076923e-01 2.89025804157894e-01 1.30831085028135e-03
5.84769230769231e-01 2.81442846855746e-01 1.33961329760887e-03
6.40461538461539e-01 2.74058838019540e-01 1.36536538824902e-03
6.96153846153846e-01 2.66868557996438e-01 1.38629593616545e-03
7.51846153846154e-01 2.59866924055226e-01 1.40300319166866e-03
8.07538461538462e-01 2.53048986827764e-01 1.41598667226500e-03
8.63230769230769e-01 2.46409926806955e-01 1.42566937610638e-03
9.18923076923077e-01 2.39945050915253e-01 1.43241375050439e-03
9.74615384615385e-01 2.33649789212096e-01 1.43653347113268e-03
1.03030769230769e+00 2.27519691648935e-01 1.43830232526066e-03
1.08600000000000e+00 2.21550424931342e-01 1.43796103470710e-03
1.14169230769231e+00 2.15737769512127e-01 1.43572260256122e-03
1.19738461538462e+00 2.10077616443187e-01 1.43177654132123e-03
1.25307692307692e+00 2.04565964633950e-01 1.42629227034709e-03
1.30876923076923e+00 1.99198917967165e-01 1.41942189367043e-03
1.36446153846154e+00 1.93972682583685e-01 1.41130248289264e-03
1.42015384615385e+00 1.88883564082383e-01 1.40205796478046e-03
1.47584615384615e+00 1.83927965029632e-01 1.39180070202316e-03
1.53153846153846e+00 1.79102382374488e-01 1.38063284147536e-03
1.58723076923077e+00 1.74403404973339e-01 1.36864745006099e-03
1.64292307692308e+00 1.69827711206035e-01 1.35592949855000e-03
1.69861538461538e+00 1.65372066542067e-01 1.34255670055379e-03
1.75430769230769e+00 1.61033321341984e-01 1.32860023959424e-03
1.81000000000000e+00 1.56808408601166e-01 1.31412541191748e-03
1.86569230769231e+00 1.52694341803706e-01 1.29919218858418e-03
1.92138461538462e+00 1.48688212743760e-01 1.28385570443644e-03
1.97707692307692e+00 1.44787189538816e-01 1.26816668997025e-03
2.03276923076923e+00 1.40988514604282e-01 1.25217186213896e-03
2.08846153846154e+00 1.37289502721904e-01 1.23591427152532e-03
2.14415384615385e+00 1.33687539087654e-01 1.21943360775478e-03
2.19984615384615e+00 1.30180077518481e-01 1.20276647310319e-03
2.25553846153846e+00 1.26764638633497e-01 1.18594663617795e-03
2.31123076923077e+00 1.23438808101618e-01 1.16900525398222e-03
2.36692307692308e+00 1.20200234948351e-01 1.15197107900496e-03
2.42261538461538e+00 1.17046629852212e-01 1.13487064145162e-03
2.47830769230769e+00 1.13975763569048e-01 1.11772841464911e-03
2.53400000000000e+00 1.10985465341764e-01 1.10056697098608e-03
2.58969230769231e+00 1.08073621376956e-01 1.08340712353480e-03
2.64538461538462e+00 1.05238173316544e-01 1.06626805199353e-03
2.70107692307692e+00 1.02477116817621e-01 1.04916741788567e-03
2.75676923076923e+00 9.97885001237128e-02 1.03212147479756e-03
2.81246153846154e+00 9.71704226943515e-02 1.01514516909212e-03
2.86815384615385e+00 9.46210338334250e-02 9.98252229544449e-04
2.92384615384615e+00 9.21385314097058e-02 9.81455249819426e-04
2.97953846153846e+00 8.97211605730903e-02 9.64765769232276e-04
3.03523076923077e+00 8.73672125142307e-02 9.48194343175668e-04
3.09092307692308e+00 8.50750232638735e-02 9.31750612137459e-04
3.14661538461538e+00 8.28429724941446e-02 9.15443362160103e-04
3.20230769230769e+00 8.06694823961045e-02 8.99280580783306e-04
3.25800000000000e+00 7.85530165566324e-02 8.83269512237298e-04
3.31369230769231e+00 7.64920788784847e-02 8.67416708270413e-04
3.36938461538462e+00 7.44852125039185e-02 8.51728073150164e-04
3.42507692307692e+00 7.25309988040443e-02 8.36208905436045e-04
3.48076923076923e+00 7.06280563694783e-02 8.20863939708309e-04
3.53646153846154e+00 6.87750400390257e-02 8.05697385066499e-04
3.59215384615385e+00 6.69706399329950e-02 7.90712959067976e-04
3.64784615384615e+00 6.52135805433843e-02 7.75913919306000e-04
3.70353846153846e+00 6.35026198267262e-02 7.61303095816259e-04
3.75923076923077e+00 6.18365483261536e-02 7.46882918665714e-04
3.81492307692308e+00 6.02141883206170e-02 7.32655446182932e-04
3.87061538461538e+00 5.86343929795249e-02 7.18622389130901e-04
3.92630769230769e+00 5.70960455651664e-02 7.04785133244143e-04
3.98200000000000e+00 5.55980586388593e-02 6.91144762395777e-04
4.03769230769231e+00 5.41393732958063e-02 6.77702079997426e-04
4.09338461538462e+00 5.27189584056771e-02 6.64457627579901e-04
4.14907692307692e+00 5.13358098948237e-02 6.51411702131344e-04
4.20476923076923e+00 4.99889500327314e-02 6.38564374150304e-04
4.26046153846154e+00 4.86774267439107e-02 6.25915504313790e-04
4.31615384615385e+00 4.74003129256222e-02 6.13464757826971e-04
4.37184615384615e+00 4.61567058019666e-02 6.01211617817040e-04
4.42753846153846e+00 4.49457262824959e-02 5.89155399775043e-04
4.48323076923077e+00 4.37665183408212e-02 5.77295263360296e-04
4.53892307692308e+00 4.26182484119749e-02 5.65630225051522e-04
4.59461538461538e+00 4.15001047955520e-02 5.54159168566682e-04
4.65030769230769e+00 4.04112970897024e-02 5.42880854585652e-04
4.70600000000000e+00 3.93510556297691e-02 5.31793931212294e-04
4.76169230769231e+00 3.83186309463514e-02 5.20896943601442e-04
4.81738461538462e+00 3.73132932289908e-02 5.10188342033583e-04
4.87307692307692e+00 3.63343318169284e-02 4.99666489441973e-04
4.92876923076923e+00 3.53810546944842e-02 4.89329669645202e-04
4.98446153846154e+00 3.44527880037147e-02 4.79176094903956e-04
5.04015384615385e+00 3.35488755624745e-02 4.69203912168425e-04
5.09584615384615e+00 3.26686784062743e-02 4.59411208892711e-04
5.15153846153846e+00 3.18115743346579e-02 4.49796019712492e-04
5.20723076923077e+00 3.09769574713895e-02 4.40356331561737e-04
5.26292307692308e+00 3.01642378376784e-02 4.31090089498605e-04
5.31861538461539e+00 2.93728409304857e-02 4.21995201210380e-04
5.37430769230769e+00 2.86022073211506e-02 4.13069541193913e-04
5.43000000000000e+00 2.78517922583313e-02 4.04310955544951e-04
5.48569230769231e+00 2.71210652842336e-02 3.95717266316987e-04
5.54138461538462e+00 2.64095098556350e-02 3.87286274965601e-04
5.59707692307692e+00 2.57166229828265e-02 3.79015765533557e-04
5.65276923076923e+00 2.50419148726676e-02 3.70903508395108e-04
5.70846153846154e+00 2.43849085834895e-02 3.62947263645478e-04
5.76415384615385e+00 2.37451396844972e-02 3.55144783708061e-04
5.81984615384615e+00 2.31221559309896e-02 3.47493815733791e-04
5.87553846153846e+00 2.25155169434725e-02 3.39992104644742e-04
5.93123076923077e+00 2.19247938963669e-02 3.32637395214303e-04
5.98692307692308e+00 2.13495692158176e-02 3.25427434682229e-04
6.04261538461538e+00 2.07894362816291e-02 3.18359974555407e-04
6.09830769230769e+00 2.02439991427727e-02 3.11432772251037e-04
6.15400000000000e+00 1.97128722364958e-02 3.04643593197424e-04
6.20969230769231e+00 1.91956801165889e-02 2.97990212701537e-04
6.26538461538462e+00 1.86920571854879e-02 2.91470417256782e-04
6.32107692307692e+00 1.82016474383853e-02 2.85082005724092e-04
6.37676923076923e+00 1.77241042107082e-02 2.78822790927711e-04
6.43246153846154e+00 1.72590899337759e-02 2.72690601056701e-04
6.48815384615385e+00 1.68062758940098e-02 2.66683280583521e-04
6.54384615384615e+00 1.63653420027777e-02 2.60798691080736e-04
6.59953846153846e+00 1.59359765693751e-02 2.55034712501762e-04
6.65523076923077e+00 1.55178760806986e-02 2.49389243852000e-04
6.71092307692308e+00 1.51107449872892e-02 2.43860204248263e-04
6.76661538461538e+00 1.47142954925919e-02 2.38445533463913e-04
6.82230769230769e+00 1.43282473513710e-02 2.33143192396763e-04
6.87800000000000e+00 1.39523276709791e-02 2.27951163869147e-04
6.93369230769231e+00 1.35862707189697e-02 2.22867453298040e-04
6.98938461538462e+00 1.32298177336714e-02 2.17890089014426e-04
7.04507692307692e+00 1.28827167428859e-02 2.13017122520739e-04
7.10076923076923e+00 1.25447223852228e-02 2.08246629047650e-04
7.15646153846154e+00 1.22155957371090e-02 2.03576708001998e-04
7.21215384615385e+00 1.18951041425181e-02 1.99005483110461e-04
7.26784615384615e+00 1.15830210499134e-02 1.94531102513763e-04
7.32353846153846e+00 1.12791258516222e-02 1.90151739190173e-04
7.37923076923077e+00 1.09832037278943e-02 1.85865590987075e-04
7.43492307692308e+00 1.06950454954264e-02 1.81670880929716e-04
7.49061538461538e+00 1.04144474583317e-02 1.77565857200032e-04
7.54630769230769e+00 1.01412112653336e-02 1.73548793078480e-04
7.60200000000000e+00 9.87514376915204e-03 1.69617987123271e-04
7.65769230769231e+00 9.61605689030146e-03 1.65771763276192e-04
7.71338461538462e+00 9.36376748312599e-03 1.62008470745255e-04
7.76907692307692e+00 9.11809720736900e-03 1.58326483858140e-04
7.82476923076923e+00 8.87887240175543e-03 1.54724202128990e-04
7.88046153846154e+00 8.64592396152282e-03 1.51200050263612e-04
7.93615384615385e+00 8.41908721799826e-03 1.47752477970364e-04
7.99184615384615e+00 8.19820182309780e-03 1.44379959748169e-04
8.04753846153846e+00 7.98311163567131e-03 1.41080994906608e-04
8.10323076923077e+00 7.77366461112957e-03 1.37854107331239e-04
8.15892307692308e+00 7.56971269421009e-03 1.34697845445263e-04
8.21461538461539e+00 7.37111171356972e-03 1.31610781957236e-04
8.27030769230769e+00 7.17772128063487e-03 1.28591513592252e-04
8.32600000000000e+00 6.98940469010366e-03 1.25638660991538e-04
8.38169230769231e+00 6.80602882352481e-03 1.22750868570436e-04
8.43738461538462e+00 6.62746405454278e-03 1.19926804232907e-04
8.49307692307692e+00 6.45358415793392e-03 1.17165159073464e-04
8.54876923076923e+00 6.28426622015257e-03 1.14464647230263e-04
8.60446153846154e+00 6.11939055263294e-03 1.11824005703319e-04
8.66015384615385e+00 5.95884060660930e-03 1.09241994047468e-04
8.71584615384615e+00 5.80250289131328e-03 1.06717394055957e-04
8.77153846153846e+00 5.65026689354976e-03 1.04249009607104e-04
8.82723076923077e+00 5.50202499957726e-03 1.01835666344047e-04
8.88292307692308e+00 5.35767241919586e-03 9.94762114930090e-05
8.93861538461539e+00 5.21710711118571e-03 9.71695135417598e-05
8.99430769230769e+00 5.08022971167116e-03 9.49144619119032e-05
9.05000000000000e+00 4.94694346371342e-03 9.27099667501798e-05
9.10569230769231e+00 4.81715414905382e-03 9.05549586963275e-05
9.16138461538462e+00 4.69077002108547e-03 8.84483885580061e-05
9.21707692307692e+00 4.56770174043331e-03 8.63892269815182e-05
9.27276923076923e+00 4.44786231165355e-03 8.43764642292972e-05
9.32846153846154e+00 4.33116702186026e-03 8.24091099378168e-05
9.38415384615385e+00 4.21753338046868e-03 8.04861927942292e-05
9.43984615384615e+00 4.10688106126487e-03 7.86067602103544e-05
9.49553846153846e+00 3.99913184549432e-03 7.67698781110961e-05
9.55123076923077e+00 3.89420956657058e-03 7.49746306128685e-05
9.60692307692308e+00 3.79204005633792e-03 7.32201197995686e-05
9.66261538461539e+00 3.69255109232446e-03 7.15054654066628e-05
9.71830769230769e+00 3.59567234701329e-03 6.98298045041814e-05
9.77400000000000e+00 3.50133533801883e-03 6.81922912636605e-05
9.82969230769231e+00 3.40947337976885e-03 6.65920967120896e-05
9.88538461538462e+00 3.32002153608576e-03 6.50284084253423e-05
9.94107692307692e+00 3.23291657456875e-03 6.35004302214285e-05
9.99676923076923e+00 3.14809692179892e-03 6.20073819577219e-05
1.00524615384615e+01 3.06550261973320e-03 6.05484991872263e-05
1.01081538461538e+01 2.98507528364547e-03 5.91230329513416e-05
1.01638461538462e+01 2.90675806044032e-03 5.77302495469510e-05
1.02195384615385e+01 2.83049558863489e-03 5.63694301870138e-05
1.02752307692308e+01 2.75623395922549e-03 5.50398707737273e-05
1.03309230769231e+01 2.68392067757944e-03 5.37408816422935e-05
1.03866153846154e+01 2.61350462632726e-03 5.24717873069899e-05
1.04423076923077e+01 2.54493602922845e-03 5.12319262099915e-05
1.04980000000000e+01 2.47816641598521e-03 5.00206505827568e-05
1.05536923076923e+01 2.41314858737755e-03 4.88373258646935e-05
1.06093846153846e+01 2.34983658373982e-03 4.76813306863617e-05
1.06650769230769e+01 2.28818565059467e-03 4.65520568677077e-05
1.07207692307692e+01 2.22815220765515e-03 4.54489088198574e-05
1.07764615384615e+01 2.16969381801840e-03 4.43713034337494e-05
1.08321538461538e+01 2.11276915816746e-03 4.33186698490280e-05
1.08878461538462e+01 2.05733798876021e-03 4.22904492260032e-05
1.09435384615385e+01 2.00336112618435e-03 4.12860945204820e-05
1.09992307692308e+01 1.95080041485963e-03 4.03050702617630e-05
1.10549230769231e+01 1.89961870026575e-03 3.93468523338136e-05
1.11106153846154e+01 1.84977980267834e-03 3.84109277593460e-05
1.11663076923077e+01 1.80124849159393e-03 3.74967944870354e-05
1.12220000000000e+01 1.75399046082594e-03 3.66039612570310e-05
1.12776923076923e+01 1.70797230385544e-03 3.57319471645667e-05
1.13333846153846e+01 1.66316149143562e-03 3.48802816111677e-05
1.13890769230769e+01 1.61952634735409e-03 3.40485042672953e-05
1.14447692307692e+01 1.57703602646401e-03 3.32361646277562e-05
1.15004615384615e+01 1.53566049288003e-03 3.24428219014068e-05
1.15561538461538e+01 1.49537049874634e-03 3.16680448199053e-05
1.16118461538462e+01 1.45613756356164e-03 3.09114114495371e-05
1.16675384615385e+01 1.41793395404650e-03 3.01725090059562e-05
1.17232307692308e+01 1.38073266453942e-03 2.94509336720070e-05
1.17789230769231e+01 1.34450739790659e-03 2.87462904186032e-05
1.18346153846154e+01 1.30923254695285e-03 2.80581928284577e-05
1.18903076923077e+01 1.27488317632022e-03 2.73862629227965e-05
1.19460000000000e+01 1.24143500486142e-03 2.67301310425833e-05
1.20016923076923e+01 1.20886438821076e-03 2.60894355234137e-05
1.20573846153846e+01 1.17714830288084e-03 2.54638226370436e-05
1.21130769230769e+01 1.14626432916100e-03 2.48529465415144e-05
1.21687692307692e+01 1.11619063555007e-03 2.42564689526192e-05
1.22244615384615e+01 1.08690596332400e-03 2.36740590453670e-05
1.22801538461538e+01 1.05838961150825e-03 2.31053933005858e-05
1.23358461538462e+01 1.03062142224460e-03 2.25501553542739e-05
1.23915384615385e+01 1.00358176654166e-03 2.20080358495819e-05
1.24472307692308e+01 9.77251530399574e-04 2.14787322915076e-05
1.25029230769231e+01 9.51612101298518e-04 2.09619489042737e-05
1.25586153846154e+01 9.26645355041680e-04 2.04573964912343e-05
1.26143076923077e+01 9.02333642943502e-04 1.99647922973776e-05
1.26700000000000e+01 8.78659779354045e-04 1.94838599098253e-05
1.27256923076923e+01 8.55607029333744e-04 1.90143290170403e-05
1.27813846153846e+01 8.33159097364668e-04 1.85559353517751e-05
1.28370769230769e+01 8.11300115279868e-04 1.81084206404271e-05
1.28927692307692e+01 7.90014631233853e-04 1.76715323613488e-05
1.29484615384615e+01 7.69287598779865e-04 1.72450236616752e-05
1.30041538461538e+01 7.49104366233736e-04 1.68286532368931e-05
1.30598461538462e+01 7.29450666316784e-04 1.64221852127264e-05
1.31155384615385e+01 7.10312606070382e-04 1.60253890292485e-05
1.31712307692308e+01 6.91676657035341e-04 1.56380393272604e-05
1.32269230769231e+01 6.73529645688729e-04 1.52599158369017e-05
1.32826153846154e+01 6.55858744131669e-04 1.48908032683836e-05
1.33383076923077e+01 6.38651461021454e-04 1.45304912048722e-05
1.33940000000000e+01 6.21895632741568e-04 1.41787740218851e-05
1.34496923076923e+01 6.05579414684915e-04 1.38354507097673e-05
1.35053846153846e+01 5.89691273243225e-04 1.35003248229812e-05
1.35610769230769e+01 5.74219977284825e-04 1.31732044341394e-05
1.36167692307692e+01 5.59154590341009e-04 1.28539019568380e-05
1.36724615384615e+01 5.44484462875173e-04 1.25422340779129e-05
1.37281538461538e+01 5.30199224754792e-04 1.22380216643447e-05
1.37838461538462e+01 5.16288777920899e-04 1.19410896720468e-05
1.38395384615385e+01 5.02743289249846e-04 1.16512670564662e-05
1.38952307692308e+01 4.89553183602480e-04 1.13683866850139e-05
1.39509230769231e+01 4.76709137055551e-04 1.10922852512958e-05
1.40066153846154e+01 4.64202070310735e-04 1.08228031910596e-05
1.40623076923077e+01 4.52023142276599e-04 1.05597845998702e-05
1.41180000000000e+01 4.40163743818935e-04 1.03030771693041e-05
1.41736923076923e+01 4.28615491595515e-04 1.00525320565550e-05
1.42293846153846e+01 4.17370222373243e-04 9.80800384168797e-06
1.42850769230769e+01 4.06419987009721e-04 9.56935048838764e-06
1.43407692307692e+01 3.95757044918367e-04 9.33643321446890e-06
1.43964615384615e+01 3.85373858596690e-04 9.10911643802555e-06
1.44521538461538e+01 3.75263088298119e-04 8.88726770630421e-06
1.45078461538462e+01 3.65417586843628e-04 8.67075762606976e-06
1.45635384615385e+01 3.55830394569452e-04 8.45945979541007e-06
1.46192307692308e+01 3.46494734407447e-04 8.25325073698499e-06
1.46749230769231e+01 3.37404007094432e-04 8.05200983269264e-06
1.47306153846154e+01 3.28551786507249e-04 7.85561925969344e-06
1.47863076923077e+01 3.19931815120217e-04 7.66396392779357e-06
1.48420000000000e+01 3.11537999581761e-04 7.47693142977264e-06
1.48976923076923e+01 3.03364406353534e-04 7.29441194590178e-06
1.49533846153846e+01 2.95405257679832e-04 7.11629820911707e-06
1.50090769230769e+01 2.87654927336445e-04 6.94248547275543e-06
1.50647692307692e+01 2.80107936710283e-04 6.77287141614206e-06
1.51204615384615e+01 2.72758950926601e-04 6.60735610252983e-06
1.51761538461538e+01 2.65602775077852e-04 6.44584192524969e-06
1.52318461538462e+01 2.58634350551461e-04 6.28823355502211e-06
1.52875384615385e+01 2.51848751453941e-04 6.13443788839109e-06
1.53432307692308e+01 2.45241181128878e-04 5.98436399727849e-06
1.53989230769231e+01 2.38806968766207e-04 5.83792307963760e-06
1.54546153846154e+01 2.32541566100480e-04 5.69502841116186e-06
1.55103076923077e+01 2.26440544195751e-04 5.55559529804535e-06
1.55660000000000e+01 2.20499590314813e-04 5.41954103880008e-06
1.56216923076923e+01 2.14714504834425e-04 5.28678485451897e-06
1.56773846153846e+01 2.09081198387174e-04 5.15724786116163e-06
1.57330769230769e+01 2.03595688858100e-04 5.03085304371349e-06
1.57887692307692e+01 1.98254098608071e-04 4.90752518749105e-06
1.58444615384615e+01 1.93052651732728e-04 4.78719084572216e-06
1.59001538461538e+01 1.87987671393339e-04 4.66977829907129e-06
1.59558461538462e+01 1.83055577217695e-04 4.55521751605720e-06
1.60115384615385e+01 1.78252882769168e-04 4.44344011433370e-06
1.60672307692308e+01 1.73576193082224e-04 4.33437932282955e-06
1.61229230769231e+01 1.69022202262546e-04 4.22796994472986e-06
1.61786153846154e+01 1.64587691150136e-04 4.12414832126731e-06
1.62343076923077e+01 1.60269525043738e-04 4.02285229631781e-06
1.62900000000000e+01 1.56064651484948e-04 3.92402118733727e-06
1.63456923076923e+01 1.51970098076018e-04 3.82759573453950e-06
1.64013846153846e+01 1.47982970453457e-04 3.73351807921838e-06
1.64570769230769e+01 1.44100450165854e-04 3.64173174343638e-06
1.65127692307692e+01 1.40319792707441e-04 3.55218158013007e-06
1.65684615384615e+01 1.36638325578031e-04 3.46481374837727e-06
1.66241538461538e+01 1.33053446393862e-04 3.37957568315491e-06
1.66798461538462e+01 1.29562621048004e-04 3.29641606577557e-06
1.67355384615385e+01 1.26163381919025e-04 3.21528479498087e-06
1.67912307692308e+01 1.22853326126668e-04 3.13613295868710e-06
1.68469230769231e+01 1.19630113833284e-04 3.05891280636919e-06
1.69026153846154e+01 1.16491466589827e-04 2.98357772205993e-06
1.69583076923077e+01 1.13435165725241e-04 2.91008219795904e-06
1.70140000000000e+01 1.10459050778118e-04 2.83838181248513e-06
1.70696923076923e+01 1.07561017952913e-04 2.76843319330786e-06
1.71253846153846e+01 1.04739018683461e-04 2.70019400061220e-06
1.71810769230769e+01 1.01991058133240e-04 2.63362291135698e-06
1.72367692307692e+01 9.93151938027897e-05 2.56867958309086e-06
1.72924615384615e+01 9.67095341565817e-05 2.50532463523843e-06
1.73481538461538e+01 9.41722372859166e-05 2.44351962661418e-06
1.74038461538462e+01 9.17015096069006e-05 2.38322703344836e-06
1.74595384615385e+01 8.92956045925788e-05 2.32441022790894e-06
1.75152307692308e+01 8.69528215383463e-05 2.26703345711465e-06
1.75709230769231e+01 8.46715043597360e-05 2.21106182262891e-06
