Energy (eV)          EEDF (eV^-(3/2))     First Anisotropy
1.03448275862069e-02 4.90444862926266e-01 3.38867462802273e-04
3.10344827586207e-02 4.84633663212835e-01 5.58127707334929e-04
5.17241379310345e-02 4.78891319456198e-01 7.32990035563590e-04
7.24137931034483e-02 4.73217015773450e-01 8.63543303669390e-04
9.31034482758621e-02 4.67609945970230e-01 9.70546862718271e-04
1.13793103448276e-01 4.62069313397882e-01 1.06190864296757e-03
1.34482758620690e-01 4.56594330870254e-01 1.14175025613505e-03
1.55172413793103e-01 4.51184220506527e-01 1.21257792860532e-03
1.75862068965517e-01 4.45838213645828e-01 1.27606518640787e-03
1.96551724137931e-01 4.40555550707688e-01 1.33340279940821e-03
2.17241379310345e-01 4.35335481171294e-01 1.38547808139790e-03
2.37931034482759e-01 4.30177263376512e-01 1.43297591002371e-03
2.58620689655172e-01 4.25080164451195e-01 1.47643978944743e-03
2.79310344827586e-01 4.20043460207122e-01 1.51631084089067e-03
3.00000000000000e-01 4.15066435037291e-01 1.55295380619610e-03
3.20689655172414e-01 4.10148381798472e-01 1.58667501697005e-03
3.41379310344828e-01 4.05288601758542e-01 1.61773519674328e-03
3.62068965517241e-01 4.00486404447606e-01 1.64635881317732e-03
3.82758620689655e-01 3.95741107577002e-01 1.67274105462401e-03
4.03448275862069e-01 3.91052036942524e-01 1.69705314295460e-03
4.24137931034483e-01 3.86418526328616e-01 1.71944644416704e-03
4.44827586206897e-01 3.81839917403390e-01 1.74005569261459e-03
4.65517241379310e-01 3.77315559656630e-01 1.75900156074752e-03
4.86206896551724e-01 3.72844810274918e-01 1.77639272858495e-03
5.06896551724138e-01 3.68427034061380e-01 1.79232756334564e-03
5.27586206896552e-01 3.64061603345577e-01 1.80689550329296e-03
5.48275862068966e-01 3.59747897894273e-01 1.82017820507517e-03
5.68965517241379e-01 3.55485304815873e-01 1.83225049977440e-03
5.89655172413793e-01 3.51273218496086e-01 1.84318120167588e-03
6.10344827586207e-01 3.47111040488591e-01 1.85303379436489e-03
6.31034482758621e-01 3.42998179437920e-01 1.86186701244359e-03
6.51724137931034e-01 3.38934050995549e-01 1.86973534459057e-03
6.72413793103448e-01 3.34918077730875e-01 1.87668946451128e-03
6.93103448275862e-01 3.30949689067353e-01 1.88277660806577e-03
7.13793103448276e-01 3.27028321182858e-01 1.88804090229919e-03
7.34482758620690e-01 3.23153416935900e-01 1.89252365029248e-03
7.55172413793103e-01 3.19324425786454e-01 1.89626358433341e-03
7.75862068965517e-01 3.15540803717791e-01 1.89929708946266e-03
7.96551724137931e-01 3.11802013154502e-01 1.90165839940341e-03
8.17241379310345e-01 3.08107522900324e-01 1.90337977361941e-03
8.37931034482759e-01 3.04456808048193e-01 1.90449165551703e-03
8.58620689655172e-01 3.00849349910575e-01 1.90502281124360e-03
8.79310344827586e-01 2.97284635945777e-01 1.90500045662025e-03
9.00000000000000e-01 2.93762159685152e-01 1.90445037144759e-03
9.20689655172414e-01 2.90281420657383e-01 1.90339700081008e-03
9.41379310344828e-01 2.86841924328773e-01 1.90186354922201e-03
9.62068965517241e-01 2.83443182021385e-01 1.89987206621898e-03
9.82758620689655e-01 2.80084710847540e-01 1.89744352175335e-03
1.00344827586207e+00 2.76766033641222e-01 1.89459787562356e-03
1.02413793103448e+00 2.73486678899646e-01 1.89135414782087e-03
1.04482758620690e+00 2.70246180672535e-01 1.88773046598311e-03
1.06551724137931e+00 2.67044078585966e-01 1.88374412956006e-03
1.08620689655172e+00 2.63879917660909e-01 1.87941165546936e-03
1.10689655172414e+00 2.60753248367395e-01 1.87474882361472e-03
1.12758620689655e+00 2.57663626445605e-01 1.86977072027973e-03
1.14827586206897e+00 2.54610612954189e-01 1.86449177605446e-03
1.16896551724138e+00 2.51593774099913e-01 1.85892580309771e-03
1.18965517241379e+00 2.48612681280707e-01 1.85308602762019e-03
1.21034482758621e+00 2.45666910923259e-01 1.84698512568374e-03
1.23103448275862e+00 2.42756044497966e-01 1.84063523675726e-03
1.25172413793103e+00 2.39879668457542e-01 1.83404801317989e-03
1.27241379310345e+00 2.37037374108175e-01 1.82723463083894e-03
1.29310344827586e+00 2.34228757643822e-01 1.82020581562900e-03
1.31379310344828e+00 2.31453419999156e-01 1.81297186640924e-03
1.33448275862069e+00 2.28710966879968e-01 1.80554267469793e-03
1.35517241379310e+00 2.26001008622528e-01 1.79792774489345e-03
1.37586206896552e+00 2.23323160220456e-01 1.79013621153818e-03
1.39655172413793e+00 2.20677041190080e-01 1.78217685721192e-03
1.41724137931034e+00 2.18062275594107e-01 1.77405812772895e-03
1.43793103448276e+00 2.15478491912614e-01 1.76578814803996e-03
1.45862068965517e+00 2.12925323063803e-01 1.75737473566288e-03
1.47931034482759e+00 2.10402406280291e-01 1.74882541487218e-03
1.50000000000000e+00 2.07909383127208e-01 1.74014742861221e-03
1.52068965517241e+00 2.05445899383479e-01 1.73134775120635e-03
1.54137931034483e+00 2.03011605057508e-01 1.72243309896063e-03
1.56206896551724e+00 2.00606154273162e-01 1.71340994158795e-03
1.58275862068966e+00 1.98229205283254e-01 1.70428451167660e-03
1.60344827586207e+00 1.95880420359972e-01 1.69506281499301e-03
1.62413793103448e+00 1.93559465806356e-01 1.68575063896245e-03
1.64482758620690e+00 1.91266011850933e-01 1.67635356198995e-03
1.66551724137931e+00 1.88999732657359e-01 1.66687696107755e-03
1.68620689655172e+00 1.86760306223038e-01 1.65732602028164e-03
1.70689655172414e+00 1.84547414387097e-01 1.64770573757323e-03
1.72758620689655e+00 1.82360742732777e-01 1.63802093253306e-03
1.74827586206897e+00 1.80199980593886e-01 1.62827625254514e-03
1.76896551724138e+00 1.78064820960779e-01 1.61847617981670e-03
1.78965517241379e+00 1.75954960485413e-01 1.60862503698350e-03
1.81034482758621e+00 1.73870099390742e-01 1.59872699561365e-03
1.83103448275862e+00 1.71809941463420e-01 1.58878607292977e-03
1.85172413793103e+00 1.69774194010882e-01 1.57880615014698e-03
1.87241379310345e+00 1.67762567786550e-01 1.56879096918611e-03
1.89310344827586e+00 1.65774776992639e-01 1.55874413931121e-03
1.91379310344828e+00 1.63810539196683e-01 1.54866914232536e-03
1.93448275862069e+00 1.61869575333273e-01 1.53856933657872e-03
1.95517241379310e+00 1.59951609623515e-01 1.52844796175608e-03
1.97586206896552e+00 1.58056369575797e-01 1.51830814253639e-03
1.99655172413793e+00 1.56183585908038e-01 1.50815289301296e-03
2.01724137931034e+00 1.54332992547580e-01 1.49798512004062e-03
2.03793103448276e+00 1.52504326556096e-01 1.48780762732360e-03
2.05862068965517e+00 1.50697328128678e-01 1.47762311848216e-03
2.07931034482759e+00 1.48911740521299e-01 1.46743420083965e-03
2.10000000000000e+00 1.47147310049163e-01 1.45724338823596e-03
2.12068965517241e+00 1.45403786016610e-01 1.44705310454193e-03
2.14137931034483e+00 1.43680920714797e-01 1.43686568624404e-03
2.16206896551724e+00 1.41978469353934e-01 1.42668338571037e-03
2.18275862068965e+00 1.40296190060363e-01 1.41650837356891e-03
2.20344827586207e+00 1.38633843811031e-01 1.40634274174698e-03
2.22413793103448e+00 1.36991194430013e-01 1.39618850566196e-03
2.24482758620690e+00 1.35368008525134e-01 1.38604760705375e-03
2.26551724137931e+00 1.33764055483987e-01 1.37592191600529e-03
2.28620689655172e+00 1.32179107412619e-01 1.36581323358590e-03
2.30689655172414e+00 1.30612939131090e-01 1.35572329371641e-03
2.32758620689655e+00 1.29065328114136e-01 1.34565376563898e-03
2.34827586206897e+00 1.27536054486318e-01 1.33560625564091e-03
2.36896551724138e+00 1.26024900964580e-01 1.32558230936489e-03
2.38965517241379e+00 1.24531652853033e-01 1.31558341340387e-03
2.41034482758621e+00 1.23056097987333e-01 1.30561099874356e-03
2.43103448275862e+00 1.21598026723231e-01 1.29566643710691e-03
2.45172413793103e+00 1.20157231906365e-01 1.28575105062981e-03
2.47241379310345e+00 1.18733508825167e-01 1.27586610836124e-03
2.49310344827586e+00 1.17326655205163e-01 1.26601282894770e-03
2.51379310344828e+00 1.15936471157332e-01 1.25619238248169e-03
2.53448275862069e+00 1.14562759172140e-01 1.24640589172029e-03
2.55517241379310e+00 1.13205324069497e-01 1.23665443382207e-03
2.57586206896552e+00 1.11863972992566e-01 1.22693904147834e-03
2.59655172413793e+00 1.10538515359257e-01 1.21726070454698e-03
2.61724137931034e+00 1.09228762855826e-01 1.20762037110343e-03
2.63793103448276e+00 1.07934529389865e-01 1.19801894897838e-03
2.65862068965517e+00 1.06655631083704e-01 1.18845730673508e-03
2.67931034482759e+00 1.05391886228845e-01 1.17893627511776e-03
2.70000000000000e+00 1.04143115279198e-01 1.16945664796083e-03
2.72068965517241e+00 1.02909140806896e-01 1.16001918355436e-03
2.74137931034483e+00 1.01689787495393e-01 1.15062460549009e-03
2.76206896551724e+00 1.00484882096610e-01 1.14127360394987e-03
2.78275862068966e+00 9.92942534239121e-02 1.13196683649341e-03
2.80344827586207e+00 9.81177323105394e-02 1.12270492927449e-03
2.82413793103448e+00 9.69551516024816e-02 1.11348847777484e-03
2.84482758620690e+00 9.58063461181512e-02 1.10431804795317e-03
2.86551724137931e+00 9.46711526411682e-02 1.09519417692900e-03
2.88620689655172e+00 9.35494098812335e-02 1.08611737406880e-03
2.90689655172414e+00 9.24409584668412e-02 1.07708812162350e-03
2.92758620689655e+00 9.13456409073091e-02 1.06810687575572e-03
2.94827586206897e+00 9.02633015854339e-02 1.05917406713437e-03
2.96896551724138e+00 8.91937867206386e-02 1.05029010190673e-03
2.98965517241379e+00 8.81369443615845e-02 1.04145536225306e-03
3.01034482758621e+00 8.70926243503968e-02 1.03267020811754e-03
3.03103448275862e+00 8.60606783119012e-02 1.02393497447393e-03
3.05172413793103e+00 8.50409596323102e-02 1.01524997704461e-03
3.07241379310345e+00 8.40333234283792e-02 1.00661550969297e-03
3.09310344827586e+00 8.30376265400948e-02 9.98031845754931e-04
3.11379310344828e+00 8.20537274973123e-02 9.89499238845708e-04
3.13448275862069e+00 8.10814865124333e-02 9.81017923293101e-04
3.15517241379310e+00 8.01207654480076e-02 9.72588114902767e-04
3.17586206896552e+00 7.91714278094093e-02 9.64210011362672e-04
3.19655172413793e+00 7.82333387133712e-02 9.55883792969145e-04
3.21724137931034e+00 7.73063648806682e-02 9.47609623004302e-04
3.23793103448276e+00 7.63903746055546e-02 9.39387648425330e-04
3.25862068965517e+00 7.54852377484622e-02 9.31218000216757e-04
3.27931034482759e+00 7.45908257063107e-02 9.23100794045016e-04
3.30000000000000e+00 7.37070114052292e-02 9.15036130587176e-04
3.32068965517241e+00 7.28336692717108e-02 9.07024096152719e-04
3.34137931034483e+00 7.19706752253637e-02 8.99064762990435e-04
3.36206896551724e+00 7.11179066508846e-02 8.91158189879182e-04
3.38275862068966e+00 7.02752423908442e-02 8.83304422414215e-04
3.40344827586207e+00 6.94425627184537e-02 8.75503493568890e-04
3.42413793103448e+00 6.86197493303913e-02 8.67755423961744e-04
3.44482758620690e+00 6.78066853203352e-02 8.60060222390564e-04
3.46551724137931e+00 6.70032551718378e-02 8.52417886081565e-04
3.48620689655172e+00 6.62093447326004e-02 8.44828401197238e-04
3.50689655172414e+00 6.54248412073995e-02 8.37291743068813e-04
3.52758620689655e+00 6.46496331330813e-02 8.29807876679474e-04
3.54827586206897e+00 6.38836103715430e-02 8.22376756881054e-04
3.56896551724138e+00 6.31266640854252e-02 8.14998328853810e-04
3.58965517241379e+00 6.23786867311528e-02 8.07672528308352e-04
3.61034482758621e+00 6.16395720353029e-02 8.00399282447430e-04
3.63103448275862e+00 6.09092149857343e-02 7.93178508051664e-04
3.65172413793103e+00 6.01875118165332e-02 7.86010115030520e-04
3.67241379310345e+00 5.94743599873593e-02 7.78894004597071e-04
3.69310344827586e+00 5.87696581767176e-02 7.71830069995527e-04
3.71379310344828e+00 5.80733062598613e-02 7.64818196889829e-04
3.73448275862069e+00 5.73852053021317e-02 7.57858263519646e-04
3.75517241379310e+00 5.67052575374695e-02 7.50950141070429e-04
3.77586206896552e+00 5.60333663618255e-02 7.44093693818338e-04
3.79655172413793e+00 5.53694363122631e-02 7.37288779483004e-04
3.81724137931034e+00 5.47133730604409e-02 7.30535249362002e-04
3.83793103448276e+00 5.40650833922884e-02 7.23832948667029e-04
3.85862068965517e+00 5.34244752015636e-02 7.17181716648783e-04
3.87931034482759e+00 5.27914574700841e-02 7.10581386917204e-04
3.90000000000000e+00 5.21659402613615e-02 7.04031787557325e-04
3.92068965517241e+00 5.15478347013715e-02 6.97532741434625e-04
3.94137931034483e+00 5.09370529722666e-02 6.91084066302207e-04
3.96206896551724e+00 5.03335082936695e-02 6.84685575092044e-04
3.98275862068966e+00 4.97371149164649e-02 6.78337076013994e-04
4.00344827586207e+00 4.91477881046008e-02 6.72038372833476e-04
4.02413793103448e+00 4.85654441289615e-02 6.65789264963105e-04
4.04482758620690e+00 4.79900002496608e-02 6.59589547727433e-04
4.06551724137931e+00 4.74213747099974e-02 6.53439012447395e-04
4.08620689655172e+00 4.68594867192263e-02 6.47337446692903e-04
4.10689655172414e+00 4.63042564465965e-02 6.41284634360611e-04
4.12758620689655e+00 4.57556050045868e-02 6.35280355914844e-04
4.14827586206897e+00 4.52134544430272e-02 6.29324388459041e-04
4.16896551724138e+00 4.46777277327851e-02 6.23416505965658e-04
4.18965517241379e+00 4.41483487599704e-02 6.17556479341708e-04
4.21034482758621e+00 4.36252423100601e-02 6.11744076991546e-04
4.23103448275862e+00 4.31083340609879e-02 6.05979063498910e-04
4.25172413793103e+00 4.25975505725044e-02 6.00261201890870e-04
4.27241379310345e+00 4.20928192721552e-02 5.94590252380226e-04
4.29310344827586e+00 4.15940684497308e-02 5.88965972783941e-04
4.31379310344828e+00 4.11012272423977e-02 5.83388118718803e-04
4.33448275862069e+00 4.06142256292320e-02 5.77856443648407e-04
4.35517241379310e+00 4.01329944167465e-02 5.72370699069838e-04
4.37586206896552e+00 3.96574652335083e-02 5.66930634556182e-04
4.39655172413793e+00 3.91875705160511e-02 5.61535997934751e-04
4.41724137931034e+00 3.87232435035758e-02 5.56186535325423e-04
4.43793103448276e+00 3.82644182242374e-02 5.50881991310663e-04
4.45862068965517e+00 3.78110294899293e-02 5.45622108969999e-04
4.47931034482759e+00 3.73630128829330e-02 5.40406630042287e-04
4.50000000000000e+00 3.69203047507863e-02 5.35235294956458e-04
4.52068965517241e+00 3.64828421932861e-02 5.30107842986454e-04
4.54137931034483e+00 3.60505630574392e-02 5.25024012278487e-04
4.56206896551724e+00 3.56234059248090e-02 5.19983539998869e-04
4.58275862068966e+00 3.52013101065484e-02 5.14986162358058e-04
4.60344827586207e+00 3.47842156310805e-02 5.10031614751781e-04
4.62413793103448e+00 3.43720632392132e-02 5.05119631781962e-04
4.64482758620690e+00 3.39647943721448e-02 5.00249947391446e-04
4.66551724137931e+00 3.35623511666602e-02 4.95422294882082e-04
4.68620689655172e+00 3.31646764434514e-02 4.90636407043291e-04
4.70689655172414e+00 3.27717137023949e-02 4.85892016167488e-04
4.72758620689655e+00 3.23834071111790e-02 4.81188854172680e-04
4.74827586206897e+00 3.19997015006615e-02 4.76526652615458e-04
4.76896551724138e+00 3.16205423537952e-02 4.71905142808057e-04
4.78965517241379e+00 3.12458758010651e-02 4.67324055828830e-04
4.81034482758621e+00 3.08756486097041e-02 4.62783122861516e-04
4.83103448275862e+00 3.05098081784661e-02 4.58282074290941e-04
4.85172413793103e+00 3.01483025301044e-02 4.53820641170526e-04
4.87241379310345e+00 2.97910803017631e-02 4.49398554358818e-04
4.89310344827586e+00 2.94380907406307e-02 4.45015544767083e-04
4.91379310344828e+00 2.90892836938268e-02 4.40671343459051e-04
4.93448275862069e+00 2.87446096041316e-02 4.36365681653925e-04
4.95517241379310e+00 2.84040195001357e-02 4.32098290821531e-04
4.97586206896552e+00 2.80674649920464e-02 4.27868902683639e-04
4.99655172413793e+00 2.77348982620930e-02 4.23677249304694e-04
5.01724137931035e+00 2.74062720604086e-02 4.19523063091450e-04
5.03793103448276e+00 2.70815396956845e-02 4.15406076879596e-04
5.05862068965517e+00 2.67606550311262e-02 4.11326023931902e-04
5.07931034482759e+00 2.64435724753505e-02 4.07282638020791e-04
5.10000000000000e+00 2.61302469784145e-02 4.03275653425037e-04
5.12068965517241e+00 2.58206340229489e-02 3.99304805008548e-04
5.14137931034483e+00 2.55146896202596e-02 3.95369828215745e-04
5.16206896551724e+00 2.52123703016902e-02 3.91470459146693e-04
5.18275862068965e+00 2.49136331147951e-02 3.87606434551206e-04
5.20344827586207e+00 2.46184356149259e-02 3.83777491900519e-04
5.22413793103448e+00 2.43267358614749e-02 3.79983369380268e-04
5.24482758620690e+00 2.40384924096783e-02 3.76223805958761e-04
5.26551724137931e+00 2.37536643069302e-02 3.72498541378899e-04
5.28620689655172e+00 2.34722110847970e-02 3.68807316223286e-04
5.30689655172414e+00 2.31940927554003e-02 3.65149871905134e-04
5.32758620689655e+00 2.29192698036364e-02 3.61525950730318e-04
5.34827586206897e+00 2.26477031836283e-02 3.57935295887379e-04
5.36896551724138e+00 2.23793543111445e-02 3.54377651506628e-04
5.38965517241379e+00 2.21141850601181e-02 3.50852762649289e-04
5.41034482758621e+00 2.18521577552612e-02 3.47360375515678e-04
5.43103448275862e+00 2.15932351681814e-02 3.43900236824432e-04
5.45172413793103e+00 2.13373805120623e-02 3.40472094774549e-04
5.47241379310345e+00 2.10845574350377e-02 3.37075698452229e-04
5.49310344827586e+00 2.08347300168848e-02 3.33710797979880e-04
5.51379310344828e+00 2.05878627620918e-02 3.30377144566155e-04
5.53448275862069e+00 2.03439205966146e-02 3.27074490492370e-04
5.55517241379310e+00 2.01028688611224e-02 3.23802589160203e-04
5.57586206896552e+00 1.98646733078169e-02 3.20561195077537e-04
5.59655172413793e+00 1.96293000938496e-02 3.17350063903812e-04
5.61724137931034e+00 1.93967157782037e-02 3.14168952435342e-04
5.63793103448276e+00 1.91668873152794e-02 3.11017618648498e-04
5.65862068965517e+00 1.89397820518356e-02 3.07895821684496e-04
5.67931034482759e+00 1.87153677207400e-02 3.04803321890515e-04
5.70000000000000e+00 1.84936124379697e-02 3.01739880804065e-04
5.72068965517241e+00 1.82744846965210e-02 2.98705261192016e-04
5.74137931034483e+00 1.80579533634689e-02 2.95699227034594e-04
5.76206896551724e+00 1.78439876740316e-02 2.92721543562513e-04
5.78275862068966e+00 1.76325572286879e-02 2.89771977240590e-04
5.80344827586207e+00 1.74236319873933e-02 2.86850295803047e-04
5.82413793103448e+00 1.72171822667538e-02 2.83956268236770e-04
5.84482758620690e+00 1.70131787343888e-02 2.81089664814872e-04
5.86551724137931e+00 1.68115924061619e-02 2.78250257079666e-04
5.88620689655172e+00 1.66123946406857e-02 2.75437817874512e-04
5.90689655172414e+00 1.64155571366085e-02 2.72652121326573e-04
5.92758620689655e+00 1.62210519272584e-02 2.69892942877039e-04
5.94827586206897e+00 1.60288513779840e-02 2.67160059263623e-04
5.96896551724138e+00 1.58389281809344e-02 2.64453248549259e-04
5.98965517241379e+00 1.56512553524527e-02 2.61772290104425e-04
6.01034482758621e+00 1.54658062279888e-02 2.59116964736321e-04
6.03103448275862e+00 1.52825544592470e-02 2.56487054261940e-04
6.05172413793103e+00 1.51014740104230e-02 2.53882342143975e-04
6.07241379310345e+00 1.49225391536135e-02 2.51302613082594e-04
6.09310344827586e+00 1.47457244663446e-02 2.48747653105952e-04
6.11379310344828e+00 1.45710048267944e-02 2.46217249594089e-04
6.13448275862069e+00 1.43983554113711e-02 2.43711191260639e-04
6.15517241379310e+00 1.42277516900562e-02 2.41229268175519e-04
6.17586206896552e+00 1.40591694240324e-02 2.38771271746511e-04
6.19655172413793e+00 1.38925846611435e-02 2.36336994740717e-04
6.21724137931034e+00 1.37279737335704e-02 2.33926231266122e-04
6.23793103448276e+00 1.35653132534064e-02 2.31538776791895e-04
6.25862068965517e+00 1.34045801103800e-02 2.29174428129871e-04
6.27931034482759e+00 1.32457514675414e-02 2.26832983453759e-04
6.30000000000000e+00 1.30888047590324e-02 2.24514242280613e-04
6.32068965517241e+00 1.29337176858813e-02 2.22218005488973e-04
6.34137931034483e+00 1.27804682138182e-02 2.19944075300330e-04
6.36206896551724e+00 1.26290345691759e-02 2.17692255296248e-04
6.38275862068966e+00 1.24793952367503e-02 2.15462350399835e-04
6.40344827586207e+00 1.23315289558040e-02 2.13254166891916e-04
6.42413793103448e+00 1.21854147179710e-02 2.11067512392501e-04
6.44482758620690e+00 1.20410317633604e-02 2.08902195876046e-04
6.46551724137931e+00 1.18983595785042e-02 2.06758027652976e-04
6.48620689655172e+00 1.17573778925598e-02 2.04634819384030e-04
6.50689655172414e+00 1.16180666752990e-02 2.02532384061851e-04
6.52758620689655e+00 1.14804061334062e-02 2.00450536024501e-04
