Energy (eV)          EEDF (eV^-(3/2))     First Anisotropy
4.90625000000000e-03 3.65640973528090e+00 3.31481978277282e-03
1.47187500000000e-02 3.57811382885401e+00 5.43337038572098e-03
2.45312500000000e-02 3.50149449846999e+00 7.06658696172512e-03
3.43437500000000e-02 3.42651584305321e+00 8.24463941169924e-03
4.41562500000000e-02 3.35314273028993e+00 9.17656116144863e-03
5.39687500000000e-02 3.28134078016627e+00 9.94320783982659e-03
6.37812500000000e-02 3.21107634885892e+00 1.05873284951299e-02
7.35937500000000e-02 3.14231651297087e+00 1.11352722061618e-02
8.34062500000000e-02 3.07502905410464e+00 1.16048611195599e-02
9.32187500000000e-02 3.00918244376593e+00 1.20089312239828e-02
1.03031250000000e-01 2.94474582859045e+00 1.23571569616061e-02
1.12843750000000e-01 2.88168901588720e+00 1.26570851451948e-02
1.22656250000000e-01 2.81998245949120e+00 1.29147636131176e-02
1.32468750000000e-01 2.75959724591924e+00 1.31351449328108e-02
1.42281250000000e-01 2.70050508082205e+00 1.33223572298120e-02
1.52093750000000e-01 2.64267827572659e+00 1.34798925077288e-02
1.61906250000000e-01 2.58608973506222e+00 1.36107415813806e-02
1.71718750000000e-01 2.53071294346467e+00 1.37174932528475e-02
1.81531250000000e-01 2.47652195335191e+00 1.38024088232328e-02
1.91343750000000e-01 2.42349137276604e+00 1.38674791540272e-02
2.01156250000000e-01 2.37159635347550e+00 1.39144691053076e-02
2.10968750000000e-01 2.32081257933212e+00 1.39449526626106e-02
2.20781250000000e-01 2.27111625487741e+00 1.39603410752666e-02
2.30593750000000e-01 2.22248409419288e+00 1.39619056675376e-02
2.40406250000000e-01 2.17489330998909e+00 1.39507965318527e-02
2.50218750000000e-01 2.12832160292833e+00 1.39280579984209e-02
2.60031250000000e-01 2.08274715117595e+00 1.38946415520943e-02
2.69843750000000e-01 2.03814860017544e+00 1.38514167063706e-02
2.79656250000000e-01 1.99450505264246e+00 1.37991802267260e-02
2.89468750000000e-01 1.95179605877308e+00 1.37386640082667e-02
2.99281250000000e-01 1.91000160666178e+00 1.36705418472792e-02
3.09093750000000e-01 1.86910211292456e+00 1.35954352966542e-02
3.18906250000000e-01 1.82907841352286e+00 1.35139187571335e-02
3.28718750000000e-01 1.78991175478401e+00 1.34265239269006e-02
3.38531250000000e-01 1.75158378461391e+00 1.33337437090522e-02
3.48343750000000e-01 1.71407654389789e+00 1.32360356583934e-02
3.58156250000000e-01 1.67737245808573e+00 1.31338250346300e-02
3.67968750000000e-01 1.64145432895683e+00 1.30275075175437e-02
3.77781250000000e-01 1.60630532656178e+00 1.29174516304865e-02
3.87593750000000e-01 1.57190898133639e+00 1.28040009110328e-02
3.97406250000000e-01 1.53824917638470e+00 1.26874758615135e-02
4.07218750000000e-01 1.50531013992714e+00 1.25681757071410e-02
4.17031250000000e-01 1.47307643791045e+00 1.24463799852984e-02
4.26843750000000e-01 1.44153296677585e+00 1.23223499861328e-02
4.36656250000000e-01 1.41066494638204e+00 1.21963300617376e-02
4.46468750000000e-01 1.38045791307974e+00 1.20685488188169e-02
4.56281250000000e-01 1.35089771293458e+00 1.19392202077085e-02
4.66093750000000e-01 1.32197049509503e+00 1.18085445189439e-02
4.75906250000000e-01 1.29366270530242e+00 1.16767092970855e-02
4.85718750000000e-01 1.26596107953988e+00 1.15438901803490e-02
4.95531250000000e-01 1.23885263781730e+00 1.14102516734739e-02
5.05343750000000e-01 1.21232467808940e+00 1.12759478604022e-02
5.15156250000000e-01 1.18636477030395e+00 1.11411230625557e-02
5.24968750000000e-01 1.16096075057754e+00 1.10059124478294e-02
5.34781250000000e-01 1.13610071549600e+00 1.08704425948406e-02
5.44593750000000e-01 1.11177301653689e+00 1.07348320164746e-02
5.54406250000000e-01 1.08796625461142e+00 1.05991916463230e-02
5.64218750000000e-01 1.06466927472324e+00 1.04636252912316e-02
5.74031250000000e-01 1.04187116074162e+00 1.03282300528379e-02
5.83843750000000e-01 1.01956123028652e+00 1.01930967206851e-02
5.93656250000000e-01 9.97729029723243e-01 1.00583101392377e-02
6.03468750000000e-01 9.76364329264204e-01 9.92394955089551e-03
6.13281250000000e-01 9.55457118175632e-01 9.79008891690082e-03
6.23093750000000e-01 9.34997600086896e-01 9.65679721785113e-03
6.32906250000000e-01 9.14976188400280e-01 9.52413873537287e-03
6.42718750000000e-01 8.95383501799041e-01 9.39217331636743e-03
6.52531250000000e-01 8.76210359851665e-01 9.26095662111392e-03
6.62343750000000e-01 8.57447778710239e-01 9.13054035639901e-03
6.72156250000000e-01 8.39086966900950e-01 9.00097249474203e-03
6.81968750000000e-01 8.21119321204708e-01 8.87229748069430e-03
6.91781250000000e-01 8.03536422625988e-01 8.74455642510619e-03
7.01593750000000e-01 7.86330032447991e-01 8.61778728818206e-03
7.11406250000000e-01 7.69492088372276e-01 8.49202505207823e-03
7.21218750000000e-01 7.53014700741052e-01 8.36730188373670e-03
7.31031250000000e-01 7.36890148840375e-01 8.24364728859245e-03
7.40843750000000e-01 7.21110877282487e-01 8.12108825574328e-03
7.50656250000000e-01 7.05669492465641e-01 7.99964939512565e-03
7.60468750000000e-01 6.90558759109719e-01 7.87935306719915e-03
7.70281250000000e-01 6.75771596866041e-01 7.76021950560411e-03
7.80093750000000e-01 6.61301076999767e-01 7.64226693322341e-03
7.89906250000000e-01 6.47140419143336e-01 7.52551167204810e-03
7.99718750000000e-01 6.33282988119434e-01 7.40996824721724e-03
8.09531250000000e-01 6.19722290831985e-01 7.29564948557786e-03
8.19343750000000e-01 6.06451973223719e-01 7.18256660908546e-03
8.29156250000000e-01 5.93465817298886e-01 7.07072932334338e-03
8.38968750000000e-01 5.80757738209730e-01 6.96014590156032e-03
8.48781250000000e-01 5.68321781405345e-01 6.85082326418668e-03
8.58593750000000e-01 5.56152119841583e-01 6.74276705447100e-03
8.68406250000000e-01 5.44243051250714e-01 6.63598171016391e-03
8.78218750000000e-01 5.32588995469547e-01 6.53047053158338e-03
8.88031250000000e-01 5.21184491824761e-01 6.42623574623817e-03
8.97843750000000e-01 5.10024196574235e-01 6.32327857019676e-03
9.07656250000000e-01 4.99102880403157e-01 6.22159926637681e-03
9.17468750000000e-01 4.88415425973756e-01 6.12119719991837e-03
9.27281250000000e-01 4.77956825527504e-01 6.02207089079519e-03
9.37093750000000e-01 4.67722178538651e-01 5.92421806380856e-03
9.46906250000000e-01 4.57706689418023e-01 5.82763569610052e-03
9.56718750000000e-01 4.47905665265978e-01 5.73232006231407e-03
9.66531250000000e-01 4.38314513673478e-01 5.63826677752047e-03
9.76343750000000e-01 4.28928740570253e-01 5.54547083802821e-03
9.86156250000000e-01 4.19743948119042e-01 5.45392666018038e-03
9.95968750000000e-01 4.10755832654922e-01 5.36362811724135e-03
1.00578125000000e+00 4.01960182668763e-01 5.27456857446841e-03
1.01559375000000e+00 3.93352876833871e-01 5.18674092245844e-03
1.02540625000000e+00 3.84929882074876e-01 5.10013760885483e-03
1.03521875000000e+00 3.76687251677980e-01 5.01475066849495e-03
1.04503125000000e+00 3.68621123441669e-01 4.93057175207446e-03
1.05484375000000e+00 3.60727717867021e-01 4.84759215340022e-03
1.06465625000000e+00 3.53003336386772e-01 4.76580283530060e-03
1.07446875000000e+00 3.45444359632295e-01 4.68519445425750e-03
1.08428125000000e+00 3.38047245737699e-01 4.60575738382111e-03
1.09409375000000e+00 3.30808528680231e-01 4.52748173686558e-03
1.10390625000000e+00 3.23724816656227e-01 4.45035738674088e-03
1.11371875000000e+00 3.16792790491832e-01 4.37437398737303e-03
1.12353125000000e+00 3.10009202087756e-01 4.29952099236208e-03
1.13334375000000e+00 3.03370872897327e-01 4.22578767312492e-03
1.14315625000000e+00 2.96874692437142e-01 4.15316313612797e-03
1.15296875000000e+00 2.90517616829601e-01 4.08163633925199e-03
1.16278125000000e+00 2.84296667376663e-01 4.01119610732952e-03
1.17259375000000e+00 2.78208929164124e-01 3.94183114689332e-03
1.18240625000000e+00 2.72251549695803e-01 3.87353006017227e-03
1.19221875000000e+00 2.66421737556957e-01 3.80628135836938e-03
1.20203125000000e+00 2.60716761106328e-01 3.74007347425579e-03
1.21184375000000e+00 2.55133947196190e-01 3.67489477411099e-03
1.22165625000000e+00 2.49670679919813e-01 3.61073356904025e-03
1.23146875000000e+00 2.44324399385738e-01 3.54757812569767e-03
1.24128125000000e+00 2.39092600518305e-01 3.48541667644145e-03
1.25109375000000e+00 2.33972831883867e-01 3.42423742894814e-03
1.26090625000000e+00 2.28962694542130e-01 3.36402857531034e-03
1.27071875000000e+00 2.24059840922101e-01 3.30477830064103e-03
1.28053125000000e+00 2.19261973722098e-01 3.24647479120736e-03
1.29034375000000e+00 2.14566844833316e-01 3.18910624211571e-03
1.30015625000000e+00 2.09972254286446e-01 3.13266086456778e-03
1.30996875000000e+00 2.05476049220845e-01 3.07712689270756e-03
1.31978125000000e+00 2.01076122875785e-01 3.02249259007817e-03
1.32959375000000e+00 1.96770413603302e-01 2.96874625570573e-03
1.33940625000000e+00 1.92556903902174e-01 2.91587622982775e-03
1.34921875000000e+00 1.88433619472602e-01 2.86387089928196e-03
1.35903125000000e+00 1.84398628291118e-01 2.81271870257147e-03
1.36884375000000e+00 1.80450039705307e-01 2.76240813462068e-03
1.37865625000000e+00 1.76586003547921e-01 2.71292775123595e-03
1.38846875000000e+00 1.72804709269948e-01 2.66426617328547e-03
1.39828125000000e+00 1.69104385092262e-01 2.61641209061022e-03
1.40809375000000e+00 1.65483297175428e-01 2.56935426567867e-03
1.41790625000000e+00 1.61939748807283e-01 2.52308153699765e-03
1.42771875000000e+00 1.58472079607922e-01 2.47758282228963e-03
1.43753125000000e+00 1.55078664751703e-01 2.43284712144796e-03
1.44734375000000e+00 1.51757914205910e-01 2.38886351928038e-03
1.45715625000000e+00 1.48508271985720e-01 2.34562118805014e-03
1.46696875000000e+00 1.45328215425128e-01 2.30310938982467e-03
1.47678125000000e+00 1.42216254463478e-01 2.26131747864078e-03
1.48659375000000e+00 1.39170930947271e-01 2.22023490249471e-03
1.49640625000000e+00 1.36190817946932e-01 2.17985120516568e-03
1.50621875000000e+00 1.33274519088198e-01 2.14015602788056e-03
1.51603125000000e+00 1.30420667897829e-01 2.10113911082736e-03
1.52584375000000e+00 1.27627927163326e-01 2.06279029452494e-03
1.53565625000000e+00 1.24894988306361e-01 2.02509952105535e-03
1.54546875000000e+00 1.22220570769627e-01 1.98805683516611e-03
1.55528125000000e+00 1.19603421416812e-01 1.95165238524830e-03
1.56509375000000e+00 1.17042313945423e-01 1.91587642419657e-03
1.57490625000000e+00 1.14536048312187e-01 1.88071931015717e-03
1.58471875000000e+00 1.12083450170756e-01 1.84617150716915e-03
1.59453125000000e+00 1.09683370321442e-01 1.81222358570451e-03
1.60434375000000e+00 1.07334684172754e-01 1.77886622311194e-03
1.61415625000000e+00 1.05036291214445e-01 1.74609020396933e-03
1.62396875000000e+00 1.02787114501859e-01 1.71388642034964e-03
1.63378125000000e+00 1.00586100151309e-01 1.68224587200455e-03
1.64359375000000e+00 9.84322168462685e-02 1.65115966647017e-03
1.65340625000000e+00 9.63244553541299e-02 1.62061901909889e-03
1.66321875000000e+00 9.42618280533168e-02 1.59061525302128e-03
1.67303125000000e+00 9.22433684705190e-02 1.56113979904202e-03
1.68284375000000e+00 9.02681308278378e-02 1.53218419547299e-03
1.69265625000000e+00 8.83351895996279e-02 1.50374008790728e-03
1.70246875000000e+00 8.64436390788299e-02 1.47579922893725e-03
1.71228125000000e+00 8.45925929525880e-02 1.44835347781997e-03
1.72209375000000e+00 8.27811838869556e-02 1.42139480009276e-03
1.73190625000000e+00 8.10085631204938e-02 1.39491526714192e-03
1.74171875000000e+00 7.92739000665719e-02 1.36890705572731e-03
1.75153125000000e+00 7.75763819241844e-02 1.34336244746538e-03
1.76134375000000e+00 7.59152132971016e-02 1.31827382827321e-03
1.77115625000000e+00 7.42896158211753e-02 1.29363368777598e-03
1.78096875000000e+00 7.26988277996255e-02 1.26943461868019e-03
1.79078125000000e+00 7.11421038461359e-02 1.24566931611452e-03
1.80059375000000e+00 6.96187145355934e-02 1.22233057694097e-03
1.81040625000000e+00 6.81279460623050e-02 1.19941129903783e-03
1.82021875000000e+00 6.66690999055340e-02 1.17690448055650e-03
1.83003125000000e+00 6.52414925021989e-02 1.15480321915418e-03
1.83984375000000e+00 6.38444549265792e-02 1.13310071120397e-03
1.84965625000000e+00 6.24773325768815e-02 1.11179025098412e-03
1.85946875000000e+00 6.11394848685163e-02 1.09086522984800e-03
1.86928125000000e+00 5.98302849339429e-02 1.07031913537634e-03
1.87909375000000e+00 5.85491193289419e-02 1.05014555051319e-03
1.88890625000000e+00 5.72953877451769e-02 1.03033815268699e-03
1.89871875000000e+00 5.60685027289119e-02 1.01089071291803e-03
1.90853125000000e+00 5.48678894057513e-02 9.91797094913613e-04
1.91834375000000e+00 5.36929852112742e-02 9.73051254152056e-04
1.92815625000000e+00 5.25432396274372e-02 9.54647236956765e-04
1.93796875000000e+00 5.14181139246209e-02 9.36579179561372e-04
1.94778125000000e+00 5.03170809092010e-02 9.18841307167078e-04
1.95759375000000e+00 4.92396246765239e-02 9.01427932993142e-04
1.96740625000000e+00 4.81852403691723e-02 8.84333457321401e-04
1.97721875000000e+00 4.71534339404071e-02 8.67552366535822e-04
1.98703125000000e+00 4.61437219226750e-02 8.51079232157866e-04
1.99684375000000e+00 4.51556312010724e-02 8.34908709878495e-04
2.00665625000000e+00 4.41886987916613e-02 8.19035538587664e-04
2.01646875000000e+00 4.32424716245312e-02 8.03454539401860e-04
2.02628125000000e+00 4.23165063315069e-02 7.88160614690541e-04
2.03609375000000e+00 4.14103690384019e-02 7.73148747102124e-04
2.04590625000000e+00 4.05236351617209e-02 7.58413998590005e-04
2.05571875000000e+00 3.96558892097146e-02 7.43951509439381e-04
2.06553125000000e+00 3.88067245876956e-02 7.29756497295332e-04
2.07534375000000e+00 3.79757434075224e-02 7.15824256192722e-04
2.08515625000000e+00 3.71625563011634e-02 7.02150155588418e-04
2.09496875000000e+00 3.63667822382530e-02 6.88729639396314e-04
2.10478125000000e+00 3.55880483475544e-02 6.75558225025607e-04
2.11459375000000e+00 3.48259897422454e-02 6.62631502422758e-04
2.12440625000000e+00 3.40802493489454e-02 6.49945133117476e-04
2.13421875000000e+00 3.33504777404040e-02 6.37494849273180e-04
2.14403125000000e+00 3.26363329717716e-02 6.25276452742306e-04
2.15384375000000e+00 3.19374804203762e-02 6.13285814126698e-04
2.16365625000000e+00 3.12535926289315e-02 6.01518871843450e-04
2.17346875000000e+00 3.05843491521018e-02 5.89971631196539e-04
2.18328125000000e+00 2.99294364063530e-02 5.78640163454455e-04
2.19309375000000e+00 2.92885475230187e-02 5.67520604934093e-04
2.20290625000000e+00 2.86613822045122e-02 5.56609156091169e-04
2.21271875000000e+00 2.80476465836180e-02 5.45902080617422e-04
2.22253125000000e+00 2.74470530857960e-02 5.35395704544726e-04
2.23234375000000e+00 2.68593202944349e-02 5.25086415356353e-04
2.24215625000000e+00 2.62841728189895e-02 5.14970661105580e-04
2.25196875000000e+00 2.57213411659433e-02 5.05044949541762e-04
2.26178125000000e+00 2.51705616125334e-02 4.95305847244062e-04
2.27159375000000e+00 2.46315760831791e-02 4.85749978762976e-04
2.28140625000000e+00 2.41041320285573e-02 4.76374025769764e-04
2.29121875000000e+00 2.35879823072667e-02 4.67174726213911e-04
2.30103125000000e+00 2.30828850700262e-02 4.58148873488718e-04
2.31084375000000e+00 2.25886036463532e-02 4.49293315605117e-04
2.32065625000000e+00 2.21049064336680e-02 4.40604954373845e-04
2.33046875000000e+00 2.16315667887733e-02 4.32080744595965e-04
2.34028125000000e+00 2.11683629216572e-02 4.23717693261872e-04
2.35009375000000e+00 2.07150777915705e-02 4.15512858758826e-04
2.35990625000000e+00 2.02714990053289e-02 4.07463350087044e-04
2.36971875000000e+00 1.98374187177937e-02 3.99566326084424e-04
2.37953125000000e+00 1.94126335344822e-02 3.91818994659897e-04
2.38934375000000e+00 1.89969444162651e-02 3.84218612035479e-04
2.39915625000000e+00 1.85901565861034e-02 3.76762481997028e-04
2.40896875000000e+00 1.81920794377830e-02 3.69447955153689e-04
2.41878125000000e+00 1.78025264466036e-02 3.62272428206103e-04
2.42859375000000e+00 1.74213150819796e-02 3.55233343223327e-04
2.43840625000000e+00 1.70482667219131e-02 3.48328186928489e-04
2.44821875000000e+00 1.66832065692978e-02 3.41554489993157e-04
2.45803125000000e+00 1.63259635700156e-02 3.34909826340428e-04
2.46784375000000e+00 1.59763703327863e-02 3.28391812456725e-04
2.47765625000000e+00 1.56342630507347e-02 3.21998106712236e-04
2.48746875000000e+00 1.52994814246359e-02 3.15726408690012e-04
2.49728125000000e+00 1.49718685878052e-02 3.09574458523698e-04
2.50709375000000e+00 1.46512710325960e-02 3.03540036243854e-04
2.51690625000000e+00 1.43375385384714e-02 2.97620961132797e-04
2.52671875000000e+00 1.40305241016164e-02 2.91815091087981e-04
2.53653125000000e+00 1.37300838660571e-02 2.86120321993853e-04
2.54634375000000e+00 1.34360770562551e-02 2.80534587102091e-04
2.55615625000000e+00 1.31483659111449e-02 2.75055856420256e-04
2.56596875000000e+00 1.28668156195839e-02 2.69682136108758e-04
2.57578125000000e+00 1.25912942571852e-02 2.64411467886081e-04
2.58559375000000e+00 1.23216727245021e-02 2.59241928442224e-04
2.59540625000000e+00 1.20578246865370e-02 2.54171628860327e-04
2.60521875000000e+00 1.17996265135452e-02 2.49198714046360e-04
2.61503125000000e+00 1.15469572231064e-02 2.44321362166856e-04
2.62484375000000e+00 1.12996984234366e-02 2.39537784094623e-04
2.63465625000000e+00 1.10577342579145e-02 2.34846222862361e-04
2.64446875000000e+00 1.08209513507944e-02 2.30244953124123e-04
2.65428125000000e+00 1.05892387540830e-02 2.25732280624532e-04
2.66409375000000e+00 1.03624878955528e-02 2.21306541675726e-04
2.67390625000000e+00 1.01405925278694e-02 2.16966102641924e-04
2.68371875000000e+00 9.92344867880726e-03 2.12709359431543e-04
2.69353125000000e+00 9.71095460253269e-03 2.08534736996826e-04
2.70334375000000e+00 9.50301073192889e-03 2.04440688840876e-04
2.71315625000000e+00 9.29951963194254e-03 2.00425696532037e-04
2.72296875000000e+00 9.10038595392927e-03 1.96488269225532e-04
2.73278125000000e+00 8.90551639097662e-03 1.92626943192309e-04
2.74259375000000e+00 8.71481963418379e-03 1.88840281354997e-04
2.75240625000000e+00 8.52820632987758e-03 1.85126872830899e-04
2.76221875000000e+00 8.34558903774441e-03 1.81485332481965e-04
2.77203125000000e+00 8.16688218985897e-03 1.77914300471639e-04
2.78184375000000e+00 7.99200205059010e-03 1.74412441828505e-04
2.79165625000000e+00 7.82086667736532e-03 1.70978446016697e-04
2.80146875000000e+00 7.65339588227547e-03 1.67611026512951e-04
2.81128125000000e+00 7.48951119450147e-03 1.64308920390213e-04
2.82109375000000e+00 7.32913582354577e-03 1.61070887907773e-04
2.83090625000000e+00 7.17219462325104e-03 1.57895712107823e-04
2.84071875000000e+00 7.01861405658938e-03 1.54782198418335e-04
2.85053125000000e+00 6.86832216120550e-03 1.51729174262226e-04
2.86034375000000e+00 6.72124851569773e-03 1.48735488672714e-04
2.87015625000000e+00 6.57732420662108e-03 1.45800011914766e-04
2.87996875000000e+00 6.43648179619687e-03 1.42921635112604e-04
2.88978125000000e+00 6.29865529071377e-03 1.40099269883152e-04
2.89959375000000e+00 6.16378010960557e-03 1.37331847975367e-04
2.90940625000000e+00 6.03179305519099e-03 1.34618320915394e-04
2.91921875000000e+00 5.90263228306150e-03 1.31957659657420e-04
2.92903125000000e+00 5.77623727310331e-03 1.29348854240200e-04
2.93884375000000e+00 5.65254880113972e-03 1.26790913449163e-04
2.94865625000000e+00 5.53150891118089e-03 1.24282864484014e-04
2.95846875000000e+00 5.41306088826764e-03 1.21823752631763e-04
2.96828125000000e+00 5.29714923189692e-03 1.19412640945119e-04
2.97809375000000e+00 5.18371963001625e-03 1.17048609926161e-04
2.98790625000000e+00 5.07271893357500e-03 1.14730757215216e-04
2.99771875000000e+00 4.96409513162070e-03 1.12458197284875e-04
3.00753125000000e+00 4.85779732692851e-03 1.10230061139076e-04
3.01734375000000e+00 4.75377571215268e-03 1.08045496017181e-04
3.02715625000000e+00 4.65198154648852e-03 1.05903665102972e-04
3.03696875000000e+00 4.55236713283428e-03 1.03803747238498e-04
3.04678125000000e+00 4.45488579544196e-03 1.01744936642715e-04
3.05659375000000e+00 4.35949185804671e-03 9.97264426348248e-05
3.06640625000000e+00 4.26614062246463e-03 9.77474893622808e-05
3.07621875000000e+00 4.17478834764872e-03 9.58073155333528e-05
3.08603125000000e+00 4.08539222919346e-03 9.39051741542103e-05
3.09584375000000e+00 3.99791037927816e-03 9.20403322704525e-05
