Energy (eV)          EEDF (eV^-(3/2))     First Anisotropy
4.60810810810811e-02 3.61905041835011e-02 2.22925566701962e-05
1.38243243243243e-01 3.58543145878388e-02 3.67639620431849e-05
2.30405405405405e-01 3.55212480066943e-02 4.84072265259020e-05
3.22567567567568e-01 3.51912754283420e-02 5.71767748374797e-05
4.14729729729730e-01 3.48643681103308e-02 6.44281183103995e-05
5.06891891891892e-01 3.45404975791721e-02 7.06755987879000e-05
5.99054054054054e-01 3.42196356247197e-02 7.61862965340869e-05
6.91216216216216e-01 3.39017542989135e-02 8.11220296087768e-05
7.83378378378378e-01 3.35868259133534e-02 8.55904702701998e-05
8.75540540540541e-01 3.32748230368593e-02 8.96679659423888e-05
9.67702702702703e-01 3.29657184927457e-02 9.34112145253503e-05
1.05986486486486e+00 3.26594853586153e-02 9.68638335564998e-05
1.15202702702703e+00 3.23560969572312e-02 1.00060324893299e-04
1.24418918918919e+00 3.20555268655319e-02 1.03028603047169e-04
1.33635135135135e+00 3.17577489028736e-02 1.05791679526682e-04
1.42851351351351e+00 3.14627371318082e-02 1.08368824190464e-04
1.52067567567568e+00 3.11704658558995e-02 1.10776392097718e-04
1.61283783783784e+00 3.08809096156170e-02 1.13028425798687e-04
1.70500000000000e+00 3.05940431917096e-02 1.15137105097005e-04
1.79716216216216e+00 3.03098415972161e-02 1.17113088852757e-04
1.88932432432432e+00 3.00282800773029e-02 1.18965778373222e-04
1.98148648648649e+00 2.97493341056874e-02 1.20703523972439e-04
2.07364864864865e+00 2.94729793868820e-02 1.22333789611108e-04
2.16581081081081e+00 2.91991918495576e-02 1.23863285309777e-04
2.25797297297297e+00 2.89279476459844e-02 1.25298074006004e-04
2.35013513513514e+00 2.86592231499840e-02 1.26643659921303e-04
2.44229729729730e+00 2.83929949537605e-02 1.27905061076879e-04
2.53445945945946e+00 2.81292398692213e-02 1.29086870405753e-04
2.62662162162162e+00 2.78679349225128e-02 1.30193307175113e-04
2.71878378378378e+00 2.76090573531933e-02 1.31228259883812e-04
2.81094594594595e+00 2.73525846122642e-02 1.32195323414164e-04
2.90310810810811e+00 2.70984943593214e-02 1.33097830315170e-04
2.99527027027027e+00 2.68467644632853e-02 1.33938878290080e-04
3.08743243243243e+00 2.65973729977363e-02 1.34721354035984e-04
3.17959459459459e+00 2.63502982399432e-02 1.35447953540386e-04
3.27175675675676e+00 2.61055186682197e-02 1.36121199857383e-04
3.36391891891892e+00 2.58630129623423e-02 1.36743459097439e-04
3.45608108108108e+00 2.56227599993533e-02 1.37316954548168e-04
3.54824324324324e+00 2.53847388525107e-02 1.37843778656893e-04
3.64040540540541e+00 2.51489287894778e-02 1.38325904162266e-04
3.73256756756757e+00 2.49153092698846e-02 1.38765193557042e-04
3.82472972972973e+00 2.46838599454475e-02 1.39163407982680e-04
3.91689189189189e+00 2.44545606562532e-02 1.39522215224049e-04
4.00905405405405e+00 2.42273914296627e-02 1.39843196525199e-04
4.10121621621622e+00 2.40023324780240e-02 1.40127852759432e-04
4.19337837837838e+00 2.37793641986251e-02 1.40377610325984e-04
4.28554054054054e+00 2.35584671702794e-02 1.40593826509783e-04
4.37770270270270e+00 2.33396221522102e-02 1.40777793926512e-04
4.46986486486487e+00 2.31228100823796e-02 1.40930744977805e-04
4.56202702702703e+00 2.29080120753555e-02 1.41053855534501e-04
4.65418918918919e+00 2.26952094221000e-02 1.41148248672385e-04
4.74635135135135e+00 2.24843835868832e-02 1.41214998108613e-04
4.83851351351351e+00 2.22755162061604e-02 1.41255130972323e-04
4.93067567567568e+00 2.20685890869767e-02 1.41269630723275e-04
5.02283783783784e+00 2.18635842049729e-02 1.41259439493190e-04
5.11500000000000e+00 2.16604837040537e-02 1.41225460581498e-04
5.20716216216216e+00 2.14592698935754e-02 1.41168560773607e-04
5.29932432432432e+00 2.12599252472306e-02 1.41089572203277e-04
5.39148648648649e+00 2.10624324011565e-02 1.40989294098140e-04
5.48364864864865e+00 2.08667741535356e-02 1.40868494647012e-04
5.57581081081081e+00 2.06729334619676e-02 1.40727912746117e-04
5.66797297297297e+00 2.04808934423650e-02 1.40568259298804e-04
5.76013513513514e+00 2.02906373674859e-02 1.40390218743361e-04
5.85229729729730e+00 2.01021486651541e-02 1.40194450182212e-04
5.94445945945946e+00 1.99154109177922e-02 1.39981588725047e-04
6.03662162162162e+00 1.97304078600014e-02 1.39752246754364e-04
6.12878378378378e+00 1.95471233774789e-02 1.39507014812507e-04
6.22094594594595e+00 1.93655415056161e-02 1.39246462723661e-04
6.31310810810811e+00 1.91856464278230e-02 1.38971140374118e-04
6.40527027027027e+00 1.90074224750128e-02 1.38681578710438e-04
6.49743243243243e+00 1.88308541233628e-02 1.38378290685785e-04
6.58959459459459e+00 1.86559259932586e-02 1.38061771928163e-04
6.68175675675676e+00 1.84826228476956e-02 1.37732501385070e-04
6.77391891891892e+00 1.83109295917374e-02 1.37390942127221e-04
6.86608108108108e+00 1.81408312704049e-02 1.37037542114317e-04
6.95824324324324e+00 1.79723130676417e-02 1.36672734660731e-04
7.05040540540541e+00 1.78053603050254e-02 1.36296939127071e-04
7.14256756756757e+00 1.76399584402575e-02 1.35910561338369e-04
7.23472972972973e+00 1.74760930665966e-02 1.35513994210130e-04
7.32689189189189e+00 1.73137499108950e-02 1.35107618347905e-04
7.41905405405405e+00 1.71529148325943e-02 1.34691802422628e-04
7.51121621621622e+00 1.69935738222829e-02 1.34266903539838e-04
7.60337837837838e+00 1.68357130011180e-02 1.33833267761084e-04
7.69554054054054e+00 1.66793186189660e-02 1.33391230604873e-04
7.78770270270270e+00 1.65243770534241e-02 1.32941117299221e-04
7.87986486486487e+00 1.63708748086345e-02 1.32483243240585e-04
7.97202702702703e+00 1.62187985139184e-02 1.32017914224775e-04
8.06418918918919e+00 1.60681349231882e-02 1.31545426868141e-04
8.15635135135135e+00 1.59188709132102e-02 1.31066069014150e-04
8.24851351351351e+00 1.57709934826576e-02 1.30580119913814e-04
8.34067567567568e+00 1.56244897509797e-02 1.30087850600605e-04
8.43283783783784e+00 1.54793469571072e-02 1.29589524057329e-04
8.52500000000000e+00 1.53355524588612e-02 1.29085395562143e-04
8.61716216216216e+00 1.51930937313255e-02 1.28575713023752e-04
8.70932432432432e+00 1.50519583659338e-02 1.28060717145661e-04
8.80148648648649e+00 1.49121340692301e-02 1.27540641593784e-04
8.89364864864865e+00 1.47736086622785e-02 1.27015713295628e-04
8.98581081081081e+00 1.46363700791163e-02 1.26486152730909e-04
9.07797297297297e+00 1.45004063658668e-02 1.25952174028196e-04
9.17013513513514e+00 1.43657056796982e-02 1.25413985235387e-04
9.26229729729730e+00 1.42322562876488e-02 1.24871788411189e-04
9.35445945945946e+00 1.41000465660399e-02 1.24325779877046e-04
9.44662162162162e+00 1.39690649990233e-02 1.23776150462663e-04
9.53878378378378e+00 1.38393001777265e-02 1.23223085572738e-04
9.63094594594595e+00 1.37107407992594e-02 1.22666765416612e-04
9.72310810810811e+00 1.35833756655992e-02 1.22107365072456e-04
9.81527027027027e+00 1.34571936830099e-02 1.21545054701937e-04
9.90743243243243e+00 1.33321838606769e-02 1.20979999759914e-04
9.99959459459459e+00 1.32083353098840e-02 1.20412361127330e-04
1.00917567567568e+01 1.30856372427002e-02 1.19842294838997e-04
1.01839189189189e+01 1.29640789728589e-02 1.19269953030830e-04
1.02760810810811e+01 1.28436499110871e-02 1.18695483666951e-04
1.03682432432432e+01 1.27243395676817e-02 1.18119029751524e-04
1.04604054054054e+01 1.26061375515199e-02 1.17540731152276e-04
1.05525675675676e+01 1.24890335657276e-02 1.16960723584569e-04
1.06447297297297e+01 1.23730174113137e-02 1.16379138959876e-04
1.07368918918919e+01 1.22580789818453e-02 1.15796105810180e-04
1.08290540540541e+01 1.21442082658695e-02 1.15211748286150e-04
1.09212162162162e+01 1.20313953459682e-02 1.14626187873318e-04
1.10133783783784e+01 1.19196303947741e-02 1.14039542686583e-04
1.11055405405405e+01 1.18089036772516e-02 1.13451926776390e-04
1.11977027027027e+01 1.16992055497824e-02 1.12863451775369e-04
1.12898648648649e+01 1.15905264563570e-02 1.12274225971190e-04
1.13820270270270e+01 1.14828569316711e-02 1.11684354605665e-04
1.14741891891892e+01 1.13761875964512e-02 1.11093940241344e-04
1.15663513513514e+01 1.12705091595039e-02 1.10503081848538e-04
1.16585135135135e+01 1.11658124168451e-02 1.09911876334117e-04
1.17506756756757e+01 1.10620882481852e-02 1.09320417895579e-04
1.18428378378378e+01 1.09593276188623e-02 1.08728797386129e-04
1.19350000000000e+01 1.08575215789978e-02 1.08137103783525e-04
1.20271621621622e+01 1.07566612601332e-02 1.07545423345487e-04
1.21193243243243e+01 1.06567378778793e-02 1.06953839869227e-04
1.22114864864865e+01 1.05577427277953e-02 1.06362435011070e-04
1.23036486486486e+01 1.04596671871296e-02 1.05771287455521e-04
1.23958108108108e+01 1.03625027140162e-02 1.05180474282239e-04
1.24879729729730e+01 1.02662408443622e-02 1.04590070375980e-04
1.25801351351351e+01 1.01708731934922e-02 1.04000147846808e-04
1.26722972972973e+01 1.00763914553676e-02 1.03410777344884e-04
1.27644594594595e+01 9.98278739960589e-03 1.02822027291776e-04
1.28566216216216e+01 9.89005287375466e-03 1.02233964107558e-04
1.29487837837838e+01 9.79817979964676e-03 1.01646652491517e-04
1.30409459459459e+01 9.70716017488220e-03 1.01060154666328e-04
1.31331081081081e+01 9.61698607208680e-03 1.00474531604047e-04
1.32252702702703e+01 9.52764963614658e-03 9.98898424877931e-05
1.33174324324324e+01 9.43914308561014e-03 9.93061441828970e-05
1.34095945945946e+01 9.35145871196701e-03 9.87234924171687e-05
1.35017567567568e+01 9.26458887699688e-03 9.81419410815153e-05
1.35939189189189e+01 9.17852601472823e-03 9.75615424299832e-05
1.36860810810811e+01 9.09326262820331e-03 9.69823473277429e-05
1.37782432432432e+01 9.00879129074362e-03 9.64044045636650e-05
1.38704054054054e+01 8.92510464526511e-03 9.58277619526698e-05
1.39625675675676e+01 8.84219540181353e-03 9.52524656786424e-05
1.40547297297297e+01 8.76005633934561e-03 9.46785604789495e-05
1.41468918918919e+01 8.67868030272737e-03 9.41060898736110e-05
1.42390540540541e+01 8.59806020387969e-03 9.35350955194897e-05
1.43312162162162e+01 8.51818902112440e-03 9.29656182408841e-05
1.44233783783784e+01 8.43905979689263e-03 9.23976975670908e-05
1.45155405405405e+01 8.36066563880823e-03 9.18313712782973e-05
1.46077027027027e+01 8.28299971905406e-03 9.12666763988614e-05
1.46998648648649e+01 8.20605527217034e-03 9.07036485992889e-05
1.47920270270270e+01 8.12982559659509e-03 9.01423223601519e-05
1.48841891891892e+01 8.05430405198803e-03 8.95827311760503e-05
1.49763513513514e+01 7.97948406021203e-03 8.90249069679456e-05
1.50685135135135e+01 7.90535910472876e-03 8.84688810129553e-05
1.51606756756757e+01 7.83192272854770e-03 8.79146835228121e-05
1.52528378378378e+01 7.75916853515545e-03 8.73623432299531e-05
1.53450000000000e+01 7.68709018792901e-03 8.68118882841525e-05
1.54371621621622e+01 7.61568140816448e-03 8.62633457081041e-05
1.55293243243243e+01 7.54493597641208e-03 8.57167415436070e-05
1.56214864864865e+01 7.47484773008476e-03 8.51721010337169e-05
1.57136486486486e+01 7.40541056430040e-03 8.46294480877996e-05
1.58058108108108e+01 7.33661843132293e-03 8.40888061217936e-05
1.58979729729730e+01 7.26846533872277e-03 8.35501976739045e-05
1.59901351351351e+01 7.20094535017508e-03 8.30136440272646e-05
1.60822972972973e+01 7.13405258491649e-03 8.24791660206446e-05
1.61744594594595e+01 7.06778121597624e-03 8.19467835526171e-05
1.62666216216216e+01 7.00212547133539e-03 8.14165157123518e-05
1.63587837837838e+01 6.93707963178527e-03 8.08883809427879e-05
1.64509459459459e+01 6.87263803165112e-03 8.03623965534454e-05
1.65431081081081e+01 6.80879505827510e-03 7.98385794808950e-05
1.66352702702703e+01 6.74554515036307e-03 7.93169459383133e-05
1.67274324324324e+01 6.68288279867110e-03 7.87975110714010e-05
1.68195945945946e+01 6.62080254550238e-03 7.82802896924114e-05
1.69117567567568e+01 6.55929898311687e-03 7.77652958283902e-05
1.70039189189189e+01 6.49836675473960e-03 7.72525428385187e-05
1.70960810810811e+01 6.43800055263908e-03 7.67420435606188e-05
1.71882432432432e+01 6.37819511874979e-03 7.62338098672760e-05
1.72804054054054e+01 6.31894524419371e-03 7.57278533549710e-05
1.73725675675676e+01 6.26024576779197e-03 7.52241849188532e-05
1.74647297297297e+01 6.20209157698730e-03 7.47228148620988e-05
1.75568918918919e+01 6.14447760604903e-03 7.42237530325979e-05
1.76490540540541e+01 6.08739883663885e-03 7.37270084051094e-05
1.77412162162162e+01 6.03085029735404e-03 7.32325897285972e-05
1.78333783783784e+01 5.97482706233461e-03 7.27405052247529e-05
1.79255405405405e+01 5.91932425179955e-03 7.22507622920270e-05
1.80177027027027e+01 5.86433703160351e-03 7.17633681308411e-05
1.81098648648649e+01 5.80986061189483e-03 7.12783293558059e-05
1.82020270270270e+01 5.75589024791992e-03 7.07956520942020e-05
1.82941891891892e+01 5.70242123840790e-03 7.03153421091297e-05
1.83863513513514e+01 5.64944892605802e-03 6.98374044184567e-05
1.84785135135135e+01 5.59696869711667e-03 6.93618438825288e-05
1.85706756756757e+01 5.54497598012015e-03 6.88886649289896e-05
1.86628378378378e+01 5.49346624635680e-03 6.84178712826266e-05
1.87550000000000e+01 5.44243500945616e-03 6.79494665331716e-05
1.88471621621622e+01 5.39187782417731e-03 6.74834537815035e-05
1.89393243243243e+01 5.34179028711096e-03 6.70198357284871e-05
1.90314864864865e+01 5.29216803522368e-03 6.65586147861257e-05
1.91236486486487e+01 5.24300674627790e-03 6.60997927298867e-05
1.92158108108108e+01 5.19430213844026e-03 6.56433712328007e-05
1.93079729729730e+01 5.14604996914508e-03 6.51893516141650e-05
1.94001351351351e+01 5.09824603549282e-03 6.47377345928606e-05
1.94922972972973e+01 5.05088617386936e-03 6.42885208035164e-05
1.95844594594595e+01 5.00396625885035e-03 6.38417104735388e-05
1.96766216216216e+01 4.95748220381474e-03 6.33973035033918e-05
1.97687837837838e+01 4.91142995963100e-03 6.29552995670735e-05
1.98609459459459e+01 4.86580551501910e-03 6.25156977947364e-05
1.99531081081081e+01 4.82060489618779e-03 6.20784972584785e-05
2.00452702702703e+01 4.77582416580587e-03 6.16436967427930e-05
2.01374324324324e+01 4.73145942334580e-03 6.12112945192176e-05
2.02295945945946e+01 4.68750680473087e-03 6.07812888159261e-05
2.03217567567568e+01 4.64396248134318e-03 6.03536775228003e-05
2.04139189189189e+01 4.60082266056031e-03 5.99284582640667e-05
2.05060810810811e+01 4.55808358456809e-03 5.95056284892254e-05
2.05982432432432e+01 4.51574153067261e-03 5.90851851831946e-05
2.06904054054054e+01 4.47379281096426e-03 5.86671253085435e-05
2.07825675675676e+01 4.43223377138544e-03 5.82514455273552e-05
2.08747297297297e+01 4.39106079222313e-03 5.78381422692686e-05
2.09668918918919e+01 4.35027028699500e-03 5.74272118167366e-05
2.10590540540541e+01 4.30985870273322e-03 5.70186500316565e-05
2.11512162162162e+01 4.26982251966374e-03 5.66124527719577e-05
2.12433783783784e+01 4.23015825033019e-03 5.62086156934686e-05
2.13355405405405e+01 4.19086243986293e-03 5.58071340554186e-05
2.14277027027027e+01 4.15193166566761e-03 5.54080031232872e-05
2.15198648648649e+01 4.11336253657944e-03 5.50112179146008e-05
2.16120270270270e+01 4.07515169329466e-03 5.46167732606331e-05
2.17041891891892e+01 4.03729580736190e-03 5.42246638837080e-05
2.17963513513514e+01 3.99979158142684e-03 5.38348841473361e-05
2.18885135135135e+01 3.96263574893500e-03 5.34474284358962e-05
2.19806756756757e+01 3.92582507333635e-03 5.30622909734347e-05
2.20728378378378e+01 3.88935634831727e-03 5.26794656457894e-05
2.21650000000000e+01 3.85322639751178e-03 5.22989463678252e-05
2.22571621621622e+01 3.81743207373359e-03 5.19207268509966e-05
2.23493243243243e+01 3.78197025935418e-03 5.15448006593409e-05
2.24414864864865e+01 3.74683786538867e-03 5.11711612796565e-05
2.25336486486487e+01 3.71203183170647e-03 5.07998018930298e-05
2.26258108108108e+01 3.67754912675588e-03 5.04307157210851e-05
2.27179729729730e+01 3.64338674684134e-03 5.00638958602097e-05
2.28101351351351e+01 3.60954171632319e-03 4.96993351188258e-05
2.29022972972973e+01 3.57601108735001e-03 4.93370263523534e-05
2.29944594594595e+01 3.54279193916053e-03 4.89769622506009e-05
2.30866216216216e+01 3.50988137841524e-03 4.86191353886356e-05
2.31787837837838e+01 3.47727653836689e-03 4.82635382905314e-05
2.32709459459459e+01 3.44497457904186e-03 4.79101632203602e-05
2.33631081081081e+01 3.41297268698501e-03 4.75590024981720e-05
2.34552702702703e+01 3.38126807460212e-03 4.72100483482639e-05
2.35474324324324e+01 3.34985798033199e-03 4.68632927502414e-05
2.36395945945946e+01 3.31873966839820e-03 4.65187277447393e-05
2.37317567567568e+01 3.28791042817406e-03 4.61763452388617e-05
2.38239189189189e+01 3.25736757447345e-03 4.58361370524304e-05
2.39160810810811e+01 3.22710844679756e-03 4.54980949759528e-05
2.40082432432432e+01 3.19713040949089e-03 4.51622105793492e-05
2.41004054054054e+01 3.16743085150471e-03 4.48284755004434e-05
2.41925675675676e+01 3.13800718579848e-03 4.44968812612003e-05
2.42847297297297e+01 3.10885684960726e-03 4.41674193111829e-05
2.43768918918919e+01 3.07997730373282e-03 4.38400810820684e-05
2.44690540540541e+01 3.05136603268515e-03 4.35148578069717e-05
2.45612162162162e+01 3.02302054445673e-03 4.31917407927434e-05
2.46533783783784e+01 2.99493836995840e-03 4.28707212886088e-05
2.47455405405405e+01 2.96711706315341e-03 4.25517903572232e-05
2.48377027027027e+01 2.93955420083805e-03 4.22349391382032e-05
2.49298648648649e+01 2.91224738209641e-03 4.19201586798524e-05
2.50220270270270e+01 2.88519422853502e-03 4.16074399787299e-05
2.51141891891892e+01 2.85839238363818e-03 4.12967740292754e-05
2.52063513513514e+01 2.83183951288948e-03 4.09881516583602e-05
2.52985135135135e+01 2.80553330356245e-03 4.06815637741054e-05
2.53906756756757e+01 2.77947146420642e-03 4.03770012455499e-05
2.54828378378378e+01 2.75365172476151e-03 4.00744547845191e-05
2.55750000000000e+01 2.72807183635521e-03 3.97739151864747e-05
2.56671621621622e+01 2.70272957080531e-03 3.94753731763791e-05
2.57593243243243e+01 2.67762272082587e-03 3.91788194447298e-05
2.58514864864865e+01 2.65274909944048e-03 3.88842446927717e-05
2.59436486486487e+01 2.62810654008638e-03 3.85916394809308e-05
2.60358108108108e+01 2.60369289642043e-03 3.83009944562963e-05
2.61279729729730e+01 2.57950604185008e-03 3.80123002423430e-05
2.62201351351351e+01 2.55554386963191e-03 3.77255473306745e-05
2.63122972972973e+01 2.53180429268296e-03 3.74407263012452e-05
2.64044594594595e+01 2.50828524312725e-03 3.71578276811216e-05
2.64966216216216e+01 2.48498467247661e-03 3.68768419773289e-05
2.65887837837838e+01 2.46190055109628e-03 3.65977597180554e-05
2.66809459459459e+01 2.43903086829397e-03 3.63205713137674e-05
2.67731081081081e+01 2.41637363213997e-03 3.60452672652676e-05
2.68652702702703e+01 2.39392686903903e-03 3.57718380626001e-05
2.69574324324324e+01 2.37168862381458e-03 3.55002740858152e-05
2.70495945945946e+01 2.34965695953381e-03 3.52305658064186e-05
2.71417567567568e+01 2.32782995709363e-03 3.49627036579024e-05
2.72339189189189e+01 2.30620571537945e-03 3.46966780656971e-05
2.73260810810811e+01 2.28478235077811e-03 3.44324794847580e-05
2.74182432432432e+01 2.26355799725391e-03 3.41700982722498e-05
2.75104054054054e+01 2.24253080618178e-03 3.39095248779169e-05
2.76025675675676e+01 2.22169894595629e-03 3.36507497216580e-05
2.76947297297297e+01 2.20106060213758e-03 3.33937632217279e-05
2.77868918918919e+01 2.18061397699196e-03 3.31385558301491e-05
2.78790540540541e+01 2.16035728956054e-03 3.28851179123132e-05
2.79712162162162e+01 2.14028877549994e-03 3.26334399269145e-05
2.80633783783784e+01 2.12040668671301e-03 3.23835123381966e-05
2.81555405405405e+01 2.10070929141353e-03 3.21353255298178e-05
2.82477027027027e+01 2.08119487397146e-03 3.18888699791026e-05
2.83398648648649e+01 2.06186173455566e-03 3.16441361447623e-05
2.84320270270270e+01 2.04270818926195e-03 3.14011144926360e-05
2.85241891891892e+01 2.02373256969405e-03 3.11597955280137e-05
2.86163513513514e+01 2.00493322302176e-03 3.09201696852144e-05
2.87085135135135e+01 1.98630851183335e-03 3.06822274923258e-05
2.88006756756757e+01 1.96785681379795e-03 3.04459594907008e-05
2.88928378378378e+01 1.94957652172037e-03 3.02113561559327e-05
2.89850000000000e+01 1.93146604339771e-03 2.99784080574139e-05
2.90771621621622e+01 1.91352380129255e-03 2.97471057553305e-05
