Energy (eV)          EEDF (eV^-(3/2))     First Anisotropy
8.91891891891892e-03 4.25104065468912e-01 2.60435593009934e-04
2.67567567567568e-02 4.21154571563009e-01 4.29499343576739e-04
4.45945945945946e-02 4.17241771020912e-01 5.65522470604159e-04
6.24324324324324e-02 4.13365322951816e-01 6.67972816915634e-04
8.02702702702703e-02 4.09524889608516e-01 7.52686370143318e-04
9.81081081081081e-02 4.05720136397346e-01 8.25672025609242e-04
1.15945945945946e-01 4.01950731825342e-01 8.90050004175255e-04
1.33783783783784e-01 3.98216347473954e-01 9.47710782113498e-04
1.51621621621622e-01 3.94516657983876e-01 9.99912266780717e-04
1.69459459459459e-01 3.90851341018253e-01 1.04754640555588e-03
1.87297297297297e-01 3.87220077255096e-01 1.09127559071760e-03
2.05135135135135e-01 3.83622550296274e-01 1.13160939606062e-03
2.22972972972973e-01 3.80058446705461e-01 1.16895090044806e-03
2.40810810810811e-01 3.76527455958044e-01 1.20362622778394e-03
2.58648648648649e-01 3.73029270414456e-01 1.23590421538593e-03
2.76486486486486e-01 3.69563585293316e-01 1.26600998954043e-03
2.94324324324324e-01 3.66130098656741e-01 1.29413462380153e-03
3.12162162162162e-01 3.62728511347443e-01 1.32044217924824e-03
3.30000000000000e-01 3.59358527000118e-01 1.34507495247955e-03
3.47837837837838e-01 3.56019852002793e-01 1.36815746809146e-03
3.65675675675676e-01 3.52712195471329e-01 1.38979955935387e-03
3.83513513513514e-01 3.49435269224129e-01 1.41009878371259e-03
4.01351351351351e-01 3.46188787765137e-01 1.42914234516147e-03
4.19189189189189e-01 3.42972468234033e-01 1.44700863576748e-03
4.37027027027027e-01 3.39786030406976e-01 1.46376848793366e-03
4.54864864864865e-01 3.36629196663549e-01 1.47948620606916e-03
4.72702702702703e-01 3.33501691962581e-01 1.49422041742073e-03
4.90540540540541e-01 3.30403243818251e-01 1.50802478217374e-03
5.08378378378378e-01 3.27333582282346e-01 1.52094859332087e-03
5.26216216216216e-01 3.24292439902322e-01 1.53303728113703e-03
5.44054054054054e-01 3.21279551716711e-01 1.54433284276872e-03
5.61891891891892e-01 3.18294655225694e-01 1.55487421397754e-03
5.79729729729730e-01 3.15337490368218e-01 1.56469758677543e-03
5.97567567567568e-01 3.12407799499394e-01 1.57383668462049e-03
6.15405405405405e-01 3.09505327372722e-01 1.58232300439462e-03
6.33243243243243e-01 3.06629821103547e-01 1.59018602504116e-03
6.51081081081081e-01 3.03781030161530e-01 1.59745339060023e-03
6.68918918918919e-01 3.00958706343917e-01 1.60415107465057e-03
6.86756756756757e-01 2.98162603753889e-01 1.61030352344155e-03
7.04594594594595e-01 2.95392478779195e-01 1.61593378359206e-03
7.22432432432432e-01 2.92648090070895e-01 1.62106361535026e-03
7.40270270270270e-01 2.89929198526007e-01 1.62571359592602e-03
7.58108108108108e-01 2.87235567255526e-01 1.62990320960378e-03
7.75945945945946e-01 2.84566961575071e-01 1.63365092865298e-03
7.93783783783784e-01 2.81923148980617e-01 1.63697428893471e-03
8.11621621621622e-01 2.79303899128262e-01 1.63988995619134e-03
8.29459459459460e-01 2.76708983814151e-01 1.64241378616506e-03
8.47297297297297e-01 2.74138176957613e-01 1.64456088106347e-03
8.65135135135135e-01 2.71591254572287e-01 1.64634563871417e-03
8.82972972972973e-01 2.69067994755894e-01 1.64778179732462e-03
9.00810810810811e-01 2.66568177667760e-01 1.64888247876179e-03
9.18648648648649e-01 2.64091585509677e-01 1.64966022636998e-03
9.36486486486487e-01 2.61638002506929e-01 1.65012703972456e-03
9.54324324324324e-01 2.59207214892018e-01 1.65029440824707e-03
9.72162162162162e-01 2.56799010878360e-01 1.65017334015285e-03
9.90000000000000e-01 2.54413180649599e-01 1.64977438909072e-03
1.00783783783784e+00 2.52049516338702e-01 1.64910768205076e-03
1.02567567567568e+00 2.49707812002983e-01 1.64818293583265e-03
1.04351351351351e+00 2.47387863644616e-01 1.64700949125479e-03
1.06135135135135e+00 2.45089469114132e-01 1.64559632813103e-03
1.07918918918919e+00 2.42812428162661e-01 1.64395207420012e-03
1.09702702702703e+00 2.40556542401670e-01 1.64208503491744e-03
1.11486486486486e+00 2.38321615285860e-01 1.64000320232535e-03
1.13270270270270e+00 2.36107452115373e-01 1.63771428096829e-03
1.15054054054054e+00 2.33913859960036e-01 1.63522569506181e-03
1.16837837837838e+00 2.31740647701884e-01 1.63254459464343e-03
1.18621621621622e+00 2.29587625998515e-01 1.62967787895080e-03
1.20405405405405e+00 2.27454607266701e-01 1.62663220129773e-03
1.22189189189189e+00 2.25341405683161e-01 1.62341398987890e-03
1.23972972972973e+00 2.23247837116325e-01 1.62002945160055e-03
1.25756756756757e+00 2.21173719162792e-01 1.61648457518431e-03
1.27540540540541e+00 2.19118871113820e-01 1.61278514734331e-03
1.29324324324324e+00 2.17083113955182e-01 1.60893676720689e-03
1.31108108108108e+00 2.15066270304336e-01 1.60494484840080e-03
1.32891891891892e+00 2.13068164442615e-01 1.60081462057922e-03
1.34675675675676e+00 2.11088622283825e-01 1.59655114603983e-03
1.36459459459459e+00 2.09127471359204e-01 1.59215932071173e-03
1.38243243243243e+00 2.07184540816265e-01 1.58764388913391e-03
1.40027027027027e+00 2.05259661361732e-01 1.58300944500963e-03
1.41810810810811e+00 2.03352665289334e-01 1.57826043135569e-03
1.43594594594595e+00 2.01463386450885e-01 1.57340115209243e-03
1.45378378378378e+00 1.99591660254576e-01 1.56843578233424e-03
1.47162162162162e+00 1.97737323612089e-01 1.56336836815974e-03
1.48945945945946e+00 1.95900214963248e-01 1.55820282603762e-03
1.50729729729730e+00 1.94080174248839e-01 1.55294295546082e-03
1.52513513513514e+00 1.92277042896719e-01 1.54759243815266e-03
1.54297297297297e+00 1.90490663819450e-01 1.54215484953062e-03
1.56081081081081e+00 1.88720881365928e-01 1.53663365775900e-03
1.57864864864865e+00 1.86967541342794e-01 1.53103222254253e-03
1.59648648648649e+00 1.85230490989214e-01 1.52535380620821e-03
1.61432432432432e+00 1.83509578963632e-01 1.51960157238058e-03
1.63216216216216e+00 1.81804655340895e-01 1.51377859607044e-03
1.65000000000000e+00 1.80115571567890e-01 1.50788786226767e-03
1.66783783783784e+00 1.78442180482157e-01 1.50193226432091e-03
1.68567567567568e+00 1.76784336288469e-01 1.49591461166198e-03
1.70351351351351e+00 1.75141894555669e-01 1.48983763662011e-03
1.72135135135135e+00 1.73514712175256e-01 1.48370399279373e-03
1.73918918918919e+00 1.71902647377978e-01 1.47751625323822e-03
1.75702702702703e+00 1.70305559711683e-01 1.47127691943971e-03
1.77486486486487e+00 1.68723310029132e-01 1.46498841947986e-03
1.79270270270270e+00 1.67155760484500e-01 1.45865311623707e-03
1.81054054054054e+00 1.65602774495210e-01 1.45227330555541e-03
1.82837837837838e+00 1.64064216756401e-01 1.44585121426391e-03
1.84621621621622e+00 1.62539953220270e-01 1.43938900826008e-03
1.86405405405405e+00 1.61029851084421e-01 1.43288879054351e-03
1.88189189189189e+00 1.59533778788144e-01 1.42635260861070e-03
1.89972972972973e+00 1.58051605977155e-01 1.41978245251474e-03
1.91756756756757e+00 1.56583203516222e-01 1.41318025279110e-03
1.93540540540541e+00 1.55128443469869e-01 1.40654788605617e-03
1.95324324324324e+00 1.53687199098513e-01 1.39988717992275e-03
1.97108108108108e+00 1.52259344825383e-01 1.39319991102668e-03
1.98891891891892e+00 1.50844756247792e-01 1.38648780293953e-03
2.00675675675676e+00 1.49443310118818e-01 1.37975253294971e-03
2.02459459459459e+00 1.48054884336597e-01 1.37299573001528e-03
2.04243243243243e+00 1.46679357940327e-01 1.36621898098710e-03
2.06027027027027e+00 1.45316611079599e-01 1.35942382861317e-03
2.07810810810811e+00 1.43966525024240e-01 1.35261176944451e-03
2.09594594594595e+00 1.42628982147152e-01 1.34578425850984e-03
2.11378378378378e+00 1.41303865920262e-01 1.33894271341064e-03
2.13162162162162e+00 1.39991060885661e-01 1.33208851234926e-03
2.14945945945946e+00 1.38690452664393e-01 1.32522299206151e-03
2.16729729729730e+00 1.37401927940144e-01 1.31834745359623e-03
2.18513513513514e+00 1.36125374449389e-01 1.31146316030245e-03
2.20297297297297e+00 1.34860680977275e-01 1.30457134313686e-03
2.22081081081081e+00 1.33607737330788e-01 1.29767319871713e-03
2.23864864864865e+00 1.32366434346429e-01 1.29076988729579e-03
2.25648648648649e+00 1.31136663874884e-01 1.28386253807785e-03
2.27432432432432e+00 1.29918318771633e-01 1.27695224725433e-03
2.29216216216216e+00 1.28711292892794e-01 1.27004008289099e-03
2.31000000000000e+00 1.27515481070155e-01 1.26312708302645e-03
2.32783783783784e+00 1.26330779117854e-01 1.25621425369722e-03
2.34567567567568e+00 1.25157083817982e-01 1.24930257257928e-03
2.36351351351351e+00 1.23994292916451e-01 1.24239299216961e-03
2.38135135135135e+00 1.22842305099404e-01 1.23548643793831e-03
2.39918918918919e+00 1.21701019999179e-01 1.22858380641232e-03
2.41702702702703e+00 1.20570338180582e-01 1.22168596977876e-03
2.43486486486487e+00 1.19450161132248e-01 1.21479377402920e-03
2.45270270270270e+00 1.18340391262509e-01 1.20790804319543e-03
2.47054054054054e+00 1.17240931877393e-01 1.20102957756058e-03
2.48837837837838e+00 1.16151687185807e-01 1.19415915181023e-03
2.50621621621622e+00 1.15072562286611e-01 1.18729751929958e-03
2.52405405405405e+00 1.14003463160366e-01 1.18044541026728e-03
2.54189189189189e+00 1.12944296665249e-01 1.17360353576208e-03
2.55972972972973e+00 1.11894970516498e-01 1.16677258592085e-03
2.57756756756757e+00 1.10855393290902e-01 1.15995322818921e-03
2.59540540540541e+00 1.09825474414634e-01 1.15314611022667e-03
2.61324324324324e+00 1.08805124159210e-01 1.14635186244047e-03
2.63108108108108e+00 1.07794253622026e-01 1.13957109632411e-03
2.64891891891892e+00 1.06792774730347e-01 1.13280440274456e-03
2.66675675675676e+00 1.05800600229680e-01 1.12605235567390e-03
2.68459459459460e+00 1.04817643676193e-01 1.11931551053433e-03
2.70243243243243e+00 1.03843819432726e-01 1.11259440763703e-03
2.72027027027027e+00 1.02879042650587e-01 1.10588957058837e-03
2.73810810810811e+00 1.01923229272981e-01 1.09920150464943e-03
2.75594594594595e+00 1.00976296024056e-01 1.09253069926800e-03
2.77378378378378e+00 1.00038160404983e-01 1.08587763028530e-03
2.79162162162162e+00 9.91087406766903e-02 1.07924275840474e-03
2.80945945945946e+00 9.81879558628917e-02 1.07262652761450e-03
2.82729729729730e+00 9.72757257396194e-02 1.06602936846931e-03
2.84513513513514e+00 9.63719708282413e-02 1.05945169656722e-03
2.86297297297297e+00 9.54766123916174e-02 1.05289391557391e-03
2.88081081081081e+00 9.45895724179191e-02 1.04635641575797e-03
2.89864864864865e+00 9.37107736232223e-02 1.03983957248625e-03
2.91648648648649e+00 9.28401394416161e-02 1.03334374928667e-03
2.93432432432432e+00 9.19775940185417e-02 1.02686929639624e-03
2.95216216216216e+00 9.11230622070333e-02 1.02041655358513e-03
2.97000000000000e+00 9.02764695525401e-02 1.01398584875920e-03
2.98783783783784e+00 8.94377422951336e-02 1.00757749652444e-03
3.00567567567568e+00 8.86068073601626e-02 1.00119180025628e-03
3.02351351351351e+00 8.77835923545719e-02 9.94829053901295e-04
3.04135135135135e+00 8.69680255524840e-02 9.88489540637050e-04
3.05918918918919e+00 8.61600358971198e-02 9.82173531495717e-04
3.07702702702703e+00 8.53595529918589e-02 9.75881288073054e-04
3.09486486486487e+00 8.45665070941152e-02 9.69613061200054e-04
3.11270270270270e+00 8.37808291117449e-02 9.63369093441957e-04
3.13054054054054e+00 8.30024505895056e-02 9.57149617820753e-04
3.14837837837838e+00 8.22313037106688e-02 9.50954856504918e-04
3.16621621621622e+00 8.14673212885649e-02 9.44785023345603e-04
3.18405405405405e+00 8.07104367607356e-02 9.38640322613784e-04
3.20189189189189e+00 7.99605841854403e-02 9.32520951339157e-04
3.21972972972973e+00 7.92176982289301e-02 9.26427098094973e-04
3.23756756756757e+00 7.84817141667869e-02 9.20358941750779e-04
3.25540540540541e+00 7.77525678759251e-02 9.14316653179609e-04
3.27324324324324e+00 7.70301958311799e-02 9.08300396743405e-04
3.29108108108108e+00 7.63145350931997e-02 9.02310329128237e-04
3.30891891891892e+00 7.56055233095833e-02 8.96346598150754e-04
3.32675675675676e+00 7.49030987072194e-02 8.90409345010528e-04
3.34459459459459e+00 7.42072000869130e-02 8.84498703138381e-04
3.36243243243243e+00 7.35177668200702e-02 8.78614800276057e-04
3.38027027027027e+00 7.28347388373077e-02 8.72757757368005e-04
3.39810810810811e+00 7.21580566293720e-02 8.66927687426330e-04
3.41594594594595e+00 7.14876612398880e-02 8.61124697043715e-04
3.43378378378378e+00 7.08234942621302e-02 8.55348887709356e-04
3.45162162162162e+00 7.01654978281762e-02 8.49600354748700e-04
3.46945945945946e+00 6.95136146096630e-02 8.43879186236229e-04
3.48729729729730e+00 6.88677878108431e-02 8.38185465001951e-04
3.50513513513514e+00 6.82279611636397e-02 8.32519267582486e-04
3.52297297297297e+00 6.75940789245162e-02 8.26880666072988e-04
3.54081081081081e+00 6.69660858642618e-02 8.21269727118693e-04
3.55864864864865e+00 6.63439272685760e-02 8.15686510882693e-04
3.57648648648649e+00 6.57275489314876e-02 8.10131072930012e-04
3.59432432432432e+00 6.51168971506362e-02 8.04603463232077e-04
3.61216216216216e+00 6.45119187242420e-02 7.99103727906172e-04
3.63000000000000e+00 6.39125609414818e-02 7.93631908257536e-04
3.64783783783784e+00 6.33187715829207e-02 7.88188039798628e-04
3.66567567567568e+00 6.27304989142760e-02 7.82772153510814e-04
3.68351351351351e+00 6.21476916834695e-02 7.77384276941310e-04
3.70135135135135e+00 6.15702991114524e-02 7.72024433286470e-04
3.71918918918919e+00 6.09982708925241e-02 7.66692640453236e-04
3.73702702702703e+00 6.04315571883544e-02 7.61388912741722e-04
3.75486486486487e+00 5.98701086236451e-02 7.56113259939616e-04
3.77270270270270e+00 5.93138762832793e-02 7.50865688876332e-04
3.79054054054054e+00 5.87628117036706e-02 7.45646202551846e-04
3.80837837837838e+00 5.82168668729604e-02 7.40454799245587e-04
3.82621621621622e+00 5.76759942253507e-02 7.35291474099112e-04
3.84405405405405e+00 5.71401466369621e-02 7.30156218257047e-04
3.86189189189189e+00 5.66092774230815e-02 7.25049020328542e-04
3.87972972972973e+00 5.60833403300003e-02 7.19969865560393e-04
3.89756756756757e+00 5.55622895351078e-02 7.14918734990685e-04
3.91540540540541e+00 5.50460796415153e-02 7.09895606506112e-04
3.93324324324324e+00 5.45346656753818e-02 7.04900455760847e-04
3.95108108108108e+00 5.40280030781261e-02 6.99933255384942e-04
3.96891891891892e+00 5.35260477064412e-02 6.94993974174779e-04
3.98675675675676e+00 5.30287558271384e-02 6.90082578509741e-04
4.00459459459459e+00 5.25360841133405e-02 6.85199031571121e-04
4.02243243243243e+00 5.20479896419003e-02 6.80343294651183e-04
4.04027027027027e+00 5.15644298860493e-02 6.75515326401365e-04
4.05810810810811e+00 5.10853627153296e-02 6.70715082063673e-04
4.07594594594595e+00 5.06107463907022e-02 6.65942514415422e-04
4.09378378378378e+00 5.01405395620425e-02 6.61197574590320e-04
4.11162162162162e+00 4.96747012611206e-02 6.56480211359293e-04
4.12945945945946e+00 4.92131909014725e-02 6.51790370394674e-04
4.14729729729730e+00 4.87559682737074e-02 6.47127995540575e-04
4.16513513513514e+00 4.83029935420069e-02 6.42493028102707e-04
4.18297297297297e+00 4.78542272417097e-02 6.37885408022012e-04
4.20081081081081e+00 4.74096302726813e-02 6.33305073191508e-04
4.21864864864865e+00 4.69691638991221e-02 6.28751958758194e-04
4.23648648648649e+00 4.65327897451120e-02 6.24225998319904e-04
4.25432432432433e+00 4.61004697912696e-02 6.19727123251651e-04
4.27216216216216e+00 4.56721663724253e-02 6.15255263811551e-04
4.29000000000000e+00 4.52478421713568e-02 6.10810348492488e-04
4.30783783783784e+00 4.48274602185417e-02 6.06392303359266e-04
4.32567567567568e+00 4.44109838879285e-02 6.02001052845036e-04
4.34351351351351e+00 4.39983768946813e-02 5.97636520443196e-04
4.36135135135135e+00 4.35896032891923e-02 5.93298628086855e-04
4.37918918918919e+00 4.31846274567956e-02 5.88987295514460e-04
4.39702702702703e+00 4.27834141137075e-02 5.84702441344611e-04
4.41486486486487e+00 4.23859283039544e-02 5.80443982463811e-04
4.43270270270270e+00 4.19921353972013e-02 5.76211835019841e-04
4.45054054054054e+00 4.16020010830914e-02 5.72005913832427e-04
4.46837837837838e+00 4.12154913709188e-02 5.67826131791238e-04
4.48621621621622e+00 4.08325725857724e-02 5.63672400869498e-04
4.50405405405405e+00 4.04532113656040e-02 5.59544631543332e-04
4.52189189189189e+00 4.00773746591389e-02 5.55442733728394e-04
4.53972972972973e+00 3.97050297205232e-02 5.51366616220667e-04
4.55756756756757e+00 3.93361441089611e-02 5.47316186124857e-04
4.57540540540541e+00 3.89706856850533e-02 5.43291349527615e-04
4.59324324324324e+00 3.86086226087724e-02 5.39292012082347e-04
4.61108108108108e+00 3.82499233343445e-02 5.35318078473688e-04
4.62891891891892e+00 3.78945566098620e-02 5.31369451870518e-04
4.64675675675676e+00 3.75424914737666e-02 5.27446034837604e-04
4.66459459459460e+00 3.71936972521540e-02 5.23547728807559e-04
4.68243243243243e+00 3.68481435568268e-02 5.19674434923621e-04
4.70027027027027e+00 3.65058002804522e-02 5.15826053531231e-04
4.71810810810811e+00 3.61666375961488e-02 5.12002483658762e-04
4.73594594594595e+00 3.58306259541462e-02 5.08203623622130e-04
4.75378378378378e+00 3.54977360798999e-02 5.04429371549888e-04
4.77162162162162e+00 3.51679389694591e-02 5.00679624896649e-04
4.78945945945946e+00 3.48412058890356e-02 4.96954279945774e-04
4.80729729729730e+00 3.45175083717962e-02 4.93253232630193e-04
4.82513513513514e+00 3.41968182153833e-02 4.89576378052255e-04
4.84297297297297e+00 3.38791074801037e-02 4.85923611242394e-04
4.86081081081081e+00 3.35643484845428e-02 4.82294826697024e-04
4.87864864864865e+00 3.32525138051179e-02 4.78689917906620e-04
4.89648648648649e+00 3.29435762730285e-02 4.75108778130536e-04
4.91432432432432e+00 3.26375089718904e-02 4.71551299941592e-04
4.93216216216216e+00 3.23342852359957e-02 4.68017375942403e-04
4.95000000000000e+00 3.20338786461603e-02 4.64506898326631e-04
4.96783783783784e+00 3.17362630292637e-02 4.61019758430951e-04
4.98567567567568e+00 3.14414124553507e-02 4.57555847248065e-04
5.00351351351351e+00 3.11493012359469e-02 4.54115055872188e-04
5.02135135135135e+00 3.08599039200852e-02 4.50697275078978e-04
5.03918918918919e+00 3.05731952938355e-02 4.47302394896415e-04
5.05702702702703e+00 3.02891503775209e-02 4.43930305303217e-04
5.07486486486487e+00 3.00077444235426e-02 4.40580895814580e-04
5.09270270270270e+00 2.97289529147619e-02 4.37254056127911e-04
5.11054054054054e+00 2.94527515607362e-02 4.33949675723807e-04
5.12837837837838e+00 2.91791162972421e-02 4.30667643458817e-04
5.14621621621622e+00 2.89080232836281e-02 4.27407848225195e-04
5.16405405405405e+00 2.86394489007381e-02 4.24170178557813e-04
5.18189189189189e+00 2.83733697493592e-02 4.20954523244207e-04
5.19972972972973e+00 2.81097626466552e-02 4.17760770945771e-04
5.21756756756757e+00 2.78486046256846e-02 4.14588809810978e-04
5.23540540540541e+00 2.75898729328841e-02 4.11438527911583e-04
5.25324324324324e+00 2.73335450265658e-02 4.08309813621181e-04
5.27108108108108e+00 2.70795985735031e-02 4.05202555252355e-04
5.28891891891892e+00 2.68280114484454e-02 4.02116640686394e-04
5.30675675675676e+00 2.65787617316993e-02 3.99051957968477e-04
5.32459459459460e+00 2.63318277072204e-02 3.96008394949989e-04
5.34243243243243e+00 2.60871878611710e-02 3.92985839839123e-04
5.36027027027027e+00 2.58448208786844e-02 3.89984180856191e-04
5.37810810810811e+00 2.56047056433784e-02 3.87003305881915e-04
5.39594594594595e+00 2.53668212350560e-02 3.84043102850473e-04
5.41378378378378e+00 2.51311469283106e-02 3.81103460090579e-04
5.43162162162162e+00 2.48976621894268e-02 3.78184265995511e-04
5.44945945945946e+00 2.46663466758942e-02 3.75285408686096e-04
5.46729729729730e+00 2.44371802341969e-02 3.72406776548205e-04
5.48513513513514e+00 2.42101428980587e-02 3.69548257907272e-04
5.50297297297297e+00 2.39852148871052e-02 3.66709741525216e-04
5.52081081081081e+00 2.37623766039257e-02 3.63891116286983e-04
5.53864864864865e+00 2.35416086335889e-02 3.61092270880621e-04
5.55648648648649e+00 2.33228917415405e-02 3.58313094305387e-04
5.57432432432432e+00 2.31062068719281e-02 3.55553475562807e-04
5.59216216216216e+00 2.28915351463185e-02 3.52813304126639e-04
5.61000000000000e+00 2.26788578609112e-02 3.50092469645106e-04
5.62783783783784e+00 2.24681564860583e-02 3.47390861637011e-04
