Energy (eV)          EEDF (eV^-(3/2))     First Anisotropy
7.89473684210526e-03 4.91148564327757e-01 2.96872226193860e-04
2.36842105263158e-02 4.86701097680343e-01 4.89646991415768e-04
3.94736842105263e-02 4.82293903897152e-01 6.44872174108178e-04
5.52631578947368e-02 4.77926618299384e-01 7.61878550352142e-04
7.10526315789474e-02 4.73598879515486e-01 8.58705402114322e-04
8.68421052631579e-02 4.69310329430718e-01 9.42195227319583e-04
1.02631578947368e-01 4.65060613182473e-01 1.01589991037882e-03
1.18421052631579e-01 4.60849379112902e-01 1.08197075538632e-03
1.34210526315789e-01 4.56676278788657e-01 1.14183876344193e-03
1.50000000000000e-01 4.52540966866890e-01 1.19651829672715e-03
1.65789473684211e-01 4.48443101166035e-01 1.24676241352973e-03
1.81578947368421e-01 4.44382342602882e-01 1.29315025632246e-03
1.97368421052632e-01 4.40358355186611e-01 1.33613980026204e-03
2.13157894736842e-01 4.36370805923726e-01 1.37610147304234e-03
2.28947368421053e-01 4.32419364858698e-01 1.41334053939749e-03
2.44736842105263e-01 4.28503705040778e-01 1.44811256286519e-03
2.60526315789474e-01 4.24623502445531e-01 1.48063438820132e-03
2.76315789473684e-01 4.20778435999716e-01 1.51109215009141e-03
2.92105263157895e-01 4.16968187551160e-01 1.53964725482040e-03
3.07894736842105e-01 4.13192441801257e-01 1.56644091388262e-03
3.23684210526316e-01 4.09450886320070e-01 1.59159764525910e-03
3.39473684210526e-01 4.05743211518139e-01 1.61522802897029e-03
3.55263157894737e-01 4.02069110586797e-01 1.63743088630293e-03
3.71052631578947e-01 3.98428279506861e-01 1.65829503090880e-03
3.86842105263158e-01 3.94820417021632e-01 1.67790070119011e-03
4.02631578947368e-01 3.91245224583280e-01 1.69632072650170e-03
4.18421052631579e-01 3.87702406356951e-01 1.71362149194626e-03
4.34210526315789e-01 3.84191669194783e-01 1.72986375226324e-03
4.50000000000000e-01 3.80712722587044e-01 1.74510330780571e-03
4.65789473684211e-01 3.77265278662884e-01 1.75939157729301e-03
4.81578947368421e-01 3.73849052158180e-01 1.77277608952634e-03
4.97368421052632e-01 3.70463760398871e-01 1.78530090464317e-03
5.13157894736842e-01 3.67109123256582e-01 1.79700697386948e-03
5.28947368421053e-01 3.63784863146591e-01 1.80793244999047e-03
5.44736842105263e-01 3.60490705003913e-01 1.81811296506984e-03
5.60526315789474e-01 3.57226376241994e-01 1.82758186613079e-03
5.76315789473684e-01 3.53991606748794e-01 1.83637042184296e-03
5.92105263157895e-01 3.50786128863685e-01 1.84450801170627e-03
6.07894736842105e-01 3.47609677338782e-01 1.85202228680442e-03
6.23684210526316e-01 3.44461989333568e-01 1.85893931233822e-03
6.39473684210526e-01 3.41342804392534e-01 1.86528370115197e-03
6.55263157894737e-01 3.38251864408805e-01 1.87107872686148e-03
6.71052631578947e-01 3.35188913617652e-01 1.87634642509669e-03
6.86842105263158e-01 3.32153698574788e-01 1.88110769064958e-03
7.02631578947368e-01 3.29145968122038e-01 1.88538235921157e-03
7.18421052631579e-01 3.26165473379977e-01 1.88918928111556e-03
7.34210526315790e-01 3.23211967726853e-01 1.89254639390118e-03
7.50000000000000e-01 3.20285206766071e-01 1.89547078271757e-03
7.65789473684211e-01 3.17384948318159e-01 1.89797873578829e-03
7.81578947368421e-01 3.14510952396636e-01 1.90008579752782e-03
7.97368421052632e-01 3.11662981191737e-01 1.90180681699368e-03
8.13157894736842e-01 3.08840799039900e-01 1.90315599007761e-03
8.28947368421053e-01 3.06044172415179e-01 1.90414689755284e-03
8.44736842105263e-01 3.03272869909548e-01 1.90479254512949e-03
8.60526315789474e-01 3.00526662203829e-01 1.90510539546240e-03
8.76315789473684e-01 2.97805322058692e-01 1.90509739760049e-03
8.92105263157895e-01 2.95108624295542e-01 1.90478001899809e-03
9.07894736842105e-01 2.92436345768759e-01 1.90416427052323e-03
9.23684210526316e-01 2.89788265356397e-01 1.90326072956196e-03
9.39473684210526e-01 2.87164163941613e-01 1.90207956600912e-03
9.55263157894737e-01 2.84563824386125e-01 1.90063056205014e-03
9.71052631578947e-01 2.81987031520692e-01 1.89892313050727e-03
9.86842105263158e-01 2.79433572127058e-01 1.89696633624545e-03
1.00263157894737e+00 2.76903234912538e-01 1.89476891380376e-03
1.01842105263158e+00 2.74395810490500e-01 1.89233927528731e-03
1.03421052631579e+00 2.71911091399906e-01 1.88968553426059e-03
1.05000000000000e+00 2.69448872037996e-01 1.88681552727658e-03
1.06578947368421e+00 2.67008948641438e-01 1.88373680489607e-03
1.08157894736842e+00 2.64591119337814e-01 1.88045665671895e-03
1.09736842105263e+00 2.62195184059336e-01 1.87698213576121e-03
1.11315789473684e+00 2.59820944529118e-01 1.87332004397519e-03
1.12894736842105e+00 2.57468204308185e-01 1.86947695932683e-03
1.14473684210526e+00 2.55136768694653e-01 1.86545924187773e-03
1.16052631578947e+00 2.52826444790633e-01 1.86127303849590e-03
1.17631578947368e+00 2.50537041424154e-01 1.85692430760774e-03
1.19210526315789e+00 2.48268369135694e-01 1.85241880379335e-03
1.20789473684211e+00 2.46020240219420e-01 1.84776209742431e-03
1.22368421052632e+00 2.43792468649793e-01 1.84295959321415e-03
1.23947368421053e+00 2.41584870068431e-01 1.83801651474480e-03
1.25526315789474e+00 2.39397261821836e-01 1.83293792235837e-03
1.27105263157895e+00 2.37229462892430e-01 1.82772873008569e-03
1.28684210526316e+00 2.35081293885524e-01 1.82239369025388e-03
1.30263157894737e+00 2.32952577064030e-01 1.81693741315463e-03
1.31842105263158e+00 2.30843136267740e-01 1.81136436935129e-03
1.33421052631579e+00 2.28752796963633e-01 1.80567889103442e-03
1.35000000000000e+00 2.26681386182846e-01 1.79988519040125e-03
1.36578947368421e+00 2.24628732508093e-01 1.79398734442463e-03
1.38157894736842e+00 2.22594666104276e-01 1.78798930926635e-03
1.39736842105263e+00 2.20579018658953e-01 1.78189493396911e-03
1.41315789473684e+00 2.18581623370010e-01 1.77570794554416e-03
1.42894736842105e+00 2.16602314973841e-01 1.76943196527089e-03
1.44473684210526e+00 2.14640929675718e-01 1.76307050964234e-03
1.46052631578947e+00 2.12697305191271e-01 1.75662699053504e-03
1.47631578947368e+00 2.10771280691875e-01 1.75010473059929e-03
1.49210526315789e+00 2.08862696792703e-01 1.74350694880277e-03
1.50789473684211e+00 2.06971395577710e-01 1.73683677239230e-03
1.52368421052632e+00 2.05097220547845e-01 1.73009724829299e-03
1.53947368421053e+00 2.03240016609424e-01 1.72329132906295e-03
1.55526315789474e+00 2.01399630097152e-01 1.71642188409151e-03
1.57105263157895e+00 1.99575908725036e-01 1.70949171027970e-03
1.58684210526316e+00 1.97768701574960e-01 1.70250351841665e-03
1.60263157894737e+00 1.95977859117980e-01 1.69545994617897e-03
1.61842105263158e+00 1.94203233156951e-01 1.68836355811749e-03
1.63421052631579e+00 1.92444676858565e-01 1.68121684502963e-03
1.65000000000000e+00 1.90702044708022e-01 1.67402223635246e-03
1.66578947368421e+00 1.88975192498053e-01 1.66678208712690e-03
1.68157894736842e+00 1.87263977347842e-01 1.65949868755125e-03
1.69736842105263e+00 1.85568257659925e-01 1.65217427211468e-03
1.71315789473684e+00 1.83887893109463e-01 1.64481100699284e-03
1.72894736842105e+00 1.82222744661750e-01 1.63741100130667e-03
1.74473684210526e+00 1.80572674521900e-01 1.62997630673954e-03
1.76052631578947e+00 1.78937546161667e-01 1.62250891662332e-03
1.77631578947368e+00 1.77317224279542e-01 1.61501077672456e-03
1.79210526315789e+00 1.75711574790416e-01 1.60748377324207e-03
1.80789473684211e+00 1.74120464841188e-01 1.59992974107021e-03
1.82368421052632e+00 1.72543762772723e-01 1.59235047171505e-03
1.83947368421053e+00 1.70981338109796e-01 1.58474770170850e-03
1.85526315789474e+00 1.69433061575525e-01 1.57712312044240e-03
1.87105263157895e+00 1.67898805055119e-01 1.56947837767747e-03
1.88684210526316e+00 1.66378441586025e-01 1.56181507236361e-03
1.90263157894737e+00 1.64871845371327e-01 1.55413476200205e-03
1.91842105263158e+00 1.63378891737502e-01 1.54643896201393e-03
1.93421052631579e+00 1.61899457155474e-01 1.53872914466564e-03
1.95000000000000e+00 1.60433419206900e-01 1.53100674808220e-03
1.96578947368421e+00 1.58980656574732e-01 1.52327316563784e-03
1.98157894736842e+00 1.57541049055154e-01 1.51552975282441e-03
1.99736842105263e+00 1.56114477525388e-01 1.50777783384551e-03
2.01315789473684e+00 1.54700823934481e-01 1.50001869138579e-03
2.02894736842105e+00 1.53299971314373e-01 1.49225357489230e-03
2.04473684210526e+00 1.51911803742458e-01 1.48448369985456e-03
2.06052631578947e+00 1.50536206359358e-01 1.47671024669183e-03
2.07631578947368e+00 1.49173065338933e-01 1.46893436874676e-03
2.09210526315789e+00 1.47822267879434e-01 1.46115718258999e-03
2.10789473684211e+00 1.46483702213393e-01 1.45337977408546e-03
2.12368421052632e+00 1.45157257578919e-01 1.44560320422142e-03
2.13947368421053e+00 1.43842824211094e-01 1.43782849976405e-03
2.15526315789474e+00 1.42540293351127e-01 1.43005665904589e-03
2.17105263157895e+00 1.41249557218900e-01 1.42228865753305e-03
2.18684210526316e+00 1.39970509004553e-01 1.41452543881506e-03
2.20263157894737e+00 1.38703042876992e-01 1.40676792164073e-03
2.21842105263158e+00 1.37447053952031e-01 1.39901699916384e-03
2.23421052631579e+00 1.36202438306494e-01 1.39127353785273e-03
2.25000000000000e+00 1.34969092952556e-01 1.38353838430101e-03
2.26578947368421e+00 1.33746915829692e-01 1.37581235669661e-03
2.28157894736842e+00 1.32535805812262e-01 1.36809624997171e-03
2.29736842105263e+00 1.31335662684924e-01 1.36039084076162e-03
2.31315789473684e+00 1.30146387134785e-01 1.35269687918081e-03
2.32894736842105e+00 1.28967880758436e-01 1.34501509511868e-03
2.34473684210526e+00 1.27800046033488e-01 1.33734619748606e-03
2.36052631578947e+00 1.26642786330547e-01 1.32969087316065e-03
2.37631578947368e+00 1.25496005890212e-01 1.32204979309118e-03
2.39210526315789e+00 1.24359609815551e-01 1.31442360451320e-03
2.40789473684211e+00 1.23233504078375e-01 1.30681293554992e-03
2.42368421052632e+00 1.22117595497171e-01 1.29921839964732e-03
2.43947368421053e+00 1.21011791729774e-01 1.29164058806956e-03
2.45526315789474e+00 1.19916001279179e-01 1.28408007430721e-03
2.47105263157895e+00 1.18830133472369e-01 1.27653741832775e-03
2.48684210526316e+00 1.17754098453161e-01 1.26901315933965e-03
2.50263157894737e+00 1.16687807187600e-01 1.26150782120900e-03
2.51842105263158e+00 1.15631171439511e-01 1.25402191173938e-03
2.53421052631579e+00 1.14584103780050e-01 1.24655592169117e-03
2.55000000000000e+00 1.13546517567849e-01 1.23911033004295e-03
2.56578947368421e+00 1.12518326942173e-01 1.23168559714285e-03
2.58157894736842e+00 1.11499446827725e-01 1.22428216866511e-03
2.59736842105263e+00 1.10489792915562e-01 1.21690047942863e-03
2.61315789473684e+00 1.09489281656439e-01 1.20954094679247e-03
2.62894736842105e+00 1.08497830265245e-01 1.20220397553689e-03
2.64473684210526e+00 1.07515356699027e-01 1.19488995717302e-03
2.66052631578947e+00 1.06541779665132e-01 1.18759926901700e-03
2.67631578947368e+00 1.05577018603303e-01 1.18033227893608e-03
2.69210526315789e+00 1.04620993679293e-01 1.17308933909775e-03
2.70789473684211e+00 1.03673625788818e-01 1.16587078953014e-03
2.72368421052632e+00 1.02734836540339e-01 1.15867696156129e-03
2.73947368421053e+00 1.01804548248849e-01 1.15150817178966e-03
2.75526315789474e+00 1.00882683939523e-01 1.14436472550410e-03
2.77105263157895e+00 9.99691673311619e-02 1.13724691998825e-03
2.78684210526316e+00 9.90639228301358e-02 1.13015503870388e-03
2.80263157894737e+00 9.81668755337546e-02 1.12308935552472e-03
2.81842105263158e+00 9.72779512112498e-02 1.11605013409830e-03
2.83421052631579e+00 9.63970763102894e-02 1.10903762700258e-03
2.85000000000000e+00 9.55241779414124e-02 1.10205207986809e-03
2.86578947368421e+00 9.46591838722336e-02 1.09509372587135e-03
2.88157894736842e+00 9.38020225304289e-02 1.08816278882217e-03
2.89736842105263e+00 9.29526229887569e-02 1.08125948614857e-03
2.91315789473684e+00 9.21109149594129e-02 1.07438402358352e-03
2.92894736842105e+00 9.12768287967805e-02 1.06753659899809e-03
2.94473684210526e+00 9.04502954802566e-02 1.06071740180008e-03
2.96052631578947e+00 8.96312466198078e-02 1.05392661214625e-03
2.97631578947368e+00 8.88196144418760e-02 1.04716440467728e-03
2.99210526315790e+00 8.80153317839726e-02 1.04043094348695e-03
3.00789473684211e+00 8.72183320971102e-02 1.03372638491409e-03
3.02368421052632e+00 8.64285494322249e-02 1.02705088024372e-03
3.03947368421053e+00 8.56459184349187e-02 1.02040457085169e-03
3.05526315789474e+00 8.48703743476887e-02 1.01378759089122e-03
3.07105263157895e+00 8.41018529968536e-02 1.00720006989260e-03
3.08684210526316e+00 8.33402907874263e-02 1.00064212807652e-03
3.10263157894737e+00 8.25856247051636e-02 9.94113879697873e-04
3.11842105263158e+00 8.18377923016159e-02 9.87615432498170e-04
3.13421052631579e+00 8.10967316985746e-02 9.81146886994724e-04
3.15000000000000e+00 8.03623815757516e-02 9.74708339741727e-04
3.16578947368421e+00 7.96346811658771e-02 9.68299878891542e-04
3.18157894736842e+00 7.89135702564950e-02 9.61921586629492e-04
3.19736842105263e+00 7.81989891780884e-02 9.55573541531361e-04
3.21315789473684e+00 7.74908787993062e-02 9.49255814277858e-04
3.22894736842105e+00 7.67891805286032e-02 9.42968470692367e-04
3.24473684210526e+00 7.60938363006896e-02 9.36711571228819e-04
3.26052631578947e+00 7.54047885803221e-02 9.30485170311510e-04
3.27631578947368e+00 7.47219803511072e-02 9.24289319299229e-04
3.29210526315789e+00 7.40453551109331e-02 9.18124062425492e-04
3.30789473684211e+00 7.33748568734001e-02 9.11989439008278e-04
3.32368421052632e+00 7.27104301570216e-02 9.05885485590713e-04
3.33947368421053e+00 7.20520199807801e-02 8.99812232020547e-04
3.35526315789474e+00 7.13995718654245e-02 8.93769703579157e-04
3.37105263157895e+00 7.07530318230576e-02 8.87757923044422e-04
3.38684210526316e+00 7.01123463528047e-02 8.81776906904394e-04
3.40263157894737e+00 6.94774624419916e-02 8.75826668018406e-04
3.41842105263158e+00 6.88483275542944e-02 8.69907215154173e-04
3.43421052631579e+00 6.82248896327655e-02 8.64018552394645e-04
3.45000000000000e+00 6.76070970900043e-02 8.58160681736630e-04
3.46578947368421e+00 6.69948988040161e-02 8.52333599502805e-04
3.48157894736842e+00 6.63882441192240e-02 8.46537298276920e-04
3.49736842105263e+00 6.57870828369847e-02 8.40771768779881e-04
3.51315789473684e+00 6.51913652115561e-02 8.35036996403779e-04
3.52894736842105e+00 6.46010419510076e-02 8.29332963635438e-04
3.54473684210526e+00 6.40160642064465e-02 8.23659649625592e-04
3.56052631578947e+00 6.34363835745901e-02 8.18017029639363e-04
3.57631578947368e+00 6.28619520888090e-02 8.12405077423955e-04
3.59210526315789e+00 6.22927222152685e-02 8.06823761923433e-04
3.60789473684211e+00 6.17286468537027e-02 8.01273049039752e-04
3.62368421052632e+00 6.11696793287652e-02 7.95752903340624e-04
3.63947368421053e+00 6.06157733862765e-02 7.90263284885401e-04
3.65526315789474e+00 6.00668831939094e-02 7.84804150923448e-04
3.67105263157895e+00 5.95229633328409e-02 7.79375457541487e-04
3.68684210526316e+00 5.89839687940954e-02 7.73977156596421e-04
3.70263157894737e+00 5.84498549791524e-02 7.68609197845470e-04
3.71842105263158e+00 5.79205776904877e-02 7.63271528558180e-04
3.73421052631579e+00 5.73960931336161e-02 7.57964093023798e-04
3.75000000000000e+00 5.68763579091991e-02 7.52686834633512e-04
3.76578947368421e+00 5.63613290095497e-02 7.47439692972292e-04
3.78157894736842e+00 5.58509638191316e-02 7.42222605366298e-04
3.79736842105263e+00 5.53452201069371e-02 7.37035508384484e-04
3.81315789473684e+00 5.48440560230837e-02 7.31878335028030e-04
3.82894736842105e+00 5.43474300992471e-02 7.26751016674000e-04
3.84473684210526e+00 5.38553012400411e-02 7.21653482715327e-04
3.86052631578947e+00 5.33676287247448e-02 7.16585660104966e-04
3.87631578947368e+00 5.28843722000939e-02 7.11547475256601e-04
3.89210526315789e+00 5.24054916770259e-02 7.06538851379400e-04
3.90789473684211e+00 5.19309475310245e-02 7.01559709888948e-04
3.92368421052632e+00 5.14607004951534e-02 6.96609971776933e-04
3.93947368421053e+00 5.09947116568902e-02 6.91689555034696e-04
3.95526315789474e+00 5.05329424584131e-02 6.86798376015174e-04
3.97105263157895e+00 5.00753546898709e-02 6.81936350754948e-04
3.98684210526316e+00 4.96219104862987e-02 6.77103392483565e-04
4.00263157894737e+00 4.91725723278539e-02 6.72299413336212e-04
4.01842105263158e+00 4.87273030322250e-02 6.67524324030183e-04
4.03421052631579e+00 4.82860657559894e-02 6.62778033456742e-04
4.05000000000000e+00 4.78488239882437e-02 6.58060450356619e-04
4.06578947368421e+00 4.74155415476553e-02 6.53371480957460e-04
4.08157894736842e+00 4.69861825826300e-02 6.48711030216850e-04
4.09736842105263e+00 4.65607115651551e-02 6.44079003029538e-04
4.11315789473684e+00 4.61390932879290e-02 6.39475301942893e-04
4.12894736842105e+00 4.57212928644860e-02 6.34899828722319e-04
4.14473684210526e+00 4.53072757222634e-02 6.30352484051363e-04
4.16052631578947e+00 4.48970076037399e-02 6.25833167154271e-04
4.17631578947368e+00 4.44904545606067e-02 6.21341777327832e-04
4.19210526315790e+00 4.40875829510228e-02 6.16878211774168e-04
4.20789473684211e+00 4.36883594396835e-02 6.12442366735966e-04
4.22368421052632e+00 4.32927509921841e-02 6.08034138599371e-04
4.23947368421053e+00 4.29007248723488e-02 6.03653421798045e-04
4.25526315789474e+00 4.25122486422635e-02 5.99300109909681e-04
4.27105263157895e+00 4.21272901568254e-02 5.94974096721308e-04
4.28684210526316e+00 4.17458175611424e-02 5.90675274202115e-04
4.30263157894737e+00 4.13677992905329e-02 5.86403533885792e-04
4.31842105263158e+00 4.09932040644042e-02 5.82158766601172e-04
4.33421052631579e+00 4.06220008871336e-02 5.77940862134384e-04
4.35000000000000e+00 4.02541590429058e-02 5.73749710582215e-04
4.36578947368421e+00 3.98896480932258e-02 5.69585200428318e-04
4.38157894736842e+00 3.95284378768780e-02 5.65447219545500e-04
4.39736842105263e+00 3.91704985049308e-02 5.61335656169849e-04
4.41315789473684e+00 3.88158003583174e-02 5.57250397039825e-04
4.42894736842105e+00 3.84643140877660e-02 5.53191328661413e-04
4.44473684210526e+00 3.81160106082001e-02 5.49158337058605e-04
4.46052631578947e+00 3.77708610994667e-02 5.45151307461110e-04
4.47631578947368e+00 3.74288370016045e-02 5.41170125543186e-04
4.49210526315790e+00 3.70899100125292e-02 5.37214675657416e-04
4.50789473684211e+00 3.67540520879315e-02 5.33284841751398e-04
4.52368421052632e+00 3.64212354366970e-02 5.29380508258948e-04
4.53947368421053e+00 3.60914325186553e-02 5.25501558391326e-04
4.55526315789474e+00 3.57646160444542e-02 5.21647875023076e-04
4.57105263157895e+00 3.54407589711297e-02 5.17819341553348e-04
4.58684210526316e+00 3.51198344999130e-02 5.14015840252582e-04
4.60263157894737e+00 3.48018160760860e-02 5.10237253381537e-04
4.61842105263158e+00 3.44866773840241e-02 5.06483462967464e-04
4.63421052631579e+00 3.41743923477473e-02 5.02754350524648e-04
4.65000000000000e+00 3.38649351267191e-02 4.99049798150604e-04
4.66578947368421e+00 3.35582801137510e-02 4.95369686956414e-04
4.68157894736842e+00 3.32544019348333e-02 4.91713897877550e-04
4.69736842105263e+00 3.29532754450686e-02 4.88082312462417e-04
4.71315789473684e+00 3.26548757266328e-02 4.84474811353388e-04
4.72894736842105e+00 3.23591780885892e-02 4.80891275312197e-04
4.74473684210526e+00 3.20661580623467e-02 4.77331585012648e-04
4.76052631578947e+00 3.17757914021054e-02 4.73795620782176e-04
4.77631578947368e+00 3.14880540810013e-02 4.70283263606559e-04
4.79210526315789e+00 3.12029222891555e-02 4.66794393687729e-04
4.80789473684211e+00 3.09203724334702e-02 4.63328891186097e-04
4.82368421052632e+00 3.06403811338954e-02 4.59886636942756e-04
4.83947368421053e+00 3.03629252215315e-02 4.56467511083745e-04
4.85526315789474e+00 3.00879817384115e-02 4.53071393737779e-04
4.87105263157895e+00 2.98155279338875e-02 4.49698165734504e-04
4.88684210526316e+00 2.95455412627830e-02 4.46347707253602e-04
4.90263157894737e+00 2.92779993851644e-02 4.43019898733119e-04
4.91842105263158e+00 2.90128801623127e-02 4.39714620683529e-04
4.93421052631579e+00 2.87501616570468e-02 4.36431753456431e-04
4.95000000000000e+00 2.84898221302944e-02 4.33171178134788e-04
4.96578947368421e+00 2.82318400393269e-02 4.29932775249968e-04
4.98157894736842e+00 2.79761940375168e-02 4.26716425439376e-04
