Energy (eV)          EEDF (eV^-(3/2))     First Anisotropy
4.33333333333333e-02 9.26911461418130e-02 7.54894973314976e-05
1.30000000000000e-01 9.11771183919981e-02 1.24053598920891e-04
2.16666666666667e-01 8.96878209471060e-02 1.62180292287127e-04
3.03333333333333e-01 8.82228498544030e-02 1.90199053578683e-04
3.90000000000000e-01 8.67818077648595e-02 2.12796736476837e-04
4.76666666666667e-01 8.53643038237313e-02 2.31771393132418e-04
5.63333333333333e-01 8.39699535526506e-02 2.48066441296836e-04
6.50000000000000e-01 8.25983787570343e-02 2.62259229150033e-04
7.36666666666667e-01 8.12492074219238e-02 2.74737665711187e-04
8.23333333333333e-01 7.99220736046350e-02 2.85779405518899e-04
9.10000000000000e-01 7.86166173418889e-02 2.95592525608975e-04
9.96666666666667e-01 7.73324845515254e-02 3.04338503610724e-04
1.08333333333333e+00 7.60693269321492e-02 3.12146144668858e-04
1.17000000000000e+00 7.48268018694893e-02 3.19120495019650e-04
1.25666666666667e+00 7.36045723598620e-02 3.25348805459283e-04
1.34333333333333e+00 7.24023068832456e-02 3.30904661806391e-04
1.43000000000000e+00 7.12196793450505e-02 3.35850932856927e-04
1.51666666666667e+00 7.00563689853291e-02 3.40241935130129e-04
1.60333333333333e+00 6.89120602671646e-02 3.44125048926706e-04
1.69000000000000e+00 6.77864428157240e-02 3.47541951136612e-04
1.77666666666667e+00 6.66792113324350e-02 3.50529576476928e-04
1.86333333333333e+00 6.55900654924041e-02 3.53120870363058e-04
1.95000000000000e+00 6.45187098827843e-02 3.55345389481177e-04
2.03666666666667e+00 6.34648539214363e-02 3.57229790936205e-04
2.12333333333333e+00 6.24282117618271e-02 3.58798227822086e-04
2.21000000000000e+00 6.14085022318445e-02 3.60072675121656e-04
2.29666666666667e+00 6.04054487566021e-02 3.61073204462596e-04
2.38333333333333e+00 5.94187792697594e-02 3.61818211128536e-04
2.47000000000000e+00 5.84482261534534e-02 3.62324605712371e-04
2.55666666666667e+00 5.74935261649726e-02 3.62607980497764e-04
2.64333333333333e+00 5.65544203537312e-02 3.62682748839795e-04
2.73000000000000e+00 5.56306540027193e-02 3.62562265109687e-04
2.81666666666667e+00 5.47219765588164e-02 3.62258931603592e-04
2.90333333333333e+00 5.38281415548276e-02 3.61784288808275e-04
2.99000000000000e+00 5.29489065526967e-02 3.61149094283660e-04
3.07666666666667e+00 5.20840330772547e-02 3.60363394736533e-04
3.16333333333333e+00 5.12332865428469e-02 3.59436587055359e-04
3.25000000000000e+00 5.03964361984498e-02 3.58377472325339e-04
3.33666666666667e+00 4.95732550646705e-02 3.57194306384868e-04
3.42333333333333e+00 4.87635198645752e-02 3.55894842588468e-04
3.51000000000000e+00 4.79670109707861e-02 3.54486370051516e-04
3.59666666666667e+00 4.71835123455613e-02 3.52975750314846e-04
3.68333333333333e+00 4.64128114754956e-02 3.51369448209403e-04
3.77000000000000e+00 4.56546993206283e-02 3.49673559706061e-04
3.85666666666667e+00 4.49089702574450e-02 3.47893839269195e-04
3.94333333333333e+00 4.41754220171682e-02 3.46035722700652e-04
4.03000000000000e+00 4.34538556368748e-02 3.44104347909212e-04
4.11666666666667e+00 4.27440754052729e-02 3.42104575819423e-04
4.20333333333333e+00 4.20458888043320e-02 3.40041007646133e-04
4.29000000000000e+00 4.13591064623911e-02 3.37918000703101e-04
4.37666666666667e+00 4.06835421025695e-02 3.35739684724705e-04
4.46333333333333e+00 4.00190124875173e-02 3.33509975172492e-04
4.55000000000000e+00 3.93653373744766e-02 3.31232585481707e-04
4.63666666666667e+00 3.87223394661963e-02 3.28911040036978e-04
4.72333333333333e+00 3.80898443586042e-02 3.26548684587761e-04
4.81000000000000e+00 3.74676804977753e-02 3.24148695881577e-04
4.89666666666667e+00 3.68556791332270e-02 3.21714092145507e-04
4.98333333333333e+00 3.62536742683325e-02 3.19247741353174e-04
5.07000000000000e+00 3.56615026191433e-02 3.16752368904058e-04
5.15666666666667e+00 3.50790035699484e-02 3.14230566209595e-04
5.24333333333333e+00 3.45060191262641e-02 3.11684797335319e-04
5.33000000000000e+00 3.39423938754539e-02 3.09117405194537e-04
5.41666666666667e+00 3.33879749444402e-02 3.06530618668950e-04
5.50333333333333e+00 3.28426119551198e-02 3.03926558002746e-04
5.59000000000000e+00 3.23061569867221e-02 3.01307239849561e-04
5.67666666666667e+00 3.17784645355663e-02 2.98674583242321e-04
5.76333333333333e+00 3.12593914727654e-02 2.96030414015223e-04
5.85000000000000e+00 3.07487970082595e-02 2.93376468953623e-04
5.93666666666667e+00 3.02465426525198e-02 2.90714400847526e-04
6.02333333333333e+00 2.97524921764118e-02 2.88045782146844e-04
6.11000000000000e+00 2.92665115768410e-02 2.85372108400967e-04
6.19666666666667e+00 2.87884690403097e-02 2.82694802573240e-04
6.28333333333333e+00 2.83182349048191e-02 2.80015218084655e-04
6.37000000000000e+00 2.78556816270662e-02 2.77334641684814e-04
6.45666666666667e+00 2.74006837477621e-02 2.74654297163578e-04
6.54333333333333e+00 2.69531178554620e-02 2.71975347901955e-04
6.63000000000000e+00 2.65128625552518e-02 2.69298899283376e-04
6.71666666666667e+00 2.60797984357425e-02 2.66626001908407e-04
6.80333333333333e+00 2.56538080347236e-02 2.63957653744873e-04
6.89000000000000e+00 2.52347758092790e-02 2.61294802164197e-04
6.97666666666667e+00 2.48225881043760e-02 2.58638346742584e-04
7.06333333333333e+00 2.44171331202447e-02 2.55989141082462e-04
7.15000000000000e+00 2.40183008838641e-02 2.53347994540506e-04
7.23666666666667e+00 2.36259832190676e-02 2.50715674681735e-04
7.32333333333333e+00 2.32400737155585e-02 2.48092908829336e-04
7.41000000000000e+00 2.28604677017063e-02 2.45480385537292e-04
7.49666666666667e+00 2.24870622160979e-02 2.42878756750818e-04
7.58333333333333e+00 2.21197559781002e-02 2.40288639130207e-04
7.67000000000000e+00 2.17584493619135e-02 2.37710615310442e-04
7.75666666666667e+00 2.14030443694958e-02 2.35145235811420e-04
7.84333333333333e+00 2.10534446025938e-02 2.32593020172564e-04
7.93000000000000e+00 2.07095552379978e-02 2.30054458033732e-04
8.01666666666667e+00 2.03712830017731e-02 2.27530010830803e-04
8.10333333333333e+00 2.00385361426831e-02 2.25020112770922e-04
8.19000000000000e+00 1.97112244085928e-02 2.22525171762634e-04
8.27666666666667e+00 1.93892590219450e-02 2.20045570926254e-04
8.36333333333333e+00 1.90725526545025e-02 2.17581669434222e-04
8.45000000000000e+00 1.87610194048507e-02 2.15133803313366e-04
8.53666666666667e+00 1.84545747750575e-02 2.12702286794579e-04
8.62333333333333e+00 1.81531356466673e-02 2.10287413038413e-04
8.71000000000000e+00 1.78566202592542e-02 2.07889454828424e-04
8.79666666666667e+00 1.75649481882071e-02 2.05508665780705e-04
8.88333333333333e+00 1.72780403219133e-02 2.03145280971466e-04
8.97000000000000e+00 1.69958188413133e-02 2.00799517537172e-04
9.05666666666667e+00 1.67182071987590e-02 1.98471575761307e-04
9.14333333333333e+00 1.64451300963242e-02 1.96161639617910e-04
9.23000000000000e+00 1.61765134663173e-02 1.93869877291661e-04
9.31666666666667e+00 1.59122844511600e-02 1.91596442156633e-04
9.40333333333333e+00 1.56523713827681e-02 1.89341473247468e-04
9.49000000000000e+00 1.53967037639784e-02 1.87105095710504e-04
9.57666666666667e+00 1.51452122493987e-02 1.84887421687129e-04
9.66333333333333e+00 1.48978286258046e-02 1.82688550722468e-04
9.75000000000000e+00 1.46544857944396e-02 1.80508570156893e-04
9.83666666666667e+00 1.44151177527886e-02 1.78347555924816e-04
9.92333333333333e+00 1.41796595759405e-02 1.76205572909277e-04
1.00100000000000e+01 1.39480473997208e-02 1.74082675157905e-04
1.00966666666667e+01 1.37202184040113e-02 1.71978907103977e-04
1.01833333333333e+01 1.34961107923520e-02 1.69894303373129e-04
1.02700000000000e+01 1.32756637792583e-02 1.67828888465787e-04
1.03566666666667e+01 1.30588175742109e-02 1.65782679133548e-04
1.04433333333333e+01 1.28455133591121e-02 1.63755683668927e-04
1.05300000000000e+01 1.26356932787193e-02 1.61747901085339e-04
1.06166666666667e+01 1.24293004247419e-02 1.59759323833993e-04
1.07033333333333e+01 1.22262788145340e-02 1.57789936990090e-04
1.07900000000000e+01 1.20265733818388e-02 1.55839717463240e-04
1.08766666666667e+01 1.18301299616578e-02 1.53908636533552e-04
1.09633333333333e+01 1.16368952701057e-02 1.51996659069103e-04
1.10500000000000e+01 1.14468168954646e-02 1.50103742766898e-04
1.11366666666667e+01 1.12598432837886e-02 1.48229840521774e-04
1.12233333333333e+01 1.10759237198514e-02 1.46374899675022e-04
1.13100000000000e+01 1.08950083185090e-02 1.44538861285741e-04
1.13966666666667e+01 1.07170480110024e-02 1.42721662344914e-04
1.14833333333333e+01 1.05419945269352e-02 1.40923235054875e-04
1.15700000000000e+01 1.03698003859405e-02 1.39143506130633e-04
1.16566666666667e+01 1.02004188846481e-02 1.37382398870451e-04
1.17433333333333e+01 1.00338040796319e-02 1.35639832465587e-04
1.18300000000000e+01 9.86991077937668e-03 1.33915721331091e-04
1.19166666666667e+01 9.70869453187764e-03 1.32209977043185e-04
1.20033333333333e+01 9.55011160850133e-03 1.30522507678612e-04
1.20900000000000e+01 9.39411899624724e-03 1.28853217174223e-04
1.21766666666667e+01 9.24067438594865e-03 1.27202007140632e-04
1.22633333333333e+01 9.08973615699512e-03 1.25568776230407e-04
1.23500000000000e+01 8.94126336988285e-03 1.23953419525674e-04
1.24366666666667e+01 8.79521575498740e-03 1.22355830236727e-04
1.25233333333333e+01 8.65155369809894e-03 1.20775899098218e-04
1.26100000000000e+01 8.51023823325479e-03 1.19213513783944e-04
1.26966666666667e+01 8.37123103205629e-03 1.17668560498379e-04
1.27833333333333e+01 8.23449438997087e-03 1.16140923399988e-04
1.28700000000000e+01 8.09999121943994e-03 1.14630484042303e-04
1.29566666666667e+01 7.96768503971335e-03 1.13137122865745e-04
1.30433333333333e+01 7.83753996387532e-03 1.11660718647109e-04
1.31300000000000e+01 7.70952069222049e-03 1.10201147966029e-04
1.32166666666667e+01 7.58359250258079e-03 1.08758286603863e-04
1.33033333333333e+01 7.45972123803485e-03 1.07332009018404e-04
1.33900000000000e+01 7.33787330054480e-03 1.05922187834811e-04
1.34766666666667e+01 7.21801564175160e-03 1.04528695157803e-04
1.35633333333333e+01 7.10011575133002e-03 1.03151402070651e-04
1.36500000000000e+01 6.98414165087866e-03 1.01790178149635e-04
1.37366666666667e+01 6.87006188516086e-03 1.00444892695340e-04
1.38233333333333e+01 6.75784551106980e-03 9.91154142549662e-05
1.39100000000000e+01 6.64746209176387e-03 9.78016101593929e-05
1.39966666666667e+01 6.53888168833168e-03 9.65033476789220e-05
1.40833333333333e+01 6.43207484933363e-03 9.52204935679637e-05
1.41700000000000e+01 6.32701260517507e-03 9.39529136237868e-05
1.42566666666667e+01 6.22366646017471e-03 9.27004737716742e-05
1.43433333333333e+01 6.12200838265120e-03 9.14630396310530e-05
1.44300000000000e+01 6.02201079952635e-03 9.02404760950264e-05
1.45166666666667e+01 5.92364658877732e-03 8.90326483495444e-05
1.46033333333333e+01 5.82688907003863e-03 8.78394214600644e-05
1.46900000000000e+01 5.73171199942764e-03 8.66606599709758e-05
1.47766666666667e+01 5.63808956236207e-03 8.54962288630540e-05
1.48633333333333e+01 5.54599636464933e-03 8.43459931597740e-05
1.49500000000000e+01 5.45540742752681e-03 8.32098175457722e-05
1.50366666666667e+01 5.36629818082683e-03 8.20875672665339e-05
1.51233333333333e+01 5.27864445452714e-03 8.09791077534972e-05
1.52100000000000e+01 5.19242247399844e-03 7.98843042607179e-05
1.52966666666667e+01 5.10760885349989e-03 7.88030227104835e-05
1.53833333333333e+01 5.02418058816606e-03 7.77351293363678e-05
1.54700000000000e+01 4.94211504945412e-03 7.66804903372824e-05
1.55566666666667e+01 4.86138997895406e-03 7.56389726724514e-05
1.56433333333333e+01 4.78198348078858e-03 7.46104437216114e-05
1.57300000000000e+01 4.70387401725280e-03 7.35947709556618e-05
1.58166666666667e+01 4.62704040292380e-03 7.25918226842028e-05
1.59033333333333e+01 4.55146179745149e-03 7.16014677320896e-05
1.59900000000000e+01 4.47711770138371e-03 7.06235751259280e-05
1.60766666666667e+01 4.40398795056056e-03 6.96580147971541e-05
1.61633333333333e+01 4.33205270927546e-03 6.87046572741951e-05
1.62500000000000e+01 4.26129246627867e-03 6.77633733840790e-05
1.63366666666667e+01 4.19168802944259e-03 6.68340349138216e-05
1.64233333333333e+01 4.12322051927345e-03 6.59165143174810e-05
1.65100000000000e+01 4.05587136508632e-03 6.50106844321800e-05
1.65966666666667e+01 3.98962229992844e-03 6.41164191003999e-05
1.66833333333333e+01 3.92445535442278e-03 6.32335928912198e-05
1.67700000000000e+01 3.86035285310815e-03 6.23620808300841e-05
1.68566666666667e+01 3.79729740960783e-03 6.15017589844193e-05
1.69433333333333e+01 3.73527192078772e-03 6.06525041983921e-05
1.70300000000000e+01 3.67425956325493e-03 5.98141938357795e-05
1.71166666666667e+01 3.61424378875995e-03 5.89867063311620e-05
1.72033333333333e+01 3.55520831865279e-03 5.81699209375671e-05
1.72900000000000e+01 3.49713714053384e-03 5.73637174818194e-05
1.73766666666667e+01 3.44001450387820e-03 5.65679768834248e-05
1.74633333333333e+01 3.38382491477426e-03 5.57825809144888e-05
1.75500000000000e+01 3.32855313272069e-03 5.50074119669489e-05
1.76366666666667e+01 3.27418416646229e-03 5.42423535411238e-05
1.77233333333333e+01 3.22070326899610e-03 5.34872900173202e-05
1.78100000000000e+01 3.16809593450872e-03 5.27421064343893e-05
1.78966666666667e+01 3.11634789441343e-03 5.20066889497822e-05
1.79833333333333e+01 3.06544511260986e-03 5.12809246222845e-05
1.80700000000000e+01 3.01537378255601e-03 5.05647012013543e-05
1.81566666666667e+01 2.96612032349677e-03 4.98579075604086e-05
1.82433333333333e+01 2.91767137596406e-03 4.91604334901547e-05
1.83300000000000e+01 2.87001379897800e-03 4.84721694981956e-05
1.84166666666667e+01 2.82313466645759e-03 4.77930072171623e-05
1.85033333333333e+01 2.77702126294882e-03 4.71228392081284e-05
1.85900000000000e+01 2.73166108094964e-03 4.64615587699905e-05
1.86766666666667e+01 2.68704181749401e-03 4.58090603239557e-05
1.87633333333333e+01 2.64315137009622e-03 4.51652392265595e-05
1.88500000000000e+01 2.59997783419441e-03 4.45299915883464e-05
1.89366666666667e+01 2.55750949989974e-03 4.39032146361339e-05
1.90233333333333e+01 2.51573484814558e-03 4.32848065351673e-05
1.91100000000000e+01 2.47464254824477e-03 4.26746662166467e-05
1.91966666666667e+01 2.43422145479583e-03 4.20726937190957e-05
1.92833333333333e+01 2.39446060402651e-03 4.14787900192137e-05
1.93700000000000e+01 2.35534921146002e-03 4.08928568678237e-05
1.94566666666667e+01 2.31687666897059e-03 4.03147971115891e-05
1.95433333333333e+01 2.27903254131148e-03 3.97445145321350e-05
1.96300000000000e+01 2.24180656388545e-03 3.91819136900120e-05
1.97166666666667e+01 2.20518863994261e-03 3.86269002279319e-05
1.98033333333333e+01 2.16916883728325e-03 3.80793807177524e-05
1.98900000000000e+01 2.13373738612823e-03 3.75392625120679e-05
1.99766666666667e+01 2.09888467645219e-03 3.70064540300549e-05
2.00633333333333e+01 2.06460125485224e-03 3.64808646119441e-05
2.01500000000000e+01 2.03087782251402e-03 3.59624043778638e-05
2.02366666666667e+01 1.99770523267365e-03 3.54509844973236e-05
2.03233333333333e+01 1.96507448764390e-03 3.49465170508063e-05
2.04100000000000e+01 1.93297673687169e-03 3.44489148955118e-05
2.04966666666667e+01 1.90140327452271e-03 3.39580919194407e-05
2.05833333333333e+01 1.87034553665682e-03 3.34739629097614e-05
2.06700000000000e+01 1.83979509937326e-03 3.29964434251178e-05
2.07566666666667e+01 1.80974367651182e-03 3.25254500352177e-05
2.08433333333333e+01 1.78018311696999e-03 3.20609001956417e-05
2.09300000000000e+01 1.75110540293199e-03 3.16027121263949e-05
2.10166666666667e+01 1.72250264768092e-03 3.11508050378520e-05
2.11033333333333e+01 1.69436709305040e-03 3.07050990116930e-05
2.11900000000000e+01 1.66669110773378e-03 3.02655148853920e-05
2.12766666666667e+01 1.63946718520191e-03 2.98319744653145e-05
2.13633333333333e+01 1.61268794128244e-03 2.94044004134833e-05
2.14500000000000e+01 1.58634611254565e-03 2.89827161377146e-05
2.15366666666667e+01 1.56043455432284e-03 2.85668459926162e-05
2.16233333333333e+01 1.53494623840669e-03 2.81567151718966e-05
2.17100000000000e+01 1.50987425151047e-03 2.77522496038733e-05
2.17966666666667e+01 1.48521179338204e-03 2.73533761410774e-05
2.18833333333333e+01 1.46095217461928e-03 2.69600224578320e-05
2.19700000000000e+01 1.43708881519933e-03 2.65721169508708e-05
2.20566666666667e+01 1.41361524268370e-03 2.61895889182089e-05
2.21433333333333e+01 1.39052509014280e-03 2.58123684617354e-05
2.22300000000000e+01 1.36781209475224e-03 2.54403863926912e-05
2.23166666666667e+01 1.34547009608459e-03 2.50735744004283e-05
2.24033333333333e+01 1.32349303413750e-03 2.47118649597697e-05
2.24900000000000e+01 1.30187494799409e-03 2.43551912411063e-05
2.25766666666667e+01 1.28060997419717e-03 2.40034872696334e-05
2.26633333333333e+01 1.25969234487572e-03 2.36566878372419e-05
2.27500000000000e+01 1.23911638646653e-03 2.33147284170105e-05
2.28366666666667e+01 1.21887651816690e-03 2.29775453134660e-05
2.29233333333333e+01 1.19896725015451e-03 2.26450755787837e-05
2.30100000000000e+01 1.17938318236756e-03 2.23172569314607e-05
2.30966666666667e+01 1.16011900303218e-03 2.19940278981164e-05
2.31833333333333e+01 1.14116948697097e-03 2.16753277337931e-05
2.32700000000000e+01 1.12252949443906e-03 2.13610963446028e-05
2.33566666666667e+01 1.10419396972261e-03 2.10512744215549e-05
2.34433333333333e+01 1.08615793953151e-03 2.07458033647545e-05
2.35300000000000e+01 1.06841651188893e-03 2.04446252098297e-05
2.36166666666667e+01 1.05096487479738e-03 2.01476827542446e-05
2.37033333333333e+01 1.03379829471147e-03 1.98549194852033e-05
2.37900000000000e+01 1.01691211547839e-03 1.95662795096719e-05
2.38766666666667e+01 1.00030175706843e-03 1.92817076736070e-05
2.39633333333333e+01 9.83962714123621e-04 1.90011494933836e-05
2.40500000000000e+01 9.67890554947013e-04 1.87245510892375e-05
2.41366666666667e+01 9.52080920294404e-04 1.84518592978113e-05
2.42233333333333e+01 9.36529521995146e-04 1.81830216069378e-05
2.43100000000000e+01 9.21232141987935e-04 1.79179860923313e-05
2.43966666666667e+01 9.06184631170890e-04 1.76567015238337e-05
2.44833333333333e+01 8.91382908090832e-04 1.73991173033877e-05
2.45700000000000e+01 8.76822958023532e-04 1.71451834048175e-05
2.46566666666667e+01 8.62500831879292e-04 1.68948504741383e-05
2.47433333333333e+01 8.48412644957272e-04 1.66480697705589e-05
2.48300000000000e+01 8.34554576068195e-04 1.64047931092022e-05
2.49166666666667e+01 8.20922866492741e-04 1.61649729558140e-05
2.50033333333333e+01 8.07513818797667e-04 1.59285623706466e-05
2.50900000000000e+01 7.94323795999046e-04 1.56955149539771e-05
2.51766666666667e+01 7.81349220570928e-04 1.54657849355324e-05
2.52633333333333e+01 7.68586573320150e-04 1.52393271211131e-05
2.53500000000000e+01 7.56032392588280e-04 1.50160968407717e-05
2.54366666666667e+01 7.43683273308112e-04 1.47960500332528e-05
2.55233333333333e+01 7.31535865934236e-04 1.45791431952250e-05
2.56100000000000e+01 7.19586875681922e-04 1.43653333319867e-05
2.56966666666667e+01 7.07833061629149e-04 1.41545780372057e-05
2.57833333333333e+01 6.96271235700137e-04 1.39468354446310e-05
2.58700000000000e+01 6.84898261939494e-04 1.37420641812011e-05
2.59566666666667e+01 6.73711055657586e-04 1.35402234423496e-05
2.60433333333333e+01 6.62706582464379e-04 1.33412729460741e-05
2.61300000000000e+01 6.51881857577249e-04 1.31451728883319e-05
2.62166666666667e+01 6.41233945007593e-04 1.29518840141608e-05
2.63033333333333e+01 6.30759956642473e-04 1.27613675739885e-05
2.63900000000000e+01 6.20457051584556e-04 1.25735852812041e-05
2.64766666666667e+01 6.10322435377973e-04 1.23884993793316e-05
2.65633333333333e+01 6.00353359135378e-04 1.22060726004700e-05
2.66500000000000e+01 5.90547118908553e-04 1.20262681249327e-05
2.67366666666667e+01 5.80901054951622e-04 1.18490496446953e-05
2.68233333333333e+01 5.71412550891255e-04 1.16743813238641e-05
2.69100000000000e+01 5.62079033126543e-04 1.15022277602812e-05
2.69966666666667e+01 5.52897970127754e-04 1.13325540454575e-05
2.70833333333333e+01 5.43866871647545e-04 1.11653257269678e-05
2.71700000000000e+01 5.34983288148751e-04 1.10005087719274e-05
2.72566666666667e+01 5.26244810136987e-04 1.08380696236067e-05
2.73433333333333e+01 5.17649067410806e-04 1.06779751656592e-05
