Energy (eV)          EEDF (eV^-(3/2))     First Anisotropy
9.90909090909091e-03 2.01938575987073e-01 1.02122778335234e-04
2.97272727272727e-02 2.00668937552254e-01 1.68670649848833e-04
4.95454545454545e-02 1.99407281652353e-01 2.22762191045994e-04
6.93636363636364e-02 1.98153558097098e-01 2.63915565505033e-04
8.91818181818182e-02 1.96907717016759e-01 2.98287372527004e-04
1.09000000000000e-01 1.95669708851895e-01 3.28203334149174e-04
1.28818181818182e-01 1.94439484353685e-01 3.54866028144561e-04
1.48636363636364e-01 1.93216994583600e-01 3.79001074908174e-04
1.68454545454545e-01 1.92002190911931e-01 4.01089337287375e-04
1.88272727272727e-01 1.90795025021441e-01 4.21470412668988e-04
2.08090909090909e-01 1.89595448884200e-01 4.40395491438034e-04
2.27909090909091e-01 1.88403414781750e-01 4.58057046942839e-04
2.47727272727273e-01 1.87218875295487e-01 4.74606732791414e-04
2.67545454545455e-01 1.86041783305046e-01 4.90166772976166e-04
2.87363636363636e-01 1.84872091990487e-01 5.04837537565461e-04
3.07181818181818e-01 1.83709754817569e-01 5.18702761497998e-04
3.27000000000000e-01 1.82554725549063e-01 5.31833249815611e-04
3.46818181818182e-01 1.81406958238401e-01 5.44289578037031e-04
3.66636363636364e-01 1.80266407227889e-01 5.56124100606988e-04
3.86454545454545e-01 1.79133027146908e-01 5.67382474449492e-04
4.06272727272727e-01 1.78006772912931e-01 5.78104835458033e-04
4.26090909090909e-01 1.76887599721060e-01 5.88326717856348e-04
4.45909090909091e-01 1.75775463051060e-01 5.98079783252744e-04
4.65727272727273e-01 1.74670318662571e-01 6.07392407441768e-04
4.85545454545455e-01 1.73572122593410e-01 6.16290154857706e-04
5.05363636363636e-01 1.72480831159978e-01 6.24796168687658e-04
5.25181818181818e-01 1.71396400948871e-01 6.32931491851268e-04
5.45000000000000e-01 1.70318788821900e-01 6.40715334304862e-04
5.64818181818182e-01 1.69247951912081e-01 6.48165298857220e-04
5.84636363636364e-01 1.68183847621947e-01 6.55297570888533e-04
6.04454545454545e-01 1.67126433621857e-01 6.62127079711217e-04
6.24272727272727e-01 1.66075667850009e-01 6.68667637643887e-04
6.44090909090909e-01 1.65031508505595e-01 6.74932058413047e-04
6.63909090909091e-01 1.63993914052370e-01 6.80932259455573e-04
6.83727272727273e-01 1.62962843215228e-01 6.86679352080798e-04
7.03545454545455e-01 1.61938254978578e-01 6.92183718932752e-04
7.23363636363636e-01 1.60920108586120e-01 6.97455083048825e-04
7.43181818181818e-01 1.59908363534929e-01 7.02502567503696e-04
7.63000000000000e-01 1.58902979578185e-01 7.07334748030328e-04
7.82818181818182e-01 1.57903916722106e-01 7.11959700818177e-04
8.02636363636364e-01 1.56911135224355e-01 7.16385044123281e-04
8.22454545454545e-01 1.55924595592475e-01 7.20617975399066e-04
8.42272727272727e-01 1.54944258583473e-01 7.24665305352489e-04
8.62090909090909e-01 1.53970085198719e-01 7.28533487497589e-04
8.81909090909091e-01 1.53002036685975e-01 7.32228644704590e-04
9.01727272727273e-01 1.52040074536640e-01 7.35756594192624e-04
9.21545454545455e-01 1.51084160484233e-01 7.39122869130953e-04
9.41363636363636e-01 1.50134256503873e-01 7.42332739184152e-04
9.61181818181818e-01 1.49190324807710e-01 7.45391228250941e-04
9.81000000000000e-01 1.48252327846505e-01 7.48303130580340e-04
1.00081818181818e+00 1.47320228307100e-01 7.51073025895268e-04
1.02063636363636e+00 1.46393989113617e-01 7.53705294237305e-04
1.04045454545455e+00 1.45473573419594e-01 7.56204129960978e-04
1.06027272727273e+00 1.44558944602576e-01 7.58573546910317e-04
1.08009090909091e+00 1.43650066287777e-01 7.60817393565930e-04
1.09990909090909e+00 1.42746902320269e-01 7.62939366234385e-04
1.11972727272727e+00 1.41849416772406e-01 7.64943012658295e-04
1.13954545454545e+00 1.40957573942471e-01 7.66831743815158e-04
1.15936363636364e+00 1.40071338345605e-01 7.68608836743928e-04
1.17918181818182e+00 1.39190674735493e-01 7.70277445010508e-04
1.19900000000000e+00 1.38315548079592e-01 7.71840608665528e-04
1.21881818181818e+00 1.37445923565604e-01 7.73301255389370e-04
1.23863636363636e+00 1.36581766600111e-01 7.74662207917067e-04
1.25845454545455e+00 1.35723042807210e-01 7.75926190881673e-04
1.27827272727273e+00 1.34869718020502e-01 7.77095831310100e-04
1.29809090909091e+00 1.34021758301834e-01 7.78173666306697e-04
1.31790909090909e+00 1.33179129919625e-01 7.79162150443393e-04
1.33772727272727e+00 1.32341799354351e-01 7.80063655232747e-04
1.35754545454545e+00 1.31509733297262e-01 7.80880475881087e-04
1.37736363636364e+00 1.30682898643059e-01 7.81614830678668e-04
1.39718181818182e+00 1.29861262506676e-01 7.82268867186392e-04
1.41700000000000e+00 1.29044792203684e-01 7.82844668231934e-04
1.43681818181818e+00 1.28233455255138e-01 7.83344250588910e-04
1.45663636363636e+00 1.27427219386303e-01 7.83769569213612e-04
1.47645454545455e+00 1.26626052525371e-01 7.84122521170622e-04
1.49627272727273e+00 1.25829922796903e-01 7.84404944249605e-04
1.51609090909091e+00 1.25038798536551e-01 7.84618621918649e-04
1.53590909090909e+00 1.24252648273644e-01 7.84765288160739e-04
1.55572727272727e+00 1.23471440735361e-01 7.84846625610545e-04
1.57554545454545e+00 1.22695144845518e-01 7.84864270074664e-04
1.59536363636364e+00 1.21923729718512e-01 7.84819808781295e-04
1.61518181818182e+00 1.21157164672646e-01 7.84714784607943e-04
1.63500000000000e+00 1.20395419214209e-01 7.84550700230686e-04
1.65481818181818e+00 1.19638463041209e-01 7.84329016012963e-04
1.67463636363636e+00 1.18886266042170e-01 7.84051152775263e-04
1.69445454545455e+00 1.18138798294944e-01 7.83718494366528e-04
1.71427272727273e+00 1.17396030061215e-01 7.83332385669952e-04
1.73409090909091e+00 1.16657931798323e-01 7.82894136182459e-04
1.75390909090909e+00 1.15924474144964e-01 7.82405023544886e-04
1.77372727272727e+00 1.15195627924424e-01 7.81866291283671e-04
1.79354545454545e+00 1.14471364143442e-01 7.81279152157360e-04
1.81336363636364e+00 1.13751653987106e-01 7.80644786063333e-04
1.83318181818182e+00 1.13036468829635e-01 7.79964343208689e-04
1.85300000000000e+00 1.12325780221201e-01 7.79238947248242e-04
1.87281818181818e+00 1.11619559890845e-01 7.78469692980170e-04
1.89263636363636e+00 1.10917779745354e-01 7.77657648336999e-04
1.91245454545455e+00 1.10220411868150e-01 7.76803856234718e-04
1.93227272727273e+00 1.09527428514621e-01 7.75909332436562e-04
1.95209090909091e+00 1.08838802121771e-01 7.74975068335472e-04
1.97190909090909e+00 1.08154505296274e-01 7.74002033716586e-04
1.99172727272727e+00 1.07474510817026e-01 7.72991174456319e-04
2.01154545454545e+00 1.06798791634078e-01 7.71943415164613e-04
2.03136363636364e+00 1.06127320864269e-01 7.70859657054860e-04
2.05118181818182e+00 1.05460071800086e-01 7.69740780467987e-04
2.07100000000000e+00 1.04797017898588e-01 7.68587647384601e-04
2.09081818181818e+00 1.04138132783714e-01 7.67401099156951e-04
2.11063636363636e+00 1.03483390245235e-01 7.66181958037134e-04
2.13045454545455e+00 1.02832764237718e-01 7.64931028596370e-04
2.15027272727273e+00 1.02186228876503e-01 7.63649095632627e-04
2.17009090909091e+00 1.01543758445691e-01 7.62336926437106e-04
2.18990909090909e+00 1.00905327388027e-01 7.60995273054847e-04
2.20972727272727e+00 1.00270910306938e-01 7.59624870079260e-04
2.22954545454545e+00 9.96404819655317e-02 7.58226436826272e-04
2.24936363636364e+00 9.90140172828219e-02 7.56800675290111e-04
2.26918181818182e+00 9.83914913410909e-02 7.55348272231702e-04
2.28900000000000e+00 9.77728793764718e-02 7.53869901264909e-04
2.30881818181818e+00 9.71581567807915e-02 7.52366220714056e-04
2.32863636363636e+00 9.65472991005956e-02 7.50837874841491e-04
2.34845454545455e+00 9.59402820361780e-02 7.49285494987492e-04
2.36827272727273e+00 9.53370814380870e-02 7.47709697595064e-04
2.38809090909091e+00 9.47376733137963e-02 7.46111086113898e-04
2.40790909090909e+00 9.41420338190592e-02 7.44490252905308e-04
2.42772727272727e+00 9.35501392595386e-02 7.42847777183458e-04
2.44754545454545e+00 9.29619660898758e-02 7.41184226854466e-04
2.46736363636364e+00 9.23774909103977e-02 7.39500156604707e-04
2.48718181818182e+00 9.17966904732902e-02 7.37796109673530e-04
2.50700000000000e+00 9.12195416745147e-02 7.36072619628815e-04
2.52681818181818e+00 9.06460215552914e-02 7.34330208380788e-04
2.54663636363636e+00 9.00761073011885e-02 7.32569387200145e-04
2.56645454545455e+00 8.95097762412174e-02 7.30790657662963e-04
2.58627272727273e+00 8.89470058447713e-02 7.28994509818518e-04
2.60609090909091e+00 8.83877737272464e-02 7.27181423822190e-04
2.62590909090909e+00 8.78320576425853e-02 7.25351871572879e-04
2.64572727272727e+00 8.72798354845934e-02 7.23506314815838e-04
2.66554545454545e+00 8.67310852860677e-02 7.21645206727241e-04
2.68536363636364e+00 8.61857852159050e-02 7.19768990149470e-04
2.70518181818182e+00 8.56439135843194e-02 7.17878099122404e-04
2.72500000000000e+00 8.51054488358483e-02 7.15972960420060e-04
2.74481818181818e+00 8.45703695505518e-02 7.14053991726673e-04
2.76463636363636e+00 8.40386544431634e-02 7.12121602500091e-04
2.78445454545455e+00 8.35102823622440e-02 7.10176194772978e-04
2.80427272727273e+00 8.29852322874846e-02 7.08218161468178e-04
2.82409090909091e+00 8.24634833344743e-02 7.06247887819776e-04
2.84390909090909e+00 8.19450147482244e-02 7.04265752800214e-04
2.86372727272727e+00 8.14298059042347e-02 7.02272127382895e-04
2.88354545454545e+00 8.09178363076802e-02 7.00267375925946e-04
2.90336363636364e+00 8.04090855908548e-02 6.98251854553499e-04
2.92318181818182e+00 7.99035335176102e-02 6.96225912494950e-04
2.94300000000000e+00 7.94011599772643e-02 6.94189893430923e-04
2.96281818181818e+00 7.89019449855744e-02 6.92144133826052e-04
2.98263636363636e+00 7.84058686839443e-02 6.90088963673194e-04
3.00245454545455e+00 7.79129113386351e-02 6.88024707184015e-04
3.02227272727273e+00 7.74230533383740e-02 6.85951681247232e-04
3.04209090909091e+00 7.69362751984234e-02 6.83870196678069e-04
3.06190909090909e+00 7.64525575549223e-02 6.81780559474495e-04
3.08172727272727e+00 7.59718811657523e-02 6.79683069231559e-04
3.10154545454545e+00 7.54942269097782e-02 6.77578020361135e-04
3.12136363636364e+00 7.50195757845767e-02 6.75465700612017e-04
3.14118181818182e+00 7.45479089102345e-02 6.73346392252109e-04
3.16100000000000e+00 7.40792075240115e-02 6.71220373257798e-04
3.18081818181818e+00 7.36134529811327e-02 6.69087915793186e-04
3.20063636363636e+00 7.31506267540476e-02 6.66949286859452e-04
3.22045454545455e+00 7.26907104316946e-02 6.64804748897473e-04
3.24027272727273e+00 7.22336857173700e-02 6.62654558379616e-04
3.26009090909091e+00 7.17795344322199e-02 6.60498966917167e-04
3.27990909090909e+00 7.13282385102687e-02 6.58338222374531e-04
3.29972727272727e+00 7.08797799991240e-02 6.56172567423955e-04
3.31954545454545e+00 7.04341410592670e-02 6.54002240628452e-04
3.33936363636364e+00 6.99913039620259e-02 6.51827475091113e-04
3.35918181818182e+00 6.95512510928411e-02 6.49648499505661e-04
3.37900000000000e+00 6.91139649465670e-02 6.47465539214235e-04
3.39881818181818e+00 6.86794281281166e-02 6.45278814821950e-04
3.41863636363636e+00 6.82476233517703e-02 6.43088542768399e-04
3.43845454545455e+00 6.78185334404892e-02 6.40894935858320e-04
3.45827272727273e+00 6.73921413240100e-02 6.38698201977045e-04
3.47809090909091e+00 6.69684300418528e-02 6.36498545077425e-04
3.49790909090909e+00 6.65473827389353e-02 6.34296166173932e-04
3.51772727272727e+00 6.61289826661452e-02 6.32091262026047e-04
3.53754545454545e+00 6.57132131796781e-02 6.29884026104795e-04
3.55736363636364e+00 6.53000577392227e-02 6.27674647360906e-04
3.57718181818182e+00 6.48894999107781e-02 6.25463311163530e-04
3.59700000000000e+00 6.44815233625015e-02 6.23250200245683e-04
3.61681818181818e+00 6.40761118652320e-02 6.21035493442165e-04
3.63663636363636e+00 6.36732492918454e-02 6.18819366196262e-04
3.65645454545455e+00 6.32729196166138e-02 6.16601991030331e-04
3.67627272727273e+00 6.28751069134957e-02 6.14383536374250e-04
3.69609090909091e+00 6.24797953587378e-02 6.12164167449277e-04
3.71590909090909e+00 6.20869692269889e-02 6.09944047158925e-04
3.73572727272727e+00 6.16966128917657e-02 6.07723334889331e-04
3.75554545454545e+00 6.13087108248343e-02 6.05502187375936e-04
3.77536363636364e+00 6.09232475945787e-02 6.03280757579976e-04
3.79518181818182e+00 6.05402078684422e-02 6.01059195530633e-04
3.81500000000000e+00 6.01595764092429e-02 5.98837649173736e-04
3.83481818181818e+00 5.97813380755981e-02 5.96616263221728e-04
3.85463636363636e+00 5.94054778213228e-02 5.94395179605505e-04
3.87445454545455e+00 5.90319806948322e-02 5.92174537893867e-04
3.89427272727273e+00 5.86608318376021e-02 5.89954474225011e-04
3.91409090909091e+00 5.82920164864269e-02 5.87735122101066e-04
3.93390909090909e+00 5.79255199699655e-02 5.85516613189163e-04
3.95372727272727e+00 5.75613277091176e-02 5.83299076228228e-04
3.97354545454545e+00 5.71994252164472e-02 5.81082637808716e-04
3.99336363636364e+00 5.68397980947118e-02 5.78867421347674e-04
4.01318181818182e+00 5.64824320389842e-02 5.76653547846926e-04
4.03300000000000e+00 5.61273128333719e-02 5.74441136657364e-04
4.05281818181818e+00 5.57744263513610e-02 5.72230304430497e-04
4.07263636363636e+00 5.54237585552546e-02 5.70021165523124e-04
4.09245454545455e+00 5.50752954956150e-02 5.67813832373064e-04
4.11227272727273e+00 5.47290233098745e-02 5.65608414524097e-04
4.13209090909091e+00 5.43849282243004e-02 5.63405019342470e-04
4.15190909090909e+00 5.40429965509150e-02 5.61203752739355e-04
4.17172727272727e+00 5.37032146877994e-02 5.59004718173944e-04
4.19154545454545e+00 5.33655691185545e-02 5.56808017357254e-04
4.21136363636364e+00 5.30300464109727e-02 5.54613749316498e-04
4.23118181818182e+00 5.26966332188868e-02 5.52422011079524e-04
4.25100000000000e+00 5.23653162792408e-02 5.50232898365119e-04
4.27081818181818e+00 5.20360824123668e-02 5.48046504626687e-04
4.29063636363636e+00 5.17089185214608e-02 5.45862921415827e-04
4.31045454545455e+00 5.13838115920619e-02 5.43682238720180e-04
4.33027272727273e+00 5.10607486907964e-02 5.41504544073247e-04
4.35009090909091e+00 5.07397169670916e-02 5.39329923201929e-04
4.36990909090909e+00 5.04207036504223e-02 5.37158460680036e-04
4.38972727272727e+00 5.01036960505538e-02 5.34990239018582e-04
4.40954545454545e+00 4.97886815570392e-02 5.32825339302257e-04
4.42936363636364e+00 4.94756476380166e-02 5.30663840335237e-04
4.44918181818182e+00 4.91645818418234e-02 5.28505819260392e-04
4.46900000000000e+00 4.88554717943755e-02 5.26351352184121e-04
4.48881818181818e+00 4.85483051993872e-02 5.24200513303529e-04
4.50863636363636e+00 4.82430698378829e-02 5.22053375234125e-04
4.52845454545455e+00 4.79397535677110e-02 5.19910009314465e-04
4.54827272727273e+00 4.76383443224048e-02 5.17770484792888e-04
4.56809090909091e+00 4.73388301126824e-02 5.15634869414249e-04
4.58790909090909e+00 4.70411990239776e-02 5.13503230012088e-04
4.60772727272727e+00 4.67454392166332e-02 5.11375631677894e-04
4.62754545454545e+00 4.64515389254321e-02 5.09252138338092e-04
4.64736363636364e+00 4.61594864585053e-02 5.07132811973591e-04
4.66718181818182e+00 4.58692701987460e-02 5.05017713181099e-04
4.68700000000000e+00 4.55808786014571e-02 5.02906901739838e-04
4.70681818181818e+00 4.52943001945257e-02 5.00800435814405e-04
4.72663636363636e+00 4.50095235779669e-02 4.98698372250771e-04
4.74645454545455e+00 4.47265374234709e-02 4.96600766851745e-04
4.76627272727273e+00 4.44453304733676e-02 4.94507673633667e-04
4.78609090909091e+00 4.41658915419419e-02 4.92419145358795e-04
4.80590909090909e+00 4.38882095132149e-02 4.90335234072923e-04
4.82572727272727e+00 4.36122733410962e-02 4.88255990346357e-04
4.84554545454545e+00 4.33380720489458e-02 4.86181463797842e-04
4.86536363636364e+00 4.30655947285817e-02 4.84111702380911e-04
4.88518181818182e+00 4.27948305415201e-02 4.82046752893742e-04
4.90500000000000e+00 4.25257687168606e-02 4.79986661494016e-04
4.92481818181818e+00 4.22583985514218e-02 4.77931472970287e-04
4.94463636363636e+00 4.19927094093159e-02 4.75881231010155e-04
4.96445454545455e+00 4.17286907215259e-02 4.73835978449652e-04
4.98427272727273e+00 4.14663319849639e-02 4.71795756593447e-04
5.00409090909091e+00 4.12056227636257e-02 4.69760605698934e-04
5.02390909090909e+00 4.09465526865935e-02 4.67730565464886e-04
5.04372727272727e+00 4.06891114481540e-02 4.65705674337512e-04
5.06354545454545e+00 4.04332888073888e-02 4.63685969986920e-04
5.08336363636364e+00 4.01790745872716e-02 4.61671488654171e-04
5.10318181818182e+00 3.99264586757577e-02 4.59662265615164e-04
5.12300000000000e+00 3.96754310238786e-02 4.57658335648990e-04
5.14281818181818e+00 3.94259816458457e-02 4.55659732371493e-04
5.16263636363636e+00 3.91781006186538e-02 4.53666488478632e-04
5.18245454545455e+00 3.89317780816865e-02 4.51678635972793e-04
5.20227272727273e+00 3.86870042358577e-02 4.49696205540617e-04
5.22209090909091e+00 3.84437693446272e-02 4.47719226993682e-04
5.24190909090909e+00 3.82020637322003e-02 4.45747729713501e-04
5.26172727272727e+00 3.79618777836155e-02 4.43781742016534e-04
5.28154545454545e+00 3.77232019443638e-02 4.41821291587989e-04
5.30136363636364e+00 3.74860267195647e-02 4.39866404884235e-04
5.32118181818182e+00 3.72503426749255e-02 4.37917107555261e-04
5.34100000000000e+00 3.70161404350211e-02 4.35973424871337e-04
5.36081818181818e+00 3.67834106833720e-02 4.34035381113121e-04
5.38063636363636e+00 3.65521441620737e-02 4.32102999792731e-04
5.40045454545455e+00 3.63223316714288e-02 4.30176303859594e-04
5.42027272727273e+00 3.60939640691636e-02 4.28255315130604e-04
5.44009090909091e+00 3.58670322713228e-02 4.26340054691712e-04
5.45990909090909e+00 3.56415272506428e-02 4.24430543303718e-04
5.47972727272727e+00 3.54174400366160e-02 4.22526800820851e-04
5.49954545454545e+00 3.51947617151352e-02 4.20628846586390e-04
5.51936363636364e+00 3.49734834277415e-02 4.18736698885128e-04
5.53918181818182e+00 3.47535963724697e-02 4.16850375328629e-04
5.55900000000000e+00 3.45350918022932e-02 4.14969893244505e-04
5.57881818181818e+00 3.43179610251801e-02 4.13095269117715e-04
5.59863636363636e+00 3.41021954037478e-02 4.11226518791888e-04
5.61845454545455e+00 3.38877863549188e-02 4.09363657656635e-04
5.63827272727273e+00 3.36747253492060e-02 4.07506700125377e-04
5.65809090909091e+00 3.34630039115012e-02 4.05655660001873e-04
5.67790909090909e+00 3.32526136196031e-02 4.03810550850466e-04
5.69772727272727e+00 3.30435461042630e-02 4.01971385463517e-04
5.71754545454545e+00 3.28357930488517e-02 4.00138176222405e-04
5.73736363636364e+00 3.26293461886727e-02 3.98310934595704e-04
5.75718181818182e+00 3.24241973117082e-02 3.96489671490989e-04
5.77700000000000e+00 3.22203382572109e-02 3.94674397610159e-04
5.79681818181818e+00 3.20177609157426e-02 3.92865122937519e-04
5.81663636363636e+00 3.18164572288506e-02 3.91061856923169e-04
5.83645454545455e+00 3.16164191887484e-02 3.89264608653699e-04
5.85627272727273e+00 3.14176388376603e-02 3.87473386373576e-04
5.87609090909091e+00 3.12201082685185e-02 3.85688197819871e-04
5.89590909090909e+00 3.10238196236295e-02 3.83909050560400e-04
5.91572727272727e+00 3.08287650947030e-02 3.82135951505609e-04
5.93554545454545e+00 3.06349369225413e-02 3.80368907238424e-04
5.95536363636364e+00 3.04423273964109e-02 3.78607923554034e-04
5.97518181818182e+00 3.02509288547011e-02 3.76853005781359e-04
5.99500000000000e+00 3.00607336836484e-02 3.75104159107710e-04
6.01481818181818e+00 2.98717343173586e-02 3.73361388109462e-04
6.03463636363636e+00 2.96839232375062e-02 3.71624696919419e-04
6.05445454545455e+00 2.94972929730356e-02 3.69894089382459e-04
6.07427272727273e+00 2.93118360995613e-02 3.68169568616537e-04
6.09409090909091e+00 2.91275452399842e-02 3.66451137318669e-04
6.11390909090909e+00 2.89444130632819e-02 3.64738798074147e-04
6.13372727272727e+00 2.87624322845232e-02 3.63032552908803e-04
6.15354545454545e+00 2.85815956645799e-02 3.61332403590670e-04
6.17336363636364e+00 2.84018960095496e-02 3.59638351207740e-04
6.19318181818182e+00 2.82233261713389e-02 3.57950396461885e-04
6.21300000000000e+00 2.80458790465056e-02 3.56268539965868e-04
6.23281818181818e+00 2.78695475762680e-02 3.54592781812760e-04
6.25263636363636e+00 2.76943247462250e-02 3.52923121728792e-04
