Energy (eV)          EEDF (eV^-(3/2))     First Anisotropy
5.19047619047619e-03 7.93288335696713e-01 4.55002305960756e-04
1.55714285714286e-02 7.86785952265149e-01 7.50782852493769e-04
2.59523809523810e-02 7.80336867222624e-01 9.89648506721180e-04
3.63333333333333e-02 7.73940643721578e-01 1.17022444087425e-03
4.67142857142857e-02 7.67596848439415e-01 1.32009046657089e-03
5.70952380952381e-02 7.61305051636709e-01 1.44969446720446e-03
6.74761904761905e-02 7.55064827095519e-01 1.56445323269271e-03
7.78571428571429e-02 7.48875752091672e-01 1.66764370111346e-03
8.82380952380952e-02 7.42737407373129e-01 1.76144306270244e-03
9.86190476190476e-02 7.36649377108890e-01 1.84739282549161e-03
1.09000000000000e-01 7.30611248872218e-01 1.92663608791099e-03
1.19380952380952e-01 7.24622613663032e-01 2.00005096405377e-03
1.29761904761905e-01 7.18683065748312e-01 2.06833106546131e-03
1.40142857142857e-01 7.12792202821466e-01 2.13203679121474e-03
1.50523809523810e-01 7.06949625819433e-01 2.19162947867420e-03
1.60904761904762e-01 7.01154938916831e-01 2.24749492871344e-03
1.71285714285714e-01 6.95407749607977e-01 2.29996015395960e-03
1.81666666666667e-01 6.89707668564444e-01 2.34930558872762e-03
1.92047619047619e-01 6.84054309621648e-01 2.39577415962970e-03
2.02428571428571e-01 6.78447289839897e-01 2.43957820084346e-03
2.12809523809524e-01 6.72886229361385e-01 2.48090478077692e-03
2.23190476190476e-01 6.67370751496391e-01 2.51991987487523e-03
2.33571428571429e-01 6.61900482614052e-01 2.55677169255714e-03
2.43952380952381e-01 6.56475052125123e-01 2.59159332452330e-03
2.54333333333333e-01 6.51094092523098e-01 2.62450491688396e-03
2.64714285714286e-01 6.45757239270247e-01 2.65561544255803e-03
2.75095238095238e-01 6.40464130858744e-01 2.68502416583005e-03
2.85476190476190e-01 6.35214408722198e-01 2.71282187595918e-03
2.95857142857143e-01 6.30007717216288e-01 2.73909190101488e-03
3.06238095238095e-01 6.24843703647669e-01 2.76391098512526e-03
3.16619047619048e-01 6.19722018195276e-01 2.78735003559791e-03
3.27000000000000e-01 6.14642313890624e-01 2.80947474415644e-03
3.37380952380952e-01 6.09604246640360e-01 2.83034614187209e-03
3.47761904761905e-01 6.04607475141349e-01 2.85002107018173e-03
3.58142857142857e-01 5.99651660917353e-01 2.86855258997364e-03
3.68523809523810e-01 5.94736468251369e-01 2.88599034894600e-03
3.78904761904762e-01 5.89861564165791e-01 2.90238088523172e-03
3.89285714285714e-01 5.85026618438215e-01 2.91776791113489e-03
3.99666666666667e-01 5.80231303539641e-01 2.93219256413373e-03
4.10047619047619e-01 5.75475294614611e-01 2.94569361401841e-03
4.20428571428571e-01 5.70758269493489e-01 2.95830766409490e-03
4.30809523809524e-01 5.66079908624905e-01 2.97006932299304e-03
4.41190476190476e-01 5.61439895098694e-01 2.98101135812760e-03
4.51571428571429e-01 5.56837914591015e-01 2.99116484192845e-03
4.61952380952381e-01 5.52273655344962e-01 3.00055926775205e-03
4.72333333333333e-01 5.47746808178731e-01 3.00922266993225e-03
4.82714285714286e-01 5.43257066425530e-01 3.01718172521091e-03
4.93095238095238e-01 5.38804125951039e-01 3.02446184439896e-03
5.03476190476191e-01 5.34387685104222e-01 3.03108726341559e-03
5.13857142857143e-01 5.30007444698310e-01 3.03708111177703e-03
5.24238095238095e-01 5.25663108015968e-01 3.04246548787894e-03
5.34619047619048e-01 5.21354380763219e-01 3.04726152795537e-03
5.45000000000000e-01 5.17080971050778e-01 3.05148945708770e-03
5.55380952380952e-01 5.12842589397469e-01 3.05516864933528e-03
5.65761904761905e-01 5.08638948679675e-01 3.05831767677957e-03
5.76142857142857e-01 5.04469764142179e-01 3.06095435441199e-03
5.86523809523810e-01 5.00334753356197e-01 3.06309578819366e-03
5.96904761904762e-01 4.96233636201282e-01 3.06475840692788e-03
6.07285714285714e-01 4.92166134866749e-01 3.06595800284752e-03
6.17666666666667e-01 4.88131973812064e-01 3.06670976929129e-03
6.28047619047619e-01 4.84130879749074e-01 3.06702832503864e-03
6.38428571428571e-01 4.80162581642302e-01 3.06692774853302e-03
6.48809523809524e-01 4.76226810665525e-01 3.06642160424440e-03
6.59190476190476e-01 4.72323300208141e-01 3.06552296697880e-03
6.69571428571429e-01 4.68451785838690e-01 3.06424445034436e-03
6.79952380952381e-01 4.64612005287732e-01 3.06259822234530e-03
6.90333333333333e-01 4.60803698446781e-01 3.06059603073501e-03
7.00714285714286e-01 4.57026607328392e-01 3.05824922163357e-03
7.11095238095238e-01 4.53280476070572e-01 3.05556875673954e-03
7.21476190476190e-01 4.49565050903065e-01 3.05256523485284e-03
7.31857142857143e-01 4.45880080130807e-01 3.04924890186343e-03
7.42238095238095e-01 4.42225314131831e-01 3.04562966918142e-03
7.52619047619048e-01 4.38600505325151e-01 3.04171713109826e-03
7.63000000000000e-01 4.35005408154577e-01 3.03752057242508e-03
7.73380952380952e-01 4.31439779086003e-01 3.03304898521203e-03
7.83761904761905e-01 4.27903376572349e-01 3.02831107998765e-03
7.94142857142857e-01 4.24395961055434e-01 3.02331529616336e-03
8.04523809523810e-01 4.20917294936093e-01 3.01806981661256e-03
8.14904761904762e-01 4.17467142558591e-01 3.01258257239855e-03
8.25285714285714e-01 4.14045270207197e-01 3.00686125527043e-03
8.35666666666667e-01 4.10651446077619e-01 3.00091332950822e-03
8.46047619047619e-01 4.07285440261752e-01 2.99474603540706e-03
8.56428571428571e-01 4.03947024743839e-01 2.98836640104598e-03
8.66809523809524e-01 4.00635973369391e-01 2.98178124942006e-03
8.77190476190476e-01 3.97352061845245e-01 2.97499720503198e-03
8.87571428571429e-01 3.94095067712847e-01 2.96802070437558e-03
8.97952380952381e-01 3.90864770333591e-01 2.96085799783291e-03
9.08333333333333e-01 3.87660950884505e-01 2.95351515939825e-03
9.18714285714286e-01 3.84483392329248e-01 2.94599809214939e-03
9.29095238095238e-01 3.81331879417360e-01 2.93831253329103e-03
9.39476190476190e-01 3.78206198659238e-01 2.93046406291398e-03
9.49857142857143e-01 3.75106138312020e-01 2.92245810478967e-03
9.60238095238095e-01 3.72031488374918e-01 2.91429993382595e-03
9.70619047619048e-01 3.68982040565178e-01 2.90599468318675e-03
9.81000000000000e-01 3.65957588304297e-01 2.89754734461569e-03
9.91380952380952e-01 3.62957926713129e-01 2.88896277583616e-03
1.00176190476190e+00 3.59982852585878e-01 2.88024570356096e-03
1.01214285714286e+00 3.57032164391114e-01 2.87140072757048e-03
1.02252380952381e+00 3.54105662246149e-01 2.86243233472899e-03
1.03290476190476e+00 3.51203147876303e-01 2.85334487937139e-03
1.04328571428571e+00 3.48324424687750e-01 2.84414260040845e-03
1.05366666666667e+00 3.45469297669947e-01 2.83482963902857e-03
1.06404761904762e+00 3.42637573410762e-01 2.82541002787888e-03
1.07442857142857e+00 3.39829060057879e-01 2.81588768229492e-03
1.08480952380952e+00 3.37043567383329e-01 2.80626641614861e-03
1.09519047619048e+00 3.34280906692226e-01 2.79654995765428e-03
1.10557142857143e+00 3.31540890836297e-01 2.78674193285021e-03
1.11595238095238e+00 3.28823334201368e-01 2.77684588072641e-03
1.12633333333333e+00 3.26128052671321e-01 2.76686523829428e-03
1.13671428571429e+00 3.23454863686442e-01 2.75680335502194e-03
1.14709523809524e+00 3.20803586159486e-01 2.74666350726176e-03
1.15747619047619e+00 3.18174040487589e-01 2.73644888809405e-03
1.16785714285714e+00 3.15566048518232e-01 2.72616259897096e-03
1.17823809523810e+00 3.12979433603279e-01 2.71580766322557e-03
1.18861904761905e+00 3.10414020520215e-01 2.70538703958774e-03
1.19900000000000e+00 3.07869635482803e-01 2.69490361232461e-03
1.20938095238095e+00 3.05346106108908e-01 2.68436018308755e-03
1.21976190476190e+00 3.02843261470597e-01 2.67375948358659e-03
1.23014285714286e+00 3.00360932020150e-01 2.66310418828274e-03
1.24052380952381e+00 2.97898949599578e-01 2.65239690484151e-03
1.25090476190476e+00 2.95457147410181e-01 2.64164016620229e-03
1.26128571428571e+00 2.93035360059046e-01 2.63083644249677e-03
1.27166666666667e+00 2.90633423489456e-01 2.61998815299286e-03
1.28204761904762e+00 2.88251174989398e-01 2.60909765686941e-03
1.29242857142857e+00 2.85888453162719e-01 2.59816724552131e-03
1.30280952380952e+00 2.83545097972330e-01 2.58719915378815e-03
1.31319047619048e+00 2.81220950674684e-01 2.57619557121586e-03
1.32357142857143e+00 2.78915853827370e-01 2.56515862859253e-03
1.33395238095238e+00 2.76629651278547e-01 2.55409040878249e-03
1.34433333333333e+00 2.74362188139839e-01 2.54299293447961e-03
1.35471428571429e+00 2.72113310825710e-01 2.53186817859875e-03
1.36509523809524e+00 2.69882866992710e-01 2.52071807471147e-03
1.37547619047619e+00 2.67670705546137e-01 2.50954450859977e-03
1.38585714285714e+00 2.65476676614315e-01 2.49834931116260e-03
1.39623809523810e+00 2.63300631585261e-01 2.48713426824263e-03
1.40661904761905e+00 2.61142423049340e-01 2.47590113049928e-03
1.41700000000000e+00 2.59001904805215e-01 2.46465160527556e-03
1.42738095238095e+00 2.56878931835397e-01 2.45338734974872e-03
1.43776190476190e+00 2.54773360340419e-01 2.44210998023426e-03
1.44814285714286e+00 2.52685047684681e-01 2.43082108153892e-03
1.45852380952381e+00 2.50613852401728e-01 2.41952219913461e-03
1.46890476190476e+00 2.48559634171013e-01 2.40821483255039e-03
1.47928571428571e+00 2.46522253849768e-01 2.39690044419259e-03
1.48966666666667e+00 2.44501573421810e-01 2.38558046821487e-03
1.50004761904762e+00 2.42497456002224e-01 2.37425630299114e-03
1.51042857142857e+00 2.40509765815258e-01 2.36292930474619e-03
1.52080952380952e+00 2.38538368224063e-01 2.35160079592552e-03
1.53119047619048e+00 2.36583129682267e-01 2.34027207361544e-03
1.54157142857143e+00 2.34643917738119e-01 2.32894439875012e-03
1.55195238095238e+00 2.32720601025573e-01 2.31761900423361e-03
1.56233333333333e+00 2.30813049243437e-01 2.30629708507784e-03
1.57271428571429e+00 2.28921133182619e-01 2.29497980621314e-03
1.58309523809524e+00 2.27044724680967e-01 2.28366831035382e-03
1.59347619047619e+00 2.25183696626864e-01 2.27236371115058e-03
1.60385714285714e+00 2.23337922939357e-01 2.26106708737257e-03
1.61423809523810e+00 2.21507278593627e-01 2.24977949033403e-03
1.62461904761905e+00 2.19691639578201e-01 2.23850195137630e-03
1.63500000000000e+00 2.17890882898103e-01 2.22723547528834e-03
1.64538095238095e+00 2.16104886555921e-01 2.21598103470660e-03
1.65576190476190e+00 2.14333529575621e-01 2.20473957718275e-03
1.66614285714286e+00 2.12576691961982e-01 2.19351203230487e-03
1.67652380952381e+00 2.10834254703350e-01 2.18229930537738e-03
1.68690476190476e+00 2.09106099753580e-01 2.17110227203267e-03
1.69728571428571e+00 2.07392110054322e-01 2.15992178496132e-03
1.70766666666667e+00 2.05692169496535e-01 2.14875868069464e-03
1.71804761904762e+00 2.04006162922883e-01 2.13761377353399e-03
1.72842857142857e+00 2.02333976110503e-01 2.12648785036851e-03
1.73880952380952e+00 2.00675495791870e-01 2.11538167708720e-03
1.74919047619048e+00 1.99030609618263e-01 2.10429600504271e-03
1.75957142857143e+00 1.97399206161842e-01 2.09323156242069e-03
1.76995238095238e+00 1.95781174908129e-01 2.08218906048370e-03
1.78033333333333e+00 1.94176406239708e-01 2.07116918565659e-03
1.79071428571429e+00 1.92584791455415e-01 2.06017260554140e-03
1.80109523809524e+00 1.91006222736123e-01 2.04919997498540e-03
1.81147619047619e+00 1.89440593146483e-01 2.03825193056430e-03
1.82185714285714e+00 1.87887796619349e-01 2.02732908585916e-03
1.83223809523810e+00 1.86347727973764e-01 2.01643203719522e-03
1.84261904761905e+00 1.84820282882444e-01 2.00556136943186e-03
1.85300000000000e+00 1.83305357873255e-01 1.99471765066429e-03
1.86338095238095e+00 1.81802850314326e-01 1.98390142768294e-03
1.87376190476190e+00 1.80312658430917e-01 1.97311323145050e-03
1.88414285714286e+00 1.78834681274499e-01 1.96235358262934e-03
1.89452380952381e+00 1.77368818723994e-01 1.95162298649393e-03
1.90490476190476e+00 1.75914971471536e-01 1.94092192856476e-03
1.91528571428571e+00 1.74473041038302e-01 1.93025087983855e-03
1.92566666666667e+00 1.73042929745096e-01 1.91961030206751e-03
1.93604761904762e+00 1.71624540713363e-01 1.90900064287333e-03
1.94642857142857e+00 1.70217777851584e-01 1.89842233155017e-03
1.95680952380952e+00 1.68822545870122e-01 1.88787578406076e-03
1.96719047619048e+00 1.67438750253229e-01 1.87736140808015e-03
1.97757142857143e+00 1.66066297259865e-01 1.86687959608077e-03
1.98795238095238e+00 1.64705093917377e-01 1.85643073020876e-03
1.99833333333333e+00 1.63355048008591e-01 1.84601517592593e-03
2.00871428571429e+00 1.62016068085505e-01 1.83563328671236e-03
2.01909523809524e+00 1.60688063442988e-01 1.82528540881625e-03
2.02947619047619e+00 1.59370944119405e-01 1.81497187681119e-03
2.03985714285714e+00 1.58064620884261e-01 1.80469300977235e-03
2.05023809523810e+00 1.56769005251065e-01 1.79444911577252e-03
2.06061904761905e+00 1.55484009452272e-01 1.78424049642422e-03
2.07100000000000e+00 1.54209546439748e-01 1.77406744261287e-03
2.08138095238095e+00 1.52945529872944e-01 1.76393023082041e-03
2.09176190476190e+00 1.51691874130978e-01 1.75382912742568e-03
2.10214285714286e+00 1.50448494288752e-01 1.74376439304928e-03
2.11252380952381e+00 1.49215306117280e-01 1.73373627845492e-03
2.12290476190476e+00 1.47992226072352e-01 1.72374502101539e-03
2.13328571428571e+00 1.46779171305898e-01 1.71379084882673e-03
2.14366666666667e+00 1.45576059643214e-01 1.70387398486566e-03
2.15404761904762e+00 1.44382809583157e-01 1.69399464305233e-03
2.16442857142857e+00 1.43199340287290e-01 1.68415302485322e-03
2.17480952380952e+00 1.42025571590561e-01 1.67434932321828e-03
2.18519047619048e+00 1.40861423979584e-01 1.66458372655974e-03
2.19557142857143e+00 1.39706818592716e-01 1.65485641319535e-03
2.20595238095238e+00 1.38561677214735e-01 1.64516755519755e-03
2.21633333333333e+00 1.37425922266523e-01 1.63551731327305e-03
2.22671428571429e+00 1.36299476814941e-01 1.62590584047785e-03
2.23709523809524e+00 1.35182264552368e-01 1.61633328597317e-03
2.24747619047619e+00 1.34074209796663e-01 1.60679979144129e-03
2.25785714285714e+00 1.32975237481279e-01 1.59730548798813e-03
2.26823809523810e+00 1.31885273164550e-01 1.58785049970089e-03
2.27861904761905e+00 1.30804243010161e-01 1.57843494724511e-03
2.28900000000000e+00 1.29732073787015e-01 1.56905894442093e-03
2.29938095238095e+00 1.28668692859761e-01 1.55972259518514e-03
2.30976190476190e+00 1.27614028197520e-01 1.55042599705852e-03
2.32014285714286e+00 1.26568008355247e-01 1.54116924457162e-03
2.33052380952381e+00 1.25530562473513e-01 1.53195242595601e-03
2.34090476190476e+00 1.24501620269415e-01 1.52277562028060e-03
2.35128571428571e+00 1.23481112044795e-01 1.51363890071632e-03
2.36166666666667e+00 1.22468968668432e-01 1.50454233783759e-03
2.37204761904762e+00 1.21465121575755e-01 1.49548599644258e-03
2.38242857142857e+00 1.20469502760122e-01 1.48646993280002e-03
2.39280952380952e+00 1.19482044780547e-01 1.47749419777741e-03
2.40319047619048e+00 1.18502680744703e-01 1.46855884000470e-03
2.41357142857143e+00 1.17531344308555e-01 1.45966390139444e-03
2.42395238095238e+00 1.16567969671878e-01 1.45080942020412e-03
2.43433333333333e+00 1.15612491569967e-01 1.44199542690095e-03
2.44471428571429e+00 1.14664845280790e-01 1.43322194711864e-03
2.45509523809524e+00 1.13724966608936e-01 1.42448900464950e-03
2.46547619047619e+00 1.12792791885192e-01 1.41579661854615e-03
2.47585714285714e+00 1.11868257958580e-01 1.40714480060887e-03
2.48623809523810e+00 1.10951302203098e-01 1.39853355822089e-03
2.49661904761905e+00 1.10041862502373e-01 1.38996289721653e-03
2.50700000000000e+00 1.09139877249188e-01 1.38143281909555e-03
2.51738095238095e+00 1.08245285337832e-01 1.37294331860697e-03
2.52776190476190e+00 1.07358026170457e-01 1.36449438646735e-03
2.53814285714286e+00 1.06478039642396e-01 1.35608601211139e-03
2.54852380952381e+00 1.05605266141645e-01 1.34771818101434e-03
2.55890476190476e+00 1.04739646541523e-01 1.33939087236791e-03
2.56928571428571e+00 1.03881122206651e-01 1.33110406168737e-03
2.57966666666667e+00 1.03029634978919e-01 1.32285772344972e-03
2.59004761904762e+00 1.02185127176919e-01 1.31465182851961e-03
2.60042857142857e+00 1.01347541588903e-01 1.30648634191401e-03
2.61080952380952e+00 1.00516821478409e-01 1.29836122530277e-03
2.62119047619048e+00 9.96929105708406e-02 1.29027643953954e-03
2.63157142857143e+00 9.88757530528644e-02 1.28223194103937e-03
2.64195238095238e+00 9.80652935686404e-02 1.27422768422896e-03
2.65233333333333e+00 9.72614772131083e-02 1.26626361819840e-03
2.66271428571429e+00 9.64642495372074e-02 1.25833968906812e-03
2.67309523809524e+00 9.56735565351808e-02 1.25045584238549e-03
2.68347619047619e+00 9.48893446439456e-02 1.24261202077578e-03
2.69385714285714e+00 9.41115607366440e-02 1.23480816190020e-03
2.70423809523810e+00 9.33401521275620e-02 1.22704420072747e-03
2.71461904761905e+00 9.25750665599778e-02 1.21932007183347e-03
2.72500000000000e+00 9.18162522055055e-02 1.21163570714240e-03
2.73538095238095e+00 9.10636576578984e-02 1.20399103396273e-03
2.74576190476190e+00 9.03172319376837e-02 1.19638597716673e-03
2.75614285714286e+00 8.95769244805305e-02 1.18882046139784e-03
2.76652380952381e+00 8.88426851365699e-02 1.18129440889866e-03
2.77690476190476e+00 8.81144641644397e-02 1.17380773762085e-03
2.78728571428571e+00 8.73922122356531e-02 1.16636036331778e-03
2.79766666666667e+00 8.66758804234595e-02 1.15895220166306e-03
2.80804761904762e+00 8.59654202021468e-02 1.15158316616151e-03
2.81842857142857e+00 8.52607834413160e-02 1.14425316633105e-03
2.82880952380952e+00 8.45619224099991e-02 1.13696210971114e-03
2.83919047619048e+00 8.38687897659913e-02 1.12970990389674e-03
2.84957142857143e+00 8.31813385551373e-02 1.12249645360141e-03
2.85995238095238e+00 8.24995222081565e-02 1.11532166262742e-03
2.87033333333333e+00 8.18232945351852e-02 1.10818543114706e-03
2.88071428571429e+00 8.11526097295963e-02 1.10108765760646e-03
2.89109523809524e+00 8.04874223578954e-02 1.09402824065383e-03
2.90147619047619e+00 7.98276873589974e-02 1.08700707723093e-03
2.91185714285714e+00 7.91733600389780e-02 1.08002406091050e-03
2.92223809523810e+00 7.85243960746746e-02 1.07307908372422e-03
2.93261904761905e+00 7.78807515040059e-02 1.06617203801451e-03
2.94300000000000e+00 7.72423827252375e-02 1.05930281459849e-03
2.95338095238095e+00 7.66092464919353e-02 1.05247130116824e-03
2.96376190476190e+00 7.59812999163594e-02 1.04567738404619e-03
2.97414285714286e+00 7.53585004601883e-02 1.03892094996351e-03
2.98452380952381e+00 7.47408059337759e-02 1.03220188429419e-03
2.99490476190476e+00 7.41281744912976e-02 1.02552006951508e-03
3.00528571428571e+00 7.35205646339507e-02 1.01887538689220e-03
3.01566666666667e+00 7.29179352010631e-02 1.01226771818882e-03
3.02604761904762e+00 7.23202453693451e-02 1.00569694396645e-03
3.03642857142857e+00 7.17274546482199e-02 9.99162942102863e-04
3.04680952380952e+00 7.11395228828413e-02 9.92665589411853e-04
3.05719047619048e+00 7.05564102455700e-02 9.86204763284190e-04
3.06757142857143e+00 6.99780772352218e-02 9.79780339300363e-04
3.07795238095238e+00 6.94044846743963e-02 9.73392192820313e-04
3.08833333333333e+00 6.88355937050223e-02 9.67040196771600e-04
3.09871428571429e+00 6.82713657911576e-02 9.60724223185954e-04
3.10909523809524e+00 6.77117627109067e-02 9.54444144756478e-04
3.11947619047619e+00 6.71567465556704e-02 9.48199833283543e-04
3.12985714285714e+00 6.66062797258608e-02 9.41991158318578e-04
3.14023809523810e+00 6.60603249335398e-02 9.35817988640509e-04
3.15061904761905e+00 6.55188451946693e-02 9.29680193751928e-04
3.16100000000000e+00 6.49818038283606e-02 9.23577642383779e-04
3.17138095238095e+00 6.44491644527496e-02 9.17510201189660e-04
3.18176190476190e+00 6.39208909874863e-02 9.11477736164689e-04
3.19214285714286e+00 6.33969476463005e-02 9.05480114083221e-04
3.20252380952381e+00 6.28772989362528e-02 8.99517201059702e-04
3.21290476190476e+00 6.23619096537650e-02 8.93588861291959e-04
3.22328571428571e+00 6.18507448869671e-02 8.87694958424674e-04
3.23366666666667e+00 6.13437700085658e-02 8.81835356931008e-04
3.24404761904762e+00 6.08409506750983e-02 8.76009920727688e-04
3.25442857142857e+00 6.03422528231108e-02 8.70218511965163e-04
3.26480952380952e+00 5.98476426713720e-02 8.64460992337843e-04
3.27519047619048e+00 5.93570867140311e-02 8.58737224412252e-04
