Energy (eV)          EEDF (eV^-(3/2))     First Anisotropy
1.42857142857143e-03 1.00622225838892e+00 -4.28667282155595e-04
4.28571428571429e-03 1.00669168359570e+00 -4.73062108616741e-04
7.14285714285714e-03 1.00682095919438e+00 -1.35032917299615e-04
1.00000000000000e-02 1.00682415830351e+00 8.33776384161362e-05
1.28571428571429e-02 1.00675177818359e+00 2.76253337625441e-04
1.57142857142857e-02 1.00662186483683e+00 4.63920118979839e-04
1.85714285714286e-02 1.00644426798907e+00 6.51164449913289e-04
2.14285714285714e-02 1.00622454186556e+00 8.40051716110091e-04
2.42857142857143e-02 1.00596674421264e+00 1.03222822429531e-03
2.71428571428571e-02 1.00567297655681e+00 1.22976499920867e-03
3.00000000000000e-02 1.00534471736031e+00 1.43028661118645e-03
3.28571428571429e-02 1.00498433200227e+00 1.63048458802744e-03
3.57142857142857e-02 1.00459405707973e+00 1.83210430144527e-03
3.85714285714286e-02 1.00417471959197e+00 2.03757170960165e-03
4.14285714285714e-02 1.00372701692282e+00 2.24861118788666e-03
4.42857142857143e-02 1.00325077758557e+00 2.46524291878743e-03
4.71428571428571e-02 1.00274653453129e+00 2.68544392218624e-03
5.00000000000000e-02 1.00221478360031e+00 2.90545673152291e-03
5.28571428571429e-02 1.00165732299326e+00 3.12111799512374e-03
5.57142857142857e-02 1.00107594715743e+00 3.33527151255260e-03
5.85714285714286e-02 1.00047110202530e+00 3.55121604172671e-03
6.14285714285714e-02 9.99843211168568e-01 3.76871408705880e-03
6.42857142857143e-02 9.99192705969390e-01 3.98759570166811e-03
6.71428571428571e-02 9.98519978559527e-01 4.20777019390197e-03
7.00000000000000e-02 9.97825409204069e-01 4.42473261233559e-03
7.28571428571429e-02 9.97110789533240e-01 4.63369841220129e-03
7.57142857142857e-02 9.96377892803373e-01 4.83863139401155e-03
7.85714285714286e-02 9.95627054329093e-01 5.04381543390852e-03
8.14285714285714e-02 9.94858596907395e-01 5.24914669008165e-03
8.42857142857143e-02 9.94072842483362e-01 5.45455146768331e-03
8.71428571428571e-02 9.93270093786323e-01 5.65999043830708e-03
9.00000000000000e-02 9.92450645094466e-01 5.86538269330951e-03
9.28571428571429e-02 9.91614786458378e-01 6.07065046143349e-03
9.57142857142857e-02 9.90762800407955e-01 6.27574410889684e-03
9.85714285714286e-02 9.89894958903480e-01 6.48061880652803e-03
1.01428571428571e-01 9.89011526912715e-01 6.67659631715008e-03
1.04285714285714e-01 9.88115158805915e-01 6.86340092352170e-03
1.07142857142857e-01 9.87206083862116e-01 7.04961234332686e-03
1.10000000000000e-01 9.86284524321811e-01 7.23521181772599e-03
1.12857142857143e-01 9.85350695904201e-01 7.42018074919206e-03
1.15714285714286e-01 9.84404808267823e-01 7.60450076282562e-03
1.18571428571429e-01 9.83447065420730e-01 7.78815376209807e-03
1.21428571428571e-01 9.82477666087065e-01 7.97112197392989e-03
1.24285714285714e-01 9.81496804035752e-01 8.15338798526656e-03
1.27142857142857e-01 9.80504668376115e-01 8.33493477248234e-03
1.30000000000000e-01 9.79501443824573e-01 8.51574572463982e-03
1.32857142857143e-01 9.78487310945934e-01 8.69580466160673e-03
1.35714285714286e-01 9.77462446372317e-01 8.87509584784833e-03
1.38571428571429e-01 9.76427023002315e-01 9.05360400243740e-03
1.41428571428571e-01 9.75381210182686e-01 9.23131430593540e-03
1.44285714285714e-01 9.74325173874489e-01 9.40821240468458e-03
1.47142857142857e-01 9.73259076805399e-01 9.58428441284067e-03
1.50000000000000e-01 9.72183078609670e-01 9.75951691241286e-03
1.52857142857143e-01 9.71097335957072e-01 9.93389695177544e-03
1.55714285714286e-01 9.70002002671904e-01 1.01074120428696e-02
1.58571428571429e-01 9.68897229843114e-01 1.02800501571040e-02
1.61428571428571e-01 9.67783165926423e-01 1.04517997204573e-02
1.64285714285714e-01 9.66659956839177e-01 1.06226496077253e-02
1.67142857142857e-01 9.65527746048695e-01 1.07925891359781e-02
1.70000000000000e-01 9.64386674654682e-01 1.09616080489112e-02
1.72857142857143e-01 9.63236881468221e-01 1.11296964883307e-02
1.75714285714286e-01 9.62078503088583e-01 1.12968449177272e-02
1.78571428571429e-01 9.60911673987974e-01 1.14630439723555e-02
1.81428571428571e-01 9.59736526610580e-01 1.16282841801244e-02
1.84285714285714e-01 9.58553191507706e-01 1.17925556513491e-02
1.87142857142857e-01 9.57361797492698e-01 1.19558482370215e-02
1.90000000000000e-01 9.56162471728442e-01 1.21181518906995e-02
1.92857142857143e-01 9.54955339792833e-01 1.22794584485316e-02
1.95714285714286e-01 9.53740525373750e-01 1.24397626747323e-02
1.98571428571429e-01 9.52518150112406e-01 1.25990613549000e-02
2.01428571428571e-01 9.51288333499266e-01 1.27485384512921e-02
2.04285714285714e-01 9.50053074540055e-01 1.28881801474317e-02
2.07142857142857e-01 9.48812464239258e-01 1.30268841359764e-02
2.10000000000000e-01 9.47566591910923e-01 1.31646543891289e-02
2.12857142857143e-01 9.46315545235995e-01 1.33014948010740e-02
2.15714285714286e-01 9.45059410316454e-01 1.34374091947986e-02
2.18571428571429e-01 9.43798271726729e-01 1.35724013267744e-02
2.21428571428571e-01 9.42532212562622e-01 1.37064748912899e-02
2.24285714285714e-01 9.41261314487841e-01 1.38396335245665e-02
2.27142857142857e-01 9.39985657778330e-01 1.39718808087082e-02
2.30000000000000e-01 9.38705321364481e-01 1.41032202755393e-02
2.32857142857143e-01 9.37420382871380e-01 1.42336554101077e-02
2.35714285714286e-01 9.36130918657182e-01 1.43631896539847e-02
2.38571428571429e-01 9.34837003849758e-01 1.44918264083159e-02
2.41428571428571e-01 9.33538712381689e-01 1.46195690366942e-02
2.44285714285714e-01 9.32236117023716e-01 1.47464208678285e-02
2.47142857142857e-01 9.30929289416733e-01 1.48723851979649e-02
2.50000000000000e-01 9.29618300102411e-01 1.49974652932414e-02
2.52857142857143e-01 9.28303218552514e-01 1.51216643917703e-02
2.55714285714286e-01 9.26984113197012e-01 1.52449857056420e-02
2.58571428571429e-01 9.25661051451013e-01 1.53674324228319e-02
2.61428571428571e-01 9.24334099740618e-01 1.54890077088409e-02
2.64285714285714e-01 9.23003323527731e-01 1.56097147083536e-02
2.67142857142857e-01 9.21668787333900e-01 1.57295565467009e-02
2.70000000000000e-01 9.20330554763216e-01 1.58485363294095e-02
2.72857142857143e-01 9.18988688524699e-01 1.59666571389204e-02
2.75714285714286e-01 9.17643250454365e-01 1.60839220206636e-02
2.78571428571429e-01 9.16294301538872e-01 1.62003339525565e-02
2.81428571428571e-01 9.14941901942031e-01 1.63158957837311e-02
2.84285714285714e-01 9.13586111038749e-01 1.64306101598864e-02
2.87142857142857e-01 9.12226987454195e-01 1.65444795610190e-02
2.90000000000000e-01 9.10864589088775e-01 1.66575063821819e-02
2.92857142857143e-01 9.09498973140472e-01 1.67696933430448e-02
2.95714285714286e-01 9.08130196050980e-01 1.68810437465977e-02
2.98571428571429e-01 9.06758313479252e-01 1.69915612969194e-02
3.01428571428571e-01 9.05383380282580e-01 1.70971098932095e-02
3.04285714285714e-01 9.04006234314063e-01 1.71977394375437e-02
3.07142857142857e-01 9.02626915226863e-01 1.72976657369283e-02
3.10000000000000e-01 9.01245462287310e-01 1.73968910178430e-02
3.12857142857143e-01 8.99861914378200e-01 1.74954175242693e-02
3.15714285714286e-01 8.98476310002314e-01 1.75932475156013e-02
3.18571428571429e-01 8.97088687285964e-01 1.76903832655232e-02
3.21428571428571e-01 8.95699083982598e-01 1.77868270606614e-02
3.24285714285714e-01 8.94307537476461e-01 1.78825811994709e-02
3.27142857142857e-01 8.92914084786272e-01 1.79776479912565e-02
3.30000000000000e-01 8.91518762568935e-01 1.80720297552501e-02
3.32857142857143e-01 8.90121607123242e-01 1.81657288199108e-02
3.35714285714286e-01 8.88722654393585e-01 1.82587475220632e-02
3.38571428571429e-01 8.87321939973671e-01 1.83510882061961e-02
3.41428571428571e-01 8.85919499110228e-01 1.84427532238043e-02
3.44285714285714e-01 8.84515366706696e-01 1.85337449327499e-02
3.47142857142857e-01 8.83109577326909e-01 1.86240656966241e-02
3.50000000000000e-01 8.81702165198769e-01 1.87137178841735e-02
3.52857142857143e-01 8.80293164217884e-01 1.88027038687927e-02
3.55714285714286e-01 8.78882607951194e-01 1.88910260280224e-02
3.58571428571429e-01 8.77470529640570e-01 1.89786867430381e-02
3.61428571428571e-01 8.76056962206389e-01 1.90656883981553e-02
3.64285714285714e-01 8.74641938251079e-01 1.91520333804733e-02
3.67142857142857e-01 8.73225490062632e-01 1.92377240793917e-02
3.70000000000000e-01 8.71807649618098e-01 1.93227628855811e-02
3.72857142857143e-01 8.70388448587148e-01 1.94071521890399e-02
3.75714285714286e-01 8.68967918335783e-01 1.94908943730289e-02
3.78571428571429e-01 8.67546089930843e-01 1.95739918016351e-02
3.81428571428571e-01 8.66122994145776e-01 1.96564467971412e-02
3.84285714285714e-01 8.64698661468991e-01 1.97382616144302e-02
3.87142857142857e-01 8.63273122113925e-01 1.98194384477577e-02
3.90000000000000e-01 8.61846406025918e-01 1.98999794554113e-02
3.92857142857143e-01 8.60418542887718e-01 1.99798869282014e-02
3.95714285714286e-01 8.58989562096434e-01 2.00591633783872e-02
3.98571428571429e-01 8.57559492753613e-01 2.01378114613020e-02
4.01428571428571e-01 8.56128363656268e-01 2.02115747704341e-02
4.04285714285714e-01 8.54696958394690e-01 2.02805227638168e-02
4.07142857142857e-01 8.53265291684828e-01 2.03490023854210e-02
4.10000000000000e-01 8.51833378283797e-01 2.04170138338498e-02
4.12857142857143e-01 8.50401232982606e-01 2.04845573714090e-02
4.15714285714286e-01 8.48968870599274e-01 2.05516333215794e-02
4.18571428571429e-01 8.47536305972260e-01 2.06182420664002e-02
4.21428571428571e-01 8.46103553954277e-01 2.06843840439482e-02
4.24285714285714e-01 8.44670629406391e-01 2.07500597459915e-02
4.27142857142857e-01 8.43237547192450e-01 2.08152697157766e-02
4.30000000000000e-01 8.41804322173781e-01 2.08800145461319e-02
4.32857142857143e-01 8.40370969204137e-01 2.09442948774639e-02
4.35714285714286e-01 8.38937503124923e-01 2.10081113958686e-02
4.38571428571429e-01 8.37503938760647e-01 2.10714648314443e-02
4.41428571428571e-01 8.36070290914593e-01 2.11343559564851e-02
4.44285714285714e-01 8.34636574364736e-01 2.11967855838967e-02
4.47142857142857e-01 8.33202803859835e-01 2.12587545656263e-02
4.50000000000000e-01 8.31768994115751e-01 2.13202637910686e-02
4.52857142857143e-01 8.30335159811936e-01 2.13813141857002e-02
4.55714285714286e-01 8.28901315588105e-01 2.14419067096620e-02
4.58571428571429e-01 8.27467476041083e-01 2.15020423563359e-02
4.61428571428571e-01 8.26033655721821e-01 2.15617221510346e-02
4.64285714285714e-01 8.24599869132561e-01 2.16209471498361e-02
4.67142857142857e-01 8.23166130724150e-01 2.16797184383750e-02
4.70000000000000e-01 8.21732454893493e-01 2.17380371302537e-02
4.72857142857143e-01 8.20298855981214e-01 2.17959043652027e-02
4.75714285714286e-01 8.18865348269502e-01 2.18533213054854e-02
4.78571428571429e-01 8.17431945980441e-01 2.19102891292703e-02
4.81428571428571e-01 8.15998663275029e-01 2.19668090184631e-02
4.84285714285714e-01 8.14565514253598e-01 2.20228821431453e-02
4.87142857142857e-01 8.13132512957444e-01 2.20785096652845e-02
4.90000000000000e-01 8.11699673368593e-01 2.21336927578649e-02
4.92857142857143e-01 8.10267009408238e-01 2.21884326649220e-02
4.95714285714286e-01 8.08834534926543e-01 2.22427307521537e-02
4.98571428571429e-01 8.07402263692800e-01 2.22965884909138e-02
5.01428571428571e-01 8.05970209388092e-01 2.23484381947191e-02
5.04285714285714e-01 8.04538648738231e-01 2.23982666306672e-02
5.07142857142857e-01 8.03107596026609e-01 2.24476359454713e-02
5.10000000000000e-01 8.01677065401731e-01 2.24965484050181e-02
5.12857142857143e-01 8.00247070878071e-01 2.25450062694525e-02
5.15714285714286e-01 7.98817626336889e-01 2.25930117933449e-02
5.18571428571429e-01 7.97388745527069e-01 2.26405672253602e-02
5.21428571428571e-01 7.95960442065970e-01 2.26876748081540e-02
5.24285714285714e-01 7.94532729440280e-01 2.27343367781350e-02
5.27142857142857e-01 7.93105621006888e-01 2.27805553653017e-02
5.30000000000000e-01 7.91679129993755e-01 2.28263327931871e-02
5.32857142857143e-01 7.90253269500794e-01 2.28716712785429e-02
5.35714285714286e-01 7.88828052500767e-01 2.29165730314341e-02
5.38571428571429e-01 7.87403491840148e-01 2.29610402551379e-02
5.41428571428571e-01 7.85979600240030e-01 2.30050751458741e-02
5.44285714285714e-01 7.84556390297017e-01 2.30486798928992e-02
5.47142857142857e-01 7.83133874484102e-01 2.30918566783326e-02
5.50000000000000e-01 7.81712065151580e-01 2.31346076770665e-02
5.52857142857143e-01 7.80290974527931e-01 2.31769350567962e-02
5.55714285714286e-01 7.78870614720715e-01 2.32188409778288e-02
5.58571428571429e-01 7.77450997717472e-01 2.32603275930315e-02
5.61428571428571e-01 7.76032135386616e-01 2.33013970478736e-02
5.64285714285714e-01 7.74614039478322e-01 2.33420514803245e-02
5.67142857142857e-01 7.73196721625420e-01 2.33822930207288e-02
5.70000000000000e-01 7.71780193344287e-01 2.34221237916350e-02
5.72857142857143e-01 7.70364466035764e-01 2.34615459073216e-02
5.75714285714286e-01 7.68949550986109e-01 2.35005614722611e-02
5.78571428571429e-01 7.67535459368151e-01 2.35391725777109e-02
5.81428571428571e-01 7.66122202242771e-01 2.35773812951035e-02
5.84285714285714e-01 7.64709790561085e-01 2.36151896695237e-02
5.87142857142857e-01 7.63298235166935e-01 2.36525997261828e-02
5.90000000000000e-01 7.61887546797968e-01 2.36896134657495e-02
5.92857142857143e-01 7.60477736088874e-01 2.37262329072391e-02
5.95714285714286e-01 7.59068813565578e-01 2.37624601417872e-02
5.98571428571429e-01 7.57660789639925e-01 2.37982972929489e-02
6.01428571428571e-01 7.56253674610347e-01 2.38338391317417e-02
6.04285714285714e-01 7.54847467745287e-01 2.38692707797452e-02
6.07142857142857e-01 7.53442157634727e-01 2.39046799726161e-02
6.10000000000000e-01 7.52037733449856e-01 2.39400594597419e-02
6.12857142857143e-01 7.50634184925556e-01 2.39754021817867e-02
6.15714285714286e-01 7.49231502343416e-01 2.40107012656911e-02
6.18571428571429e-01 7.47829676515260e-01 2.40459500202237e-02
6.21428571428571e-01 7.46428698767131e-01 2.40811419317826e-02
6.24285714285714e-01 7.45028560923743e-01 2.41162706599672e-02
6.27142857142857e-01 7.43629255293391e-01 2.41513300335841e-02
6.30000000000000e-01 7.42230774653271e-01 2.41863140467031e-02
6.32857142857143e-01 7.40833112235239e-01 2.42212168547394e-02
6.35714285714286e-01 7.39436261711954e-01 2.42560327706242e-02
6.38571428571429e-01 7.38040217183446e-01 2.42907562611271e-02
6.41428571428571e-01 7.36644973164028e-01 2.43253819433102e-02
6.44285714285714e-01 7.35250524569613e-01 2.43599045809609e-02
6.47142857142857e-01 7.33856866705365e-01 2.43943190811925e-02
6.50000000000000e-01 7.32463995253715e-01 2.44286204911378e-02
6.52857142857143e-01 7.31071906262698e-01 2.44628039946949e-02
6.55714285714286e-01 7.29680596134635e-01 2.44968649092799e-02
6.58571428571429e-01 7.28290061615125e-01 2.45307986828621e-02
6.61428571428571e-01 7.26900299782339e-01 2.45646008909431e-02
6.64285714285714e-01 7.25511308036620e-01 2.45982672334970e-02
6.67142857142857e-01 7.24123084090383e-01 2.46317935321836e-02
6.70000000000000e-01 7.22735625958278e-01 2.46651757275252e-02
6.72857142857143e-01 7.21348931947649e-01 2.46984098758067e-02
6.75714285714286e-01 7.19963000649295e-01 2.47314921455500e-02
6.78571428571429e-01 7.18577830928588e-01 2.47644188132864e-02
6.81428571428571e-01 7.17193421916986e-01 2.47971862574742e-02
6.84285714285714e-01 7.15809773004189e-01 2.48297909509526e-02
6.87142857142857e-01 7.14426883830905e-01 2.48622294555808e-02
6.90000000000000e-01 7.13044754281900e-01 2.48944984348395e-02
6.92857142857143e-01 7.11663384476875e-01 2.49265946815073e-02
6.95714285714286e-01 7.10282774759355e-01 2.49585150998648e-02
6.98571428571429e-01 7.08902925690495e-01 2.49902567112515e-02
7.01428571428571e-01 7.07523838037180e-01 2.50213107915585e-02
7.04285714285714e-01 7.06145588950383e-01 2.50516876550216e-02
7.07142857142857e-01 7.04768177923416e-01 2.50820135380118e-02
7.10000000000000e-01 7.03391592726465e-01 2.51123915804195e-02
7.12857142857143e-01 7.02015821715081e-01 2.51428132758563e-02
7.15714285714286e-01 7.00640853815080e-01 2.51732703010986e-02
7.18571428571429e-01 6.99266678507816e-01 2.52037545126493e-02
7.21428571428571e-01 6.97893285815799e-01 2.52342579431892e-02
7.24285714285714e-01 6.96520666288677e-01 2.52647727982900e-02
7.27142857142857e-01 6.95148810989525e-01 2.52952914532017e-02
7.30000000000000e-01 6.93777711481477e-01 2.53258064495709e-02
7.32857142857143e-01 6.92407359814676e-01 2.53563104923739e-02
7.35714285714286e-01 6.91037748513521e-01 2.53867964468824e-02
7.38571428571429e-01 6.89668870564221e-01 2.54172573357064e-02
7.41428571428571e-01 6.88300719402642e-01 2.54476863357888e-02
7.44285714285714e-01 6.86933288902439e-01 2.54780767755658e-02
7.47142857142857e-01 6.85566573363471e-01 2.55084221322256e-02
7.50000000000000e-01 6.84200567500472e-01 2.55387160289416e-02
7.52857142857143e-01 6.82835266432003e-01 2.55689522321310e-02
7.55714285714286e-01 6.81470665669661e-01 2.55991246488583e-02
7.58571428571429e-01 6.80106761107521e-01 2.56292273242586e-02
7.61428571428571e-01 6.78743549011853e-01 2.56592544389967e-02
7.64285714285714e-01 6.77381026011048e-01 2.56892003068089e-02
7.67142857142857e-01 6.76019189085797e-01 2.57190593720414e-02
7.70000000000000e-01 6.74658035559494e-01 2.57488262071883e-02
7.72857142857143e-01 6.73297563088867e-01 2.57784955104533e-02
7.75714285714286e-01 6.71937769654842e-01 2.58080621028095e-02
7.78571428571429e-01 6.70578653553697e-01 2.58375209242439e-02
7.81428571428571e-01 6.69220213388568e-01 2.58668670285553e-02
7.84285714285714e-01 6.67862448061451e-01 2.58960955778171e-02
7.87142857142857e-01 6.66505356765601e-01 2.59252018427475e-02
7.90000000000000e-01 6.65148938977532e-01 2.59541811983901e-02
7.92857142857143e-01 6.63793194450126e-01 2.59830291436770e-02
7.95714285714286e-01 6.62438123201783e-01 2.60117413202447e-02
7.98571428571429e-01 6.61083725506809e-01 2.60403135008168e-02
8.01428571428571e-01 6.59730001886409e-01 2.60686952322330e-02
8.04285714285714e-01 6.58376957921568e-01 2.60967521043663e-02
8.07142857142857e-01 6.57024608103286e-01 2.61243599684538e-02
8.10000000000000e-01 6.55672970824484e-01 2.61514825221467e-02
8.12857142857143e-01 6.54322064236816e-01 2.61781233628803e-02
8.15714285714286e-01 6.52971906254206e-01 2.62042860512404e-02
8.18571428571429e-01 6.51622514556293e-01 2.62299741118025e-02
8.21428571428571e-01 6.50273906591806e-01 2.62551910340324e-02
8.24285714285714e-01 6.48926099581849e-01 2.62799402731789e-02
8.27142857142857e-01 6.47579110523124e-01 2.63042252511138e-02
8.30000000000000e-01 6.46232956191058e-01 2.63280493571398e-02
8.32857142857143e-01 6.44887653142883e-01 2.63514159487105e-02
8.35714285714286e-01 6.43543217720632e-01 2.63743283522606e-02
8.38571428571429e-01 6.42199666054069e-01 2.63967898639626e-02
8.41428571428571e-01 6.40857014063550e-01 2.64188037504421e-02
8.44285714285714e-01 6.39515277462827e-01 2.64403732494709e-02
8.47142857142857e-01 6.38174471761783e-01 2.64615015707166e-02
8.50000000000000e-01 6.36834612269101e-01 2.64821918963892e-02
8.52857142857143e-01 6.35495714094890e-01 2.65024473818714e-02
8.55714285714286e-01 6.34157792153231e-01 2.65222711564535e-02
8.58571428571429e-01 6.32820861164681e-01 2.65416663238945e-02
8.61428571428571e-01 6.31484935658719e-01 2.65606359630192e-02
8.64285714285714e-01 6.30150029976136e-01 2.65791831283652e-02
8.67142857142857e-01 6.28816158271373e-01 2.65973108507617e-02
8.70000000000000e-01 6.27483334514809e-01 2.66150221378506e-02
8.72857142857143e-01 6.26151572495001e-01 2.66323199745093e-02
8.75714285714286e-01 6.24820885820896e-01 2.66492073229408e-02
8.78571428571429e-01 6.23491287924042e-01 2.66656871224778e-02
8.81428571428571e-01 6.22162792060804e-01 2.66817622880722e-02
8.84285714285714e-01 6.20835411314783e-01 2.66974357084696e-02
8.87142857142857e-01 6.19509158599268e-01 2.67127102511568e-02
8.90000000000000e-01 6.18184046658903e-01 2.67275887629005e-02
8.92857142857143e-01 6.16860088072061e-01 2.67420740726082e-02
8.95714285714286e-01 6.15537295252096e-01 2.67561690152604e-02
8.98571428571429e-01 6.14215680446217e-01 2.67698764110591e-02
9.01428571428571e-01 6.12895255739788e-01 2.67832371390128e-02
