Energy (eV)          EEDF (eV^-(3/2))     First Anisotropy
1.68181818181818e-04 6.89817464000525e+01 2.46804413909893e-02
5.04545454545455e-04 6.86219759524430e+01 4.07852594992009e-02
8.40909090909091e-04 6.82640818675263e+01 5.39229153597614e-02
1.17727272727273e-03 6.79080543591866e+01 6.39536095347125e-02
1.51363636363636e-03 6.75538836918452e+01 7.23607561832039e-02
1.85000000000000e-03 6.72015601829442e+01 7.97038663088391e-02
2.18636363636364e-03 6.68510741972304e+01 8.62718275161966e-02
2.52272727272727e-03 6.65024161521937e+01 9.22387026567207e-02
2.85909090909091e-03 6.61555765134315e+01 9.77196794603433e-02
3.19545454545455e-03 6.58105457971790e+01 1.02795992060717e-01
3.53181818181818e-03 6.54673145697760e+01 1.07527642954601e-01
3.86818181818182e-03 6.51258734454737e+01 1.11960544739721e-01
4.20454545454545e-03 6.47862130881003e+01 1.16130822218748e-01
4.54090909090909e-03 6.44483242106735e+01 1.20067549458145e-01
4.87727272727273e-03 6.41121975736647e+01 1.23794568641306e-01
5.21363636363636e-03 6.37778239862188e+01 1.27331742820978e-01
5.55000000000000e-03 6.34451943058050e+01 1.30695845022153e-01
5.88636363636364e-03 6.31142994367907e+01 1.33901205275210e-01
6.22272727272727e-03 6.27851303317005e+01 1.36960192008750e-01
6.55909090909091e-03 6.24576779895871e+01 1.39883577014366e-01
6.89545454545455e-03 6.21319334567750e+01 1.42680816751399e-01
7.23181818181818e-03 6.18078878265668e+01 1.45360272519692e-01
7.56818181818182e-03 6.14855322381566e+01 1.47929384910325e-01
7.90454545454546e-03 6.11648578772289e+01 1.50394813741105e-01
8.24090909090909e-03 6.08458559756839e+01 1.52762551588534e-01
8.57727272727273e-03 6.05285178106642e+01 1.55038016650529e-01
8.91363636363636e-03 6.02128347050486e+01 1.57226129443025e-01
9.25000000000000e-03 5.98987980271842e+01 1.59331376733448e-01
9.58636363636364e-03 5.95863991900081e+01 1.61357865086788e-01
9.92272727272727e-03 5.92756296516484e+01 1.63309366140584e-01
1.02590909090909e-02 5.89664809142121e+01 1.65189355022557e-01
1.05954545454545e-02 5.86589445253961e+01 1.67001043378108e-01
1.09318181818182e-02 5.83530120743474e+01 1.68747407439546e-01
1.12681818181818e-02 5.80486751975492e+01 1.70431212543095e-01
1.16045454545455e-02 5.77459255733038e+01 1.72055034587708e-01
1.19409090909091e-02 5.74447549218349e+01 1.73621278088958e-01
1.22772727272727e-02 5.71451550096421e+01 1.75132192627849e-01
1.26136363636364e-02 5.68471176445707e+01 1.76589887293528e-01
1.29500000000000e-02 5.65506346758452e+01 1.77996342840537e-01
1.32863636363636e-02 5.62556979979874e+01 1.79353423120141e-01
1.36227272727273e-02 5.59622995450656e+01 1.80662884900616e-01
1.39590909090909e-02 5.56704312958812e+01 1.81926386639656e-01
1.42954545454545e-02 5.53800852697018e+01 1.83145496629257e-01
1.46318181818182e-02 5.50912535262433e+01 1.84321699686073e-01
1.49681818181818e-02 5.48039281690593e+01 1.85456403723590e-01
1.53045454545455e-02 5.45181013416380e+01 1.86550945663151e-01
1.56409090909091e-02 5.42337652273714e+01 1.87606596253571e-01
1.59772727272727e-02 5.39509120526346e+01 1.88624564964574e-01
1.63136363636364e-02 5.36695340832096e+01 1.89606004417503e-01
1.66500000000000e-02 5.33896236242234e+01 1.90552013919380e-01
1.69863636363636e-02 5.31111730229734e+01 1.91463643239986e-01
1.73227272727273e-02 5.28341746646679e+01 1.92341895783889e-01
1.76590909090909e-02 5.25586209761939e+01 1.93187731500381e-01
1.79954545454545e-02 5.22845044229322e+01 1.94002069811619e-01
1.83318181818182e-02 5.20118175086739e+01 1.94785791781013e-01
1.86681818181818e-02 5.17405527781240e+01 1.95539742578360e-01
1.90045454545455e-02 5.14707028139390e+01 1.96264733743140e-01
1.93409090909091e-02 5.12022602366399e+01 1.96961544826841e-01
1.96772727272727e-02 5.09352177069203e+01 1.97630925359997e-01
2.00136363636364e-02 5.06695679228915e+01 1.98273596665769e-01
2.03500000000000e-02 5.04053036199786e+01 1.98890253113281e-01
2.06863636363636e-02 5.01424175730656e+01 1.99481563756365e-01
2.10227272727273e-02 4.98809025931726e+01 2.00048173620918e-01
2.13590909090909e-02 4.96207515303345e+01 2.00590704904145e-01
2.16954545454545e-02 4.93619572711019e+01 2.01109758319496e-01
2.20318181818182e-02 4.91045127384288e+01 2.01605913900217e-01
2.23681818181818e-02 4.88484108936020e+01 2.02079732155106e-01
2.27045454545455e-02 4.85936447338919e+01 2.02531755143697e-01
2.30409090909091e-02 4.83402072924403e+01 2.02962507094272e-01
2.33772727272727e-02 4.80880916400564e+01 2.03372495371844e-01
2.37136363636364e-02 4.78372908830101e+01 2.03762211381257e-01
2.40500000000000e-02 4.75877981629105e+01 2.04132131041612e-01
2.43863636363636e-02 4.73396066583886e+01 2.04482715645580e-01
2.47227272727273e-02 4.70927095824173e+01 2.04814412464067e-01
2.50590909090909e-02 4.68471001845836e+01 2.05127655313742e-01
2.53954545454545e-02 4.66027717490627e+01 2.05422865292635e-01
2.57318181818182e-02 4.63597175944929e+01 2.05700451078512e-01
2.60681818181818e-02 4.61179310755055e+01 2.05960809564622e-01
2.64045454545455e-02 4.58774055808066e+01 2.06204326456749e-01
2.67409090909091e-02 4.56381345330526e+01 2.06431376496116e-01
2.70772727272727e-02 4.54001113902859e+01 2.06642324011363e-01
2.74136363636364e-02 4.51633296441180e+01 2.06837523438046e-01
2.77500000000000e-02 4.49277828196016e+01 2.07017319481445e-01
2.80863636363636e-02 4.46934644765821e+01 2.07182047634749e-01
2.84227272727273e-02 4.44603682074835e+01 2.07332034492545e-01
2.87590909090909e-02 4.42284876391446e+01 2.07467598045211e-01
2.90954545454545e-02 4.39978164311377e+01 2.07589048137143e-01
2.94318181818182e-02 4.37683482756383e+01 2.07696686552538e-01
2.97681818181818e-02 4.35400768986649e+01 2.07790807409862e-01
3.01045454545455e-02 4.33129960584775e+01 2.07871697534917e-01
3.04409090909091e-02 4.30870995454494e+01 2.07939636513143e-01
3.07772727272727e-02 4.28623811832356e+01 2.07994897041572e-01
3.11136363636364e-02 4.26388348272495e+01 2.08037745262342e-01
3.14500000000000e-02 4.24164543645310e+01 2.08068440787943e-01
3.17863636363636e-02 4.21952337148541e+01 2.08087237048329e-01
3.21227272727273e-02 4.19751668288619e+01 2.08094381464910e-01
3.24590909090909e-02 4.17562476895791e+01 2.08090115612659e-01
3.27954545454545e-02 4.15384703109904e+01 2.08074675535031e-01
3.31318181818182e-02 4.13218287379105e+01 2.08048291733269e-01
3.34681818181818e-02 4.11063170470042e+01 2.08011189434577e-01
3.38045454545455e-02 4.08919293454277e+01 2.07963588847330e-01
3.41409090909091e-02 4.06786597707000e+01 2.07905705134925e-01
3.44772727272727e-02 4.04665024916693e+01 2.07837748660171e-01
3.48136363636364e-02 4.02554517072139e+01 2.07759925218172e-01
3.51500000000000e-02 4.00455016461130e+01 2.07672435997643e-01
3.54863636363636e-02 3.98366465679642e+01 2.07575477832442e-01
3.58227272727273e-02 3.96288807615928e+01 2.07469243302657e-01
3.61590909090909e-02 3.94221985463134e+01 2.07353920827250e-01
3.64954545454545e-02 3.92165942707122e+01 2.07229694896865e-01
3.68318181818182e-02 3.90120623125187e+01 2.07096746017883e-01
3.71681818181818e-02 3.88085970794567e+01 2.06955250908014e-01
3.75045454545455e-02 3.86061930080756e+01 2.06805382683421e-01
3.78409090909091e-02 3.84048445636249e+01 2.06647310795723e-01
3.81772727272727e-02 3.82045462408614e+01 2.06481201213095e-01
3.85136363636364e-02 3.80052925629298e+01 2.06307216593753e-01
3.88500000000000e-02 3.78070780812359e+01 2.06125516217301e-01
3.91863636363636e-02 3.76098973762158e+01 2.05936256177979e-01
3.95227272727273e-02 3.74137450559643e+01 2.05739589445153e-01
3.98590909090909e-02 3.72186157572977e+01 2.05535665917026e-01
4.01954545454545e-02 3.70245041447000e+01 2.05324632602286e-01
4.05318181818182e-02 3.68314049101983e+01 2.05106633543467e-01
4.08681818181818e-02 3.66393127740784e+01 2.04881809967386e-01
4.12045454545455e-02 3.64482224838709e+01 2.04650300429728e-01
4.15409090909091e-02 3.62581288142283e+01 2.04412240735509e-01
4.18772727272727e-02 3.60690265676071e+01 2.04167764080037e-01
4.22136363636364e-02 3.58809105732923e+01 2.03917001184606e-01
4.25500000000000e-02 3.56937756872751e+01 2.03660080214724e-01
4.28863636363636e-02 3.55076167929039e+01 2.03397126935124e-01
4.32227272727273e-02 3.53224287996892e+01 2.03128264746433e-01
4.35590909090909e-02 3.51382066442089e+01 2.02853614715991e-01
4.38954545454545e-02 3.49549452891868e+01 2.02573295725454e-01
4.42318181818182e-02 3.47726397233728e+01 2.02287424385671e-01
4.45681818181818e-02 3.45912849621501e+01 2.01996115157171e-01
4.49045454545455e-02 3.44108760466470e+01 2.01699480466520e-01
4.52409090909091e-02 3.42314080436188e+01 2.01397630620399e-01
4.55772727272727e-02 3.40528760460276e+01 2.01090673919600e-01
4.59136363636364e-02 3.38752751721864e+01 2.00778716769176e-01
4.62500000000000e-02 3.36986005656413e+01 2.00461863592102e-01
4.65863636363636e-02 3.35228473957261e+01 2.00140216957758e-01
4.69227272727273e-02 3.33480108565139e+01 1.99813877604022e-01
4.72590909090909e-02 3.31740861675933e+01 1.99482944454120e-01
4.75954545454545e-02 3.30010685732572e+01 1.99147514740189e-01
4.79318181818182e-02 3.28289533423876e+01 1.98807683916127e-01
4.82681818181818e-02 3.26577357689746e+01 1.98463545757092e-01
4.86045454545455e-02 3.24874111713330e+01 1.98115192455969e-01
4.89409090909091e-02 3.23179748919890e+01 1.97762714536604e-01
4.92772727272727e-02 3.21494222981761e+01 1.97406200948572e-01
4.96136363636364e-02 3.19817487810794e+01 1.97045739159111e-01
4.99500000000000e-02 3.18149497557224e+01 1.96681415066933e-01
5.02863636363636e-02 3.16490206614425e+01 1.96313313111136e-01
5.06227272727273e-02 3.14839569609656e+01 1.95941516284199e-01
5.09590909090909e-02 3.13197541410750e+01 1.95566106140156e-01
5.12954545454545e-02 3.11564077118940e+01 1.95187162900182e-01
5.16318181818182e-02 3.09939132067747e+01 1.94804765366947e-01
5.19681818181818e-02 3.08322661827440e+01 1.94418991008686e-01
5.23045454545455e-02 3.06714622198095e+01 1.94029916041025e-01
5.26409090909091e-02 3.05114969208500e+01 1.93637615342239e-01
5.29772727272727e-02 3.03523659120429e+01 1.93242162533752e-01
5.33136363636364e-02 3.01940648421926e+01 1.92843630058567e-01
5.36500000000000e-02 3.00365893826221e+01 1.92442089097529e-01
5.39863636363636e-02 2.98799352275832e+01 1.92037609663403e-01
5.43227272727273e-02 2.97240980934344e+01 1.91630260607979e-01
5.46590909090909e-02 2.95690737192218e+01 1.91220109624699e-01
5.49954545454545e-02 2.94148578660394e+01 1.90807223340454e-01
5.53318181818182e-02 2.92614463169237e+01 1.90391667233147e-01
5.56681818181818e-02 2.91088348772385e+01 1.89973505704038e-01
5.60045454545455e-02 2.89570193740558e+01 1.89552802148365e-01
5.63409090909091e-02 2.88059956560519e+01 1.89129618874096e-01
5.66772727272727e-02 2.86557595938763e+01 1.88704017171488e-01
5.70136363636364e-02 2.85063070795524e+01 1.88276057381043e-01
5.73500000000000e-02 2.83576340263742e+01 1.87845798813528e-01
5.76863636363636e-02 2.82097363692609e+01 1.87413299832332e-01
5.80227272727273e-02 2.80626100640246e+01 1.86978617856721e-01
5.83590909090909e-02 2.79162510878751e+01 1.86541809360919e-01
5.86954545454546e-02 2.77706554388490e+01 1.86102929954918e-01
5.90318181818182e-02 2.76258191357083e+01 1.85662034306124e-01
5.93681818181818e-02 2.74817382182744e+01 1.85219176202441e-01
5.97045454545455e-02 2.73384087468739e+01 1.84774408614107e-01
6.00409090909091e-02 2.71958268022388e+01 1.84327783616671e-01
6.03772727272727e-02 2.70539884858277e+01 1.83879352451838e-01
6.07136363636364e-02 2.69128899192876e+01 1.83429165587127e-01
6.10500000000000e-02 2.67725272443561e+01 1.82977272640210e-01
6.13863636363636e-02 2.66328966231695e+01 1.82523722451766e-01
6.17227272727273e-02 2.64939942376064e+01 1.82068563086192e-01
6.20590909090909e-02 2.63558162897300e+01 1.81611841828439e-01
6.23954545454545e-02 2.62183590012746e+01 1.81153605255798e-01
6.27318181818182e-02 2.60816186135499e+01 1.80693899164035e-01
6.30681818181818e-02 2.59455913877312e+01 1.80232768623057e-01
6.34045454545455e-02 2.58102736043610e+01 1.79770258031535e-01
6.37409090909091e-02 2.56756615632547e+01 1.79306411044398e-01
6.40772727272727e-02 2.55417515837797e+01 1.78841270626656e-01
6.44136363636364e-02 2.54085400043716e+01 1.78374879106248e-01
6.47500000000000e-02 2.52760231824407e+01 1.77907278102913e-01
6.50863636363636e-02 2.51441974946409e+01 1.77438508593202e-01
6.54227272727273e-02 2.50130593362796e+01 1.76968610909506e-01
6.57590909090909e-02 2.48826051217062e+01 1.76497624735427e-01
6.60954545454546e-02 2.47528312838487e+01 1.76025589170056e-01
6.64318181818182e-02 2.46237342741234e+01 1.75552542658715e-01
6.67681818181818e-02 2.44953105626876e+01 1.75078523042422e-01
6.71045454545455e-02 2.43675566379905e+01 1.74603567606616e-01
6.74409090909091e-02 2.42404690066834e+01 1.74127713013206e-01
6.77772727272727e-02 2.41140441938634e+01 1.73650995348523e-01
6.81136363636364e-02 2.39882787426367e+01 1.73173450170541e-01
6.84500000000000e-02 2.38631692140298e+01 1.72695112442276e-01
6.87863636363636e-02 2.37387121872244e+01 1.72216016590133e-01
6.91227272727273e-02 2.36149042590258e+01 1.71736196501841e-01
6.94590909090909e-02 2.34917420442041e+01 1.71255685520938e-01
6.97954545454545e-02 2.33692221750761e+01 1.70774516504684e-01
7.01318181818182e-02 2.32473413014193e+01 1.70292721759321e-01
7.04681818181818e-02 2.31260960906926e+01 1.69810333084330e-01
7.08045454545455e-02 2.30054832276307e+01 1.69327381816156e-01
7.11409090909091e-02 2.28854994141581e+01 1.68843898764755e-01
7.14772727272727e-02 2.27661413696029e+01 1.68359914256564e-01
7.18136363636364e-02 2.26474058303015e+01 1.67875458176951e-01
7.21500000000000e-02 2.25292895495140e+01 1.67390559908020e-01
7.24863636363636e-02 2.24117892976302e+01 1.66905248381251e-01
7.28227272727273e-02 2.22949018616892e+01 1.66419552074730e-01
7.31590909090909e-02 2.21786240456799e+01 1.65933499007179e-01
7.34954545454545e-02 2.20629526701628e+01 1.65447116790348e-01
7.38318181818182e-02 2.19478845721876e+01 1.64960432568563e-01
7.41681818181818e-02 2.18334166054874e+01 1.64473473058616e-01
7.45045454545455e-02 2.17195456401102e+01 1.63986264589221e-01
7.48409090909091e-02 2.16062685623380e+01 1.63498833041812e-01
7.51772727272727e-02 2.14935822748739e+01 1.63011203889283e-01
7.55136363636364e-02 2.13814836964832e+01 1.62523402234357e-01
7.58500000000000e-02 2.12699697619137e+01 1.62035452751571e-01
7.61863636363636e-02 2.11590374220763e+01 1.61547379735017e-01
7.65227272727273e-02 2.10486836436092e+01 1.61059207095124e-01
7.68590909090909e-02 2.09389054091444e+01 1.60570958352388e-01
7.71954545454546e-02 2.08296997169637e+01 1.60082656685031e-01
7.75318181818182e-02 2.07210635809204e+01 1.59594324872698e-01
7.78681818181818e-02 2.06129940306104e+01 1.59105985332476e-01
7.82045454545455e-02 2.05054881110365e+01 1.58617660154687e-01
7.85409090909091e-02 2.03985428825324e+01 1.58129371047723e-01
7.88772727272727e-02 2.02921554209268e+01 1.57641139373124e-01
7.92136363636364e-02 2.01863228172166e+01 1.57152986180377e-01
7.95500000000000e-02 2.00810421774922e+01 1.56664932152882e-01
7.98863636363636e-02 1.99763106230955e+01 1.56176997651407e-01
8.02227272727273e-02 1.98721252902242e+01 1.55689202710586e-01
8.05590909090909e-02 1.97684833301685e+01 1.55201567032599e-01
8.08954545454545e-02 1.96653819089972e+01 1.54714110030604e-01
8.12318181818182e-02 1.95628182074839e+01 1.54226850776305e-01
8.15681818181818e-02 1.94607894212576e+01 1.53739808032709e-01
8.19045454545455e-02 1.93592927604967e+01 1.53253000286635e-01
8.22409090909091e-02 1.92583254498568e+01 1.52766445697350e-01
8.25772727272727e-02 1.91578847286155e+01 1.52280162128471e-01
8.29136363636364e-02 1.90579678503746e+01 1.51794167179653e-01
8.32500000000000e-02 1.89585720829885e+01 1.51308478136267e-01
8.35863636363636e-02 1.88596947087040e+01 1.50823112009051e-01
8.39227272727273e-02 1.87613330238003e+01 1.50338085530502e-01
8.42590909090909e-02 1.86634843387986e+01 1.49853415148599e-01
8.45954545454545e-02 1.85661459781759e+01 1.49369117066485e-01
8.49318181818182e-02 1.84693152802954e+01 1.48885207193706e-01
8.52681818181818e-02 1.83729895975387e+01 1.48401701176038e-01
8.56045454545455e-02 1.82771662960272e+01 1.47918614425119e-01
8.59409090909091e-02 1.81818427555528e+01 1.47435962070704e-01
8.62772727272727e-02 1.80870163697061e+01 1.46953758989700e-01
8.66136363636364e-02 1.79926845456046e+01 1.46472019835084e-01
8.69500000000000e-02 1.78988447038241e+01 1.45990758989139e-01
8.72863636363636e-02 1.78054942785229e+01 1.45509990599682e-01
8.76227272727273e-02 1.77126307171130e+01 1.45029728576415e-01
8.79590909090909e-02 1.76202514804464e+01 1.44549986584797e-01
8.82954545454546e-02 1.75283540425541e+01 1.44070778082407e-01
8.86318181818182e-02 1.74369358905793e+01 1.43592116273564e-01
8.89681818181818e-02 1.73459945248950e+01 1.43114014136561e-01
8.93045454545455e-02 1.72555274588484e+01 1.42636484450799e-01
8.96409090909091e-02 1.71655322186959e+01 1.42159539752335e-01
8.99772727272727e-02 1.70760063437160e+01 1.41683192360437e-01
9.03136363636364e-02 1.69869473859605e+01 1.41207454404059e-01
9.06500000000000e-02 1.68983529101898e+01 1.40732337778284e-01
9.09863636363636e-02 1.68102204939828e+01 1.40257854177570e-01
9.13227272727273e-02 1.67225477274356e+01 1.39784015092146e-01
9.16590909090909e-02 1.66353322133288e+01 1.39310831802036e-01
9.19954545454545e-02 1.65485715668874e+01 1.38838315410449e-01
9.23318181818182e-02 1.64622634157182e+01 1.38366476801579e-01
9.26681818181818e-02 1.63764053999135e+01 1.37895326665542e-01
9.30045454545455e-02 1.62909951718168e+01 1.37424875523194e-01
9.33409090909091e-02 1.62060303959619e+01 1.36955133684831e-01
9.36772727272727e-02 1.61215087491718e+01 1.36486111274503e-01
9.40136363636364e-02 1.60374279203314e+01 1.36017818254263e-01
9.43500000000000e-02 1.59537856103258e+01 1.35550264383683e-01
9.46863636363636e-02 1.58705795321378e+01 1.35083459250370e-01
9.50227272727273e-02 1.57878074105722e+01 1.34617412266430e-01
9.53590909090909e-02 1.57054669824046e+01 1.34152132662719e-01
9.56954545454546e-02 1.56235559961620e+01 1.33687629519549e-01
9.60318181818182e-02 1.55420722120629e+01 1.33223911727438e-01
9.63681818181818e-02 1.54610134021093e+01 1.32760988009958e-01
9.67045454545455e-02 1.53803773498717e+01 1.32298866946561e-01
9.70409090909091e-02 1.53001618504314e+01 1.31837556934134e-01
9.73772727272727e-02 1.52203647104681e+01 1.31377066209289e-01
9.77136363636364e-02 1.51409837480511e+01 1.30917402870693e-01
9.80500000000000e-02 1.50620167925811e+01 1.30458574841376e-01
9.83863636363636e-02 1.49834616848763e+01 1.30000589896782e-01
9.87227272727273e-02 1.49053162769201e+01 1.29543455661362e-01
9.90590909090909e-02 1.48275784319937e+01 1.29087179603066e-01
9.93954545454546e-02 1.47502460244745e+01 1.28631769061610e-01
9.97318181818182e-02 1.46733169397801e+01 1.28177231211965e-01
1.00068181818182e-01 1.45967890744490e+01 1.27723573109707e-01
1.00404545454545e-01 1.45206603357620e+01 1.27270801596196e-01
1.00740909090909e-01 1.44449286425490e+01 1.26818923463061e-01
1.01077272727273e-01 1.43695919235912e+01 1.26367945391455e-01
1.01413636363636e-01 1.42946481189248e+01 1.25917873740280e-01
1.01750000000000e-01 1.42200951797682e+01 1.25468714917650e-01
1.02086363636364e-01 1.41459310671453e+01 1.25020475142375e-01
1.02422727272727e-01 1.40721537535857e+01 1.24573160495865e-01
1.02759090909091e-01 1.39987612213297e+01 1.24126776994783e-01
1.03095454545455e-01 1.39257514635740e+01 1.23681330349017e-01
1.03431818181818e-01 1.38531224844018e+01 1.23236826319958e-01
1.03768181818182e-01 1.37808722974636e+01 1.22793270546729e-01
1.04104545454545e-01 1.37089989271915e+01 1.22350668370250e-01
1.04440909090909e-01 1.36375004087313e+01 1.21909025184446e-01
1.04777272727273e-01 1.35663747866543e+01 1.21468346265899e-01
1.05113636363636e-01 1.34956201161422e+01 1.21028636601301e-01
1.05450000000000e-01 1.34252344629197e+01 1.20589901231746e-01
1.05786363636364e-01 1.33552159019977e+01 1.20152145031535e-01
1.06122727272727e-01 1.32855625192212e+01 1.19715372756112e-01
