Energy (eV)          EEDF (eV^-(3/2))     First Anisotropy
8.39189189189189e-04 1.47372056767702e+01 8.41277028742038e-03
2.51756756756757e-03 1.46002367610716e+01 1.38739602685596e-02
4.19594594594595e-03 1.44645408468007e+01 1.82678022113955e-02
5.87432432432432e-03 1.43301061026020e+01 2.15771319196447e-02
7.55270270270270e-03 1.41969208072108e+01 2.43134994816093e-02
9.23108108108108e-03 1.40649733479099e+01 2.66710113489212e-02
1.09094594594595e-02 1.39342522197688e+01 2.87504609860435e-02
1.25878378378378e-02 1.38047460263439e+01 3.06129174145739e-02
1.42662162162162e-02 1.36764434749209e+01 3.22990156934461e-02
1.59445945945946e-02 1.35493333787890e+01 3.38375691098268e-02
1.76229729729730e-02 1.34234046551791e+01 3.52499754968009e-02
1.93013513513514e-02 1.32986463243348e+01 3.65526960896269e-02
2.09797297297297e-02 1.31750475090759e+01 3.77587521273942e-02
2.26581081081081e-02 1.30525974322125e+01 3.88786788718607e-02
2.43364864864865e-02 1.29312854172826e+01 3.99211609480826e-02
2.60148648648649e-02 1.28111008870426e+01 4.08934710162704e-02
2.76932432432432e-02 1.26920333625620e+01 4.18017816011615e-02
2.93716216216216e-02 1.25740724626585e+01 4.26513926717440e-02
3.10500000000000e-02 1.24572079018967e+01 4.34469011866578e-02
3.27283783783784e-02 1.23414294908083e+01 4.41923299026553e-02
3.44067567567568e-02 1.22267271346261e+01 4.48912269884478e-02
3.60851351351351e-02 1.21130908326825e+01 4.55467441239436e-02
3.77635135135135e-02 1.20005106766926e+01 4.61616984679169e-02
3.94418918918919e-02 1.18889768507469e+01 4.67386224674634e-02
4.11202702702703e-02 1.17784796301625e+01 4.72798044386232e-02
4.27986486486487e-02 1.16690093806407e+01 4.77873217623874e-02
4.44770270270270e-02 1.15605565576382e+01 4.82630684596805e-02
4.61554054054054e-02 1.14531117048845e+01 4.87087781136968e-02
4.78337837837838e-02 1.13466654542169e+01 4.91260431369976e-02
4.95121621621622e-02 1.12412085245397e+01 4.95163311765969e-02
5.11905405405405e-02 1.11367317210182e+01 4.98809990027072e-02
5.28689189189189e-02 1.10332259344462e+01 5.02213044962657e-02
5.45472972972973e-02 1.09306821399310e+01 5.05384168998955e-02
5.62256756756757e-02 1.08290913966337e+01 5.08334256931587e-02
5.79040540540541e-02 1.07284448468127e+01 5.11073483857115e-02
5.95824324324324e-02 1.06287337151964e+01 5.13611373274480e-02
6.12608108108108e-02 1.05299493077769e+01 5.15956856315334e-02
6.29391891891892e-02 1.04320830114985e+01 5.18118323924333e-02
6.46175675675676e-02 1.03351262933544e+01 5.20103673785800e-02
6.62959459459460e-02 1.02390706996456e+01 5.21920351279097e-02
6.79743243243243e-02 1.01439078553640e+01 5.23575386656645e-02
6.96527027027027e-02 1.00496294630931e+01 5.25075427622078e-02
7.13310810810811e-02 9.95622730265771e+00 5.26426768511474e-02
7.30094594594595e-02 9.86369323028131e+00 5.27635377086912e-02
7.46878378378378e-02 9.77201917798281e+00 5.28706918662411e-02
7.63662162162162e-02 9.68119715255121e+00 5.29646777445280e-02
7.80445945945946e-02 9.59121923517355e+00 5.30460075851140e-02
7.97229729729730e-02 9.50207758063444e+00 5.31151692673647e-02
8.14013513513513e-02 9.41376441663293e+00 5.31726279028951e-02
8.30797297297297e-02 9.32627204319557e+00 5.32188273474526e-02
8.47581081081081e-02 9.23959283172910e+00 5.32541915286227e-02
8.64364864864865e-02 9.15371922463404e+00 5.32791256601948e-02
8.81148648648649e-02 9.06864373455148e+00 5.32940174136223e-02
8.97932432432433e-02 8.98435894371112e+00 5.32992379407627e-02
9.14716216216216e-02 8.90085750336293e+00 5.32951428680765e-02
9.31500000000000e-02 8.81813213289726e+00 5.32820731640308e-02
9.48283783783784e-02 8.73617561945147e+00 5.32603559390773e-02
9.65067567567568e-02 8.65498081719989e+00 5.32303052286338e-02
9.81851351351351e-02 8.57454064680150e+00 5.31922227164550e-02
9.98635135135135e-02 8.49484809456877e+00 5.31463983980242e-02
1.01541891891892e-01 8.41589621186905e+00 5.30931110480341e-02
1.03220270270270e-01 8.33767811532399e+00 5.30326289500593e-02
1.04898648648649e-01 8.26018698504169e+00 5.29652105576368e-02
1.06577027027027e-01 8.18341606390670e+00 5.28911045599588e-02
1.08255405405405e-01 8.10735865885056e+00 5.28105506763666e-02
1.09933783783784e-01 8.03200813778976e+00 5.27237800090997e-02
1.11612162162162e-01 7.95735793147692e+00 5.26310153502362e-02
1.13290540540541e-01 7.88340153110851e+00 5.25324719068016e-02
1.14968918918919e-01 7.81013248783495e+00 5.24283571479522e-02
1.16647297297297e-01 7.73754441384846e+00 5.23188713957904e-02
1.18325675675676e-01 7.66563098014653e+00 5.22042083803558e-02
1.20004054054054e-01 7.59438591604703e+00 5.20845550547005e-02
1.21682432432432e-01 7.52380301017283e+00 5.19600921901142e-02
1.23360810810811e-01 7.45387610787060e+00 5.18309945715059e-02
1.25039189189189e-01 7.38459911267586e+00 5.16974311614626e-02
1.26717567567568e-01 7.31596598428159e+00 5.15595656385749e-02
1.28395945945946e-01 7.24797073807208e+00 5.14175561748288e-02
1.30074324324324e-01 7.18060744596964e+00 5.12715559391040e-02
1.31752702702703e-01 7.11387023409202e+00 5.11217132334665e-02
1.33431081081081e-01 7.04775328403317e+00 5.09681716035512e-02
1.35109459459459e-01 6.98225083101462e+00 5.08110702997041e-02
1.36787837837838e-01 6.91735716343229e+00 5.06505440350764e-02
1.38466216216216e-01 6.85306662359008e+00 5.04867233553680e-02
1.40144594594595e-01 6.78937360595547e+00 5.03197349893739e-02
1.41822972972973e-01 6.72627255671765e+00 5.01497016037208e-02
1.43501351351351e-01 6.66375797445208e+00 4.99767422003889e-02
1.45179729729730e-01 6.60182440810920e+00 4.98009721942884e-02
1.46858108108108e-01 6.54046645804447e+00 4.96225034706328e-02
1.48536486486486e-01 6.47967877442089e+00 4.94414447546783e-02
1.50214864864865e-01 6.41945605678239e+00 4.92579013630426e-02
1.51893243243243e-01 6.35979305463047e+00 4.90719754974594e-02
1.53571621621622e-01 6.30068456591202e+00 4.88837665243899e-02
1.55250000000000e-01 6.24212543660278e+00 4.86933707290279e-02
1.56928378378378e-01 6.18411056123119e+00 4.85008816399791e-02
1.58606756756757e-01 6.12663488113629e+00 4.83063900726504e-02
1.60285135135135e-01 6.06969338530221e+00 4.81099841561483e-02
1.61963513513514e-01 6.01328110896622e+00 4.79117496386762e-02
1.63641891891892e-01 5.95739313321841e+00 4.77117696456735e-02
1.65320270270270e-01 5.90202458545635e+00 4.75101249203989e-02
1.66998648648649e-01 5.84717063806407e+00 4.73068940536699e-02
1.68677027027027e-01 5.79282650802087e+00 4.71021532474091e-02
1.70355405405405e-01 5.73898745731496e+00 4.68959765863365e-02
1.72033783783784e-01 5.68564879142385e+00 4.66884360607957e-02
1.73712162162162e-01 5.63280585999393e+00 4.64796015756689e-02
1.75390540540541e-01 5.58045405561940e+00 4.62695412080758e-02
1.77068918918919e-01 5.52858881346756e+00 4.60583209785604e-02
1.78747297297297e-01 5.47720561163744e+00 4.58460050525722e-02
1.80425675675676e-01 5.42629996999852e+00 4.56326559333827e-02
1.82104054054054e-01 5.37586744982416e+00 4.54183342397617e-02
1.83782432432432e-01 5.32590365411837e+00 4.52030989373850e-02
1.85460810810811e-01 5.27640422628198e+00 4.49870073490002e-02
1.87139189189189e-01 5.22736485066857e+00 4.47701151526110e-02
1.88817567567568e-01 5.17878125150713e+00 4.45524766023549e-02
1.90495945945946e-01 5.13064919255176e+00 4.43341443152827e-02
1.92174324324324e-01 5.08296447736438e+00 4.41151694828306e-02
1.93852702702703e-01 5.03572294807965e+00 4.38956018753597e-02
1.95531081081081e-01 4.98892048589839e+00 4.36754898356860e-02
1.97209459459459e-01 4.94255301008794e+00 4.34548804815681e-02
1.98887837837838e-01 4.89661647764557e+00 4.32338195019967e-02
2.00566216216216e-01 4.85110688354388e+00 4.30123513136292e-02
2.02244594594595e-01 4.80602025977605e+00 4.27905192111174e-02
2.03922972972973e-01 4.76135267502846e+00 4.25683651701394e-02
2.05601351351351e-01 4.71710023490287e+00 4.23459300310795e-02
2.07279729729730e-01 4.67325908082398e+00 4.21232534977154e-02
2.08958108108108e-01 4.62982539044479e+00 4.19003741262210e-02
2.10636486486487e-01 4.58679537675800e+00 4.16773295017801e-02
2.12314864864865e-01 4.54416528778225e+00 4.14541560511219e-02
2.13993243243243e-01 4.50193140675414e+00 4.12308891782715e-02
2.15671621621622e-01 4.46009005127849e+00 4.10075633952235e-02
2.17350000000000e-01 4.41863757302282e+00 4.07842121409336e-02
2.19028378378378e-01 4.37757035789089e+00 4.05608679422084e-02
2.20706756756757e-01 4.33688482505258e+00 4.03375624087606e-02
2.22385135135135e-01 4.29657742727723e+00 4.01143262196851e-02
2.24063513513514e-01 4.25664465014098e+00 3.98911892786744e-02
2.25741891891892e-01 4.21708301173433e+00 3.96681805421489e-02
2.27420270270270e-01 4.17788906281122e+00 3.94453281380423e-02
2.29098648648649e-01 4.13905938603015e+00 3.92226594803164e-02
2.30777027027027e-01 4.10059059566922e+00 3.90002011031359e-02
2.32455405405405e-01 4.06247933776047e+00 3.87779788027390e-02
2.34133783783784e-01 4.02472228922533e+00 3.85560176302912e-02
2.35812162162162e-01 3.98731615814893e+00 3.83343418770768e-02
2.37490540540541e-01 3.95025768307062e+00 3.81129752117405e-02
2.39168918918919e-01 3.91354363271165e+00 3.78919405230703e-02
2.40847297297297e-01 3.87717080608954e+00 3.76712600246160e-02
2.42525675675676e-01 3.84113603183824e+00 3.74509553556947e-02
2.44204054054054e-01 3.80543616794252e+00 3.72310474297675e-02
2.45882432432432e-01 3.77006810184062e+00 3.70115565601903e-02
2.47560810810811e-01 3.73502874965145e+00 3.67925024517962e-02
2.49239189189189e-01 3.70031505640015e+00 3.65739041856227e-02
2.50917567567568e-01 3.66592399538134e+00 3.63557803408323e-02
2.52595945945946e-01 3.63185256790560e+00 3.61381488510869e-02
2.54274324324324e-01 3.59809780338579e+00 3.59210271217634e-02
2.55952702702703e-01 3.56465675861457e+00 3.57044320209439e-02
2.57631081081081e-01 3.53152651796491e+00 3.54883798639863e-02
2.59309459459459e-01 3.49870419279373e+00 3.52728865272969e-02
2.60987837837838e-01 3.46618692119911e+00 3.50579673123515e-02
2.62666216216216e-01 3.43397186809279e+00 3.48436370318640e-02
2.64344594594595e-01 3.40205622462736e+00 3.46299100931329e-02
2.66022972972973e-01 3.37043720796012e+00 3.44168003669329e-02
2.67701351351351e-01 3.33911206131686e+00 3.42043212920903e-02
2.69379729729730e-01 3.30807805334332e+00 3.39924858661085e-02
2.71058108108108e-01 3.27733247826968e+00 3.37813066300130e-02
2.72736486486487e-01 3.24687265537319e+00 3.35707957700310e-02
2.74414864864865e-01 3.21669592875239e+00 3.33609649935015e-02
2.76093243243243e-01 3.18679966737950e+00 3.31518256056808e-02
2.77771621621622e-01 3.15718126458393e+00 3.29433885841084e-02
2.79450000000000e-01 3.12783813783250e+00 3.27356644589599e-02
2.81128378378378e-01 3.09876772877490e+00 3.25286634066414e-02
2.82806756756757e-01 3.06996750266017e+00 3.23223952403650e-02
2.84485135135135e-01 3.04143494847136e+00 3.21168693955006e-02
2.86163513513514e-01 3.01316757844025e+00 3.19120950207127e-02
2.87841891891892e-01 2.98516292783742e+00 3.17080808647400e-02
2.89520270270270e-01 2.95741855500840e+00 3.15048353450748e-02
2.91198648648649e-01 2.92993204090700e+00 3.13023666145232e-02
2.92877027027027e-01 2.90270098889086e+00 3.11006824520241e-02
2.94555405405405e-01 2.87572302475201e+00 3.08997903466379e-02
2.96233783783784e-01 2.84899579619091e+00 3.06996974882788e-02
2.97912162162162e-01 2.82251697292612e+00 3.05004107537162e-02
2.99590540540541e-01 2.79628424625537e+00 3.03019367884598e-02
3.01268918918919e-01 2.77029532886036e+00 3.01042819034536e-02
3.02947297297297e-01 2.74454795482974e+00 2.99074521366577e-02
3.04625675675676e-01 2.71903987923679e+00 2.97114533127755e-02
3.06304054054054e-01 2.69376887794920e+00 2.95162909436123e-02
3.07982432432432e-01 2.66873274764768e+00 2.93219703036237e-02
3.09660810810811e-01 2.64392930535092e+00 2.91284964209304e-02
3.11339189189189e-01 2.61935638850452e+00 2.89358740640439e-02
3.13017567567568e-01 2.59501185458324e+00 2.87441078156055e-02
3.14695945945946e-01 2.57089358090953e+00 2.85532019781000e-02
3.16374324324324e-01 2.54699946466603e+00 2.83631606447982e-02
3.18052702702703e-01 2.52332742244897e+00 2.81739876909302e-02
3.19731081081081e-01 2.49987539034638e+00 2.79856867608215e-02
3.21409459459459e-01 2.47664132356363e+00 2.77982613371759e-02
3.23087837837838e-01 2.45362319624991e+00 2.76117146518608e-02
3.24766216216216e-01 2.43081900150554e+00 2.74260497377917e-02
3.26444594594595e-01 2.40822675102115e+00 2.72412694793207e-02
3.28122972972973e-01 2.38584447490892e+00 2.70573765261682e-02
3.29801351351351e-01 2.36367022170662e+00 2.68743733574211e-02
3.31479729729730e-01 2.34170205797327e+00 2.66922622731126e-02
3.33158108108108e-01 2.31993806835177e+00 2.65110453821383e-02
3.34836486486487e-01 2.29837635522883e+00 2.63307246648129e-02
3.36514864864865e-01 2.27701503857367e+00 2.61513018914223e-02
3.38193243243243e-01 2.25585225593798e+00 2.59727786689977e-02
3.39871621621622e-01 2.23488616212802e+00 2.57951564867680e-02
3.41550000000000e-01 2.21411492904774e+00 2.56184366375673e-02
3.43228378378378e-01 2.19353674569608e+00 2.54426202756561e-02
3.44906756756757e-01 2.17314981780040e+00 2.52677084087471e-02
3.46585135135135e-01 2.15295236786607e+00 2.50937018866914e-02
3.48263513513514e-01 2.13294263486722e+00 2.49206014580470e-02
3.49941891891892e-01 2.11311887409690e+00 2.47484076956941e-02
3.51620270270270e-01 2.09347935716108e+00 2.45771210390643e-02
3.53298648648649e-01 2.07402237168037e+00 2.44067418352126e-02
3.54977027027027e-01 2.05474622114423e+00 2.42372702670243e-02
3.56655405405405e-01 2.03564922490292e+00 2.40687064055317e-02
3.58333783783784e-01 2.01672971783469e+00 2.39010502023897e-02
3.60012162162162e-01 1.99798605038453e+00 2.37343014793169e-02
3.61690540540541e-01 1.97941658828265e+00 2.35684599793136e-02
3.63368918918919e-01 1.96101971240521e+00 2.34035252987033e-02
3.65047297297297e-01 1.94279381876372e+00 2.32394969253206e-02
3.66725675675676e-01 1.92473731823337e+00 2.30763742756672e-02
3.68404054054054e-01 1.90684863641753e+00 2.29141566293064e-02
3.70082432432432e-01 1.88912621363553e+00 2.27528431762582e-02
3.71760810810811e-01 1.87156850462018e+00 2.25924330099301e-02
3.73439189189189e-01 1.85417397854745e+00 2.24329251172792e-02
3.75117567567568e-01 1.83694111877988e+00 2.22743184252421e-02
3.76795945945946e-01 1.81986842273724e+00 2.21166117386224e-02
3.78474324324324e-01 1.80295440188229e+00 2.19598037847612e-02
3.80152702702703e-01 1.78619758143545e+00 2.18038932067108e-02
3.81831081081081e-01 1.76959650039986e+00 2.16488785537982e-02
3.83509459459459e-01 1.75314971131896e+00 2.14947583254024e-02
3.85187837837838e-01 1.73685578015294e+00 2.13415309121399e-02
3.86866216216216e-01 1.72071328626289e+00 2.11891946284094e-02
3.88544594594595e-01 1.70472082217669e+00 2.10377477440858e-02
3.90222972972973e-01 1.68887699346887e+00 2.08871884277243e-02
3.91901351351351e-01 1.67318041874363e+00 2.07375147870975e-02
3.93579729729730e-01 1.65762972937508e+00 2.05887248628104e-02
3.95258108108108e-01 1.64222356952550e+00 2.04408166195338e-02
3.96936486486486e-01 1.62696059592415e+00 2.02937879857517e-02
3.98614864864865e-01 1.61183947775243e+00 2.01476367999763e-02
4.00293243243243e-01 1.59685889662575e+00 2.00023608402674e-02
4.01971621621622e-01 1.58201754637979e+00 1.98579578529846e-02
4.03650000000000e-01 1.56731413295884e+00 1.97144255008430e-02
4.05328378378378e-01 1.55274737439683e+00 1.95717613997340e-02
4.07006756756757e-01 1.53831600058058e+00 1.94299631127594e-02
4.08685135135135e-01 1.52401875326253e+00 1.92890281420974e-02
4.10363513513514e-01 1.50985438585857e+00 1.91489539651255e-02
4.12041891891892e-01 1.49582166334148e+00 1.90097379852149e-02
4.13720270270270e-01 1.48191936222102e+00 1.88713775585279e-02
4.15398648648649e-01 1.46814627034865e+00 1.87338700201348e-02
4.17077027027027e-01 1.45450118681384e+00 1.85972126364814e-02
4.18755405405405e-01 1.44098292192358e+00 1.84614026388609e-02
4.20433783783784e-01 1.42759029698649e+00 1.83264372178560e-02
4.22112162162162e-01 1.41432214432087e+00 1.81923135157939e-02
4.23790540540541e-01 1.40117730706991e+00 1.80590286596004e-02
4.25468918918919e-01 1.38815463910267e+00 1.79265797157705e-02
4.27147297297297e-01 1.37525300499308e+00 1.77949637147146e-02
4.28825675675676e-01 1.36247127984127e+00 1.76641776744982e-02
4.30504054054054e-01 1.34980834917728e+00 1.75342185573366e-02
4.32182432432432e-01 1.33726310893962e+00 1.74050833000445e-02
4.33860810810811e-01 1.32483446527817e+00 1.72767688088591e-02
4.35539189189189e-01 1.31252133455843e+00 1.71492719524537e-02
4.37217567567568e-01 1.30032264319244e+00 1.70225895918388e-02
4.38895945945946e-01 1.28823732754684e+00 1.68967185391354e-02
4.40574324324324e-01 1.27626433392106e+00 1.67716555863402e-02
4.42252702702703e-01 1.26440261836099e+00 1.66473975003583e-02
4.43931081081081e-01 1.25265114666129e+00 1.65239410163218e-02
4.45609459459459e-01 1.24100889420535e+00 1.64012828658421e-02
4.47287837837838e-01 1.22947484587745e+00 1.62794197379428e-02
4.48966216216216e-01 1.21804799604081e+00 1.61583482999472e-02
4.50644594594595e-01 1.20672734838275e+00 1.60380652178630e-02
4.52322972972973e-01 1.19551191582931e+00 1.59185671186267e-02
4.54001351351351e-01 1.18440072052308e+00 1.57998506162983e-02
4.55679729729730e-01 1.17339279365285e+00 1.56819123074459e-02
4.57358108108108e-01 1.16248717545322e+00 1.55647487649591e-02
4.59036486486486e-01 1.15168291505796e+00 1.54483565637926e-02
4.60714864864865e-01 1.14097907041850e+00 1.53327322451800e-02
4.62393243243243e-01 1.13037470828169e+00 1.52178723356504e-02
4.64071621621622e-01 1.11986890404795e+00 1.51037733655900e-02
4.65750000000000e-01 1.10946074169206e+00 1.49904318346536e-02
4.67428378378378e-01 1.09914931374072e+00 1.48778442356380e-02
4.69106756756757e-01 1.08893372111690e+00 1.47660070501923e-02
4.70785135135135e-01 1.07881307313712e+00 1.46549167430948e-02
4.72463513513514e-01 1.06878648737711e+00 1.45445697857224e-02
4.74141891891892e-01 1.05885308959608e+00 1.44349626232608e-02
4.75820270270270e-01 1.04901201371453e+00 1.43260916920271e-02
4.77498648648649e-01 1.03926240168421e+00 1.42179534363815e-02
4.79177027027027e-01 1.02960340341452e+00 1.41105442770319e-02
4.80855405405405e-01 1.02003417675026e+00 1.40038606328021e-02
4.82533783783784e-01 1.01055388732910e+00 1.38978989166488e-02
4.84212162162162e-01 1.00116170857717e+00 1.37926555303697e-02
4.85890540540541e-01 9.91856821585779e-01 1.36881268860073e-02
4.87568918918919e-01 9.82638415041172e-01 1.35843093757970e-02
4.89247297297297e-01 9.73505685202491e-01 1.34811993879567e-02
4.90925675675676e-01 9.64457835782547e-01 1.33787933221063e-02
4.92604054054054e-01 9.55494077879437e-01 1.32770875602093e-02
4.94282432432432e-01 9.46613629954600e-01 1.31760784864346e-02
4.95960810810811e-01 9.37815717702312e-01 1.30757624834605e-02
4.97639189189189e-01 9.29099574043816e-01 1.29761359275787e-02
4.99317567567568e-01 9.20464439014273e-01 1.28771952082322e-02
5.00995945945946e-01 9.11909559697498e-01 1.27789367004584e-02
5.02674324324324e-01 9.03434190204296e-01 1.26813567836791e-02
5.04352702702703e-01 8.95037591548849e-01 1.25844518381627e-02
5.06031081081081e-01 8.86719031642183e-01 1.24882182403492e-02
5.07709459459459e-01 8.78477785184992e-01 1.23926523813363e-02
5.09387837837838e-01 8.70313133605311e-01 1.22977506407466e-02
5.11066216216216e-01 8.62224365037193e-01 1.22035094003347e-02
5.12744594594595e-01 8.54210774216950e-01 1.21099250572842e-02
5.14422972972973e-01 8.46271662422547e-01 1.20169939989342e-02
5.16101351351351e-01 8.38406337452428e-01 1.19247126199364e-02
5.17779729729730e-01 8.30614113512227e-01 1.18330773189733e-02
5.19458108108108e-01 8.22894311207303e-01 1.17420844944371e-02
5.21136486486486e-01 8.15246257444321e-01 1.16517305613121e-02
5.22814864864865e-01 8.07669285373394e-01 1.15620119272030e-02
5.24493243243243e-01 8.00162734367298e-01 1.14729250047563e-02
5.26171621621622e-01 7.92725949926186e-01 1.13844662237976e-02
5.27850000000000e-01 7.85358283621317e-01 1.12966320081461e-02
5.29528378378378e-01 7.78059093074456e-01 1.12094187912859e-02
