Energy (eV)          EEDF (eV^-(3/2))     First Anisotropy
1.26875000000000e-01 7.74567900933423e-02 1.00823739521159e-04
3.80625000000000e-01 7.41837343487098e-02 1.63520758894360e-04
6.34375000000000e-01 7.10489866064420e-02 2.08143661876692e-04
8.88125000000000e-01 6.80467024492700e-02 2.37670373963601e-04
1.14187500000000e+00 6.51712844247613e-02 2.58900713540968e-04
1.39562500000000e+00 6.24173716094407e-02 2.74555217793212e-04
1.64937500000000e+00 5.97798296138965e-02 2.86114239705101e-04
1.90312500000000e+00 5.72537410102347e-02 2.94512561545439e-04
2.15687500000000e+00 5.48343961640370e-02 3.00395092128460e-04
2.41062500000000e+00 5.25172844537277e-02 3.04233576842307e-04
2.66437500000000e+00 5.02980858609805e-02 3.06387645612027e-04
2.91812500000000e+00 4.81726629164847e-02 3.07139935162796e-04
3.17187500000000e+00 4.61370529860561e-02 3.06717777366188e-04
3.42562500000000e+00 4.41874608827101e-02 3.05307347795147e-04
3.67937500000000e+00 4.23202517909228e-02 3.03063310257333e-04
3.93312500000000e+00 4.05319444898880e-02 3.00115632194653e-04
4.18687500000000e+00 3.88192048631367e-02 2.96574547851005e-04
4.44062500000000e+00 3.71788396824172e-02 2.92534265825844e-04
4.69437500000000e+00 3.56077906542464e-02 2.88075799787258e-04
4.94812500000000e+00 3.41031287180344e-02 2.83269170927468e-04
5.20187500000000e+00 3.26620485851493e-02 2.78175150059367e-04
5.45562500000000e+00 3.12818635087433e-02 2.72846655648071e-04
5.70937500000000e+00 2.99600002745869e-02 2.67329890140402e-04
5.96312500000000e+00 2.86939944035741e-02 2.61665274092384e-04
6.21687500000000e+00 2.74814855569521e-02 2.55888221849746e-04
6.47062500000000e+00 2.63202131357109e-02 2.50029791478625e-04
6.72437500000000e+00 2.52080120659270e-02 2.44117233738955e-04
6.97812500000000e+00 2.41428087622042e-02 2.38174459150671e-04
7.23187500000000e+00 2.31226172616849e-02 2.32222437969595e-04
7.48562500000000e+00 2.21455355214252e-02 2.26279544726773e-04
7.73937500000000e+00 2.12097418722299e-02 2.20361856592130e-04
7.99312500000000e+00 2.03134916223363e-02 2.14483412992106e-04
8.24687500000000e+00 1.94551138046144e-02 2.08656442494705e-04
8.50062500000000e+00 1.86330080612190e-02 2.02891561869169e-04
8.75437500000000e+00 1.78456416598861e-02 1.97197951355443e-04
9.00812500000000e+00 1.70915466363099e-02 1.91583509485208e-04
9.26187500000000e+00 1.63693170572731e-02 1.86054990240480e-04
9.51562500000000e+00 1.56776063994278e-02 1.80618124886868e-04
9.76937500000000e+00 1.50151250388405e-02 1.75277730453477e-04
1.00231250000000e+01 1.43806378466194e-02 1.70037806532444e-04
1.02768750000000e+01 1.37729618861431e-02 1.64901621824690e-04
1.05306250000000e+01 1.31909642075956e-02 1.59871791654225e-04
1.07843750000000e+01 1.26335597356970e-02 1.54950347503051e-04
1.10381250000000e+01 1.20997092466918e-02 1.50138799475970e-04
1.12918750000000e+01 1.15884174308218e-02 1.45438192484382e-04
1.15456250000000e+01 1.10987310366727e-02 1.40849156836368e-04
1.17993750000000e+01 1.06297370939343e-02 1.36371953833842e-04
1.20531250000000e+01 1.01805612112605e-02 1.32006516903594e-04
1.23068750000000e+01 9.75036594605573e-03 1.27752488725740e-04
1.25606250000000e+01 9.33834924314864e-03 1.23609254768485e-04
1.28143750000000e+01 8.94374293944232e-03 1.19575973590980e-04
1.30681250000000e+01 8.56581133175243e-03 1.15651604235192e-04
1.33218750000000e+01 8.20384980516372e-03 1.11834930992109e-04
1.35756250000000e+01 7.85718351934745e-03 1.08124585796596e-04
1.38293750000000e+01 7.52516615039044e-03 1.04519068478017e-04
1.40831250000000e+01 7.20717868579008e-03 1.01016765069895e-04
1.43368750000000e+01 6.90262827036873e-03 9.76159643608513e-05
1.45906250000000e+01 6.61094710095569e-03 9.43148728505645e-05
1.48443750000000e+01 6.33159136777618e-03 9.11116282580318e-05
1.50981250000000e+01 6.06404024057347e-03 8.80043117148896e-05
1.53518750000000e+01 5.80779489757404e-03 8.49909587636081e-05
1.56056250000000e+01 5.56237759548529e-03 8.20695692688392e-05
1.58593750000000e+01 5.32733077879190e-03 7.92381163399037e-05
1.61131250000000e+01 5.10221622669027e-03 7.64945543532018e-05
1.63668750000000e+01 4.88661423607059e-03 7.38368261550833e-05
1.66206250000000e+01 4.68012283902318e-03 7.12628695183049e-05
1.68743750000000e+01 4.48235705341033e-03 6.87706229185375e-05
1.71281250000000e+01 4.29294816510646e-03 6.63580306913990e-05
1.73818750000000e+01 4.11154304056817e-03 6.40230476250739e-05
1.76356250000000e+01 3.93780346845286e-03 6.17636430386913e-05
1.78893750000000e+01 3.77140552905815e-03 5.95778043922188e-05
1.81431250000000e+01 3.61203899040668e-03 5.74635404696261e-05
1.83968750000000e+01 3.45940672985022e-03 5.54188841734394e-05
1.86506250000000e+01 3.31322418011484e-03 5.34418949655183e-05
1.89043750000000e+01 3.17321879875425e-03 5.15306609858913e-05
1.91581250000000e+01 3.03912956002220e-03 4.96833008787589e-05
1.94118750000000e+01 2.91070646821667e-03 4.78979653522979e-05
1.96656250000000e+01 2.78771009158836e-03 4.61728384966431e-05
1.99193750000000e+01 2.66991111594461e-03 4.45061388823471e-05
2.01731250000000e+01 2.55708991711654e-03 4.28961204597540e-05
2.04268750000000e+01 2.44903615149213e-03 4.13410732779917e-05
2.06806250000000e+01 2.34554836385210e-03 3.98393240407163e-05
2.09343750000000e+01 2.24643361177714e-03 3.83892365143077e-05
2.11881250000000e+01 2.15150710592651e-03 3.69892118028973e-05
2.14418750000000e+01 2.06059186551714e-03 3.56376885033967e-05
2.16956250000000e+01 1.97351838836104e-03 3.43331427525981e-05
2.19493750000000e+01 1.89012433484575e-03 3.30740881773997e-05
2.22031250000000e+01 1.81025422526873e-03 3.18590757582784e-05
2.24568750000000e+01 1.73375914996127e-03 3.06866936152794e-05
2.27106250000000e+01 1.66049649166166e-03 2.95555667250112e-05
2.29643750000000e+01 1.59032965961983e-03 2.84643565764073e-05
2.32181250000000e+01 1.52312783493786e-03 2.74117607723635e-05
2.34718750000000e+01 1.45876572667146e-03 2.63965125837443e-05
2.37256250000000e+01 1.39712333823781e-03 2.54173804616983e-05
2.39793750000000e+01 1.33808574369417e-03 2.44731675137063e-05
2.42331250000000e+01 1.28154287347023e-03 2.35627109483121e-05
2.44868750000000e+01 1.22738930915453e-03 2.26848814930544e-05
2.47406250000000e+01 1.17552408695271e-03 2.18385827897194e-05
2.49943750000000e+01 1.12585050945073e-03 2.10227507706598e-05
2.52481250000000e+01 1.07827596533243e-03 2.02363530195944e-05
2.55018750000000e+01 1.03271175671522e-03 1.94783881199887e-05
2.57556250000000e+01 9.89072933781884e-04 1.87478849938307e-05
2.60093750000000e+01 9.47278136400325e-04 1.80439022333528e-05
2.62631250000000e+01 9.07249442435919e-04 1.73655274280084e-05
2.65168750000000e+01 8.68912222473631e-04 1.67118764887911e-05
2.67706250000000e+01 8.32195000679091e-04 1.60820929717767e-05
2.70243750000000e+01 7.97029321539196e-04 1.54753474025829e-05
2.72781250000000e+01 7.63349622233788e-04 1.48908366032655e-05
2.75318750000000e+01 7.31093110400470e-04 1.43277830230158e-05
2.77856250000000e+01 7.00199647064651e-04 1.37854340738726e-05
2.80393750000000e+01 6.70611634516570e-04 1.32630614725323e-05
2.82931250000000e+01 6.42273908926239e-04 1.27599605892159e-05
2.85468750000000e+01 6.15133637496111e-04 1.22754498044399e-05
2.88006250000000e+01 5.89140219959724e-04 1.18088698744336e-05
2.90543750000000e+01 5.64245194242669e-04 1.13595833058531e-05
2.93081250000000e+01 5.40402146109991e-04 1.09269737403520e-05
2.95618750000000e+01 5.17566622631591e-04 1.05104453494940e-05
2.98156250000000e+01 4.95696049304271e-04 1.01094222404159e-05
3.00693750000000e+01 4.74749650675917e-04 9.72334787258743e-06
3.03231250000000e+01 4.54688374323832e-04 9.35168448595145e-06
3.05768750000000e+01 4.35474818045479e-04 8.99391254067252e-06
3.08306250000000e+01 4.17073160125886e-04 8.64953016867587e-06
3.10843750000000e+01 3.99449092551723e-04 8.31805263710876e-06
3.13381250000000e+01 3.82569757047504e-04 7.99901182381745e-06
3.15918750000000e+01 3.66403683814690e-04 7.69195570489572e-06
3.18456250000000e+01 3.50920732859459e-04 7.39644785432640e-06
3.20993750000000e+01 3.36092037799764e-04 7.11206695570727e-06
3.23531250000000e+01 3.21889952046911e-04 6.83840632602497e-06
3.26068750000000e+01 3.08287997261313e-04 6.57507345141647e-06
3.28606250000000e+01 2.95260813986329e-04 6.32168953483551e-06
3.31143750000000e+01 2.82784114368144e-04 6.07788905552092e-06
3.33681250000000e+01 2.70834636873549e-04 5.84331934014768e-06
3.36218750000000e+01 2.59390102921178e-04 5.61764014552475e-06
3.38756250000000e+01 2.48429175345373e-04 5.40052325269065e-06
3.41293750000000e+01 2.37931418615214e-04 5.19165207224592e-06
3.43831250000000e+01 2.27877260734555e-04 4.99072126075081e-06
3.46368750000000e+01 2.18247956752038e-04 4.79743634800790e-06
3.48906250000000e+01 2.09025553813043e-04 4.61151337504126e-06
3.51443750000000e+01 2.00192857688421e-04 4.43267854257769e-06
3.53981250000000e+01 1.91733400717609e-04 4.26066786982946e-06
3.56518750000000e+01 1.83631411106359e-04 4.09522686337450e-06
3.59056250000000e+01 1.75871783521835e-04 3.93611019592585e-06
3.61593750000000e+01 1.68440050930263e-04 3.78308139477934e-06
3.64131250000000e+01 1.61322357624623e-04 3.63591253972680e-06
3.66668750000000e+01 1.54505433392094e-04 3.49438397022100e-06
3.69206250000000e+01 1.47976568773100e-04 3.35828400157744e-06
3.71743750000000e+01 1.41723591365821e-04 3.22740864999827e-06
3.74281250000000e+01 1.35734843131985e-04 3.10156136620399e-06
3.76818750000000e+01 1.29999158661652e-04 2.98055277745928e-06
3.79356250000000e+01 1.24505844356446e-04 2.86420043778093e-06
3.81893750000000e+01 1.19244658492426e-04 2.75232858611694e-06
3.84431250000000e+01 1.14205792125446e-04 2.64476791228842e-06
3.86968750000000e+01 1.09379850803372e-04 2.54135533048775e-06
3.89506250000000e+01 1.04757837051088e-04 2.44193376012905e-06
3.92043750000000e+01 1.00331133595621e-04 2.34635191384988e-06
3.94581250000000e+01 9.60914873001181e-05 2.25446409246565e-06
3.97118750000000e+01 9.20309937767088e-05 2.16612998668195e-06
3.99656250000000e+01 8.81420826495856e-05 2.08121448537247e-06
4.02193750000000e+01 8.44175034408089e-05 1.99958749023438e-06
4.04731250000000e+01 8.08503120525311e-05 1.92112373663577e-06
4.07268750000000e+01 7.74338578204347e-05 1.84570262047377e-06
4.09806250000000e+01 7.41617711142476e-05 1.77320803086554e-06
4.12343750000000e+01 7.10279514622169e-05 1.70352818849780e-06
4.14881250000000e+01 6.80265561774026e-05 1.63655548946465e-06
4.17418750000000e+01 6.51519894645837e-05 1.57218635442689e-06
4.19956250000000e+01 6.23988919874688e-05 1.51032108293005e-06
4.22493750000000e+01 5.97621308767608e-05 1.45086371272189e-06
4.25031250000000e+01 5.72367901604461e-05 1.39372188391427e-06
4.27568750000000e+01 5.48181615984658e-05 1.33880670783777e-06
4.30106250000000e+01 5.25017359046833e-05 1.28603264044129e-06
4.32643750000000e+01 5.02831943397797e-05 1.23531736009274e-06
4.35181250000000e+01 4.81584006594059e-05 1.18658164964040e-06
4.37718750000000e+01 4.61233934025765e-05 1.13974928259840e-06
4.40256250000000e+01 4.41743785059303e-05 1.09474691332341e-06
4.42793750000000e+01 4.23077222300861e-05 1.05150397105294e-06
4.45331250000000e+01 4.05199443849070e-05 1.00995255767959e-06
4.47868750000000e+01 3.88077118410402e-05 9.70027349138862e-07
4.50406250000000e+01 3.71678323156383e-05 9.31665500291493e-07
4.52943750000000e+01 3.55972484206731e-05 8.94806553184842e-07
4.55481250000000e+01 3.40930319627480e-05 8.59392348581078e-07
4.58018750000000e+01 3.26523784837800e-05 8.25366940643178e-07
4.60556250000000e+01 3.12726020323737e-05 7.92676514672925e-07
4.63093750000000e+01 2.99511301561396e-05 7.61269307798270e-07
4.65631250000000e+01 2.86854991056184e-05 7.31095532510425e-07
4.68168750000000e+01 2.74733492408718e-05 7.02107302954087e-07
4.70706250000000e+01 2.63124206321751e-05 6.74258563877106e-07
4.73243750000000e+01 2.52005488466081e-05 6.47505022148804e-07
4.75781250000000e+01 2.41356609126913e-05 6.21804080758901e-07
4.78318750000000e+01 2.31157714555420e-05 5.97114775211761e-07
4.80856250000000e+01 2.21389789953453e-05 5.73397712233338e-07
4.83393750000000e+01 2.12034624022393e-05 5.50615010710798e-07
4.85931250000000e+01 2.03074775010040e-05 5.28730244787294e-07
4.88468750000000e+01 1.94493538192248e-05 5.07708389036892e-07
4.91006250000000e+01 1.86274914728673e-05 4.87515765647009e-07
4.93543750000000e+01 1.78403581834562e-05 4.68119993538035e-07
4.96081250000000e+01 1.70864864212992e-05 4.49489939352185e-07
4.98618750000000e+01 1.63644706694271e-05 4.31595670245724e-07
5.01156250000000e+01 1.56729648031509e-05 4.14408408420922e-07
5.03693750000000e+01 1.50106795803501e-05 3.97900487336222e-07
5.06231250000000e+01 1.43763802378119e-05 3.82045309535006e-07
5.08768750000000e+01 1.37688841891412e-05 3.66817306035486e-07
5.11306250000000e+01 1.31870588199494e-05 3.52191897226030e-07
5.13843750000000e+01 1.26298193762099e-05 3.38145455212162e-07
5.16381250000000e+01 1.20961269418451e-05 3.24655267563268e-07
5.18918750000000e+01 1.15849865017737e-05 3.11699502408771e-07
5.21456250000000e+01 1.10954450868061e-05 2.99257174835268e-07
5.23993750000000e+01 1.06265899969311e-05 2.87308114537758e-07
5.26531250000000e+01 1.01775470996794e-05 2.75832934679667e-07
5.29068750000000e+01 9.74747920039327e-06 2.64813001917963e-07
5.31606250000000e+01 9.33558448136214e-06 2.54230407551130e-07
5.34143750000000e+01 8.94109500691558e-06 2.44067939749219e-07
5.36681250000000e+01 8.56327529168546e-06 2.34309056826636e-07
5.39218750000000e+01 8.20142092936863e-06 2.24937861519641e-07
5.41756250000000e+01 7.85485727943317e-06 2.15939076231898e-07
5.44293750000000e+01 7.52293820932003e-06 2.07298019212665e-07
5.46831250000000e+01 7.20504488979478e-06 1.99000581633477e-07
5.49368750000000e+01 6.90058464120364e-06 1.91033205530337e-07
5.51906250000000e+01 6.60898982848279e-06 1.83382862579628e-07
5.54443750000000e+01 6.32971680286068e-06 1.76037033677037e-07
5.56981250000000e+01 6.06224488828037e-06 1.68983689289917e-07
5.59518750000000e+01 5.80607541065221e-06 1.62211270554518e-07
5.62056250000000e+01 5.56073076812683e-06 1.55708671090548e-07
5.64593750000000e+01 5.32575354065525e-06 1.49465219506497e-07
5.67131250000000e+01 5.10070563717588e-06 1.43470662570145e-07
5.69668750000000e+01 4.88516747883847e-06 1.37715149019510e-07
5.72206250000000e+01 4.67873721674210e-06 1.32189213990466e-07
5.74743750000000e+01 4.48102998272895e-06 1.26883764038042e-07
5.77281250000000e+01 4.29167717183691e-06 1.21790062729292e-07
5.79818750000000e+01 4.11032575507321e-06 1.16899716786400e-07
5.82356250000000e+01 3.93663762122790e-06 1.12204662759443e-07
5.84893750000000e+01 3.77028894650002e-06 1.07697154209008e-07
5.87431250000000e+01 3.61096959076115e-06 1.03369749379561e-07
5.89968750000000e+01 3.45838251933078e-06 9.92152993451535e-08
5.92506250000000e+01 3.31224324918549e-06 9.52269366097353e-08
5.95043750000000e+01 3.17227931856937e-06 9.13980641449911e-08
5.97581250000000e+01 3.03822977901687e-06 8.77223448492196e-08
6.00118750000000e+01 2.90984470884102e-06 8.41936914114022e-08
6.02656250000000e+01 2.78688474717997e-06 8.08062565651786e-08
6.05193750000000e+01 2.66912064773306e-06 7.75544237180035e-08
6.07731250000000e+01 2.55633285135451e-06 7.44327979413074e-08
6.10268750000000e+01 2.44831107670777e-06 7.14361973080016e-08
6.12806250000000e+01 2.34485392821746e-06 6.85596445641720e-08
6.15343750000000e+01 2.24576852058785e-06 6.57983591222963e-08
6.17881250000000e+01 2.15087011918791e-06 6.31477493637807e-08
6.20418750000000e+01 2.05998179563247e-06 6.06034052390650e-08
6.22956250000000e+01 1.97293409791725e-06 5.81610911539911e-08
6.25493750000000e+01 1.88956473449293e-06 5.58167391315328e-08
6.28031250000000e+01 1.80971827168913e-06 5.35664422384038e-08
6.30568750000000e+01 1.73324584392413e-06 5.14064482664490e-08
6.33106250000000e+01 1.66000487616026e-06 4.93331536590880e-08
6.35643750000000e+01 1.58985881808725e-06 4.73430976734642e-08
6.38181250000000e+01 1.52267688953809e-06 4.54329567692851e-08
6.40718750000000e+01 1.45833383666282e-06 4.35995392156812e-08
6.43256250000000e+01 1.39670969840546e-06 4.18397799077386e-08
6.45793750000000e+01 1.33768958284886e-06 4.01507353846741e-08
6.48331250000000e+01 1.28116345301047e-06 3.85295790419184e-08
6.50868750000000e+01 1.22702592168962e-06 3.69735965296645e-08
6.53406250000000e+01 1.17517605498379e-06 3.54801813307237e-08
6.55943750000000e+01 1.12551718410770e-06 3.40468305107966e-08
6.58481250000000e+01 1.07795672516422e-06 3.26711406345266e-08
6.61018750000000e+01 1.03240600653111e-06 3.13508038409545e-08
6.63556250000000e+01 9.88780103541853e-07 3.00836040722375e-08
6.66093750000000e+01 9.46997680152276e-07 2.88674134497214e-08
6.68631250000000e+01 9.06980837297797e-07 2.77001887916823e-08
6.71168750000000e+01 8.68654967658566e-07 2.65799682672722e-08
6.73706250000000e+01 8.31948616561734e-07 2.55048681814050e-08
6.76243750000000e+01 7.96793348761502e-07 2.44730798855220e-08
6.78781250000000e+01 7.63123620848593e-07 2.34828668093686e-08
6.81318750000000e+01 7.30876659051253e-07 2.25325616090983e-08
6.83856250000000e+01 6.99992342199962e-07 2.16205634272001e-08
6.86393750000000e+01 6.70413089637643e-07 2.07453352599133e-08
6.88931250000000e+01 6.42083753866407e-07 1.99054014279645e-08
6.91468750000000e+01 6.14951517730670e-07 1.90993451466156e-08
6.94006250000000e+01 5.88965795944958e-07 1.83258061911680e-08
6.96543750000000e+01 5.64078140782800e-07 1.75834786542146e-08
6.99081250000000e+01 5.40242151750892e-07 1.68711087910734e-08
7.01618750000000e+01 5.17413389080106e-07 1.61874929499732e-08
7.04156250000000e+01 4.95549290872080e-07 1.55314755836909e-08
7.06693750000000e+01 4.74609093746900e-07 1.49019473394729e-08
7.09231250000000e+01 4.54553756843939e-07 1.42978432241872e-08
7.11768750000000e+01 4.35345889034155e-07 1.37181408417748e-08
7.14306250000000e+01 4.16949679208148e-07 1.31618587001803e-08
7.16843750000000e+01 3.99330829509999e-07 1.26280545850513e-08
7.19381250000000e+01 3.82456491392422e-07 1.21158239975971e-08
7.21918750000000e+01 3.66295204373995e-07 1.16242986541033e-08
7.24456250000000e+01 3.50816837384303e-07 1.11526450446901e-08
7.26993750000000e+01 3.35992532587636e-07 1.07000630489993e-08
7.29531250000000e+01 3.21794651580498e-07 1.02657846065806e-08
7.32068750000000e+01 3.08196723862620e-07 9.84907243983842e-09
7.34606250000000e+01 2.95173397485418e-07 9.44921882747814e-09
7.37143750000000e+01 2.82700391785871e-07 9.06554442647491e-09
7.39681250000000e+01 2.70754452117702e-07 8.69739714066226e-09
7.42218750000000e+01 2.59313306495462e-07 8.34415103411172e-09
7.44756250000000e+01 2.48355624070690e-07 8.00520528754629e-09
7.47293750000000e+01 2.37860975362717e-07 7.67998319609775e-09
7.49831250000000e+01 2.27809794169990e-07 7.36793120678475e-09
7.52368750000000e+01 2.18183341090880e-07 7.06851799415063e-09
7.54906250000000e+01 2.08963668585985e-07 6.78123357256040e-09
7.57443750000000e+01 2.00133587516772e-07 6.50558844371572e-09
7.59981250000000e+01 1.91676635098183e-07 6.24111277800216e-09
7.62518750000000e+01 1.83577044205451e-07 5.98735562833663e-09
7.65056250000000e+01 1.75819713977907e-07 5.74388417523531e-09
7.67593750000000e+01 1.68390181664964e-07 5.51028300187237e-09
7.70131250000000e+01 1.61274595661796e-07 5.28615339794716e-09
7.72668750000000e+01 1.54459689684433e-07 5.07111269122404e-09
7.75206250000000e+01 1.47932758036132e-07 4.86479360565343e-09
7.77743750000000e+01 1.41681631918896e-07 4.66684364502523e-09
7.80281250000000e+01 1.35694656745997e-07 4.47692450114626e-09
7.82818750000000e+01 1.29960670413186e-07 4.29471148557375e-09
7.85356250000000e+01 1.24468982488088e-07 4.11989298397404e-09
7.87893750000000e+01 1.19209354278987e-07 3.95216993221202e-09
7.90431250000000e+01 1.14171979745821e-07 3.79125531331267e-09
7.92968750000000e+01 1.09347467217829e-07 3.63687367446870e-09
7.95506250000000e+01 1.04726821883737e-07 3.48876066330129e-09
7.98043750000000e+01 1.00301429021849e-07 3.34666258261199e-09
8.00581250000000e+01 9.60630379387770e-08 3.21033596289341e-09
