Energy (eV)          EEDF (eV^-(3/2))     First Anisotropy
2.24590163934426e-02 5.03849940531297e-02 2.42151530470525e-05
6.73770491803279e-02 5.01004048458193e-02 4.00076717020581e-05
1.12295081967213e-01 4.98174230816902e-02 5.28718372155147e-05
1.57213114754098e-01 4.95360396821962e-02 6.26797257696209e-05
2.02131147540984e-01 4.92562456181642e-02 7.08885532837729e-05
2.47049180327869e-01 4.89780319126844e-02 7.80482905037596e-05
2.91967213114754e-01 4.87013896394872e-02 8.44430660678955e-05
3.36885245901639e-01 4.84263099227395e-02 9.02441733675854e-05
3.81803278688525e-01 4.81527839375030e-02 9.55650316967436e-05
4.26721311475410e-01 4.78808029070094e-02 1.00485673164061e-04
4.71639344262295e-01 4.76103581049198e-02 1.05065245507306e-04
5.16557377049180e-01 4.73414408541869e-02 1.09349032748842e-04
5.61475409836066e-01 4.70740425272735e-02 1.13372685293961e-04
6.06393442622951e-01 4.68081545443403e-02 1.17164911505135e-04
6.51311475409836e-01 4.65437683745376e-02 1.20749266792481e-04
6.96229508196721e-01 4.62808755351897e-02 1.24145386361757e-04
7.41147540983607e-01 4.60194675915404e-02 1.27369860005146e-04
7.86065573770492e-01 4.57595361568166e-02 1.30436869165909e-04
8.30983606557377e-01 4.55010728909136e-02 1.33358660777476e-04
8.75901639344262e-01 4.52440695011906e-02 1.36145906566279e-04
9.20819672131148e-01 4.49885177418427e-02 1.38807980291591e-04
9.65737704918033e-01 4.47344094136433e-02 1.41353174512489e-04
1.01065573770492e+00 4.44817363639339e-02 1.43788872499569e-04
1.05557377049180e+00 4.42304904865153e-02 1.46121686749676e-04
1.10049180327869e+00 4.39806637177174e-02 1.48357569690269e-04
1.14540983606557e+00 4.37322480443653e-02 1.50501905811346e-04
1.19032786885246e+00 4.34852354960891e-02 1.52559588486618e-04
1.23524590163934e+00 4.32396181455636e-02 1.54535080962879e-04
1.28016393442623e+00 4.29953881143843e-02 1.56432470245730e-04
1.32508196721311e+00 4.27525375665090e-02 1.58255512394991e-04
1.37000000000000e+00 4.25110587101525e-02 1.60007669800862e-04
1.41491803278689e+00 4.22709437958602e-02 1.61692143133139e-04
1.45983606557377e+00 4.20321851214429e-02 1.63311899860034e-04
1.50475409836066e+00 4.17947750264104e-02 1.64869698952585e-04
1.54967213114754e+00 4.15587058935548e-02 1.66368111223029e-04
1.59459016393443e+00 4.13239701472330e-02 1.67809537129207e-04
1.63950819672131e+00 4.10905602575937e-02 1.69196223331315e-04
1.68442622950820e+00 4.08584687357686e-02 1.70530277549618e-04
1.72934426229508e+00 4.06276881338669e-02 1.71813679453166e-04
1.77426229508197e+00 4.03982110488020e-02 1.73048292467505e-04
1.81918032786885e+00 4.01700301178983e-02 1.74235874068899e-04
1.86409836065574e+00 3.99431380200701e-02 1.75378083983219e-04
1.90901639344262e+00 3.97175274744111e-02 1.76476491570891e-04
1.95393442622951e+00 3.94931912435468e-02 1.77532583309339e-04
1.99885245901639e+00 3.92701221297447e-02 1.78547769775334e-04
2.04377049180328e+00 3.90483129748493e-02 1.79523389963765e-04
2.08868852459016e+00 3.88277566633567e-02 1.80460717119368e-04
2.13360655737705e+00 3.86084461188203e-02 1.81360963836278e-04
2.17852459016393e+00 3.83903743047620e-02 1.82225285814833e-04
2.22344262295082e+00 3.81735342234803e-02 1.83054785325341e-04
2.26836065573770e+00 3.79579189187821e-02 1.83850515140380e-04
2.31327868852459e+00 3.77435214727506e-02 1.84613482154904e-04
2.35819672131148e+00 3.75303350065486e-02 1.85344649885613e-04
2.40311475409836e+00 3.73183526793172e-02 1.86044940804550e-04
2.44803278688525e+00 3.71075676906203e-02 1.86715239206647e-04
2.49295081967213e+00 3.68979732775222e-02 1.87356394058153e-04
2.53786885245902e+00 3.66895627144710e-02 1.87969219955281e-04
2.58278688524590e+00 3.64823293155708e-02 1.88554499641521e-04
2.62770491803279e+00 3.62762664318396e-02 1.89112986173268e-04
2.67262295081967e+00 3.60713674518527e-02 1.89645404187832e-04
2.71754098360656e+00 3.58676258007841e-02 1.90152451115336e-04
2.76245901639344e+00 3.56650349424611e-02 1.90634798964792e-04
2.80737704918033e+00 3.54635883768550e-02 1.91093096170257e-04
2.85229508196721e+00 3.52632796399543e-02 1.91527967794816e-04
2.89721311475410e+00 3.50641023056830e-02 1.91940017208069e-04
2.94213114754098e+00 3.48660499835375e-02 1.92329827501785e-04
2.98704918032787e+00 3.46691163191094e-02 1.92697962140990e-04
3.03196721311475e+00 3.44732949932404e-02 1.93044965605081e-04
3.07688524590164e+00 3.42785797237708e-02 1.93371364593300e-04
3.12180327868852e+00 3.40849642633596e-02 1.93677669322379e-04
3.16672131147541e+00 3.38924423993469e-02 1.93964373359223e-04
3.21163934426230e+00 3.37010079553975e-02 1.94231954825141e-04
3.25655737704918e+00 3.35106547894368e-02 1.94480877390683e-04
3.30147540983607e+00 3.33213767940809e-02 1.94711590596061e-04
3.34639344262295e+00 3.31331678958839e-02 1.94924530182114e-04
3.39131147540984e+00 3.29460220568412e-02 1.95120118958894e-04
3.43622950819672e+00 3.27599332724754e-02 1.95298767638531e-04
3.48114754098361e+00 3.25748955722253e-02 1.95460875038986e-04
3.52606557377049e+00 3.23909030187351e-02 1.95606828303987e-04
3.57098360655738e+00 3.22079497092360e-02 1.95737003639319e-04
3.61590163934426e+00 3.20260297737659e-02 1.95851767154674e-04
3.66081967213115e+00 3.18451373750271e-02 1.95951474451985e-04
3.70573770491803e+00 3.16652667096909e-02 1.96036471426868e-04
3.75065573770492e+00 3.14864120067019e-02 1.96107094905807e-04
3.79557377049180e+00 3.13085675276010e-02 1.96163672713907e-04
3.84049180327869e+00 3.11317275658845e-02 1.96206523764093e-04
3.88540983606557e+00 3.09558864482086e-02 1.96235958630775e-04
3.93032786885246e+00 3.07810385328033e-02 1.96252280228216e-04
3.97524590163934e+00 3.06071782093297e-02 1.96255783339116e-04
4.02016393442623e+00 3.04342999000216e-02 1.96246755267592e-04
4.06508196721312e+00 3.02623980581707e-02 1.96225476347495e-04
4.11000000000000e+00 3.00914671683973e-02 1.96192219929922e-04
4.15491803278689e+00 2.99215017460680e-02 1.96147252394196e-04
4.19983606557377e+00 2.97524963383527e-02 1.96090833611721e-04
4.24475409836066e+00 2.95844455228025e-02 1.96023217398141e-04
4.28967213114754e+00 2.94173439075971e-02 1.95944651471787e-04
4.33459016393443e+00 2.92511861309902e-02 1.95855377435637e-04
4.37950819672131e+00 2.90859668622903e-02 1.95755631192636e-04
4.42442622950820e+00 2.89216808005252e-02 1.95645643460265e-04
4.46934426229508e+00 2.87583226743009e-02 1.95525639274088e-04
4.51426229508197e+00 2.85958872427342e-02 1.95395838489335e-04
4.55918032786885e+00 2.84343692941716e-02 1.95256456159239e-04
4.60409836065574e+00 2.82737636463963e-02 1.95107702457818e-04
4.64901639344262e+00 2.81140651461215e-02 1.94949782625832e-04
4.69393442622951e+00 2.79552686698580e-02 1.94782897321853e-04
4.73885245901639e+00 2.77973691227057e-02 1.94607243067269e-04
4.78377049180328e+00 2.76403614382160e-02 1.94423011753914e-04
4.82868852459016e+00 2.74842405792181e-02 1.94230391080420e-04
4.87360655737705e+00 2.73290015366589e-02 1.94029564876195e-04
4.91852459016393e+00 2.71746393297773e-02 1.93820713003361e-04
4.96344262295082e+00 2.70211490056377e-02 1.93604011280799e-04
5.00836065573770e+00 2.68685256399025e-02 1.93379631786961e-04
5.05327868852459e+00 2.67167643357331e-02 1.93147743158020e-04
5.09819672131148e+00 2.65658602239507e-02 1.92908510483072e-04
5.14311475409836e+00 2.64158084625889e-02 1.92662095220690e-04
5.18803278688525e+00 2.62666042376159e-02 1.92408655478421e-04
5.23295081967213e+00 2.61182427618946e-02 1.92148346378781e-04
5.27786885245902e+00 2.59707192750496e-02 1.91881319589868e-04
5.32278688524590e+00 2.58240290441556e-02 1.91607723686257e-04
5.36770491803279e+00 2.56781673627360e-02 1.91327704411139e-04
5.41262295081967e+00 2.55331295508983e-02 1.91041404563333e-04
5.45754098360656e+00 2.53889109549207e-02 1.90748963904504e-04
5.50245901639344e+00 2.52455069478974e-02 1.90450519406433e-04
5.54737704918033e+00 2.51029129287886e-02 1.90146205579357e-04
5.59229508196721e+00 2.49611243222904e-02 1.89836154020902e-04
5.63721311475410e+00 2.48201365794516e-02 1.89520493741011e-04
5.68213114754098e+00 2.46799451767576e-02 1.89199351395395e-04
5.72704918032787e+00 2.45405456162434e-02 1.88872851169058e-04
5.77196721311475e+00 2.44019334251115e-02 1.88541114678670e-04
5.81688524590164e+00 2.42641041563104e-02 1.88204261193640e-04
5.86180327868852e+00 2.41270533876630e-02 1.87862407933708e-04
5.90672131147541e+00 2.39907767217402e-02 1.87515669637729e-04
5.95163934426230e+00 2.38552697864155e-02 1.87164158858463e-04
5.99655737704918e+00 2.37205282340229e-02 1.86807986172846e-04
6.04147540983607e+00 2.35865477414534e-02 1.86447260064836e-04
6.08639344262295e+00 2.34533240097984e-02 1.86082086825992e-04
6.13131147540984e+00 2.33208527648705e-02 1.85712570755025e-04
6.17622950819672e+00 2.31891297564023e-02 1.85338814355838e-04
6.22114754098361e+00 2.30581507581333e-02 1.84960918221496e-04
6.26606557377049e+00 2.29279115674677e-02 1.84578980935162e-04
6.31098360655738e+00 2.27984080059639e-02 1.84193099258449e-04
6.35590163934426e+00 2.26696359185709e-02 1.83803368389439e-04
6.40081967213115e+00 2.25415911735078e-02 1.83409881564449e-04
6.44573770491803e+00 2.24142696627332e-02 1.83012730314343e-04
6.49065573770492e+00 2.22876673012062e-02 1.82612004644876e-04
6.53557377049180e+00 2.21617800269595e-02 1.82207792922786e-04
6.58049180327869e+00 2.20366038007801e-02 1.81800181777605e-04
6.62540983606557e+00 2.19121346066511e-02 1.81389256273634e-04
6.67032786885246e+00 2.17883684510465e-02 1.80975100147525e-04
6.71524590163934e+00 2.16653013628148e-02 1.80557795429981e-04
6.76016393442623e+00 2.15429293936028e-02 1.80137422681953e-04
6.80508196721312e+00 2.14212486171734e-02 1.79714061159955e-04
6.85000000000000e+00 2.13002551294656e-02 1.79287788705081e-04
6.89491803278689e+00 2.11799450482964e-02 1.78858681646868e-04
6.93983606557377e+00 2.10603145137606e-02 1.78426814961148e-04
6.98475409836066e+00 2.09413596875784e-02 1.77992262427220e-04
7.02967213114754e+00 2.08230767531496e-02 1.77555096519303e-04
7.07459016393443e+00 2.07054619152664e-02 1.77115388312144e-04
7.11950819672131e+00 2.05885114004904e-02 1.76673207631232e-04
7.16442622950820e+00 2.04722214565285e-02 1.76228623262874e-04
7.20934426229508e+00 2.03565883521225e-02 1.75781702606778e-04
7.25426229508197e+00 2.02416083774112e-02 1.75332511885170e-04
7.29918032786885e+00 2.01272778433253e-02 1.74881116287840e-04
7.34409836065574e+00 2.00135930816329e-02 1.74427579867441e-04
7.38901639344262e+00 1.99005504446690e-02 1.73971965447916e-04
7.43393442622951e+00 1.97881463056784e-02 1.73514334763401e-04
7.47885245901639e+00 1.96763770582362e-02 1.73054748653504e-04
7.52377049180328e+00 1.95652391161407e-02 1.72593266733929e-04
7.56868852459016e+00 1.94547289137427e-02 1.72129947590954e-04
7.61360655737705e+00 1.93448429053835e-02 1.71664848915920e-04
7.65852459016393e+00 1.92355775654311e-02 1.71198027404483e-04
7.70344262295082e+00 1.91269293880271e-02 1.70729538668274e-04
7.74836065573770e+00 1.90188948873983e-02 1.70259437363709e-04
7.79327868852459e+00 1.89114705973171e-02 1.69787777320583e-04
7.83819672131148e+00 1.88046530711347e-02 1.69314611443995e-04
7.88311475409836e+00 1.86984388815361e-02 1.68839991628177e-04
7.92803278688525e+00 1.85928246208344e-02 1.68363968879725e-04
7.97295081967213e+00 1.84878069004542e-02 1.67886593492408e-04
8.01786885245902e+00 1.83833823508307e-02 1.67407914745077e-04
8.06278688524590e+00 1.82795476216922e-02 1.66927981075868e-04
8.10770491803279e+00 1.81762993815589e-02 1.66446840201881e-04
8.15262295081967e+00 1.80736343177681e-02 1.65964539025263e-04
8.19754098360656e+00 1.79715491362444e-02 1.65481123550409e-04
8.24245901639344e+00 1.78700405617676e-02 1.64996638998807e-04
8.28737704918033e+00 1.77691053374911e-02 1.64511129972499e-04
8.33229508196721e+00 1.76687402248444e-02 1.64024640167856e-04
8.37721311475410e+00 1.75689420037907e-02 1.63537212538556e-04
8.42213114754098e+00 1.74697074723594e-02 1.63048889407284e-04
8.46704918032787e+00 1.73710334466656e-02 1.62559712375909e-04
8.51196721311475e+00 1.72729167606931e-02 1.62069722246135e-04
8.55688524590164e+00 1.71753542665396e-02 1.61578959126749e-04
8.60180327868853e+00 1.70783428339663e-02 1.61087462586762e-04
8.64672131147541e+00 1.69818793503040e-02 1.60595271384232e-04
8.69163934426230e+00 1.68859607206889e-02 1.60102423618929e-04
8.73655737704918e+00 1.67905838676249e-02 1.59608956836861e-04
8.78147540983607e+00 1.66957457309984e-02 1.59114907944517e-04
8.82639344262295e+00 1.66014432678742e-02 1.58620313132848e-04
8.87131147540984e+00 1.65076734527185e-02 1.58125207977649e-04
8.91622950819672e+00 1.64144332769788e-02 1.57629627539956e-04
8.96114754098361e+00 1.63217197490958e-02 1.57133606282776e-04
9.00606557377049e+00 1.62295298943057e-02 1.56637177997208e-04
9.05098360655738e+00 1.61378607548520e-02 1.56140375898924e-04
9.09590163934426e+00 1.60467093895810e-02 1.55643232766702e-04
9.14081967213115e+00 1.59560728738532e-02 1.55145780693551e-04
9.18573770491803e+00 1.58659482997470e-02 1.54648051224904e-04
9.23065573770492e+00 1.57763327756654e-02 1.54150075452710e-04
9.27557377049180e+00 1.56872234263440e-02 1.53651883936067e-04
9.32049180327869e+00 1.55986173926645e-02 1.53153506630639e-04
9.36540983606557e+00 1.55105118318478e-02 1.52654972979163e-04
9.41032786885246e+00 1.54229039170758e-02 1.52156312041715e-04
9.45524590163934e+00 1.53357908374056e-02 1.51657552259822e-04
9.50016393442623e+00 1.52491697979559e-02 1.51158721586387e-04
9.54508196721311e+00 1.51630380195389e-02 1.50659847574098e-04
9.59000000000000e+00 1.50773927386643e-02 1.50160957299778e-04
9.63491803278689e+00 1.49922312073628e-02 1.49662077296995e-04
9.67983606557377e+00 1.49075506933638e-02 1.49163233641070e-04
9.72475409836066e+00 1.48233484797401e-02 1.48664452034271e-04
9.76967213114754e+00 1.47396218649103e-02 1.48165757732354e-04
9.81459016393443e+00 1.46563681624684e-02 1.47667175479122e-04
9.85950819672131e+00 1.45735847013515e-02 1.47168729588338e-04
9.90442622950820e+00 1.44912688254982e-02 1.46670444062155e-04
9.94934426229508e+00 1.44094178937677e-02 1.46172342374434e-04
9.99426229508197e+00 1.43280292801017e-02 1.45674447553255e-04
1.00391803278689e+01 1.42471003732719e-02 1.45176782262348e-04
1.00840983606557e+01 1.41666285768757e-02 1.44679369189854e-04
1.01290163934426e+01 1.40866113082287e-02 1.44182229959154e-04
1.01739344262295e+01 1.40070460008145e-02 1.43685385736902e-04
1.02188524590164e+01 1.39279301018173e-02 1.43188858368732e-04
1.02637704918033e+01 1.38492610720795e-02 1.42692668273844e-04
1.03086885245902e+01 1.37710363883187e-02 1.42196835505845e-04
1.03536065573771e+01 1.36932535407325e-02 1.41701380790019e-04
1.03985245901639e+01 1.36159100329561e-02 1.41206323466470e-04
1.04434426229508e+01 1.35390033842132e-02 1.40711682526385e-04
1.04883606557377e+01 1.34625311269898e-02 1.40217477625076e-04
1.05332786885246e+01 1.33864908069927e-02 1.39723727072434e-04
1.05781967213115e+01 1.33108799852357e-02 1.39230448845277e-04
1.06231147540984e+01 1.32356962357811e-02 1.38737661576827e-04
1.06680327868852e+01 1.31609371456976e-02 1.38245382593202e-04
1.07129508196721e+01 1.30866003170857e-02 1.37753628902494e-04
1.07578688524590e+01 1.30126833648829e-02 1.37262418161318e-04
1.08027868852459e+01 1.29391839168232e-02 1.36771766756158e-04
1.08477049180328e+01 1.28660996154012e-02 1.36281690769767e-04
1.08926229508197e+01 1.27934281157416e-02 1.35792206925404e-04
1.09375409836066e+01 1.27211670855575e-02 1.35303330711882e-04
1.09824590163934e+01 1.26493142070579e-02 1.34815077327875e-04
1.10273770491803e+01 1.25778671748770e-02 1.34327462604444e-04
1.10722950819672e+01 1.25068236960335e-02 1.33840501172691e-04
1.11172131147541e+01 1.24361814917817e-02 1.33354207386422e-04
1.11621311475410e+01 1.23659382955999e-02 1.32868596223684e-04
1.12070491803279e+01 1.22960918531495e-02 1.32383681495890e-04
1.12519672131148e+01 1.22266399240726e-02 1.31899476749311e-04
1.12968852459016e+01 1.21575802800371e-02 1.31415996146286e-04
1.13418032786885e+01 1.20889107046958e-02 1.30933252714756e-04
1.13867213114754e+01 1.20206289954320e-02 1.30451259229081e-04
1.14316393442623e+01 1.19527329614598e-02 1.29970029071417e-04
1.14765573770492e+01 1.18852204237828e-02 1.29489574520665e-04
1.15214754098361e+01 1.18180892168902e-02 1.29009907613203e-04
1.15663934426230e+01 1.17513371869093e-02 1.28531040984919e-04
1.16113114754098e+01 1.16849621915652e-02 1.28052986198551e-04
1.16562295081967e+01 1.16189621018277e-02 1.27575754584815e-04
1.17011475409836e+01 1.15533348001157e-02 1.27099358065616e-04
1.17460655737705e+01 1.14880781802566e-02 1.26623807518852e-04
1.17909836065574e+01 1.14231901490865e-02 1.26149113600421e-04
1.18359016393443e+01 1.13586686247044e-02 1.25675287549115e-04
1.18808196721311e+01 1.12945115364313e-02 1.25202339587863e-04
1.19257377049180e+01 1.12307168263657e-02 1.24730279727176e-04
1.19706557377049e+01 1.11672824476853e-02 1.24259118552131e-04
1.20155737704918e+01 1.11042063646068e-02 1.23788865659204e-04
1.20604918032787e+01 1.10414865538967e-02 1.23319530441607e-04
1.21054098360656e+01 1.09791210032207e-02 1.22851122858810e-04
1.21503278688525e+01 1.09171077111027e-02 1.22383651908075e-04
1.21952459016393e+01 1.08554446883938e-02 1.21917126392128e-04
1.22401639344262e+01 1.07941299566662e-02 1.21451555671659e-04
1.22850819672131e+01 1.07331615481727e-02 1.20986948170713e-04
1.23300000000000e+01 1.06725375072750e-02 1.20523312127140e-04
1.23749180327869e+01 1.06122558888806e-02 1.20060656090457e-04
1.24198360655738e+01 1.05523147588833e-02 1.19598988413768e-04
1.24647540983607e+01 1.04927121936269e-02 1.19138316795895e-04
1.25096721311475e+01 1.04334462812757e-02 1.18678648760094e-04
1.25545901639344e+01 1.03745151203123e-02 1.18219992366419e-04
1.25995081967213e+01 1.03159168194975e-02 1.17762354796661e-04
1.26444262295082e+01 1.02576494992041e-02 1.17305743064680e-04
1.26893442622951e+01 1.01997112899539e-02 1.16850164712966e-04
1.27342622950820e+01 1.01421003323787e-02 1.16395626428632e-04
1.27791803278689e+01 1.00848147785170e-02 1.15942134738165e-04
1.28240983606557e+01 1.00278527903901e-02 1.15489696688589e-04
1.28690163934426e+01 9.97121253996364e-03 1.15038318493730e-04
1.29139344262295e+01 9.91489221040840e-03 1.14588006213774e-04
1.29588524590164e+01 9.85888999471445e-03 1.14138766421414e-04
1.30037704918033e+01 9.80320409565314e-03 1.13690604877654e-04
1.30486885245902e+01 9.74783272700317e-03 1.13243527196540e-04
1.30936065573771e+01 9.69277411220155e-03 1.12797539496653e-04
1.31385245901639e+01 9.63802648430610e-03 1.12352647105755e-04
1.31834426229508e+01 9.58358808718788e-03 1.11908855211055e-04
1.32283606557377e+01 9.52945717421789e-03 1.11466169496392e-04
1.32732786885246e+01 9.47563200822989e-03 1.11024594875043e-04
1.33181967213115e+01 9.42211086268047e-03 1.10584136125846e-04
1.33631147540984e+01 9.36889202037019e-03 1.10144798516437e-04
1.34080327868852e+01 9.31597377340693e-03 1.09706586563551e-04
1.34529508196721e+01 9.26335442433446e-03 1.09269504655344e-04
1.34978688524590e+01 9.21103228488705e-03 1.08833557661028e-04
1.35427868852459e+01 9.15900567595330e-03 1.08398749717983e-04
1.35877049180328e+01 9.10727292867418e-03 1.07965084840630e-04
1.36326229508197e+01 9.05583238323015e-03 1.07532567516767e-04
1.36775409836066e+01 9.00468238880546e-03 1.07101201520898e-04
1.37224590163934e+01 8.95382130465658e-03 1.06670990509934e-04
1.37673770491803e+01 8.90324749893088e-03 1.06241938606569e-04
1.38122950819672e+01 8.85295934863134e-03 1.05814049238215e-04
1.38572131147541e+01 8.80295524065633e-03 1.05387325719795e-04
1.39021311475410e+01 8.75323357064893e-03 1.04961771824565e-04
1.39470491803279e+01 8.70379274296200e-03 1.04537390647987e-04
1.39919672131148e+01 8.65463117167015e-03 1.04114185177889e-04
1.40368852459016e+01 8.60574727944891e-03 1.03692158853065e-04
1.40818032786885e+01 8.55713949754006e-03 1.03271314451531e-04
1.41267213114754e+01 8.50880626673668e-03 1.02851654648317e-04
1.41716393442623e+01 8.46074603629127e-03 1.02433182562141e-04
