Energy (eV)          EEDF (eV^-(3/2))     First Anisotropy
8.44262295081967e-04 6.86674073093726e+00 3.15260518993180e-03
2.53278688524590e-03 6.82812870463271e+00 5.20872156730864e-03
4.22131147540984e-03 6.78973379566030e+00 6.88372151230059e-03
5.90983606557377e-03 6.75155478317477e+00 8.16088021449442e-03
7.59836065573771e-03 6.71359045318252e+00 9.22990122936744e-03
9.28688524590164e-03 6.67583959851418e+00 1.01623783533207e-02
1.09754098360656e-02 6.63830101890800e+00 1.09952974707998e-02
1.26639344262295e-02 6.60097352056859e+00 1.17509556233665e-02
1.43524590163934e-02 6.56385591658547e+00 1.24441159359776e-02
1.60409836065574e-02 6.52694702671914e+00 1.30851953806089e-02
1.77295081967213e-02 6.49024567736468e+00 1.36818923839281e-02
1.94180327868852e-02 6.45375070151311e+00 1.42401007341868e-02
2.11065573770492e-02 6.41746093871907e+00 1.47644602239007e-02
2.27950819672131e-02 6.38137523506203e+00 1.52587070358727e-02
2.44836065573770e-02 6.34549244310941e+00 1.57259066459927e-02
2.61721311475410e-02 6.30981142188021e+00 1.61686142572650e-02
2.78606557377049e-02 6.27433103692970e+00 1.65889887207989e-02
2.95491803278689e-02 6.23905015994353e+00 1.69888754175300e-02
3.12377049180328e-02 6.20396766908002e+00 1.73698679217423e-02
3.29262295081967e-02 6.16908244880540e+00 1.77333548191588e-02
3.46147540983607e-02 6.13439338985842e+00 1.80805557631876e-02
3.63032786885246e-02 6.09989938921471e+00 1.84125496995909e-02
3.79918032786885e-02 6.06559935005241e+00 1.87302972453778e-02
3.96803278688525e-02 6.03149218171725e+00 1.90346586437456e-02
4.13688524590164e-02 5.99757679968766e+00 1.93264083239840e-02
4.30573770491803e-02 5.96385212554029e+00 1.96062468140232e-02
4.47459016393443e-02 5.93031708698564e+00 1.98748106169085e-02
4.64344262295082e-02 5.89697061762129e+00 2.01326803934077e-02
4.81229508196721e-02 5.86381165711385e+00 2.03803878245521e-02
4.98114754098361e-02 5.83083915109219e+00 2.06184214533044e-02
5.15000000000000e-02 5.79805205111390e+00 2.08472316171281e-02
5.31885245901639e-02 5.76544931463184e+00 2.10672346744413e-02
5.48770491803279e-02 5.73302990496115e+00 2.12788166389172e-02
5.65655737704918e-02 5.70079279124640e+00 2.14823363207306e-02
5.82540983606557e-02 5.66873694842868e+00 2.16781280545809e-02
5.99426229508197e-02 5.63686135721300e+00 2.18665040720780e-02
6.16311475409836e-02 5.60516500408350e+00 2.20477566090711e-02
6.33196721311475e-02 5.57364688112676e+00 2.22221597242239e-02
6.50081967213115e-02 5.54230598614593e+00 2.23899709028800e-02
6.66967213114754e-02 5.51114132257952e+00 2.25514325141720e-02
6.83852459016393e-02 5.48015189946976e+00 2.27067730783654e-02
7.00737704918033e-02 5.44933673143100e+00 2.28562084038494e-02
7.17622950819672e-02 5.41869483861840e+00 2.29999426040907e-02
7.34508196721312e-02 5.38822524669694e+00 2.31381690099018e-02
7.51393442622951e-02 5.35792698681030e+00 2.32710709899907e-02
7.68278688524590e-02 5.32779909555010e+00 2.33988226846808e-02
7.85163934426230e-02 5.29784061496038e+00 2.35215896935751e-02
8.02049180327869e-02 5.26805059240064e+00 2.36395296690941e-02
8.18934426229508e-02 5.23842808062315e+00 2.37527928544102e-02
8.35819672131148e-02 5.20897213770658e+00 2.38615226035452e-02
8.52704918032787e-02 5.17968182702608e+00 2.39658558319705e-02
8.69590163934426e-02 5.15055621722345e+00 2.40659234342439e-02
8.86475409836066e-02 5.12159438217749e+00 2.41618506663564e-02
9.03360655737705e-02 5.09279540097471e+00 2.42537574964818e-02
9.20245901639344e-02 5.06415835787996e+00 2.43417589273080e-02
9.37131147540984e-02 5.03568234230728e+00 2.44259652873719e-02
9.54016393442623e-02 5.00736644881829e+00 2.45064825205777e-02
9.70901639344262e-02 4.97920977701077e+00 2.45834124279776e-02
9.87786885245902e-02 4.95121143157337e+00 2.46568528905498e-02
1.00467213114754e-01 4.92337052222913e+00 2.47268980819876e-02
1.02155737704918e-01 4.89568616380549e+00 2.47936387431714e-02
1.03844262295082e-01 4.86815747581220e+00 2.48571622889886e-02
1.05532786885246e-01 4.84078358290859e+00 2.49175528924207e-02
1.07221311475410e-01 4.81356361491335e+00 2.49748918930251e-02
1.08909836065574e-01 4.78649670606409e+00 2.50292577626611e-02
1.10598360655738e-01 4.75958199592881e+00 2.50807262879704e-02
1.12286885245902e-01 4.73281862846330e+00 2.51293707558177e-02
1.13975409836066e-01 4.70620575266211e+00 2.51752618850670e-02
1.15663934426230e-01 4.67974252251844e+00 2.52184682217002e-02
1.17352459016393e-01 4.65342809635533e+00 2.52590560635181e-02
1.19040983606557e-01 4.62726163764591e+00 2.52970896010669e-02
1.20729508196721e-01 4.60124231415983e+00 2.53326310204759e-02
1.22418032786885e-01 4.57536929874423e+00 2.53657405850479e-02
1.24106557377049e-01 4.54964176850855e+00 2.53964767681082e-02
1.25795081967213e-01 4.52405890538406e+00 2.54248961588378e-02
1.27483606557377e-01 4.49861989608691e+00 2.54510537918166e-02
1.29172131147541e-01 4.47332393153623e+00 2.54750030508008e-02
1.30860655737705e-01 4.44817020756258e+00 2.54967957716783e-02
1.32549180327869e-01 4.42315792416441e+00 2.55164823512903e-02
1.34237704918033e-01 4.39828628601566e+00 2.55341116435642e-02
1.35926229508197e-01 4.37355450243123e+00 2.55497312559691e-02
1.37614754098361e-01 4.34896178683427e+00 2.55633874458324e-02
1.39303278688525e-01 4.32450735740157e+00 2.55751252053311e-02
1.40991803278689e-01 4.30019043638249e+00 2.55849883527682e-02
1.42680327868852e-01 4.27601025056151e+00 2.55930194239709e-02
1.44368852459016e-01 4.25196603122557e+00 2.55992599422551e-02
1.46057377049180e-01 4.22805701367470e+00 2.56037503112854e-02
1.47745901639344e-01 4.20428243781208e+00 2.56065298868432e-02
1.49434426229508e-01 4.18064154751790e+00 2.56076370548764e-02
1.51122950819672e-01 4.15713359107272e+00 2.56071091213638e-02
1.52811475409836e-01 4.13375782112587e+00 2.56049825604593e-02
1.54500000000000e-01 4.11051349424483e+00 2.56012929063958e-02
1.56188524590164e-01 4.08739987145633e+00 2.55960748153185e-02
1.57877049180328e-01 4.06441621766890e+00 2.55893621000810e-02
1.59565573770492e-01 4.04156180219279e+00 2.55811877529832e-02
1.61254098360656e-01 4.01883589818373e+00 2.55715840099683e-02
1.62942622950820e-01 3.99623778301631e+00 2.55605822421698e-02
1.64631147540984e-01 3.97376673825455e+00 2.55482131780471e-02
1.66319672131148e-01 3.95142204924979e+00 2.55345067974821e-02
1.68008196721311e-01 3.92920300561968e+00 2.55194923829490e-02
1.69696721311475e-01 3.90710890073316e+00 2.55031985765391e-02
1.71385245901639e-01 3.88513903205425e+00 2.54856532733589e-02
1.73073770491803e-01 3.86329270111410e+00 2.54668838288339e-02
1.74762295081967e-01 3.84156921313775e+00 2.54469169549524e-02
1.76450819672131e-01 3.81996787748644e+00 2.54257787657735e-02
1.78139344262295e-01 3.79848800717958e+00 2.54034948285992e-02
1.79827868852459e-01 3.77712891921222e+00 2.53800900599716e-02
1.81516393442623e-01 3.75588993452823e+00 2.53555889199521e-02
1.83204918032787e-01 3.73477037767311e+00 2.53300153110025e-02
1.84893442622951e-01 3.71376957720349e+00 2.53033926189541e-02
1.86581967213115e-01 3.69288686524227e+00 2.52757437593193e-02
1.88270491803279e-01 3.67212157777263e+00 2.52470910763250e-02
1.89959016393443e-01 3.65147305461201e+00 2.52174565256153e-02
1.91647540983607e-01 3.63094063908871e+00 2.51868615760875e-02
1.93336065573771e-01 3.61052367842163e+00 2.51553272471272e-02
1.95024590163934e-01 3.59022152330553e+00 2.51228741245675e-02
1.96713114754098e-01 3.57003352827779e+00 2.50895223682963e-02
1.98401639344262e-01 3.54995905131681e+00 2.50552917529382e-02
2.00090163934426e-01 3.52999745410548e+00 2.50202015719276e-02
2.01778688524590e-01 3.51014810200664e+00 2.49842708052578e-02
2.03467213114754e-01 3.49041036377012e+00 2.49475180263370e-02
2.05155737704918e-01 3.47078361187398e+00 2.49099614347288e-02
2.06844262295082e-01 3.45126722214908e+00 2.48716188936757e-02
2.08532786885246e-01 3.43186057402396e+00 2.48325078374527e-02
2.10221311475410e-01 3.41256305050138e+00 2.47926454301058e-02
2.11909836065574e-01 3.39337403788391e+00 2.47520484755922e-02
2.13598360655738e-01 3.37429292609191e+00 2.47107334479716e-02
2.15286885245902e-01 3.35531910831194e+00 2.46687165261511e-02
2.16975409836066e-01 3.33645198122495e+00 2.46260135046096e-02
2.18663934426230e-01 3.31769094498353e+00 2.45826399438908e-02
2.20352459016393e-01 3.29903540295467e+00 2.45386110839593e-02
2.22040983606557e-01 3.28048476201645e+00 2.44939418722389e-02
2.23729508196721e-01 3.26203843222828e+00 2.44486469736270e-02
2.25418032786885e-01 3.24369582711834e+00 2.44027407738670e-02
2.27106557377049e-01 3.22545636336333e+00 2.43562374108319e-02
2.28795081967213e-01 3.20731946099476e+00 2.43091506902679e-02
2.30483606557377e-01 3.18928454337728e+00 2.42614942253234e-02
2.32172131147541e-01 3.17135103697384e+00 2.42132813547346e-02
2.33860655737705e-01 3.15351837161442e+00 2.41645251681481e-02
2.35549180327869e-01 3.13578598019518e+00 2.41152385354229e-02
2.37237704918033e-01 3.11815329887117e+00 2.40654340255292e-02
2.38926229508197e-01 3.10061976703554e+00 2.40151240393073e-02
2.40614754098361e-01 3.08318482709845e+00 2.39643207307693e-02
2.42303278688525e-01 3.06584792473876e+00 2.39130360307992e-02
2.43991803278689e-01 3.04860850862090e+00 2.38612816746696e-02
2.45680327868852e-01 3.03146603057525e+00 2.38090691240247e-02
2.47368852459016e-01 3.01441994557807e+00 2.37564096933512e-02
2.49057377049180e-01 2.99746971154317e+00 2.37033144742942e-02
2.50745901639344e-01 2.98061478955787e+00 2.36497943579178e-02
2.52434426229508e-01 2.96385464361628e+00 2.35958600605885e-02
2.54122950819672e-01 2.94718874078837e+00 2.35415220489891e-02
2.55811475409836e-01 2.93061655120047e+00 2.34867906607152e-02
2.57500000000000e-01 2.91413754783880e+00 2.34316760314755e-02
2.59188524590164e-01 2.89775120677101e+00 2.33761881160872e-02
2.60877049180328e-01 2.88145700689450e+00 2.33203366946314e-02
2.62565573770492e-01 2.86525443015157e+00 2.32641313734742e-02
2.64254098360656e-01 2.84914296128446e+00 2.32075816090383e-02
2.65942622950820e-01 2.83312208798937e+00 2.31506966371151e-02
2.67631147540984e-01 2.81719130089793e+00 2.30934855855100e-02
2.69319672131148e-01 2.80135009339639e+00 2.30359574054131e-02
2.71008196721311e-01 2.78559796182778e+00 2.29781208906897e-02
2.72696721311475e-01 2.76993440526063e+00 2.29199847003938e-02
2.74385245901639e-01 2.75435892563357e+00 2.28615572908091e-02
2.76073770491803e-01 2.73887102773750e+00 2.28028470230762e-02
2.77762295081967e-01 2.72347021904451e+00 2.27438620972288e-02
2.79450819672131e-01 2.70815600989821e+00 2.26846105704596e-02
2.81139344262295e-01 2.69292791329494e+00 2.26251003784507e-02
2.82827868852459e-01 2.67778544501987e+00 2.25653392700498e-02
2.84516393442623e-01 2.66272812362962e+00 2.25053349101955e-02
2.86204918032787e-01 2.64775547029043e+00 2.24450948164904e-02
2.87893442622951e-01 2.63286700895734e+00 2.23846263765313e-02
2.89581967213115e-01 2.61806226616721e+00 2.23239368681499e-02
2.91270491803279e-01 2.60334077116679e+00 2.22630333966322e-02
2.92959016393443e-01 2.58870205589584e+00 2.22019229931992e-02
2.94647540983607e-01 2.57414565483394e+00 2.21406125540116e-02
2.96336065573771e-01 2.55967110516926e+00 2.20791088566529e-02
2.98024590163934e-01 2.54527794660261e+00 2.20174185642728e-02
2.99713114754098e-01 2.53096572151174e+00 2.19555482256592e-02
3.01401639344262e-01 2.51673397476006e+00 2.18935042940335e-02
3.03090163934426e-01 2.50258225381413e+00 2.18312930678191e-02
3.04778688524590e-01 2.48851010872750e+00 2.17689207830618e-02
3.06467213114754e-01 2.47451709199884e+00 2.17063935558894e-02
3.08155737704918e-01 2.46060275872703e+00 2.16437173978163e-02
3.09844262295082e-01 2.44676666642984e+00 2.15808982336585e-02
3.11532786885246e-01 2.43300837515458e+00 2.15179418445627e-02
3.13221311475410e-01 2.41932744746259e+00 2.14548539565569e-02
3.14909836065574e-01 2.40572344829455e+00 2.13916401852335e-02
3.16598360655738e-01 2.39219594511689e+00 2.13283060503235e-02
3.18286885245902e-01 2.37874450774980e+00 2.12648569927634e-02
3.19975409836066e-01 2.36536870847166e+00 2.12012983199222e-02
3.21663934426230e-01 2.35206812200394e+00 2.11376352904938e-02
3.23352459016393e-01 2.33884232538332e+00 2.10738730612730e-02
3.25040983606557e-01 2.32569089810007e+00 2.10100167010689e-02
3.26729508196721e-01 2.31261342193468e+00 2.09460711939025e-02
3.28418032786885e-01 2.29960948109274e+00 2.08820414387470e-02
3.30106557377049e-01 2.28667866204531e+00 2.08179322654475e-02
3.31795081967213e-01 2.27382055362511e+00 2.07537483830144e-02
3.33483606557377e-01 2.26103474701203e+00 2.06894944594948e-02
3.35172131147541e-01 2.24832083561431e+00 2.06251750717028e-02
3.36860655737705e-01 2.23567841519609e+00 2.05607947182205e-02
3.38549180327869e-01 2.22310708372576e+00 2.04963578346240e-02
3.40237704918033e-01 2.21060644146681e+00 2.04318687437266e-02
3.41926229508197e-01 2.19817609096384e+00 2.03673317322247e-02
3.43614754098361e-01 2.18581563692950e+00 2.03027510023407e-02
3.45303278688525e-01 2.17352468636522e+00 2.02381306842446e-02
3.46991803278689e-01 2.16130284841701e+00 2.01734748506156e-02
3.48680327868852e-01 2.14914973446136e+00 2.01087874687566e-02
3.50368852459016e-01 2.13706495809168e+00 2.00440724741810e-02
3.52057377049180e-01 2.12504813501071e+00 1.99793337240831e-02
3.53745901639344e-01 2.11309888314481e+00 1.99145750092135e-02
3.55434426229508e-01 2.10121682250681e+00 1.98498000678058e-02
3.57122950819672e-01 2.08940157527725e+00 1.97850125395109e-02
3.58811475409836e-01 2.07765276579124e+00 1.97202160360575e-02
3.60500000000000e-01 2.06597002043602e+00 1.96554140964572e-02
3.62188524590164e-01 2.05435296775922e+00 1.95906101983931e-02
3.63877049180328e-01 2.04280123833832e+00 1.95258077605859e-02
3.65565573770492e-01 2.03131446488625e+00 1.94610101423363e-02
3.67254098360656e-01 2.01989228212370e+00 1.93962206565847e-02
3.68942622950820e-01 2.00853432685415e+00 1.93314425263640e-02
3.70631147540984e-01 1.99724023795130e+00 1.92666789514466e-02
3.72319672131148e-01 1.98600965626350e+00 1.92019330659914e-02
3.74008196721311e-01 1.97484222471396e+00 1.91372079492280e-02
3.75696721311475e-01 1.96373758817906e+00 1.90725066379708e-02
3.77385245901639e-01 1.95269539355942e+00 1.90078320846839e-02
3.79073770491803e-01 1.94171528976777e+00 1.89431872215423e-02
3.80762295081967e-01 1.93079692763777e+00 1.88785749196586e-02
3.82450819672131e-01 1.91993996001907e+00 1.88139979993190e-02
3.84139344262295e-01 1.90914404166136e+00 1.87494592419793e-02
3.85827868852459e-01 1.89840882928173e+00 1.86849613498886e-02
3.87516393442623e-01 1.88773398155286e+00 1.86205070076766e-02
3.89204918032787e-01 1.87711915901606e+00 1.85560988430868e-02
3.90893442622951e-01 1.86656402417155e+00 1.84917394367953e-02
3.92581967213115e-01 1.85606824136776e+00 1.84274313339136e-02
3.94270491803279e-01 1.84563147686535e+00 1.83631770051126e-02
3.95959016393443e-01 1.83525339882566e+00 1.82989789058430e-02
3.97647540983607e-01 1.82493367722775e+00 1.82348394385087e-02
3.99336065573770e-01 1.81467198395410e+00 1.81707609619014e-02
4.01024590163934e-01 1.80446799268505e+00 1.81067457930096e-02
4.02713114754098e-01 1.79432137898250e+00 1.80427962065064e-02
4.04401639344262e-01 1.78423182018654e+00 1.79789144455779e-02
4.06090163934426e-01 1.77419899547470e+00 1.79151026851162e-02
4.07778688524590e-01 1.76422258585094e+00 1.78513630876918e-02
4.09467213114754e-01 1.75430227406802e+00 1.77876977677499e-02
4.11155737704918e-01 1.74443774470704e+00 1.77241088004837e-02
4.12844262295082e-01 1.73462868407875e+00 1.76605982322367e-02
4.14532786885246e-01 1.72487478027982e+00 1.75971680450360e-02
4.16221311475410e-01 1.71517572318212e+00 1.75338202104515e-02
4.17909836065574e-01 1.70553120435858e+00 1.74705566551042e-02
4.19598360655738e-01 1.69594091715879e+00 1.74073792691878e-02
4.21286885245902e-01 1.68640455661473e+00 1.73442899164532e-02
4.22975409836066e-01 1.67692181949426e+00 1.72812904000414e-02
4.24663934426230e-01 1.66749240429065e+00 1.72183825143223e-02
4.26352459016393e-01 1.65811601115176e+00 1.71555680116496e-02
4.28040983606557e-01 1.64879234195193e+00 1.70928486105543e-02
4.29729508196721e-01 1.63952110020190e+00 1.70302259972433e-02
4.31418032786885e-01 1.63030199111914e+00 1.69677018250883e-02
4.33106557377049e-01 1.62113472153954e+00 1.69052777240351e-02
4.34795081967213e-01 1.61201899996712e+00 1.68429552682380e-02
4.36483606557377e-01 1.60295453656396e+00 1.67807360251176e-02
4.38172131147541e-01 1.59394104308384e+00 1.67186215238520e-02
4.39860655737705e-01 1.58497823293906e+00 1.66566132631091e-02
4.41549180327869e-01 1.57606582111609e+00 1.65947127201007e-02
4.43237704918033e-01 1.56720352422275e+00 1.65329213193786e-02
4.44926229508197e-01 1.55839106047854e+00 1.64712404800710e-02
4.46614754098361e-01 1.54962814965105e+00 1.64096715855179e-02
4.48303278688525e-01 1.54091451311962e+00 1.63482159907029e-02
4.49991803278689e-01 1.53224987379468e+00 1.62868750309614e-02
4.51680327868852e-01 1.52363395616258e+00 1.62256499918956e-02
4.53368852459016e-01 1.51506648627623e+00 1.61645421548698e-02
4.55057377049180e-01 1.50654719169423e+00 1.61035527677413e-02
4.56745901639344e-01 1.49807580154149e+00 1.60426830520043e-02
4.58434426229508e-01 1.48965204643209e+00 1.59819342111625e-02
4.60122950819672e-01 1.48127565851188e+00 1.59213074017312e-02
4.61811475409836e-01 1.47294637144942e+00 1.58608037770608e-02
4.63500000000000e-01 1.46466392037770e+00 1.58004244591092e-02
4.65188524590164e-01 1.45642804195192e+00 1.57401705453233e-02
4.66877049180328e-01 1.44823847427557e+00 1.56800431098300e-02
4.68565573770492e-01 1.44009495695695e+00 1.56200432029485e-02
4.70254098360656e-01 1.43199723103676e+00 1.55601718590953e-02
4.71942622950820e-01 1.42394503902774e+00 1.55004300692855e-02
4.73631147540984e-01 1.41593812490601e+00 1.54408188226590e-02
4.75319672131148e-01 1.40797623405629e+00 1.53813390797055e-02
4.77008196721312e-01 1.40005911332572e+00 1.53219917787704e-02
4.78696721311475e-01 1.39218651095453e+00 1.52627778436663e-02
4.80385245901639e-01 1.38435817661385e+00 1.52036981571467e-02
4.82073770491803e-01 1.37657386139720e+00 1.51447536009281e-02
4.83762295081967e-01 1.36883331776808e+00 1.50859450298690e-02
4.85450819672131e-01 1.36113629961122e+00 1.50272732782273e-02
4.87139344262295e-01 1.35348256216626e+00 1.49687391669883e-02
4.88827868852459e-01 1.34587186206366e+00 1.49103434782841e-02
4.90516393442623e-01 1.33830395731652e+00 1.48520869939649e-02
4.92204918032787e-01 1.33077860727028e+00 1.47939704706894e-02
4.93893442622951e-01 1.32329557265167e+00 1.47359946459576e-02
4.95581967213115e-01 1.31585461550509e+00 1.46781602451600e-02
4.97270491803279e-01 1.30845549922688e+00 1.46204679569028e-02
4.98959016393443e-01 1.30109798855735e+00 1.45629184701940e-02
5.00647540983607e-01 1.29378184953256e+00 1.45055124504087e-02
5.02336065573771e-01 1.28650684953102e+00 1.44482505450989e-02
5.04024590163934e-01 1.27927275721271e+00 1.43911333849546e-02
5.05713114754098e-01 1.27207934256474e+00 1.43341615833537e-02
5.07401639344262e-01 1.26492637684156e+00 1.42773357430351e-02
5.09090163934426e-01 1.25781363259692e+00 1.42206564326745e-02
5.10778688524590e-01 1.25074088367618e+00 1.41641242221604e-02
5.12467213114754e-01 1.24370790517097e+00 1.41077396597774e-02
5.14155737704918e-01 1.23671447346275e+00 1.40515032777071e-02
5.15844262295082e-01 1.22976036616550e+00 1.39954155984624e-02
5.17532786885246e-01 1.22284536215614e+00 1.39394771122752e-02
5.19221311475410e-01 1.21596924156714e+00 1.38836883111201e-02
5.20909836065574e-01 1.20913178574296e+00 1.38280496666982e-02
5.22598360655738e-01 1.20233277728165e+00 1.37725616357355e-02
5.24286885245902e-01 1.19557199997989e+00 1.37172246661801e-02
5.25975409836066e-01 1.18884923886203e+00 1.36620391753859e-02
5.27663934426229e-01 1.18216428017283e+00 1.36070055829241e-02
5.29352459016393e-01 1.17551691133575e+00 1.35521242893359e-02
5.31040983606557e-01 1.16890692099261e+00 1.34973956812407e-02
5.32729508196721e-01 1.16233409895092e+00 1.34428201321515e-02
