Energy (eV)          EEDF (eV^-(3/2))     First Anisotropy
2.08064516129032e-03 4.94292171714196e+00 3.21627369892051e-03
6.24193548387097e-03 4.88795322834542e+00 5.29926635733421e-03
1.04032258064516e-02 4.83359602465972e+00 6.96466383552307e-03
1.45645161290323e-02 4.77984330813791e+00 8.21119055106962e-03
1.87258064516129e-02 4.72668835675369e+00 9.23545807152451e-03
2.28870967741935e-02 4.67412452289538e+00 1.01122781764214e-02
2.70483870967742e-02 4.62214523292631e+00 1.08806011912926e-02
3.12096774193548e-02 4.57074398616780e+00 1.15640871386850e-02
3.53709677419355e-02 4.51991435458944e+00 1.21785190025252e-02
3.95322580645161e-02 4.46964998144776e+00 1.27351158910563e-02
4.36935483870968e-02 4.41994458069199e+00 1.32422298013937e-02
4.78548387096774e-02 4.37079193618304e+00 1.37063012246388e-02
5.20161290322581e-02 4.32218590082223e+00 1.41324365822561e-02
5.61774193548387e-02 4.27412039605728e+00 1.45247767611711e-02
6.03387096774194e-02 4.22658941083299e+00 1.48867428002823e-02
6.45000000000000e-02 4.17958700094305e+00 1.52212056172910e-02
6.86612903225806e-02 4.13310728822155e+00 1.55306068339979e-02
7.28225806451613e-02 4.08714446000568e+00 1.58170470147557e-02
7.69838709677419e-02 4.04169276820273e+00 1.60823515188261e-02
8.11451612903226e-02 3.99674652864253e+00 1.63281205677952e-02
8.53064516129032e-02 3.95230012031823e+00 1.65557679685056e-02
8.94677419354839e-02 3.90834798483491e+00 1.67665515216885e-02
9.36290322580645e-02 3.86488462555725e+00 1.69615972083005e-02
9.77903225806452e-02 3.82190460697575e+00 1.71419186346467e-02
1.01951612903226e-01 3.77940255402799e+00 1.73084328660482e-02
1.06112903225806e-01 3.73737315142594e+00 1.74619734193617e-02
1.10274193548387e-01 3.69581114309477e+00 1.76033010922633e-02
1.14435483870968e-01 3.65471133096248e+00 1.77331128651087e-02
1.18596774193548e-01 3.61406857545426e+00 1.78520495280595e-02
1.22758064516129e-01 3.57387779378984e+00 1.79607022127462e-02
1.26919354838710e-01 3.53413395942701e+00 1.80596176745575e-02
1.31080645161290e-01 3.49483210232402e+00 1.81493030953460e-02
1.35241935483871e-01 3.45596730739535e+00 1.82302302295465e-02
1.39403225806452e-01 3.41753471396242e+00 1.83028387414337e-02
1.43564516129032e-01 3.37952951592987e+00 1.83675393644469e-02
1.47725806451613e-01 3.34194696037444e+00 1.84247166685687e-02
1.51887096774194e-01 3.30478234700352e+00 1.84747312528804e-02
1.56048387096774e-01 3.26803102826437e+00 1.85179219145549e-02
1.60209677419355e-01 3.23168840804531e+00 1.85546075721339e-02
1.64370967741935e-01 3.19574994114447e+00 1.85850887513759e-02
1.68532258064516e-01 3.16021113332493e+00 1.86096491290638e-02
1.72693548387097e-01 3.12506754011266e+00 1.86285569161968e-02
1.76854838709677e-01 3.09031476627677e+00 1.86420658900068e-02
1.81016129032258e-01 3.05594846584101e+00 1.86504165272752e-02
1.85177419354839e-01 3.02196434096576e+00 1.86538370288494e-02
1.89338709677419e-01 2.98835814144100e+00 1.86525440504497e-02
1.93500000000000e-01 2.95512566466201e+00 1.86467435572414e-02
1.97661290322581e-01 2.92226275458560e+00 1.86366315826600e-02
2.01822580645161e-01 2.88976530138686e+00 1.86223948328832e-02
2.05983870967742e-01 2.85762924080132e+00 1.86042112474878e-02
2.10145161290323e-01 2.82585055405625e+00 1.85822505847591e-02
2.14306451612903e-01 2.79442526691961e+00 1.85566749796250e-02
2.18467741935484e-01 2.76334944922457e+00 1.85276392890187e-02
2.22629032258065e-01 2.73261921477892e+00 1.84952915734843e-02
2.26790322580645e-01 2.70223072046996e+00 1.84597735420420e-02
2.30951612903226e-01 2.67218016580317e+00 1.84212208054874e-02
2.35112903225806e-01 2.64246379279385e+00 1.83797632652536e-02
2.39274193548387e-01 2.61307788512266e+00 1.83355254742079e-02
2.43435483870968e-01 2.58401876768828e+00 1.82886268227767e-02
2.47596774193548e-01 2.55528280648455e+00 1.82391818579352e-02
2.51758064516129e-01 2.52686640780226e+00 1.81873005803008e-02
2.55919354838710e-01 2.49876601779552e+00 1.81330885805486e-02
2.60080645161290e-01 2.47097812234714e+00 1.80766473048193e-02
2.64241935483871e-01 2.44349924631282e+00 1.80180743027075e-02
2.68403225806452e-01 2.41632595310093e+00 1.79574633264613e-02
2.72564516129032e-01 2.38945484452842e+00 1.78949045545860e-02
2.76725806451613e-01 2.36288256010431e+00 1.78304848014476e-02
2.80887096774194e-01 2.33660577662210e+00 1.77642875883121e-02
2.85048387096774e-01 2.31062120800851e+00 1.76963933338352e-02
2.89209677419355e-01 2.28492560464314e+00 1.76268795332326e-02
2.93370967741935e-01 2.25951575296336e+00 1.75558208078182e-02
2.97532258064516e-01 2.23438847530735e+00 1.74832890689523e-02
3.01693548387097e-01 2.20954062926739e+00 1.74093536727301e-02
3.05854838709677e-01 2.18496910730690e+00 1.73340814529974e-02
3.10016129032258e-01 2.16067083659921e+00 1.72575368637645e-02
3.14177419354839e-01 2.13664277841206e+00 1.71797821139599e-02
3.18338709677419e-01 2.11288192773652e+00 1.71008771876854e-02
3.22500000000000e-01 2.08938531312267e+00 1.70208799689540e-02
3.26661290322581e-01 2.06614999609318e+00 1.69398463491610e-02
3.30822580645161e-01 2.04317307084857e+00 1.68578302810646e-02
3.34983870967742e-01 2.02045166384120e+00 1.67748838343677e-02
3.39145161290323e-01 1.99798293360644e+00 1.66910572892976e-02
3.43306451612903e-01 1.97576407021390e+00 1.66063992369176e-02
3.47467741935484e-01 1.95379229492310e+00 1.65209565802242e-02
3.51629032258065e-01 1.93206486001373e+00 1.64347746280864e-02
3.55790322580645e-01 1.91057904826153e+00 1.63478971846952e-02
3.59951612903226e-01 1.88933217260506e+00 1.62603665451200e-02
3.64112903225806e-01 1.86832157597571e+00 1.61722235794867e-02
3.68274193548387e-01 1.84754463079674e+00 1.60835078132045e-02
3.72435483870968e-01 1.82699873866089e+00 1.59942574182191e-02
3.76596774193548e-01 1.80668133016059e+00 1.59045092888486e-02
3.80758064516129e-01 1.78658986440896e+00 1.58142991141139e-02
3.84919354838710e-01 1.76672182872783e+00 1.57236613656686e-02
3.89080645161290e-01 1.74707473847871e+00 1.56326293664535e-02
3.93241935483871e-01 1.72764613660448e+00 1.55412353562142e-02
3.97403225806452e-01 1.70843359332750e+00 1.54495104768844e-02
4.01564516129032e-01 1.68943470598176e+00 1.53574848349988e-02
4.05725806451613e-01 1.67064709857420e+00 1.52651875613167e-02
4.09887096774194e-01 1.65206842149247e+00 1.51726467942733e-02
4.14048387096774e-01 1.63369635133874e+00 1.50798897369239e-02
4.18209677419355e-01 1.61552859050950e+00 1.49869427114315e-02
4.22370967741935e-01 1.59756286691273e+00 1.48938311410768e-02
4.26532258064516e-01 1.57979693380364e+00 1.48005796024009e-02
4.30693548387097e-01 1.56222856938203e+00 1.47072118751748e-02
4.34854838709677e-01 1.54485557651855e+00 1.46137509233625e-02
4.39016129032258e-01 1.52767578259257e+00 1.45202189430258e-02
4.43177419354839e-01 1.51068703910628e+00 1.44266374082992e-02
4.47338709677419e-01 1.49388722141969e+00 1.43330270516240e-02
4.51500000000000e-01 1.47727422859094e+00 1.42394079078897e-02
4.55661290322581e-01 1.46084598300616e+00 1.41457993503460e-02
4.59822580645161e-01 1.44460043015590e+00 1.40522200964913e-02
4.63983870967742e-01 1.42853553834625e+00 1.39586882162241e-02
4.68145161290323e-01 1.41264929854186e+00 1.38652211643886e-02
4.72306451612903e-01 1.39693972401632e+00 1.37718358188973e-02
4.76467741935484e-01 1.38140485010679e+00 1.36785484604280e-02
4.80629032258065e-01 1.36604273405985e+00 1.35853748091793e-02
4.84790322580645e-01 1.35085145469579e+00 1.34923300602315e-02
4.88951612903226e-01 1.33582911217129e+00 1.33994288631739e-02
4.93112903225806e-01 1.32097382782811e+00 1.33066853562735e-02
4.97274193548387e-01 1.30628374387070e+00 1.32141131993482e-02
5.01435483870968e-01 1.29175702313665e+00 1.31217255534461e-02
5.05596774193548e-01 1.27739184894832e+00 1.30295351126772e-02
5.09758064516129e-01 1.26318642480313e+00 1.29375541348329e-02
5.13919354838710e-01 1.24913897415155e+00 1.28457944212199e-02
5.18080645161290e-01 1.23524774025169e+00 1.27542673463690e-02
5.22241935483871e-01 1.22151098587175e+00 1.26629838866056e-02
5.26403225806452e-01 1.20792699307527e+00 1.25719546001223e-02
5.30564516129032e-01 1.19449406307874e+00 1.24811896547462e-02
5.34725806451613e-01 1.18121051596568e+00 1.23906988546520e-02
5.38887096774194e-01 1.16807469047884e+00 1.23004916207357e-02
5.43048387096774e-01 1.15508494388098e+00 1.22105770165974e-02
5.47209677419355e-01 1.14223965167995e+00 1.21209637735666e-02
5.51370967741936e-01 1.12953720742772e+00 1.20316602714236e-02
5.55532258064516e-01 1.11697602258423e+00 1.19426745627464e-02
5.59693548387097e-01 1.10455452625312e+00 1.18540143963896e-02
5.63854838709677e-01 1.09227116498723e+00 1.17656871985915e-02
5.68016129032258e-01 1.08012440265566e+00 1.16777000958202e-02
5.72177419354839e-01 1.06811272018955e+00 1.15900599368285e-02
5.76338709677419e-01 1.05623461539399e+00 1.15027732741769e-02
5.80500000000000e-01 1.04448860281813e+00 1.14158463856995e-02
5.84661290322581e-01 1.03287321351076e+00 1.13292852911783e-02
5.88822580645161e-01 1.02138699485632e+00 1.12430957506163e-02
5.92983870967742e-01 1.01002851037562e+00 1.11572832640577e-02
5.97145161290323e-01 9.98796339599839e-01 1.10718530869097e-02
6.01306451612903e-01 9.87689077838592e-01 1.09868102490128e-02
6.05467741935484e-01 9.76705336005794e-01 1.09021595373353e-02
6.09629032258065e-01 9.65843740496837e-01 1.08179055145663e-02
6.13790322580645e-01 9.55102932965313e-01 1.07340525370857e-02
6.17951612903226e-01 9.44481570154626e-01 1.06506047381172e-02
6.22112903225806e-01 9.33978323778235e-01 1.05675660452704e-02
6.26274193548387e-01 9.23591880304718e-01 1.04849401974873e-02
6.30435483870968e-01 9.13320940794925e-01 1.04027307286595e-02
6.34596774193548e-01 9.03164220785254e-01 1.03209409841937e-02
6.38758064516129e-01 8.93120450080722e-01 1.02395741370083e-02
6.42919354838710e-01 8.83188372597469e-01 1.01586331716159e-02
6.47080645161290e-01 8.73366746249032e-01 1.00781208997793e-02
6.51241935483871e-01 8.63654342747099e-01 9.99803997562488e-03
6.55403225806452e-01 8.54049947449182e-01 9.91839288019015e-03
6.59564516129032e-01 8.44552359247855e-01 9.83918193622754e-03
6.63725806451613e-01 8.35160390378886e-01 9.76040932249885e-03
6.67887096774194e-01 8.25872866273892e-01 9.68207705878578e-03
6.72048387096774e-01 8.16688625452508e-01 9.60418701989299e-03
6.76209677419355e-01 8.07606519337598e-01 9.52674094918069e-03
6.80370967741936e-01 7.98625412112730e-01 9.44974044403356e-03
6.84532258064516e-01 7.89744180617231e-01 9.37318696911554e-03
6.88693548387097e-01 7.80961714168184e-01 9.29708186918942e-03
6.92854838709677e-01 7.72276914422579e-01 9.22142635503683e-03
6.97016129032258e-01 7.63688695275192e-01 9.14622151601264e-03
7.01177419354839e-01 7.55195982687111e-01 9.07146833219777e-03
7.05338709677419e-01 7.46797714552395e-01 8.99716766076343e-03
7.09500000000000e-01 7.38492840598742e-01 8.92332024786898e-03
7.13661290322581e-01 7.30280322222272e-01 8.84992673758540e-03
7.17822580645161e-01 7.22159132369057e-01 8.77698766913688e-03
7.21983870967742e-01 7.14128255396400e-01 8.70450347514461e-03
7.26145161290323e-01 7.06186686976988e-01 8.63247448986623e-03
7.30306451612903e-01 6.98333433941776e-01 8.56090095990644e-03
7.34467741935484e-01 6.90567514156634e-01 8.48978303165057e-03
7.38629032258065e-01 6.82887956429162e-01 8.41912076176134e-03
7.42790322580645e-01 6.75293800357259e-01 8.34891412734450e-03
7.46951612903226e-01 6.67784096209825e-01 8.27916301379276e-03
7.51112903225806e-01 6.60357904836186e-01 8.20986722475703e-03
7.55274193548387e-01 6.53014297520126e-01 8.14102649179933e-03
7.59435483870968e-01 6.45752355864518e-01 8.07264046263684e-03
7.63596774193548e-01 6.38571171703291e-01 8.00470871061824e-03
7.67758064516129e-01 6.31469846960723e-01 7.93723074389383e-03
7.71919354838710e-01 6.24447493539870e-01 7.87020599405027e-03
7.76080645161290e-01 6.17503233237020e-01 7.80363382512022e-03
7.80241935483871e-01 6.10636197606046e-01 7.73751354229715e-03
7.84403225806452e-01 6.03845527850503e-01 7.67184438095100e-03
7.88564516129032e-01 5.97130374740521e-01 7.60662551519579e-03
7.92725806451613e-01 5.90489898482018e-01 7.54185606617735e-03
7.96887096774194e-01 5.83923268612351e-01 7.47753509145909e-03
8.01048387096774e-01 5.77429663919582e-01 7.41366159316998e-03
8.05209677419355e-01 5.71008272316381e-01 7.35023452589188e-03
8.09370967741936e-01 5.64658290739097e-01 7.28725278640351e-03
8.13532258064516e-01 5.58378925069358e-01 7.22471522143212e-03
8.17693548387097e-01 5.52169390012477e-01 7.16262063516274e-03
8.21854838709677e-01 5.46028908999834e-01 7.10096777933076e-03
8.26016129032258e-01 5.39956714112747e-01 7.03975536059782e-03
8.30177419354839e-01 5.33952045965219e-01 6.97898204770387e-03
8.34338709677419e-01 5.28014153609523e-01 6.91864646189750e-03
8.38500000000000e-01 5.22142294462288e-01 6.85874718395793e-03
8.42661290322581e-01 5.16335734191419e-01 6.79928275931405e-03
8.46822580645161e-01 5.10593746631074e-01 6.74025169559746e-03
8.50983870967742e-01 5.04915613684676e-01 6.68165246084518e-03
8.55145161290323e-01 4.99300625253808e-01 6.62348348823110e-03
8.59306451612903e-01 4.93748079130517e-01 6.56574318243432e-03
8.63467741935484e-01 4.88257280909977e-01 6.50842991085436e-03
8.67629032258065e-01 4.82827543921475e-01 6.45154200986622e-03
8.71790322580645e-01 4.77458189124518e-01 6.39507779088746e-03
8.75951612903226e-01 4.72148545024384e-01 6.33903553189601e-03
8.80112903225806e-01 4.66897947605132e-01 6.28341348339405e-03
8.84274193548387e-01 4.61705740229384e-01 6.22820987419018e-03
8.88435483870968e-01 4.56571273556658e-01 6.17342290320945e-03
8.92596774193548e-01 4.51493905478355e-01 6.11905074518201e-03
8.96758064516129e-01 4.46473001021085e-01 6.06509155615427e-03
9.00919354838710e-01 4.41507932267678e-01 6.01154346558247e-03
9.05080645161290e-01 4.36598078294113e-01 5.95840458175932e-03
9.09241935483871e-01 4.31742825076237e-01 5.90567299706872e-03
9.13403225806452e-01 4.26941565413386e-01 5.85334678035445e-03
9.17564516129032e-01 4.22193698867191e-01 5.80142398209647e-03
9.21725806451613e-01 4.17498631671576e-01 5.74990263942337e-03
9.25887096774194e-01 4.12855776658893e-01 5.69878076874670e-03
9.30048387096774e-01 4.08264553200557e-01 5.64805637069875e-03
9.34209677419355e-01 4.03724387120210e-01 5.59772743491684e-03
9.38370967741936e-01 3.99234710622281e-01 5.54779193293363e-03
9.42532258064516e-01 3.94794962234401e-01 5.49824782288784e-03
9.46693548387097e-01 3.90404586723622e-01 5.44909305409189e-03
9.50854838709677e-01 3.86063035027314e-01 5.40032556017037e-03
9.55016129032258e-01 3.81769764197324e-01 5.35194326355428e-03
9.59177419354839e-01 3.77524237319122e-01 5.30394407984305e-03
9.63338709677419e-01 3.73325923444976e-01 5.25632591118252e-03
9.67500000000000e-01 3.69174297539795e-01 5.20908665055436e-03
9.71661290322581e-01 3.65068840403100e-01 5.16222418482644e-03
9.75822580645161e-01 3.61009038608260e-01 5.11573639283608e-03
9.79983870967742e-01 3.56994384434494e-01 5.06962114389857e-03
9.84145161290323e-01 3.53024375814851e-01 5.02387630062525e-03
9.88306451612903e-01 3.49098516261829e-01 4.97849972283105e-03
9.92467741935484e-01 3.45216314805577e-01 4.93348926146031e-03
9.96629032258065e-01 3.41377285943446e-01 4.88884276242924e-03
1.00079032258065e+00 3.37580949568205e-01 4.84455807239559e-03
1.00495161290323e+00 3.33826830901326e-01 4.80063302673073e-03
1.00911290322581e+00 3.30114460465104e-01 4.75706545731707e-03
1.01327419354839e+00 3.26443373992159e-01 4.71385319937374e-03
1.01743548387097e+00 3.22813112378063e-01 4.67099408237385e-03
1.02159677419355e+00 3.19223221623929e-01 4.62848593371525e-03
1.02575806451613e+00 3.15673252779629e-01 4.58632657916639e-03
1.02991935483871e+00 3.12162761887655e-01 4.54451384329887e-03
1.03408064516129e+00 3.08691309927594e-01 4.50304554990994e-03
1.03824193548387e+00 3.05258462761217e-01 4.46191952242735e-03
1.04240322580645e+00 3.01863791078204e-01 4.42113358430650e-03
1.04656451612903e+00 2.98506870342439e-01 4.38068555941944e-03
1.05072580645161e+00 2.95187280738928e-01 4.34057327242719e-03
1.05488709677419e+00 2.91904607121289e-01 4.30079454914307e-03
1.05904838709677e+00 2.88658438959838e-01 4.26134721688505e-03
1.06320967741935e+00 2.85448370290249e-01 4.22222910481822e-03
1.06737096774194e+00 2.82273999662781e-01 4.18343804428687e-03
1.07153225806452e+00 2.79134930092074e-01 4.14497186913633e-03
1.07569354838710e+00 2.76030769007504e-01 4.10682841602577e-03
1.07985483870968e+00 2.72961128204088e-01 4.06900552473091e-03
1.08401612903226e+00 2.69925623793932e-01 4.03150103843785e-03
1.08817741935484e+00 2.66923876158225e-01 3.99431280402804e-03
1.09233870967742e+00 2.63955509899765e-01 3.95743867235394e-03
1.09650000000000e+00 2.61020153796009e-01 3.92087650601250e-03
1.10066129032258e+00 2.58117440728202e-01 3.88462415690113e-03
1.10482258064516e+00 2.55247007709449e-01 3.84867948166097e-03
1.10898387096774e+00 2.52408495764688e-01 3.81304035751146e-03
1.11314516129032e+00 2.49601549910888e-01 3.77770465900653e-03
1.11730645161290e+00 2.46825819112662e-01 3.74267026615385e-03
1.12146774193548e+00 2.44080956238365e-01 3.70793506463470e-03
1.12562903225806e+00 2.41366618016678e-01 3.67349694601694e-03
1.12979032258065e+00 2.38682464993685e-01 3.63935380796052e-03
1.13395161290323e+00 2.36028161490417e-01 3.60550355441616e-03
1.13811290322581e+00 2.33403375560871e-01 3.57194409581764e-03
1.14227419354839e+00 2.30807778950501e-01 3.53867334926721e-03
1.14643548387097e+00 2.28241047055165e-01 3.50568923871469e-03
1.15059677419355e+00 2.25702858880527e-01 3.47298969513039e-03
1.15475806451613e+00 2.23192897001919e-01 3.44057265667156e-03
1.15891935483871e+00 2.20710847524639e-01 3.40843606884315e-03
1.16308064516129e+00 2.18256400044699e-01 3.37657788465390e-03
1.16724193548387e+00 2.15829247610002e-01 3.34499606476348e-03
1.17140322580645e+00 2.13429086681959e-01 3.31368857762610e-03
1.17556451612903e+00 2.11055617097528e-01 3.28265339963095e-03
1.17972580645161e+00 2.08708542031675e-01 3.25188851523405e-03
1.18388709677419e+00 2.06387567960254e-01 3.22139191708637e-03
1.18804838709677e+00 2.04092404623294e-01 3.19116160615656e-03
1.19220967741935e+00 2.01822764988707e-01 3.16119559184868e-03
1.19637096774194e+00 1.99578365216386e-01 3.13149189211553e-03
1.20053225806452e+00 1.97358924622711e-01 3.10204853356726e-03
1.20469354838710e+00 1.95164165645446e-01 3.07286355157532e-03
1.20885483870968e+00 1.92993813809026e-01 3.04393499037198e-03
1.21301612903226e+00 1.90847597690233e-01 3.01526090314530e-03
1.21717741935484e+00 1.88725248884251e-01 2.98683935213024e-03
1.22133870967742e+00 1.86626501971100e-01 2.95866840869573e-03
1.22550000000000e+00 1.84551094482442e-01 2.93074615844780e-03
1.22966129032258e+00 1.82498766853287e-01 2.90307068612492e-03
1.23382258064516e+00 1.80469262436343e-01 2.87564008583145e-03
1.23798387096774e+00 1.78462327422702e-01 2.84845247153887e-03
1.24214516129032e+00 1.76477710825974e-01 2.82150596145135e-03
1.24630645161290e+00 1.74515164450903e-01 2.79479868334728e-03
1.25046774193548e+00 1.72574442862325e-01 2.76832877464012e-03
1.25462903225806e+00 1.70655303354472e-01 2.74209438243581e-03
1.25879032258065e+00 1.68757505920625e-01 2.71609366358707e-03
1.26295161290323e+00 1.66880813223091e-01 2.69032478474437e-03
1.26711290322581e+00 1.65024990563531e-01 2.66478592240375e-03
1.27127419354839e+00 1.63189805853599e-01 2.63947526295179e-03
1.27543548387097e+00 1.61375029585926e-01 2.61439100270732e-03
1.27959677419355e+00 1.59580434805412e-01 2.58953134796066e-03
1.28375806451613e+00 1.57805797080843e-01 2.56489451500983e-03
1.28791935483871e+00 1.56050894476829e-01 2.54047873019394e-03
1.29208064516129e+00 1.54315507526044e-01 2.51628222992480e-03
1.29624193548387e+00 1.52599419201779e-01 2.49230326071383e-03
1.30040322580645e+00 1.50902414890804e-01 2.46854007919772e-03
1.30456451612903e+00 1.49224282366528e-01 2.44499095216331e-03
1.30872580645161e+00 1.47564811762459e-01 2.42165415656766e-03
1.31288709677419e+00 1.45923795545952e-01 2.39852797955641e-03
