Energy (eV)          EEDF (eV^-(3/2))     First Anisotropy
8.13000000000000e-04 9.85039608750224e+00 4.93818378956554e-03
2.43900000000000e-03 9.78256656192615e+00 8.15368080827289e-03
4.06500000000000e-03 9.71520410840637e+00 1.07620232080119e-02
5.69100000000000e-03 9.64830551068238e+00 1.27425311598987e-02
7.31700000000000e-03 9.58186757465418e+00 1.43934142057647e-02
8.94300000000000e-03 9.51588712821836e+00 1.58274226269231e-02
1.05690000000000e-02 9.45036102111512e+00 1.71029053260969e-02
1.21950000000000e-02 9.38528612477748e+00 1.82550977668287e-02
1.38210000000000e-02 9.32065933218180e+00 1.93073688902877e-02
1.54470000000000e-02 9.25647755769935e+00 2.02762354795339e-02
1.70730000000000e-02 9.19273773694898e+00 2.11739241792559e-02
1.86990000000000e-02 9.12943682665082e+00 2.20098110300868e-02
2.03250000000000e-02 9.06657180448088e+00 2.27912893797176e-02
2.19510000000000e-02 9.00413966892688e+00 2.35243225127182e-02
2.35770000000000e-02 8.94213743914482e+00 2.42138112239345e-02
2.52030000000000e-02 8.88056215481673e+00 2.48638472029310e-02
2.68290000000000e-02 8.81941087600927e+00 2.54778929986837e-02
2.84550000000000e-02 8.75868068303344e+00 2.60589131205718e-02
3.00810000000000e-02 8.69836867630508e+00 2.66094716489353e-02
3.17070000000000e-02 8.63847197620651e+00 2.71318063025563e-02
3.33330000000000e-02 8.57898772294901e+00 2.76278855859599e-02
3.49590000000000e-02 8.51991307643626e+00 2.80994535374206e-02
3.65850000000000e-02 8.46124521612877e+00 2.85480652323887e-02
3.82110000000000e-02 8.40298134090920e+00 2.89751152872367e-02
3.98370000000000e-02 8.34511866894860e+00 2.93818609890063e-02
4.14630000000000e-02 8.28765443757364e+00 2.97694412471805e-02
4.30890000000000e-02 8.23058590313465e+00 3.01388922600338e-02
4.47150000000000e-02 8.17391034087465e+00 3.04911605703908e-02
4.63410000000000e-02 8.11762504479928e+00 3.08271140271075e-02
4.79670000000000e-02 8.06172732754753e+00 3.11475510516323e-02
4.95930000000000e-02 8.00621452026352e+00 3.14532085216917e-02
5.12190000000000e-02 7.95108397246899e+00 3.17447685181518e-02
5.28450000000000e-02 7.89633305193683e+00 3.20228641308006e-02
5.44710000000000e-02 7.84195914456534e+00 3.22880844799958e-02
5.60970000000000e-02 7.78795965425344e+00 3.25409790809621e-02
5.77230000000000e-02 7.73433200277674e+00 3.27820616538905e-02
5.93490000000000e-02 7.68107362966442e+00 3.30118134642881e-02
6.09750000000000e-02 7.62818199207697e+00 3.32306862631693e-02
6.26010000000000e-02 7.57565456468481e+00 3.34391048847568e-02
6.42270000000000e-02 7.52348883954771e+00 3.36374695497279e-02
6.58530000000000e-02 7.47168232599502e+00 3.38261579142406e-02
6.74790000000000e-02 7.42023255050677e+00 3.40055268986041e-02
6.91050000000000e-02 7.36913705659559e+00 3.41759143242261e-02
7.07310000000000e-02 7.31839340468940e+00 3.43376403831344e-02
7.23570000000000e-02 7.26799917201494e+00 3.44910089607990e-02
7.39830000000000e-02 7.21795195248208e+00 3.46363088300122e-02
7.56090000000000e-02 7.16824935656897e+00 3.47738147310499e-02
7.72350000000000e-02 7.11888901120793e+00 3.49037883512718e-02
7.88610000000000e-02 7.06986855967213e+00 3.50264792155434e-02
8.04870000000000e-02 7.02118566146313e+00 3.51421254973363e-02
8.21130000000000e-02 6.97283799219905e+00 3.52509547591160e-02
8.37390000000000e-02 6.92482324350366e+00 3.53531846295342e-02
8.53650000000000e-02 6.87713912289612e+00 3.54490234239860e-02
8.69910000000000e-02 6.82978335368157e+00 3.55386707143206e-02
8.86170000000000e-02 6.78275367484237e+00 3.56223178528044e-02
9.02430000000000e-02 6.73604784093018e+00 3.57001484548059e-02
9.18690000000000e-02 6.68966362195878e+00 3.57723388442008e-02
9.34950000000000e-02 6.64359880329752e+00 3.58390584650092e-02
9.51210000000000e-02 6.59785118556567e+00 3.59004702624057e-02
9.67470000000000e-02 6.55241858452735e+00 3.59567310359053e-02
9.83730000000000e-02 6.50729883098727e+00 3.60079917672050e-02
9.99990000000000e-02 6.46248977068713e+00 3.60543979249251e-02
1.01625000000000e-01 6.41798926420281e+00 3.60960897482465e-02
1.03251000000000e-01 6.37379518684219e+00 3.61332025112506e-02
1.04877000000000e-01 6.32990542854372e+00 3.61658667695614e-02
1.06503000000000e-01 6.28631789377566e+00 3.61942085907626e-02
1.08129000000000e-01 6.24303050143605e+00 3.62183497699110e-02
1.09755000000000e-01 6.20004118475333e+00 3.62384080313193e-02
1.11381000000000e-01 6.15734789118765e+00 3.62544972176985e-02
1.13007000000000e-01 6.11494858233291e+00 3.62667274676361e-02
1.14633000000000e-01 6.07284123381939e+00 3.62752053823048e-02
1.16259000000000e-01 6.03102383521715e+00 3.62800341822059e-02
1.17885000000000e-01 5.98949438993996e+00 3.62813138546819e-02
1.19511000000000e-01 5.94825091515007e+00 3.62791412928735e-02
1.21137000000000e-01 5.90729144166347e+00 3.62736104267454e-02
1.22763000000000e-01 5.86661401385588e+00 3.62648123467348e-02
1.24389000000000e-01 5.82621668956940e+00 3.62528354205335e-02
1.26015000000000e-01 5.78609754001978e+00 3.62377654034863e-02
1.27641000000000e-01 5.74625464970429e+00 3.62196855430377e-02
1.29267000000000e-01 5.70668611631031e+00 3.61986766776261e-02
1.30893000000000e-01 5.66739005062451e+00 3.61748173303916e-02
1.32519000000000e-01 5.62836457644259e+00 3.61481837980336e-02
1.34145000000000e-01 5.58960783047974e+00 3.61188502351351e-02
1.35771000000000e-01 5.55111796228170e+00 3.60868887342426e-02
1.37397000000000e-01 5.51289313413634e+00 3.60523694019710e-02
1.39023000000000e-01 5.47493152098599e+00 3.60153604313663e-02
1.40649000000000e-01 5.43723131034027e+00 3.59759281707723e-02
1.42275000000000e-01 5.39979070218953e+00 3.59341371894094e-02
1.43901000000000e-01 5.36260790891896e+00 3.58900503398434e-02
1.45527000000000e-01 5.32568115522319e+00 3.58437288175614e-02
1.47153000000000e-01 5.28900867802156e+00 3.57952322177977e-02
1.48779000000000e-01 5.25258872637392e+00 3.57446185897657e-02
1.50405000000000e-01 5.21641956139705e+00 3.56919444884748e-02
1.52031000000000e-01 5.18049945618161e+00 3.56372650242320e-02
1.53657000000000e-01 5.14482669570973e+00 3.55806339099739e-02
1.55283000000000e-01 5.10939957677309e+00 3.55221035065580e-02
1.56909000000000e-01 5.07421640789160e+00 3.54617248660986e-02
1.58535000000000e-01 5.03927550923265e+00 3.53995477734735e-02
1.60161000000000e-01 5.00457521253092e+00 3.53356207861012e-02
1.61787000000000e-01 4.97011386100871e+00 3.52699912720632e-02
1.63413000000000e-01 4.93588980929683e+00 3.52027054466632e-02
1.65039000000000e-01 4.90190142335607e+00 3.51338084075130e-02
1.66665000000000e-01 4.86814708039914e+00 3.50633441682105e-02
1.68291000000000e-01 4.83462516881324e+00 3.49913556906810e-02
1.69917000000000e-01 4.80133408808306e+00 3.49178849162585e-02
1.71543000000000e-01 4.76827224871442e+00 3.48429727955583e-02
1.73169000000000e-01 4.73543807215832e+00 3.47666593172012e-02
1.74795000000000e-01 4.70282999073560e+00 3.46889835354466e-02
1.76421000000000e-01 4.67044644756212e+00 3.46099835967957e-02
1.78047000000000e-01 4.63828589647437e+00 3.45296967655960e-02
1.79673000000000e-01 4.60634680195568e+00 3.44481594487075e-02
1.81299000000000e-01 4.57462763906291e+00 3.43654072192710e-02
1.82925000000000e-01 4.54312689335361e+00 3.42814748396194e-02
1.84551000000000e-01 4.51184306081377e+00 3.41963962833679e-02
1.86177000000000e-01 4.48077464778593e+00 3.41102047567170e-02
1.87803000000000e-01 4.44992017089796e+00 3.40229327190260e-02
1.89429000000000e-01 4.41927815699214e+00 3.39346119026580e-02
1.91055000000000e-01 4.38884714305490e+00 3.38452733321434e-02
1.92681000000000e-01 4.35862567614691e+00 3.37549473427017e-02
1.94307000000000e-01 4.32861231333375e+00 3.36636635981261e-02
1.95933000000000e-01 4.29880562161701e+00 3.35714511080737e-02
1.97559000000000e-01 4.26920417786585e+00 3.34783382447923e-02
1.99185000000000e-01 4.23980656874907e+00 3.33843527592898e-02
2.00811000000000e-01 4.21061139066763e+00 3.32895217969713e-02
2.02437000000000e-01 4.18161724968761e+00 3.31938719127848e-02
2.04063000000000e-01 4.15282276147371e+00 3.30974290858801e-02
2.05689000000000e-01 4.12422655122309e+00 3.30002187338013e-02
2.07315000000000e-01 4.09582725359978e+00 3.29022657262275e-02
2.08941000000000e-01 4.06762351266946e+00 3.28035943982957e-02
2.10567000000000e-01 4.03961398183473e+00 3.27042285635097e-02
2.12193000000000e-01 4.01179732377083e+00 3.26041915262486e-02
2.13819000000000e-01 3.98417221036178e+00 3.25035060939054e-02
2.15445000000000e-01 3.95673732263694e+00 3.24021945886487e-02
2.17071000000000e-01 3.92949135070810e+00 3.23002788588408e-02
2.18697000000000e-01 3.90243299370686e+00 3.21977802901158e-02
2.20323000000000e-01 3.87556095972259e+00 3.20947198161305e-02
2.21949000000000e-01 3.84887396574070e+00 3.19911179290062e-02
2.23575000000000e-01 3.82237073758140e+00 3.18869946894657e-02
2.25201000000000e-01 3.79605000983889e+00 3.17823697366767e-02
2.26827000000000e-01 3.76991052582087e+00 3.16772622978176e-02
2.28453000000000e-01 3.74395103748862e+00 3.15716911973731e-02
2.30079000000000e-01 3.71817030539736e+00 3.14656748661712e-02
2.31705000000000e-01 3.69256709863710e+00 3.13592313501646e-02
2.33331000000000e-01 3.66714019477385e+00 3.12523783189741e-02
2.34957000000000e-01 3.64188837979125e+00 3.11451330741919e-02
2.36583000000000e-01 3.61681044803266e+00 3.10375125574593e-02
2.38209000000000e-01 3.59190520214351e+00 3.09295333583349e-02
2.39835000000000e-01 3.56717145301420e+00 3.08212117219444e-02
2.41461000000000e-01 3.54260801972331e+00 3.07125635564221e-02
2.43087000000000e-01 3.51821372948118e+00 3.06036044401636e-02
2.44713000000000e-01 3.49398741757397e+00 3.04943496288902e-02
2.46339000000000e-01 3.46992792730801e+00 3.03848140625195e-02
2.47965000000000e-01 3.44603410995459e+00 3.02750123718610e-02
2.49591000000000e-01 3.42230482469512e+00 3.01649588851423e-02
2.51217000000000e-01 3.39873893856664e+00 3.00546676343693e-02
2.52843000000000e-01 3.37533532640775e+00 2.99441523615203e-02
2.54469000000000e-01 3.35209287080485e+00 2.98334265245852e-02
2.56095000000000e-01 3.32901046203885e+00 2.97225033034559e-02
2.57721000000000e-01 3.30608699803213e+00 2.96113956056681e-02
2.59347000000000e-01 3.28332138429595e+00 2.95001160719998e-02
2.60973000000000e-01 3.26071253387819e+00 2.93886770819317e-02
2.62599000000000e-01 3.23825936731143e+00 2.92770907589791e-02
2.64225000000000e-01 3.21596081256147e+00 2.91653689758911e-02
2.65851000000000e-01 3.19381580497605e+00 2.90535233597222e-02
2.67477000000000e-01 3.17182328723412e+00 2.89415652967808e-02
2.69103000000000e-01 3.14998220929529e+00 2.88295059374701e-02
2.70729000000000e-01 3.12829152834971e+00 2.87173562010024e-02
2.72355000000000e-01 3.10675020876830e+00 2.86051267800063e-02
2.73981000000000e-01 3.08535722205327e+00 2.84928281450316e-02
2.75607000000000e-01 3.06411154678907e+00 2.83804705489393e-02
2.77233000000000e-01 3.04301216859356e+00 2.82680640311933e-02
2.78859000000000e-01 3.02205808006959e+00 2.81556184220594e-02
2.80485000000000e-01 3.00124828075696e+00 2.80431433467019e-02
2.82111000000000e-01 2.98058177708457e+00 2.79306482291871e-02
2.83737000000000e-01 2.96005758232303e+00 2.78181422963987e-02
2.85363000000000e-01 2.93967471653755e+00 2.77056345818622e-02
2.86989000000000e-01 2.91943220654113e+00 2.75931339294869e-02
2.88615000000000e-01 2.89932908584811e+00 2.74806489972194e-02
2.90241000000000e-01 2.87936439462801e+00 2.73681882606227e-02
2.91867000000000e-01 2.85953717965974e+00 2.72557600163713e-02
2.93493000000000e-01 2.83984649428602e+00 2.71433723856691e-02
2.95119000000000e-01 2.82029139836827e+00 2.70310333175980e-02
2.96745000000000e-01 2.80087095824164e+00 2.69187505923893e-02
2.98371000000000e-01 2.78158424667048e+00 2.68065318246242e-02
2.99997000000000e-01 2.76243034280405e+00 2.66943844663687e-02
3.01623000000000e-01 2.74340833213258e+00 2.65823158102367e-02
3.03249000000000e-01 2.72451730644356e+00 2.64703329923920e-02
3.04875000000000e-01 2.70575636377843e+00 2.63584429954895e-02
3.06501000000000e-01 2.68712460838946e+00 2.62466526515434e-02
3.08127000000000e-01 2.66862115069703e+00 2.61349686447431e-02
3.09753000000000e-01 2.65024510724714e+00 2.60233975142110e-02
3.11379000000000e-01 2.63199560066921e+00 2.59119456566974e-02
3.13005000000000e-01 2.61387175963423e+00 2.58006193292274e-02
3.14631000000000e-01 2.59587271881311e+00 2.56894246516874e-02
3.16257000000000e-01 2.57799761883541e+00 2.55783676093593e-02
3.17883000000000e-01 2.56024560624829e+00 2.54674540554011e-02
3.19509000000000e-01 2.54261583347573e+00 2.53566897132806e-02
3.21135000000000e-01 2.52510745877813e+00 2.52460801791606e-02
3.22761000000000e-01 2.50771964621207e+00 2.51356309242338e-02
3.24387000000000e-01 2.49045156559039e+00 2.50253472970080e-02
3.26013000000000e-01 2.47330239244261e+00 2.49152345255486e-02
3.27639000000000e-01 2.45627130797549e+00 2.48052977196792e-02
3.29265000000000e-01 2.43935749903401e+00 2.46955418731326e-02
3.30891000000000e-01 2.42256015806249e+00 2.45859718656632e-02
3.32517000000000e-01 2.40587848306606e+00 2.44765924651160e-02
3.34143000000000e-01 2.38931167757235e+00 2.43674083294563e-02
3.35769000000000e-01 2.37285895059350e+00 2.42584240087595e-02
3.37395000000000e-01 2.35651951658835e+00 2.41496439471613e-02
3.39021000000000e-01 2.34029259542494e+00 2.40410724847692e-02
3.40647000000000e-01 2.32417741234332e+00 2.39327138595424e-02
3.42273000000000e-01 2.30817319791845e+00 2.38245722091270e-02
3.43899000000000e-01 2.29227918802358e+00 2.37166515726593e-02
3.45525000000000e-01 2.27649462379370e+00 2.36089558925437e-02
3.47151000000000e-01 2.26081875158930e+00 2.35014890161854e-02
3.48777000000000e-01 2.24525082296044e+00 2.33942546976868e-02
3.50403000000000e-01 2.22979009461095e+00 2.32872565995259e-02
3.52029000000000e-01 2.21443582836300e+00 2.31804982941966e-02
3.53655000000000e-01 2.19918729112182e+00 2.30739832658128e-02
3.55281000000000e-01 2.18404375484072e+00 2.29677149116906e-02
3.56907000000000e-01 2.16900449648629e+00 2.28616965438939e-02
3.58533000000000e-01 2.15406879800394e+00 2.27559313907583e-02
3.60159000000000e-01 2.13923594628355e+00 2.26504225983842e-02
3.61785000000000e-01 2.12450523312548e+00 2.25451732320965e-02
3.63411000000000e-01 2.10987595520672e+00 2.24401862778850e-02
3.65037000000000e-01 2.09534741404732e+00 2.23354646438170e-02
3.66663000000000e-01 2.08091891597703e+00 2.22310111614204e-02
3.68289000000000e-01 2.06658977210223e+00 2.21268285870437e-02
3.69915000000000e-01 2.05235929827295e+00 2.20229196031941e-02
3.71541000000000e-01 2.03822681505029e+00 2.19192868198469e-02
3.73167000000000e-01 2.02419164767394e+00 2.18159327757299e-02
3.74793000000000e-01 2.01025312602997e+00 2.17128599395923e-02
3.76419000000000e-01 1.99641058461881e+00 2.16100707114439e-02
3.78045000000000e-01 1.98266336252354e+00 2.15075674237739e-02
3.79671000000000e-01 1.96901080337826e+00 2.14053523427500e-02
3.81297000000000e-01 1.95545225533680e+00 2.13034276693915e-02
3.82923000000000e-01 1.94198707104158e+00 2.12017955407271e-02
3.84549000000000e-01 1.92861460759271e+00 2.11004580309277e-02
3.86175000000000e-01 1.91533422651728e+00 2.09994171524194e-02
3.87801000000000e-01 1.90214529373889e+00 2.08986748569828e-02
3.89427000000000e-01 1.88904717954736e+00 2.07982330368239e-02
3.91053000000000e-01 1.87603925856870e+00 2.06980935256324e-02
3.92679000000000e-01 1.86312090973520e+00 2.05982580996200e-02
3.94305000000000e-01 1.85029151625582e+00 2.04987284785399e-02
3.95931000000000e-01 1.83755046558671e+00 2.03995063266896e-02
3.97557000000000e-01 1.82489714940199e+00 2.03005932538950e-02
3.99183000000000e-01 1.81233096356470e+00 2.02019908164767e-02
4.00809000000000e-01 1.79985130809792e+00 2.01037005182026e-02
4.02435000000000e-01 1.78745758715618e+00 2.00057238112223e-02
4.04061000000000e-01 1.77514920899698e+00 1.99080620969833e-02
4.05687000000000e-01 1.76292558595253e+00 1.98107167271347e-02
4.07313000000000e-01 1.75078613440170e+00 1.97136890044163e-02
4.08939000000000e-01 1.73873027474218e+00 1.96169801835268e-02
4.10565000000000e-01 1.72675743136276e+00 1.95205914719812e-02
4.12191000000000e-01 1.71486703261588e+00 1.94245240309543e-02
4.13817000000000e-01 1.70305851079033e+00 1.93287789761076e-02
4.15443000000000e-01 1.69133130208413e+00 1.92333573784054e-02
4.17069000000000e-01 1.67968484657764e+00 1.91382602649126e-02
4.18695000000000e-01 1.66811858820681e+00 1.90434886195802e-02
4.20321000000000e-01 1.65663197473661e+00 1.89490433840201e-02
4.21947000000000e-01 1.64522445773469e+00 1.88549254582639e-02
4.23573000000000e-01 1.63389549254521e+00 1.87611357015140e-02
4.25199000000000e-01 1.62264453826279e+00 1.86676749328730e-02
4.26825000000000e-01 1.61147105770672e+00 1.85745439320679e-02
4.28451000000000e-01 1.60037451739528e+00 1.84817434401628e-02
4.30077000000000e-01 1.58935438752032e+00 1.83892741602558e-02
4.31703000000000e-01 1.57841014192191e+00 1.82971367581644e-02
4.33329000000000e-01 1.56754125806324e+00 1.82053318631012e-02
4.34955000000000e-01 1.55674721700569e+00 1.81138600683396e-02
4.36581000000000e-01 1.54602750338402e+00 1.80227219318661e-02
4.38207000000000e-01 1.53538160538179e+00 1.79319179770230e-02
4.39833000000000e-01 1.52480901470691e+00 1.78414486931385e-02
4.41459000000000e-01 1.51430922656736e+00 1.77513145361482e-02
4.43085000000000e-01 1.50388173964712e+00 1.76615159292060e-02
4.44711000000000e-01 1.49352605608220e+00 1.75720532632862e-02
4.46337000000000e-01 1.48324168143691e+00 1.74829268977719e-02
4.47963000000000e-01 1.47302812468021e+00 1.73941371610397e-02
4.49589000000000e-01 1.46288489816229e+00 1.73056843510287e-02
4.51215000000000e-01 1.45281151759128e+00 1.72175687358016e-02
4.52841000000000e-01 1.44280750201012e+00 1.71297905541009e-02
4.54467000000000e-01 1.43287237377364e+00 1.70423500158912e-02
4.56093000000000e-01 1.42300565852568e+00 1.69552473028942e-02
4.57719000000000e-01 1.41320688517649e+00 1.68684825691150e-02
4.59345000000000e-01 1.40347558588026e+00 1.67820559413603e-02
4.60971000000000e-01 1.39381129601272e+00 1.66959675197470e-02
4.62597000000000e-01 1.38421355414899e+00 1.66102173782053e-02
4.64223000000000e-01 1.37468190204156e+00 1.65248055649682e-02
4.65849000000000e-01 1.36521588459839e+00 1.64397321030578e-02
4.67475000000000e-01 1.35581504986120e+00 1.63549969907635e-02
4.69101000000000e-01 1.34647894898388e+00 1.62706002021100e-02
4.70727000000000e-01 1.33720713621104e+00 1.61865416873196e-02
4.72353000000000e-01 1.32799916885678e+00 1.61028213732663e-02
4.73979000000000e-01 1.31885460728349e+00 1.60194391639222e-02
4.75605000000000e-01 1.30977301488090e+00 1.59363949407962e-02
4.77231000000000e-01 1.30075395804526e+00 1.58536885633687e-02
4.78857000000000e-01 1.29179700615854e+00 1.57713198695171e-02
4.80483000000000e-01 1.28290173156799e+00 1.56892886759317e-02
4.82109000000000e-01 1.27406770956562e+00 1.56075947785308e-02
4.83735000000000e-01 1.26529451836799e+00 1.55262379528637e-02
4.85361000000000e-01 1.25658173909606e+00 1.54452179545101e-02
4.86987000000000e-01 1.24792895575514e+00 1.53645345194748e-02
4.88613000000000e-01 1.23933575521509e+00 1.52841873645702e-02
4.90239000000000e-01 1.23080172719058e+00 1.52041761877980e-02
4.91865000000000e-01 1.22232646422148e+00 1.51245006687230e-02
4.93491000000000e-01 1.21390956165342e+00 1.50451604688407e-02
4.95117000000000e-01 1.20555061761846e+00 1.49661552319397e-02
4.96743000000000e-01 1.19724923301592e+00 1.48874845844577e-02
4.98369000000000e-01 1.18900501149331e+00 1.48091481358292e-02
4.99995000000000e-01 1.18081755942742e+00 1.47311454788341e-02
5.01621000000000e-01 1.17268648590551e+00 1.46534761899360e-02
5.03247000000000e-01 1.16461140270666e+00 1.45761398296147e-02
5.04873000000000e-01 1.15659192428321e+00 1.44991359426957e-02
5.06499000000000e-01 1.14862766774238e+00 1.44224640586727e-02
5.08125000000000e-01 1.14071825282799e+00 1.43461236920276e-02
5.09751000000000e-01 1.13286330190227e+00 1.42701143425406e-02
5.11377000000000e-01 1.12506243992787e+00 1.41944354956005e-02
5.13003000000000e-01 1.11731529444993e+00 1.41190866225064e-02
