Energy (eV)          EEDF (eV^-(3/2))     First Anisotropy
1.30833333333333e-03 3.68603616554920e+00 1.73929147362549e-03
3.92500000000000e-03 3.66482151567922e+00 2.87345963136797e-03
6.54166666666667e-03 3.64372896487466e+00 3.79698985757550e-03
9.15833333333333e-03 3.62275781034192e+00 4.50085825938947e-03
1.17750000000000e-02 3.60190735332717e+00 5.08976316272085e-03
1.43916666666667e-02 3.58117689936431e+00 5.60322508095249e-03
1.70083333333333e-02 3.56056575762267e+00 6.06166428727643e-03
1.96250000000000e-02 3.54007324141539e+00 6.47739334025500e-03
2.22416666666667e-02 3.51969866811043e+00 6.85856596962628e-03
2.48583333333333e-02 3.49944135880283e+00 7.21093650310909e-03
2.74750000000000e-02 3.47930063859200e+00 7.53875826130367e-03
3.00916666666667e-02 3.45927583653249e+00 7.84528809466307e-03
3.27083333333333e-02 3.43936628540085e+00 8.13309035182276e-03
3.53250000000000e-02 3.41957132188178e+00 8.40423030793838e-03
3.79416666666667e-02 3.39989028653128e+00 8.66040279252405e-03
4.05583333333333e-02 3.38032252359470e+00 8.90302076713351e-03
4.31750000000000e-02 3.36086738114352e+00 9.13327819645650e-03
4.57916666666667e-02 3.34152421104429e+00 9.35219586376223e-03
4.84083333333333e-02 3.32229236880881e+00 9.56065542606708e-03
5.10250000000000e-02 3.30317121370007e+00 9.75942523719672e-03
5.36416666666667e-02 3.28416010870433e+00 9.94918029773729e-03
5.62583333333333e-02 3.26525842040357e+00 1.01305178332813e-02
5.88750000000000e-02 3.24646551906020e+00 1.03039696445874e-02
6.14916666666667e-02 3.22778077859130e+00 1.04700120514693e-02
6.41083333333333e-02 3.20920357645722e+00 1.06290739254538e-02
6.67250000000000e-02 3.19073329373104e+00 1.07815432655713e-02
6.93416666666667e-02 3.17236931507419e+00 1.09277726628334e-02
7.19583333333333e-02 3.15411102863760e+00 1.10680838217744e-02
7.45750000000000e-02 3.13595782611941e+00 1.12027713527715e-02
7.71916666666667e-02 3.11790910274182e+00 1.13321060057420e-02
7.98083333333333e-02 3.09996425716202e+00 1.14563373917758e-02
8.24250000000000e-02 3.08212269152086e+00 1.15756963095283e-02
8.50416666666667e-02 3.06438381142058e+00 1.16903967737084e-02
8.76583333333333e-02 3.04674702584372e+00 1.18006377423013e-02
9.02750000000000e-02 3.02921174719460e+00 1.19066046156170e-02
9.28916666666667e-02 3.01177739127771e+00 1.20084705703282e-02
9.55083333333333e-02 2.99444337722333e+00 1.21063977035276e-02
9.81250000000000e-02 2.97720912752304e+00 1.22005380381227e-02
1.00741666666667e-01 2.96007406800874e+00 1.22910344352457e-02
1.03358333333333e-01 2.94303762778396e+00 1.23780213872123e-02
1.05975000000000e-01 2.92609923920783e+00 1.24616256751135e-02
1.08591666666667e-01 2.90925833810462e+00 1.25419670840510e-02
1.11208333333333e-01 2.89251436324560e+00 1.26191589278444e-02
1.13825000000000e-01 2.87586675678161e+00 1.26933084679956e-02
1.16441666666667e-01 2.85931496421172e+00 1.27645175200805e-02
1.19058333333333e-01 2.84285843395186e+00 1.28328827884697e-02
1.21675000000000e-01 2.82649661772936e+00 1.28984961628658e-02
1.24291666666667e-01 2.81022897055353e+00 1.29614451984378e-02
1.26908333333333e-01 2.79405495031795e+00 1.30218133495037e-02
1.29525000000000e-01 2.77797401816207e+00 1.30796801768694e-02
1.32141666666667e-01 2.76198563844340e+00 1.31351217384604e-02
1.34758333333333e-01 2.74608927836932e+00 1.31882107528924e-02
1.37375000000000e-01 2.73028440832981e+00 1.32390167444865e-02
1.39991666666667e-01 2.71457050187111e+00 1.32876063687207e-02
1.42608333333333e-01 2.69894703535354e+00 1.33340435261688e-02
1.45225000000000e-01 2.68341348825886e+00 1.33783894631441e-02
1.47841666666667e-01 2.66796934316510e+00 1.34207030485086e-02
1.50458333333333e-01 2.65261408542760e+00 1.34610408518831e-02
1.53075000000000e-01 2.63734720346382e+00 1.34994572121794e-02
1.55691666666667e-01 2.62216818872925e+00 1.35360044773122e-02
1.58308333333333e-01 2.60707653541915e+00 1.35707330563082e-02
1.60925000000000e-01 2.59207174073330e+00 1.36036914642830e-02
1.63541666666667e-01 2.57715330485282e+00 1.36349265332777e-02
1.66158333333333e-01 2.56232073066060e+00 1.36644834450707e-02
1.68775000000000e-01 2.54757352398795e+00 1.36924057586847e-02
1.71391666666667e-01 2.53291119359236e+00 1.37187355983172e-02
1.74008333333333e-01 2.51833325089469e+00 1.37435136717500e-02
1.76625000000000e-01 2.50383921020963e+00 1.37667792847736e-02
1.79241666666667e-01 2.48942858872421e+00 1.37885705106371e-02
1.81858333333333e-01 2.47510090625032e+00 1.38089241976179e-02
1.84475000000000e-01 2.46085568544038e+00 1.38278759735812e-02
1.87091666666667e-01 2.44669245176663e+00 1.38454604002827e-02
1.89708333333333e-01 2.43261073328755e+00 1.38617109727301e-02
1.92325000000000e-01 2.41861006085019e+00 1.38766601162684e-02
1.94941666666667e-01 2.40468996807008e+00 1.38903393282779e-02
1.97558333333333e-01 2.39084999111042e+00 1.39027791712972e-02
2.00175000000000e-01 2.37708966887220e+00 1.39140092644277e-02
2.02791666666667e-01 2.36340854297473e+00 1.39240584144033e-02
2.05408333333333e-01 2.34980615754652e+00 1.39329546039678e-02
2.08025000000000e-01 2.33628205940425e+00 1.39407249789529e-02
2.10641666666667e-01 2.32283579803385e+00 1.39473959702703e-02
2.13258333333333e-01 2.30946692539216e+00 1.39529932786831e-02
2.15875000000000e-01 2.29617499607567e+00 1.39575418585985e-02
2.18491666666667e-01 2.28295956730209e+00 1.39610660322203e-02
2.21108333333333e-01 2.26982019872200e+00 1.39635894715858e-02
2.23725000000000e-01 2.25675645257814e+00 1.39651351798755e-02
2.26341666666667e-01 2.24376789368745e+00 1.39657255987246e-02
2.28958333333333e-01 2.23085408926202e+00 1.39653825882026e-02
2.31575000000000e-01 2.21801460905953e+00 1.39641274062640e-02
2.34191666666667e-01 2.20524902536591e+00 1.39619808100299e-02
2.36808333333333e-01 2.19255691282474e+00 1.39589630342415e-02
2.39425000000000e-01 2.17993784857968e+00 1.39550937693385e-02
2.42041666666667e-01 2.16739141225754e+00 1.39503922573771e-02
2.44658333333333e-01 2.15491718580569e+00 1.39448772693746e-02
2.47275000000000e-01 2.14251475362696e+00 1.39385670823992e-02
2.49891666666667e-01 2.13018370256318e+00 1.39314795706839e-02
2.52508333333333e-01 2.11792362173996e+00 1.39236321821875e-02
2.55125000000000e-01 2.10573410269472e+00 1.39150419149953e-02
2.57741666666667e-01 2.09361473936053e+00 1.39057254040972e-02
2.60358333333333e-01 2.08156512791793e+00 1.38956988974254e-02
2.62975000000000e-01 2.06958486691642e+00 1.38849782318061e-02
2.65591666666667e-01 2.05767355725871e+00 1.38735789157997e-02
2.68208333333333e-01 2.04583080205903e+00 1.38615161054173e-02
2.70825000000000e-01 2.03405620675860e+00 1.38488045798166e-02
2.73441666666667e-01 2.02234937911021e+00 1.38354588205396e-02
2.76058333333333e-01 2.01070992904267e+00 1.38214929870766e-02
2.78675000000000e-01 1.99913746877058e+00 1.38069208924537e-02
2.81291666666667e-01 1.98763161277933e+00 1.37917560791611e-02
2.83908333333333e-01 1.97619197769521e+00 1.37760117946934e-02
2.86525000000000e-01 1.96481818238995e+00 1.37597009671488e-02
2.89141666666667e-01 1.95350984796602e+00 1.37428362781050e-02
2.91758333333333e-01 1.94226659763217e+00 1.37254301382376e-02
2.94375000000000e-01 1.93108805680295e+00 1.37074946630308e-02
2.96991666666667e-01 1.91997385308439e+00 1.36890417428162e-02
2.99608333333333e-01 1.90892361615461e+00 1.36700830185521e-02
3.02225000000000e-01 1.89793697785869e+00 1.36506298577241e-02
3.04841666666667e-01 1.88701357219463e+00 1.36306934217425e-02
3.07458333333333e-01 1.87615303519880e+00 1.36102846419473e-02
3.10075000000000e-01 1.86535500503638e+00 1.35894141957579e-02
3.12691666666667e-01 1.85461912198773e+00 1.35680925716037e-02
3.15308333333333e-01 1.84394502833821e+00 1.35463300452075e-02
3.17925000000000e-01 1.83333236846465e+00 1.35241366560272e-02
3.20541666666667e-01 1.82278078882191e+00 1.35015222698735e-02
3.23158333333333e-01 1.81228993783705e+00 1.34784965555152e-02
3.25775000000000e-01 1.80185946599190e+00 1.34550689614508e-02
3.28391666666667e-01 1.79148902580991e+00 1.34312487763521e-02
3.31008333333333e-01 1.78117827175433e+00 1.34070451060193e-02
3.33625000000000e-01 1.77092686030718e+00 1.33824668505120e-02
3.36241666666667e-01 1.76073444995636e+00 1.33575227625389e-02
3.38858333333333e-01 1.75060070109765e+00 1.33322214247925e-02
3.41475000000000e-01 1.74052527611027e+00 1.33065712274600e-02
3.44091666666667e-01 1.73050783934419e+00 1.32805804246742e-02
3.46708333333333e-01 1.72054805702586e+00 1.32542571122405e-02
3.49325000000000e-01 1.71064559733045e+00 1.32276092055441e-02
3.51941666666667e-01 1.70080013036942e+00 1.32006444941661e-02
3.54558333333333e-01 1.69101132809975e+00 1.31733706200163e-02
3.57175000000000e-01 1.68127886439303e+00 1.31457950556497e-02
3.59791666666667e-01 1.67160241502338e+00 1.31179251571367e-02
3.62408333333333e-01 1.66198165757988e+00 1.30897681426113e-02
3.65025000000000e-01 1.65241627153277e+00 1.30613310710067e-02
3.67641666666667e-01 1.64290593822162e+00 1.30326208932667e-02
3.70258333333333e-01 1.63345034077089e+00 1.30036444313133e-02
3.72875000000000e-01 1.62404916415338e+00 1.29744083572043e-02
3.75491666666667e-01 1.61470209517861e+00 1.29449192427640e-02
3.78108333333333e-01 1.60540882241134e+00 1.29151835389756e-02
3.80725000000000e-01 1.59616903623247e+00 1.28852075555640e-02
3.83341666666667e-01 1.58698242882757e+00 1.28549975091169e-02
3.85958333333333e-01 1.57784869410834e+00 1.28245595029022e-02
3.88575000000000e-01 1.56876752777089e+00 1.27938995068731e-02
3.91191666666667e-01 1.55973862728462e+00 1.27630234043525e-02
3.93808333333333e-01 1.55076169181629e+00 1.27319369722729e-02
3.96425000000000e-01 1.54183642228602e+00 1.27006458616022e-02
3.99041666666667e-01 1.53296252135633e+00 1.26691556426507e-02
4.01658333333333e-01 1.52413969335883e+00 1.26374717857321e-02
4.04275000000000e-01 1.51536764434796e+00 1.26055996420102e-02
4.06891666666667e-01 1.50664608209023e+00 1.25735444874841e-02
4.09508333333333e-01 1.49797471599341e+00 1.25413115040670e-02
4.12125000000000e-01 1.48935325715810e+00 1.25089057608486e-02
4.14741666666667e-01 1.48078141836724e+00 1.24763322568148e-02
4.17358333333333e-01 1.47225891401756e+00 1.24435959023393e-02
4.19975000000000e-01 1.46378546016924e+00 1.24107015008572e-02
4.22591666666667e-01 1.45536077453548e+00 1.23776537903672e-02
4.25208333333333e-01 1.44698457641639e+00 1.23444574253320e-02
4.27825000000000e-01 1.43865658674650e+00 1.23111169587579e-02
4.30441666666667e-01 1.43037652808474e+00 1.22776368825282e-02
4.33058333333333e-01 1.42214412455032e+00 1.22440216097057e-02
4.35675000000000e-01 1.41395910186851e+00 1.22102754570090e-02
4.38291666666667e-01 1.40582118736077e+00 1.21764026840261e-02
4.40908333333333e-01 1.39773010988266e+00 1.21424074759099e-02
4.43525000000000e-01 1.38968559986797e+00 1.21082939262494e-02
4.46141666666667e-01 1.38168738931890e+00 1.20740660751982e-02
4.48758333333333e-01 1.37373521174610e+00 1.20397278925592e-02
4.51375000000000e-01 1.36582880221099e+00 1.20052832610437e-02
4.53991666666667e-01 1.35796789731622e+00 1.19707360133564e-02
4.56608333333333e-01 1.35015223514755e+00 1.19360899156631e-02
4.59225000000000e-01 1.34238155531463e+00 1.19013486512254e-02
4.61841666666667e-01 1.33465559894157e+00 1.18665158564837e-02
4.64458333333333e-01 1.32697410861071e+00 1.18315951048982e-02
4.67075000000000e-01 1.31933682840183e+00 1.17965898909539e-02
4.69691666666667e-01 1.31174350388291e+00 1.17615036652764e-02
4.72308333333333e-01 1.30419388205565e+00 1.17263398188385e-02
4.74925000000000e-01 1.29668771139322e+00 1.16911016673283e-02
4.77541666666667e-01 1.28922474183120e+00 1.16557924853311e-02
4.80158333333333e-01 1.28180472471478e+00 1.16204154908936e-02
4.82775000000000e-01 1.27442741283508e+00 1.15849738302493e-02
4.85391666666667e-01 1.26709256042033e+00 1.15494706110967e-02
4.88008333333333e-01 1.25979992308461e+00 1.15139088875155e-02
4.90625000000000e-01 1.25254925786290e+00 1.14782916450388e-02
4.93241666666667e-01 1.24534032320236e+00 1.14426218330608e-02
4.95858333333333e-01 1.23817287891270e+00 1.14069023500957e-02
4.98475000000000e-01 1.23104668619987e+00 1.13711360291904e-02
5.01091666666667e-01 1.22396150765757e+00 1.13353256694888e-02
5.03708333333333e-01 1.21691710721909e+00 1.12994740218269e-02
5.06325000000000e-01 1.20991325018976e+00 1.12635837744787e-02
5.08941666666667e-01 1.20294970323865e+00 1.12276575839058e-02
5.11558333333333e-01 1.19602623435180e+00 1.11916980606795e-02
5.14175000000000e-01 1.18914261286357e+00 1.11557077555527e-02
5.16791666666667e-01 1.18229860944844e+00 1.11196891894203e-02
5.19408333333333e-01 1.17549399607562e+00 1.10836448395611e-02
5.22025000000000e-01 1.16872854603934e+00 1.10475771260301e-02
5.24641666666667e-01 1.16200203395070e+00 1.10114884408538e-02
5.27258333333333e-01 1.15531423569376e+00 1.09753811345864e-02
5.29875000000000e-01 1.14866492845457e+00 1.09392575030109e-02
5.32491666666667e-01 1.14205389071336e+00 1.09031198155954e-02
5.35108333333333e-01 1.13548090220172e+00 1.08669703023568e-02
5.37725000000000e-01 1.12894574393081e+00 1.08308111408642e-02
5.40341666666667e-01 1.12244819818349e+00 1.07946444839790e-02
5.42958333333333e-01 1.11598804847290e+00 1.07584724470164e-02
5.45575000000000e-01 1.10956507956958e+00 1.07222970950467e-02
5.48191666666667e-01 1.10317907749379e+00 1.06861204699394e-02
5.50808333333333e-01 1.09682982947529e+00 1.06499445778179e-02
5.53425000000000e-01 1.09051712397943e+00 1.06137713766491e-02
5.56041666666667e-01 1.08424075069976e+00 1.05776028026161e-02
5.58658333333333e-01 1.07800050051880e+00 1.05414407578565e-02
5.61275000000000e-01 1.07179616553334e+00 1.05052870983328e-02
5.63891666666667e-01 1.06562753904712e+00 1.04691436595536e-02
5.66508333333333e-01 1.05949441553273e+00 1.04330122445916e-02
5.69125000000000e-01 1.05339659065605e+00 1.03968946122281e-02
5.71741666666667e-01 1.04733386126904e+00 1.03607925020385e-02
5.74358333333333e-01 1.04130602537273e+00 1.03247076226856e-02
5.76975000000000e-01 1.03531288214081e+00 1.02886416403322e-02
5.79591666666667e-01 1.02935423191256e+00 1.02525962031111e-02
5.82208333333333e-01 1.02342987615686e+00 1.02165729296836e-02
5.84825000000000e-01 1.01753961749502e+00 1.01805733979149e-02
5.87441666666667e-01 1.01168325969374e+00 1.01445991687464e-02
5.90058333333333e-01 1.00586060763025e+00 1.01086517750143e-02
5.92675000000000e-01 1.00007146731425e+00 1.00727327103807e-02
5.95291666666667e-01 9.94315645881075e-01 1.00368434526266e-02
5.97908333333333e-01 9.88592951557754e-01 1.00009854527223e-02
6.00525000000000e-01 9.82903193684226e-01 9.96516012400933e-03
6.03141666666667e-01 9.77246182706623e-01 9.92936886493023e-03
6.05758333333333e-01 9.71621730144271e-01 9.89361304834576e-03
6.08375000000000e-01 9.66029648610176e-01 9.85789401095988e-03
6.10991666666667e-01 9.60469751804439e-01 9.82221307550521e-03
6.13608333333333e-01 9.54941854482153e-01 9.78657154029817e-03
6.16225000000000e-01 9.49445772473205e-01 9.75097066890285e-03
6.18841666666667e-01 9.43981322675806e-01 9.71541171178527e-03
6.21458333333333e-01 9.38548323025265e-01 9.67989589610247e-03
6.24075000000000e-01 9.33146592513128e-01 9.64442441560195e-03
6.26691666666667e-01 9.27775951180815e-01 9.60899845175583e-03
6.29308333333333e-01 9.22436220089255e-01 9.57361916378096e-03
6.31925000000000e-01 9.17127221337369e-01 9.53828767876434e-03
6.34541666666667e-01 9.11848778055839e-01 9.50300511229433e-03
6.37158333333333e-01 9.06600714377545e-01 9.46777255870690e-03
6.39775000000000e-01 9.01382855455446e-01 9.43259108142969e-03
6.42391666666667e-01 8.96195027456451e-01 9.39746173312725e-03
6.45008333333333e-01 8.91037057532654e-01 9.36238554616424e-03
6.47625000000000e-01 8.85908773838623e-01 9.32736352316661e-03
6.50241666666667e-01 8.80810005525374e-01 9.29239665669071e-03
6.52858333333333e-01 8.75740582712381e-01 9.25748591989945e-03
6.55475000000000e-01 8.70700336504288e-01 9.22263225733466e-03
6.58091666666667e-01 8.65689098984998e-01 9.18783660412488e-03
6.60708333333333e-01 8.60706703190417e-01 9.15309987686855e-03
6.63325000000000e-01 8.55752983124626e-01 9.11842296461253e-03
6.65941666666667e-01 8.50827773754064e-01 9.08380674761116e-03
6.68558333333333e-01 8.45930910981004e-01 9.04925208841135e-03
6.71175000000000e-01 8.41062231659182e-01 9.01475982303068e-03
6.73791666666667e-01 8.36221573588098e-01 8.98033077928075e-03
6.76408333333333e-01 8.31408775487178e-01 8.94596576805095e-03
6.79025000000000e-01 8.26623677010898e-01 8.91166557468216e-03
6.81641666666667e-01 8.21866118743183e-01 8.87743097686356e-03
6.84258333333333e-01 8.17135942172246e-01 8.84326273610857e-03
6.86875000000000e-01 8.12432989705224e-01 8.80916158932172e-03
6.89491666666667e-01 8.07757104662669e-01 8.77512826628110e-03
6.92108333333333e-01 8.03108131254049e-01 8.74116348130274e-03
6.94725000000000e-01 7.98485914591903e-01 8.70726792499414e-03
6.97341666666667e-01 7.93890300686435e-01 8.67344228133271e-03
6.99958333333333e-01 7.89321136421647e-01 8.63968721951323e-03
7.02575000000000e-01 7.84778269569039e-01 8.60600338588572e-03
7.05191666666667e-01 7.80261548782296e-01 8.57239142064032e-03
7.07808333333333e-01 7.75770823574038e-01 8.53885194983553e-03
7.10425000000000e-01 7.71305944329078e-01 8.50538557751266e-03
7.13041666666667e-01 7.66866762299204e-01 8.47199290199698e-03
7.15658333333333e-01 7.62453129580527e-01 8.43867450810380e-03
7.18275000000000e-01 7.58064899126308e-01 8.40543095942498e-03
7.20891666666667e-01 7.53701924741840e-01 8.37226281425830e-03
7.23508333333333e-01 7.49364061062369e-01 8.33917061798375e-03
7.26125000000000e-01 7.45051163565516e-01 8.30615489552069e-03
7.28741666666667e-01 7.40763088566243e-01 8.27321616689470e-03
7.31358333333333e-01 7.36499693195341e-01 8.24035493977969e-03
7.33975000000000e-01 7.32260835411451e-01 8.20757170212016e-03
7.36591666666667e-01 7.28046373996127e-01 8.17486693734470e-03
7.39208333333333e-01 7.23856168532859e-01 8.14224111707339e-03
7.41825000000000e-01 7.19690079418720e-01 8.10969469389988e-03
7.44441666666667e-01 7.15547967859509e-01 8.07722811626060e-03
7.47058333333333e-01 7.11429695849310e-01 8.04484182130033e-03
7.49675000000000e-01 7.07335126181765e-01 8.01253622781316e-03
7.52291666666667e-01 7.03264122445305e-01 7.98031175077554e-03
7.54908333333333e-01 6.99216549003223e-01 7.94816879436774e-03
7.57525000000000e-01 6.95192271004589e-01 7.91610774506951e-03
7.60141666666667e-01 6.91191154379564e-01 7.88412898586437e-03
7.62758333333333e-01 6.87213065819975e-01 7.85223288941302e-03
7.65375000000000e-01 6.83257872789885e-01 7.82041981129971e-03
7.67991666666667e-01 6.79325443520987e-01 7.78869010391884e-03
7.70608333333333e-01 6.75415646993666e-01 7.75704410979563e-03
7.73225000000000e-01 6.71528352947234e-01 7.72548215497808e-03
7.75841666666667e-01 6.67663431875410e-01 7.69400456261279e-03
7.78458333333333e-01 6.63820755007846e-01 7.66261164641229e-03
7.81075000000000e-01 6.60000194320046e-01 7.63130370419042e-03
7.83691666666667e-01 6.56201622528921e-01 7.60008103113295e-03
7.86308333333333e-01 6.52424913074777e-01 7.56894391340625e-03
7.88925000000000e-01 6.48669940130920e-01 7.53789262183400e-03
7.91541666666667e-01 6.44936578599291e-01 7.50692742487235e-03
7.94158333333333e-01 6.41224704092899e-01 7.47604858235621e-03
7.96775000000000e-01 6.37534192945119e-01 7.44525633931275e-03
7.99391666666667e-01 6.33864922205414e-01 7.41455093864722e-03
8.02008333333333e-01 6.30216769622192e-01 7.38393261502435e-03
8.04625000000000e-01 6.26589613651821e-01 7.35340158881629e-03
8.07241666666667e-01 6.22983333454419e-01 7.32295807850725e-03
8.09858333333333e-01 6.19397808877135e-01 7.29260229470686e-03
8.12475000000000e-01 6.15832920462881e-01 7.26233443422706e-03
8.15091666666667e-01 6.12288549446198e-01 7.23215469221225e-03
8.17708333333333e-01 6.08764577736946e-01 7.20206325628377e-03
8.20325000000000e-01 6.05260887928762e-01 7.17206030074317e-03
8.22941666666667e-01 6.01777363295000e-01 7.14214599843300e-03
8.25558333333333e-01 5.98313887772817e-01 7.11232051500797e-03
