Energy (eV)          EEDF (eV^-(3/2))     First Anisotropy
4.65217391304348e-02 7.25603706901253e-02 5.64790090792555e-05
1.39565217391304e-01 7.14793456845170e-02 9.28804142955988e-05
2.32608695652174e-01 7.04144260925799e-02 1.21603568616702e-04
3.25652173913043e-01 6.93653719784683e-02 1.42820338362727e-04
4.18695652173913e-01 6.83319469715947e-02 1.60022162363788e-04
5.11739130434783e-01 6.73139182243680e-02 1.74545424378299e-04
6.04782608695652e-01 6.63110563570116e-02 1.87089803615953e-04
6.97826086956522e-01 6.53231354110929e-02 1.98082609432398e-04
7.90869565217391e-01 6.43499327923260e-02 2.07810380547492e-04
8.83913043478261e-01 6.33912292227598e-02 2.16477830884450e-04
9.76956521739130e-01 6.24468086903936e-02 2.24238104112109e-04
1.07000000000000e+00 6.15164584044286e-02 2.31209849589993e-04
1.16304347826087e+00 6.05999687396978e-02 2.37487563042416e-04
1.25608695652174e+00 5.96971331969250e-02 2.43148199948809e-04
1.34913043478261e+00 5.88077483533567e-02 2.48255594173685e-04
1.44217391304348e+00 5.79316138231293e-02 2.52863518750618e-04
1.53521739130435e+00 5.70685321927756e-02 2.57017867858947e-04
1.62826086956522e+00 5.62183089966408e-02 2.60758253369657e-04
1.72130434782609e+00 5.53807526661958e-02 2.64119201125486e-04
1.81434782608696e+00 5.45556744869841e-02 2.67131061385051e-04
1.90739130434783e+00 5.37428885560711e-02 2.69820714650859e-04
2.00043478260870e+00 5.29422117442411e-02 2.72212128300508e-04
2.09347826086957e+00 5.21534636421739e-02 2.74326798846086e-04
2.18652173913043e+00 5.13764665326437e-02 2.76184108608327e-04
2.27956521739130e+00 5.06110453460597e-02 2.77801618245269e-04
2.37260869565217e+00 4.98570276211023e-02 2.79195306123063e-04
2.46565217391304e+00 4.91142434688632e-02 2.80379768604486e-04
2.55869565217391e+00 4.83825255252682e-02 2.81368386528214e-04
2.65173913043478e+00 4.76617089228520e-02 2.82173465620924e-04
2.74478260869565e+00 4.69516312503800e-02 2.82806357221681e-04
2.83782608695652e+00 4.62521325162521e-02 2.83277560475647e-04
2.93086956521739e+00 4.55630551124827e-02 2.83596810299399e-04
3.02391304347826e+00 4.48842437814320e-02 2.83773154399136e-04
3.11695652173913e+00 4.42155455739214e-02 2.83815019165296e-04
3.21000000000000e+00 4.35568098217990e-02 2.83730267194167e-04
3.30304347826087e+00 4.29078881015996e-02 2.83526248947532e-04
3.39608695652174e+00 4.22686342011117e-02 2.83209847404136e-04
3.48913043478261e+00 4.16389040864401e-02 2.82787517615225e-04
3.58217391304348e+00 4.10185558712870e-02 2.82265322616492e-04
3.67521739130435e+00 4.04074497796713e-02 2.81648964527523e-04
3.76826086956522e+00 3.98054481198360e-02 2.80943812329815e-04
3.86130434782609e+00 3.92124152513859e-02 2.80154927781632e-04
3.95434782608696e+00 3.86282175547389e-02 2.79287087989306e-04
4.04739130434783e+00 3.80527234010165e-02 2.78344805813421e-04
4.14043478260870e+00 3.74858031237593e-02 2.77332348995409e-04
4.23347826086956e+00 3.69273289855185e-02 2.76253756727473e-04
4.32652173913043e+00 3.63771751533341e-02 2.75112854694573e-04
4.41956521739130e+00 3.58352176689329e-02 2.73913269632525e-04
4.51260869565217e+00 3.53013344208140e-02 2.72658441839565e-04
4.60565217391304e+00 3.47754051178683e-02 2.71351637375268e-04
4.69869565217391e+00 3.42573112588005e-02 2.69995958559194e-04
4.79173913043478e+00 3.37469361089566e-02 2.68594353598596e-04
4.88478260869565e+00 3.32441646728265e-02 2.67149626198736e-04
4.97782608695652e+00 3.27488836681326e-02 2.65664443857491e-04
5.07086956521739e+00 3.22609815003122e-02 2.64141345556115e-04
5.16391304347826e+00 3.17803482382995e-02 2.62582749379472e-04
5.25695652173913e+00 3.13068755869259e-02 2.60990958978573e-04
5.35000000000000e+00 3.08404568653912e-02 2.59368169552164e-04
5.44304347826087e+00 3.03809869822538e-02 2.57716474051478e-04
5.53608695652174e+00 2.99283624117537e-02 2.56037868460643e-04
5.62913043478261e+00 2.94824811704886e-02 2.54334256741171e-04
5.72217391304348e+00 2.90432427952004e-02 2.52607455882433e-04
5.81521739130435e+00 2.86105483178059e-02 2.50859200096769e-04
5.90826086956522e+00 2.81843002454643e-02 2.49091144729552e-04
6.00130434782609e+00 2.77644025378084e-02 2.47304870481172e-04
6.09434782608696e+00 2.73507605853085e-02 2.45501886932787e-04
6.18739130434783e+00 2.69432811879552e-02 2.43683635874643e-04
6.28043478260870e+00 2.65418725348976e-02 2.41851494812765e-04
6.37347826086956e+00 2.61464441818145e-02 2.40006779807505e-04
6.46652173913043e+00 2.57569070325052e-02 2.38150748133179e-04
6.55956521739130e+00 2.53731733181472e-02 2.36284601272635e-04
6.65260869565217e+00 2.49951565775247e-02 2.34409487277250e-04
6.74565217391304e+00 2.46227716380950e-02 2.32526503429531e-04
6.83869565217391e+00 2.42559345951268e-02 2.30636698345901e-04
6.93173913043478e+00 2.38945627944887e-02 2.28741073953633e-04
7.02478260869565e+00 2.35385748134535e-02 2.26840587798230e-04
7.11782608695652e+00 2.31878904423516e-02 2.24936154887018e-04
7.21086956521739e+00 2.28424306665013e-02 2.23028649449824e-04
7.30391304347826e+00 2.25021176488676e-02 2.21118906906372e-04
7.39695652173913e+00 2.21668747111143e-02 2.19207725369454e-04
7.49000000000000e+00 2.18366263177560e-02 2.17295867062484e-04
7.58304347826087e+00 2.15112980586559e-02 2.15384060050053e-04
7.67608695652174e+00 2.11908166322600e-02 2.13472999582314e-04
7.76913043478261e+00 2.08751098290824e-02 2.11563349385548e-04
7.86217391304348e+00 2.05641065158286e-02 2.09655743152491e-04
7.95521739130435e+00 2.02577366181704e-02 2.07750785640452e-04
8.04826086956522e+00 1.99559311061701e-02 2.05849053709074e-04
8.14130434782609e+00 1.96586219783168e-02 2.03951097647759e-04
8.23434782608696e+00 1.93657422462060e-02 2.02057442176004e-04
8.32739130434783e+00 1.90772259194454e-02 2.00168587408062e-04
8.42043478260869e+00 1.87930079911226e-02 1.98285010005036e-04
8.51347826086957e+00 1.85130244221360e-02 1.96407163991061e-04
8.60652173913043e+00 1.82372121278008e-02 1.94535481525719e-04
8.69956521739130e+00 1.79655089632850e-02 1.92670373941086e-04
8.79260869565217e+00 1.76978537096086e-02 1.90812232446210e-04
8.88565217391304e+00 1.74341860601440e-02 1.88961429068797e-04
8.97869565217391e+00 1.71744466061325e-02 1.87118317299528e-04
9.07173913043478e+00 1.69185768242054e-02 1.85283232702322e-04
9.16478260869565e+00 1.66665190628916e-02 1.83456493768332e-04
9.25782608695652e+00 1.64182165296275e-02 1.81638402521408e-04
9.35086956521739e+00 1.61736132779616e-02 1.79829245106157e-04
9.44391304347826e+00 1.59326541952023e-02 1.78029292536705e-04
9.53695652173913e+00 1.56952849892293e-02 1.76238801186697e-04
9.63000000000000e+00 1.54614521770410e-02 1.74458013253507e-04
9.72304347826087e+00 1.52311030724407e-02 1.72687157442688e-04
9.81608695652174e+00 1.50041857741650e-02 1.70926449436102e-04
9.90913043478261e+00 1.47806491541911e-02 1.69176092348149e-04
1.00021739130435e+01 1.45604428464344e-02 1.67436277530243e-04
1.00952173913043e+01 1.43435172336624e-02 1.65707184017732e-04
1.01882608695652e+01 1.41298234419194e-02 1.63988980332286e-04
1.02813043478261e+01 1.39193133205069e-02 1.62281824658988e-04
1.03743478260870e+01 1.37119394382182e-02 1.60585863912614e-04
1.04673913043478e+01 1.35076550704907e-02 1.58901235141935e-04
1.05604347826087e+01 1.33064141907726e-02 1.57228066594978e-04
1.06534782608696e+01 1.31081714544018e-02 1.55566477342322e-04
1.07465217391304e+01 1.29128821942064e-02 1.53916576865495e-04
1.08395652173913e+01 1.27205024084734e-02 1.52278466544251e-04
1.09326086956522e+01 1.25309887510441e-02 1.50652239262754e-04
1.10256521739130e+01 1.23442985232267e-02 1.49037980729724e-04
1.11186956521739e+01 1.21603896590630e-02 1.47435769106123e-04
1.12117391304348e+01 1.19792207210226e-02 1.45845674602610e-04
1.13047826086957e+01 1.18007508889219e-02 1.44267760498952e-04
1.13978260869565e+01 1.16249399522611e-02 1.42702083991509e-04
1.14908695652174e+01 1.14517482965137e-02 1.41148695831772e-04
1.15839130434783e+01 1.12811368989041e-02 1.39607639936618e-04
1.16769565217391e+01 1.11130673180256e-02 1.38078954596959e-04
1.17700000000000e+01 1.09475016851843e-02 1.36562672106403e-04
1.18630434782609e+01 1.07844026972310e-02 1.35058819833329e-04
1.19560869565217e+01 1.06237336040097e-02 1.33567419871270e-04
1.20491304347826e+01 1.04654582042712e-02 1.32088488665251e-04
1.21421739130435e+01 1.03095408361006e-02 1.30622038093552e-04
1.22352173913043e+01 1.01559463688865e-02 1.29168075112684e-04
1.23282608695652e+01 1.00046401966235e-02 1.27726602716742e-04
1.24213043478261e+01 9.85558822641040e-03 1.26297619602772e-04
1.25143478260870e+01 9.70875687451497e-03 1.24881119814302e-04
1.26073913043478e+01 9.56411305754520e-03 1.23477093476876e-04
1.27004347826087e+01 9.42162418610944e-03 1.22085527405436e-04
1.27934782608696e+01 9.28125815409196e-03 1.20706404784041e-04
1.28865217391304e+01 9.14298333483898e-03 1.19339704826154e-04
1.29795652173913e+01 9.00676857287674e-03 1.17985403663503e-04
1.30726086956522e+01 8.87258317689679e-03 1.16643474023292e-04
1.31656521739130e+01 8.74039691383573e-03 1.15313886016857e-04
1.32586956521739e+01 8.61017999903587e-03 1.13996606835566e-04
1.33517391304348e+01 8.48190309259612e-03 1.12691600429562e-04
1.34447826086957e+01 8.35553729172890e-03 1.11398828109039e-04
1.35378260869565e+01 8.23105412516181e-03 1.10118249038797e-04
1.36308695652174e+01 8.10842554395299e-03 1.08849819949324e-04
1.37239130434783e+01 7.98762391797174e-03 1.07593494831587e-04
1.38169565217391e+01 7.86862202872710e-03 1.06349225671912e-04
1.39100000000000e+01 7.75139306323782e-03 1.05116962162188e-04
1.40030434782609e+01 7.63591060880894e-03 1.03896652351239e-04
1.40960869565217e+01 7.52214864459571e-03 1.02688242372191e-04
1.41891304347826e+01 7.41008153825359e-03 1.01491676155736e-04
1.42821739130435e+01 7.29968403931480e-03 1.00306896093048e-04
1.43752173913043e+01 7.19093127350131e-03 9.91338427638682e-05
1.44682608695652e+01 7.08379873785455e-03 9.79724555239224e-05
1.45613043478261e+01 6.97826229298232e-03 9.68226722487621e-05
1.46543478260870e+01 6.87429815987689e-03 9.56844290646336e-05
1.47473913043478e+01 6.77188291379706e-03 9.45576607934736e-05
1.48404347826087e+01 6.67099347966494e-03 9.34423013168698e-05
1.49334782608696e+01 6.57160712481963e-03 9.23382833335185e-05
1.50265217391304e+01 6.47370145596529e-03 9.12455381050189e-05
1.51195652173913e+01 6.37725441342625e-03 9.01639960072285e-05
1.52126086956522e+01 6.28224426617930e-03 8.90935862889793e-05
1.53056521739130e+01 6.18864960756312e-03 8.80342375607367e-05
1.53986956521739e+01 6.09644934861295e-03 8.69858775672104e-05
1.54917391304348e+01 6.00562271517165e-03 8.59484329495443e-05
1.55847826086957e+01 5.91614924258097e-03 8.49218296136155e-05
1.56778260869565e+01 5.82800877162897e-03 8.39059930302341e-05
1.57708695652174e+01 5.74118144231575e-03 8.29008480205544e-05
1.58639130434783e+01 5.65564769108934e-03 8.19063185315377e-05
1.59569565217391e+01 5.57138824586014e-03 8.09223280963191e-05
1.60500000000000e+01 5.48838412166012e-03 7.99487996210760e-05
1.61430434782609e+01 5.40661661686732e-03 7.89856557926035e-05
1.62360869565217e+01 5.32606730746710e-03 7.80328188775913e-05
1.63291304347826e+01 5.24671804444289e-03 7.70902105131902e-05
1.64221739130435e+01 5.16855094916667e-03 7.61577521242524e-05
1.65152173913043e+01 5.09154840937189e-03 7.52353647246968e-05
1.66082608695652e+01 5.01569307563784e-03 7.43229692867530e-05
1.67013043478261e+01 4.94096785610495e-03 7.34204865536601e-05
1.67943478260870e+01 4.86735591401445e-03 7.25278368443131e-05
1.68873913043478e+01 4.79484066344647e-03 7.16449403299342e-05
1.69804347826087e+01 4.72340576600025e-03 7.07717172584397e-05
1.70734782608696e+01 4.65303512584696e-03 6.99080877777787e-05
1.71665217391304e+01 4.58371288738291e-03 6.90539717519984e-05
1.72595652173913e+01 4.51542343122490e-03 6.82092891108790e-05
1.73526086956522e+01 4.44815137069237e-03 6.73739596752805e-05
1.74456521739130e+01 4.38188154871669e-03 6.65479034665753e-05
1.75386956521739e+01 4.31659903328262e-03 6.57310405418901e-05
1.76317391304348e+01 4.25228911522000e-03 6.49232908227797e-05
1.77247826086957e+01 4.18893730449982e-03 6.41245743259798e-05
1.78178260869565e+01 4.12652932731714e-03 6.33348113499148e-05
1.79108695652174e+01 4.06505112182136e-03 6.25539223196005e-05
1.80039130434783e+01 4.00448883601292e-03 6.17818276252788e-05
1.80969565217391e+01 3.94482882426272e-03 6.10184479161801e-05
1.81900000000000e+01 3.88605764423841e-03 6.02637039472817e-05
1.82830434782609e+01 3.82816205418938e-03 5.95175168390016e-05
1.83760869565217e+01 3.77112900901044e-03 5.87798079326753e-05
1.84691304347826e+01 3.71494565826582e-03 5.80504986405069e-05
1.85621739130435e+01 3.65959934296879e-03 5.73295107126265e-05
1.86552173913043e+01 3.60507759273015e-03 5.66167660946631e-05
1.87482608695652e+01 3.55136812323229e-03 5.59121871637357e-05
1.88413043478261e+01 3.49845883259904e-03 5.52156965939962e-05
1.89343478260870e+01 3.44633779954063e-03 5.45272172170404e-05
1.90273913043478e+01 3.39499328037406e-03 5.38466721969099e-05
1.91204347826087e+01 3.34441370663943e-03 5.31739851708493e-05
1.92134782608696e+01 3.29458768169771e-03 5.25090801226937e-05
1.93065217391304e+01 3.24550397896728e-03 5.18518812516027e-05
1.93995652173913e+01 3.19715153912281e-03 5.12023131969671e-05
1.94926086956522e+01 3.14951946760434e-03 5.05603009136832e-05
1.95856521739130e+01 3.10259703239966e-03 4.99257698708805e-05
1.96786956521739e+01 3.05637366090556e-03 4.92986459341190e-05
1.97717391304348e+01 3.01083893827425e-03 4.86788552433674e-05
1.98647826086957e+01 2.96598260482119e-03 4.80663243596978e-05
1.99578260869565e+01 2.92179455393306e-03 4.74609803828967e-05
2.00508695652174e+01 2.87826482912496e-03 4.68627508406730e-05
2.01439130434783e+01 2.83538362246988e-03 4.62715635738371e-05
2.02369565217391e+01 2.79314127216180e-03 4.56873469260927e-05
2.03300000000000e+01 2.75152826033916e-03 4.51100296349202e-05
2.04230434782609e+01 2.71053521113920e-03 4.45395409990716e-05
2.05160869565217e+01 2.67015288798183e-03 4.39758107755275e-05
2.06091304347826e+01 2.63037219209868e-03 4.34187690728820e-05
2.07021739130435e+01 2.59118416027718e-03 4.28683465242386e-05
2.07952173913043e+01 2.55257996284144e-03 4.23244741859269e-05
2.08882608695652e+01 2.51455090184314e-03 4.17870836900317e-05
2.09813043478261e+01 2.47708840855399e-03 4.12561071486580e-05
2.10743478260870e+01 2.44018404208874e-03 4.07314770548784e-05
2.11673913043478e+01 2.40382948731685e-03 4.02131263947139e-05
2.12604347826087e+01 2.36801655315597e-03 3.97009887364622e-05
2.13534782608696e+01 2.33273717021992e-03 3.91949981406116e-05
2.14465217391304e+01 2.29798338951243e-03 3.86950890667308e-05
2.15395652173913e+01 2.26374738046339e-03 3.82011965195958e-05
2.16326086956522e+01 2.23002142916495e-03 3.77132559606576e-05
2.17256521739130e+01 2.19679793678480e-03 3.72312034369307e-05
2.18186956521739e+01 2.16406941739424e-03 3.67549754972677e-05
2.19117391304348e+01 2.13182849674630e-03 3.62845091058940e-05
2.20047826086957e+01 2.10006791045756e-03 3.58197417366104e-05
2.20978260869565e+01 2.06878050251180e-03 3.53606114476908e-05
2.21908695652174e+01 2.03795922322212e-03 3.49070568031684e-05
2.22839130434783e+01 2.00759712807261e-03 3.44590167915033e-05
2.23769565217391e+01 1.97768737600855e-03 3.40164309492804e-05
2.24700000000000e+01 1.94822322789528e-03 3.35792392838529e-05
2.25630434782609e+01 1.91919804512718e-03 3.31473823823158e-05
2.26560869565217e+01 1.89060528774519e-03 3.27208013383629e-05
2.27491304347826e+01 1.86243851335415e-03 3.22994376768146e-05
2.28421739130435e+01 1.83469137553938e-03 3.18832334664816e-05
2.29352173913043e+01 1.80735762243701e-03 3.14721312484032e-05
2.30282608695652e+01 1.78043109544113e-03 3.10660741352300e-05
2.31213043478261e+01 1.75390572746453e-03 3.06650057433198e-05
2.32143478260870e+01 1.72777554192709e-03 3.02688701226652e-05
2.33073913043478e+01 1.70203465128948e-03 2.98776118291301e-05
2.34004347826087e+01 1.67667725583401e-03 2.94911759815942e-05
2.34934782608696e+01 1.65169764203219e-03 2.91095081980689e-05
2.35865217391304e+01 1.62709018158654e-03 2.87325545298302e-05
2.36795652173913e+01 1.60284933005143e-03 2.83602615570615e-05
2.37726086956522e+01 1.57896962558404e-03 2.79925763261771e-05
2.38656521739130e+01 1.55544568781132e-03 2.76294464340158e-05
2.39586956521739e+01 1.53227221632141e-03 2.72708199685065e-05
2.40517391304348e+01 1.50944398976886e-03 2.69166454475327e-05
2.41447826086956e+01 1.48695586459726e-03 2.65668718798555e-05
2.42378260869565e+01 1.46480277397095e-03 2.62214488131424e-05
2.43308695652174e+01 1.44297972635877e-03 2.58803262781866e-05
2.44239130434783e+01 1.42148180468691e-03 2.55434547314040e-05
2.45169565217391e+01 1.40030416513744e-03 2.52107851359840e-05
2.46100000000000e+01 1.37944203605702e-03 2.48822689071553e-05
2.47030434782609e+01 1.35889071696421e-03 2.45578579835373e-05
2.47960869565217e+01 1.33864557724036e-03 2.42375047753351e-05
2.48891304347826e+01 1.31870205533894e-03 2.39211621109915e-05
2.49821739130435e+01 1.29905565767256e-03 2.36087833113179e-05
2.50752173913043e+01 1.27970195760062e-03 2.33003221387340e-05
2.51682608695652e+01 1.26063659450697e-03 2.29957328624126e-05
2.52613043478261e+01 1.24185527258963e-03 2.26949702101985e-05
2.53543478260870e+01 1.22335376012305e-03 2.23979893190970e-05
2.54473913043478e+01 1.20512788842714e-03 2.21047457821497e-05
2.55404347826087e+01 1.18717355099764e-03 2.18151956851911e-05
2.56334782608696e+01 1.16948670236965e-03 2.15292955616151e-05
2.57265217391304e+01 1.15206335741962e-03 2.12470023458331e-05
2.58195652173913e+01 1.13489959039541e-03 2.09682734362173e-05
2.59126086956522e+01 1.11799153403190e-03 2.06930666507815e-05
2.60056521739130e+01 1.10133537874304e-03 2.04213402824759e-05
2.60986956521739e+01 1.08492737157105e-03 2.01530530571909e-05
2.61917391304348e+01 1.06876381553528e-03 1.98881640905645e-05
2.62847826086957e+01 1.05284106873375e-03 1.96266329275920e-05
2.63778260869565e+01 1.03715554358149e-03 1.93684195735714e-05
2.64708695652174e+01 1.02170370582356e-03 1.91134844546151e-05
2.65639130434783e+01 1.00648207391929e-03 1.88617883770272e-05
2.66569565217391e+01 9.91487218196915e-04 1.86132925808054e-05
2.67500000000000e+01 9.76715760080914e-04 1.83679587009463e-05
2.68430434782609e+01 9.62164371384457e-04 1.81257488143894e-05
2.69360869565217e+01 9.47829773396639e-04 1.78866254033527e-05
2.70291304347826e+01 9.33708736308341e-04 1.76505513176499e-05
2.71221739130435e+01 9.19798078429014e-04 1.74174898236094e-05
2.72152173913043e+01 9.06094665469872e-04 1.71874045681895e-05
2.73082608695652e+01 8.92595409886635e-04 1.69602596218781e-05
2.74013043478261e+01 8.79297270035297e-04 1.67360194446692e-05
2.74943478260870e+01 8.66197249636934e-04 1.65146488510933e-05
2.75873913043478e+01 8.53292397052038e-04 1.62961130407686e-05
2.76804347826087e+01 8.40579804660961e-04 1.60803776221336e-05
2.77734782608696e+01 8.28056608070835e-04 1.58674085804386e-05
2.78665217391304e+01 8.15719985609602e-04 1.56571722448663e-05
2.79595652173913e+01 8.03567157643215e-04 1.54496353301368e-05
2.80526086956522e+01 7.91595385949447e-04 1.52447649051783e-05
2.81456521739130e+01 7.79801973142386e-04 1.50425284295937e-05
2.82386956521739e+01 7.68184261938793e-04 1.48428937239460e-05
2.83317391304348e+01 7.56739634686599e-04 1.46458289392513e-05
2.84247826086957e+01 7.45465512732243e-04 1.44513025828296e-05
2.85178260869565e+01 7.34359355878255e-04 1.42592835383081e-05
2.86108695652174e+01 7.23418661693962e-04 1.40697410376794e-05
2.87039130434783e+01 7.12640965069832e-04 1.38826446326025e-05
2.87969565217391e+01 7.02023837622197e-04 1.36979642298175e-05
2.88900000000000e+01 6.91564887146155e-04 1.35156700637925e-05
2.89830434782609e+01 6.81261757111764e-04 1.33357327277262e-05
2.90760869565217e+01 6.71112126026301e-04 1.31581231476069e-05
2.91691304347826e+01 6.61113707019109e-04 1.29828125555923e-05
2.92621739130435e+01 6.51264247289953e-04 1.28097725224125e-05
2.93552173913043e+01 6.41561527601474e-04 1.26389749320033e-05
