Energy (eV)          EEDF (eV^-(3/2))     First Anisotropy
2.26052631578947e-02 2.84863343389946e-01 2.42812947478606e-04
6.78157894736842e-02 2.79733906629065e-01 3.98683573667938e-04
1.13026315789474e-01 2.74696833881009e-01 5.20328946007691e-04
1.58236842105263e-01 2.69750461974706e-01 6.09184987270813e-04
2.03447368421053e-01 2.64893157703357e-01 6.80403810516101e-04
2.48657894736842e-01 2.60123317232010e-01 7.39813988361531e-04
2.93868421052632e-01 2.55439365654330e-01 7.90481402096354e-04
3.39078947368421e-01 2.50839756394907e-01 8.34286764751766e-04
3.84289473684211e-01 2.46322970716599e-01 8.72496534999054e-04
4.29500000000000e-01 2.41887517257205e-01 9.06019131432917e-04
4.74710526315790e-01 2.37531931493953e-01 9.35536683052331e-04
5.19921052631579e-01 2.33254775275686e-01 9.61579524749045e-04
5.65131578947369e-01 2.29054636340621e-01 9.84571396158250e-04
6.10342105263158e-01 2.24930127872727e-01 1.00485840512045e-03
6.55552631578947e-01 2.20879888019493e-01 1.02272841572067e-03
7.00763157894737e-01 2.16902579445456e-01 1.03842449599299e-03
7.45973684210526e-01 2.12996888907989e-01 1.05215453421513e-03
7.91184210526316e-01 2.09161526805210e-01 1.06409829041981e-03
8.36394736842105e-01 2.05395226752374e-01 1.07441267869901e-03
8.81605263157895e-01 2.01696745177496e-01 1.08323580528839e-03
9.26815789473684e-01 1.98064860896149e-01 1.09069010561568e-03
9.72026315789474e-01 1.94498374709848e-01 1.09688481524408e-03
1.01723684210526e+00 1.90996109021297e-01 1.10191794792663e-03
1.06244736842105e+00 1.87556907417051e-01 1.10587788831391e-03
1.10765789473684e+00 1.84179634359972e-01 1.10884470508836e-03
1.15286842105263e+00 1.80863174692423e-01 1.11089122455269e-03
1.19807894736842e+00 1.77606433396792e-01 1.11208392777857e-03
1.24328947368421e+00 1.74408335117616e-01 1.11248370799021e-03
1.28850000000000e+00 1.71267823890754e-01 1.11214649860522e-03
1.33371052631579e+00 1.68183862790067e-01 1.11112382977431e-03
1.37892105263158e+00 1.65155433513500e-01 1.10946328758500e-03
1.42413157894737e+00 1.62181536118982e-01 1.10720890946904e-03
1.46934210526316e+00 1.59261188690420e-01 1.10440154468786e-03
1.51455263157895e+00 1.56393426951727e-01 1.10107915042286e-03
1.55976315789474e+00 1.53577304028869e-01 1.09727705903481e-03
1.60497368421053e+00 1.50811890061423e-01 1.09302821464898e-03
1.65018421052632e+00 1.48096271950975e-01 1.08836337290893e-03
1.69539473684211e+00 1.45429553056773e-01 1.08331129468791e-03
1.74060526315789e+00 1.42810852851671e-01 1.07789890466183e-03
1.78581578947368e+00 1.40239306679835e-01 1.07215143269469e-03
1.83102631578947e+00 1.37714065469005e-01 1.06609255416435e-03
1.87623684210526e+00 1.35234295407737e-01 1.05974450334938e-03
1.92144736842105e+00 1.32799177712883e-01 1.05312817545899e-03
1.96665789473684e+00 1.30407908357154e-01 1.04626323139883e-03
2.01186842105263e+00 1.28059697766222e-01 1.03916817972795e-03
2.05707894736842e+00 1.25753770607074e-01 1.03186045701676e-03
2.10228947368421e+00 1.23489365485289e-01 1.02435650199303e-03
2.14750000000000e+00 1.21265734727948e-01 1.01667181663913e-03
2.19271052631579e+00 1.19082144135231e-01 1.00882103408636e-03
2.23792105263158e+00 1.16937872707655e-01 1.00081797071677e-03
2.28313157894737e+00 1.14832212438644e-01 9.92675673918783e-04
2.32834210526316e+00 1.12764468079403e-01 9.84406475937690e-04
2.37355263157895e+00 1.10733956882205e-01 9.76022033151580e-04
2.41876315789474e+00 1.08740008410592e-01 9.67533367048729e-04
2.46397368421053e+00 1.06781964283909e-01 9.58950902829473e-04
2.50918421052632e+00 1.04859177985057e-01 9.50284499929274e-04
2.55439473684211e+00 1.02971014645914e-01 9.41543489912452e-04
2.59960526315789e+00 1.01116850815351e-01 9.32736703513789e-04
2.64481578947368e+00 9.92960742759649e-02 9.23872495736629e-04
2.69002631578947e+00 9.75080838410190e-02 9.14958777164619e-04
2.73523684210526e+00 9.57522891357131e-02 9.06003035583437e-04
2.78044736842105e+00 9.40281104226799e-02 8.97012356120676e-04
2.82565789473684e+00 9.23349784096921e-02 8.87993447428905e-04
2.87086842105263e+00 9.06723340434357e-02 8.78952658411814e-04
2.91607894736842e+00 8.90396283489535e-02 8.69895997443243e-04
2.96128947368421e+00 8.74363222252787e-02 8.60829150870620e-04
3.00650000000000e+00 8.58618862844916e-02 8.51757496461202e-04
3.05171052631579e+00 8.43158006762341e-02 8.42686123221497e-04
3.09692105263158e+00 8.27975549007308e-02 8.33619843865842e-04
3.14213157894737e+00 8.13066476557220e-02 8.24563206521082e-04
3.18734210526316e+00 7.98425866703202e-02 8.15520511717747e-04
3.23255263157895e+00 7.84048885285274e-02 8.06495822072422e-04
3.27776315789474e+00 7.69930785279796e-02 7.97492974315361e-04
3.32297368421053e+00 7.56066905055148e-02 7.88515591018751e-04
3.36818421052632e+00 7.42452666963460e-02 7.79567088486725e-04
3.41339473684211e+00 7.29083575823873e-02 7.70650690072088e-04
3.45860526315789e+00 7.15955217320276e-02 7.61769433722405e-04
3.50381578947368e+00 7.03063256663047e-02 7.52926179103741e-04
3.54902631578947e+00 6.90403437153248e-02 7.44123619221386e-04
3.59423684210526e+00 6.77971578669169e-02 7.35364286722107e-04
3.63944736842105e+00 6.65763576395217e-02 7.26650559853115e-04
3.68465789473684e+00 6.53775399462256e-02 7.17984672657055e-04
3.72986842105263e+00 6.42003089518093e-02 7.09368719801391e-04
3.77507894736842e+00 6.30442759550579e-02 7.00804663384704e-04
3.82028947368421e+00 6.19090592478498e-02 6.92294339674096e-04
3.86550000000000e+00 6.07942839984298e-02 6.83839463068400e-04
3.91071052631579e+00 5.96995821272914e-02 6.75441634352363e-04
3.95592105263158e+00 5.86245921772021e-02 6.67102344667807e-04
4.00113157894737e+00 5.75689592023878e-02 6.58822979281904e-04
4.04634210526316e+00 5.65323346510127e-02 6.50604824911889e-04
4.09155263157895e+00 5.55143762423488e-02 6.42449072704503e-04
4.13676315789474e+00 5.45147478639788e-02 6.34356822905639e-04
4.18197368421053e+00 5.35331194509308e-02 6.26329089527957e-04
4.22718421052632e+00 5.25691668840272e-02 6.18366802790040e-04
4.27239473684211e+00 5.16225718825872e-02 6.10470815144010e-04
4.31760526315789e+00 5.06930218926748e-02 6.02641903814883e-04
4.36281578947368e+00 4.97802099906316e-02 5.94880773216239e-04
4.40802631578947e+00 4.88838347814915e-02 5.87188060344510e-04
4.45323684210526e+00 4.80036002933293e-02 5.79564336927134e-04
4.49844736842105e+00 4.71392158857375e-02 5.72010111467160e-04
4.54365789473684e+00 4.62903961536282e-02 5.64525834083368e-04
4.58886842105263e+00 4.54568608273543e-02 5.57111898038313e-04
4.63407894736842e+00 4.46383346876249e-02 5.49768642619890e-04
4.67928947368421e+00 4.38345474674066e-02 5.42496356058445e-04
4.72450000000000e+00 4.30452337680455e-02 5.35295276757068e-04
4.76971052631579e+00 4.22701329714414e-02 5.28165597338234e-04
4.81492105263158e+00 4.15089891491067e-02 5.21107466019869e-04
4.86013157894737e+00 4.07615509826055e-02 5.14120987926709e-04
4.90534210526316e+00 4.00275716803932e-02 5.07206228741953e-04
4.95055263157895e+00 3.93068088918183e-02 5.00363215627796e-04
4.99576315789474e+00 3.85990246330626e-02 4.93591939287668e-04
5.04097368421053e+00 3.79039852027806e-02 4.86892356072913e-04
5.08618421052632e+00 3.72214611092290e-02 4.80264388704391e-04
5.13139473684211e+00 3.65512269943345e-02 4.73707929350717e-04
5.17660526315789e+00 3.58930615553644e-02 4.67222840497914e-04
5.22181578947368e+00 3.52467474758191e-02 4.60808955778262e-04
5.26702631578947e+00 3.46120713535388e-02 4.54466082760137e-04
5.31223684210526e+00 3.39888236266137e-02 4.48194003673763e-04
5.35744736842105e+00 3.33767985078575e-02 4.41992476102579e-04
5.40265789473684e+00 3.27757939167267e-02 4.35861235515160e-04
5.44786842105263e+00 3.21856114092448e-02 4.29799995679915e-04
5.49307894736842e+00 3.16060561169128e-02 4.23808449986419e-04
5.53828947368421e+00 3.10369366780608e-02 4.17886272812908e-04
5.58350000000000e+00 3.04780651778614e-02 4.12033119823886e-04
5.62871052631579e+00 2.99292570861702e-02 4.06248630122082e-04
5.67392105263158e+00 2.93903311936679e-02 4.00532426684285e-04
5.71913157894737e+00 2.88611095549891e-02 3.94884116775661e-04
5.76434210526316e+00 2.83414174298635e-02 3.89303293908638e-04
5.80955263157895e+00 2.78310832227061e-02 3.83789538039310e-04
5.85476315789474e+00 2.73299384295472e-02 3.78342416527697e-04
5.89997368421053e+00 2.68378175789078e-02 3.72961485141759e-04
5.94518421052632e+00 2.63545581797554e-02 3.67646288173026e-04
5.99039473684211e+00 2.58800006677603e-02 3.62396360108817e-04
6.03560526315790e+00 2.54139883502344e-02 3.57211225873085e-04
6.08081578947368e+00 2.49563673567959e-02 3.52090401054111e-04
6.12602631578947e+00 2.45069865884806e-02 3.47033393430156e-04
6.17123684210526e+00 2.40656976656473e-02 3.42039703154174e-04
6.21644736842105e+00 2.36323548812140e-02 3.37108822927659e-04
6.26165789473684e+00 2.32068151524694e-02 3.32240239393601e-04
6.30686842105263e+00 2.27889379717844e-02 3.27433433149693e-04
6.35207894736842e+00 2.23785853629252e-02 3.22687879368135e-04
6.39728947368421e+00 2.19756218328632e-02 3.18003048454182e-04
6.44250000000000e+00 2.15799143289940e-02 3.13378406010672e-04
6.48771052631579e+00 2.11913321951380e-02 3.08813414032283e-04
6.53292105263158e+00 2.08097471266025e-02 3.04307530977612e-04
6.57813157894737e+00 2.04350331296351e-02 2.99860211835069e-04
6.62334210526316e+00 2.00670664797594e-02 2.95470909214960e-04
6.66855263157895e+00 1.97057256792540e-02 2.91139073286068e-04
6.71376315789474e+00 1.93508914192451e-02 2.86864152224080e-04
6.75897368421053e+00 1.90024465381623e-02 2.82645592694634e-04
6.80418421052632e+00 1.86602759846534e-02 2.78482839756234e-04
6.84939473684211e+00 1.83242667795402e-02 2.74375337798618e-04
6.89460526315790e+00 1.79943079770455e-02 2.70322530540039e-04
6.93981578947368e+00 1.76702906296462e-02 2.66323861021491e-04
6.98502631578947e+00 1.73521077520507e-02 2.62378772465769e-04
7.03023684210526e+00 1.70396542845064e-02 2.58486708253510e-04
7.07544736842105e+00 1.67328270594936e-02 2.54647111896984e-04
7.12065789473684e+00 1.64315247676133e-02 2.50859427826871e-04
7.16586842105263e+00 1.61356479228649e-02 2.47123101268523e-04
7.21107894736842e+00 1.58450988314815e-02 2.43437578525494e-04
7.25628947368421e+00 1.55597815580334e-02 2.39802307292365e-04
7.30150000000000e+00 1.52796018949707e-02 2.36216736511079e-04
7.34671052631579e+00 1.50044673314766e-02 2.32680317048332e-04
7.39192105263158e+00 1.47342870217989e-02 2.29192501630660e-04
7.43713157894737e+00 1.44689717563895e-02 2.25752744779060e-04
7.48234210526316e+00 1.42084339324104e-02 2.22360503429785e-04
7.52755263157895e+00 1.39525875237634e-02 2.19015236789393e-04
7.57276315789474e+00 1.37013480540694e-02 2.15716406534159e-04
7.61797368421053e+00 1.34546325674274e-02 2.12463477035118e-04
7.66318421052632e+00 1.32123596020273e-02 2.09255915199767e-04
7.70839473684211e+00 1.29744491632183e-02 2.06093191007029e-04
7.75360526315790e+00 1.27408226961716e-02 2.02974777417254e-04
7.79881578947368e+00 1.25114030608778e-02 1.99900150282867e-04
7.84402631578947e+00 1.22861145066450e-02 1.96868788838823e-04
7.88923684210526e+00 1.20648826462255e-02 1.93880175605994e-04
7.93444736842105e+00 1.18476344321262e-02 1.90933796295472e-04
7.97965789473684e+00 1.16342981324589e-02 1.88029140258272e-04
8.02486842105263e+00 1.14248033064540e-02 1.85165700328807e-04
8.07007894736842e+00 1.12190807822645e-02 1.82342972942980e-04
8.11528947368421e+00 1.10170626330905e-02 1.79560458277584e-04
8.16050000000000e+00 1.08186821555223e-02 1.76817660086515e-04
8.20571052631579e+00 1.06238738474896e-02 1.74114086088459e-04
8.25092105263158e+00 1.04325733859231e-02 1.71449247859456e-04
8.29613157894737e+00 1.02447176062350e-02 1.68822660726949e-04
8.34134210526316e+00 1.00602444814391e-02 1.66233844125267e-04
8.38655263157895e+00 9.87909310100719e-03 1.63682321439667e-04
8.43176315789474e+00 9.70120365163569e-03 1.61167620082985e-04
8.47697368421053e+00 9.52651739663987e-03 1.58689271590818e-04
8.52218421052632e+00 9.35497665719764e-03 1.56246811461235e-04
8.56739473684211e+00 9.18652479328341e-03 1.53839779461186e-04
8.61260526315790e+00 9.02110618437816e-03 1.51467719514823e-04
8.65781578947369e+00 8.85866621169946e-03 1.49130179593655e-04
8.70302631578947e+00 8.69915124014758e-03 1.46826711997458e-04
8.74823684210526e+00 8.54250860004666e-03 1.44556873242096e-04
8.79344736842105e+00 8.38868657030966e-03 1.42320223949250e-04
8.83865789473684e+00 8.23763436134219e-03 1.40116329103923e-04
8.88386842105263e+00 8.08930209775997e-03 1.37944757905553e-04
8.92907894736842e+00 7.94364080260012e-03 1.35805083805069e-04
8.97428947368421e+00 7.80060238048709e-03 1.33696884557220e-04
9.01950000000000e+00 7.66013960224560e-03 1.31619742070072e-04
9.06471052631579e+00 7.52220608929003e-03 1.29573242626748e-04
9.10992105263158e+00 7.38675629785534e-03 1.27556976774811e-04
9.15513157894737e+00 7.25374550442003e-03 1.25570539217642e-04
9.20034210526316e+00 7.12312979092387e-03 1.23613529017610e-04
9.24555263157895e+00 6.99486602984131e-03 1.21685549455535e-04
9.29076315789474e+00 6.86891187050535e-03 1.19786208047941e-04
9.33597368421053e+00 6.74522572457376e-03 1.17915116577518e-04
9.38118421052632e+00 6.62376675270712e-03 1.16071890952229e-04
9.42639473684211e+00 6.50449485107059e-03 1.14256151380059e-04
9.47160526315790e+00 6.38737063771386e-03 1.12467522262466e-04
9.51681578947369e+00 6.27235543995063e-03 1.10705632089861e-04
9.56202631578947e+00 6.15941128157697e-03 1.08970113601580e-04
9.60723684210526e+00 6.04850086997837e-03 1.07260603681227e-04
9.65244736842105e+00 5.93958758417417e-03 1.05576743253999e-04
9.69765789473684e+00 5.83263546271399e-03 1.03918177433105e-04
9.74286842105263e+00 5.72760919147325e-03 1.02284555392329e-04
9.78807894736842e+00 5.62447409243125e-03 1.00675530364931e-04
9.83328947368421e+00 5.52319611179324e-03 9.90907596534176e-05
9.87850000000000e+00 5.42374180906500e-03 9.75299045028570e-05
9.92371052631579e+00 5.32607834600081e-03 9.59926302265183e-05
9.96892105263158e+00 5.23017347546633e-03 9.44786061072961e-05
1.00141315789474e+01 5.13599553108893e-03 9.29875052138225e-05
1.00593421052632e+01 5.04351341715246e-03 9.15190049303633e-05
1.01045526315789e+01 4.95269659634100e-03 9.00727861636766e-05
1.01497631578947e+01 4.86351508318442e-03 8.86485335214810e-05
1.01949736842105e+01 4.77593943124575e-03 8.72459359483690e-05
1.02401842105263e+01 4.68994072432124e-03 8.58646861630040e-05
1.02853947368421e+01 4.60549056608622e-03 8.45044802617178e-05
1.03306052631579e+01 4.52256107317012e-03 8.31650180927450e-05
1.03758157894737e+01 4.44112486346207e-03 8.18460038288462e-05
1.04210263157895e+01 4.36115504715915e-03 8.05471447417117e-05
1.04662368421053e+01 4.28262522018046e-03 7.92681517654962e-05
1.05114473684211e+01 4.20550945312181e-03 7.80087398589323e-05
1.05566578947368e+01 4.12978228348055e-03 7.67686275511676e-05
1.06018684210526e+01 4.05541870656087e-03 7.55475365910266e-05
1.06470789473684e+01 3.98239416931269e-03 7.43451922663247e-05
1.06922894736842e+01 3.91068456009829e-03 7.31613237341395e-05
1.07375000000000e+01 3.84026620145007e-03 7.19956635991477e-05
1.07827105263158e+01 3.77111584162369e-03 7.08479475872221e-05
1.08279210526316e+01 3.70321064883567e-03 6.97179148364682e-05
1.08731315789474e+01 3.63652820178128e-03 6.86053081985140e-05
1.09183421052632e+01 3.57104648288902e-03 6.75098738470044e-05
1.09635526315789e+01 3.50674387047517e-03 6.64313609738409e-05
1.10087631578947e+01 3.44359913335559e-03 6.53695220544963e-05
1.10539736842105e+01 3.38159142205866e-03 6.43241131229024e-05
1.10991842105263e+01 3.32070026254282e-03 6.32948934079222e-05
1.11443947368421e+01 3.26090554890952e-03 6.22816250506780e-05
1.11896052631579e+01 3.20218753836582e-03 6.12840733464467e-05
1.12348157894737e+01 3.14452684308071e-03 6.03020071219639e-05
1.12800263157895e+01 3.08790442384108e-03 5.93351978896705e-05
1.13252368421053e+01 3.03230158526458e-03 5.83834202192259e-05
1.13704473684211e+01 2.97769996810518e-03 5.74464519724432e-05
1.14156578947368e+01 2.92408154370532e-03 5.65240739831710e-05
1.14608684210526e+01 2.87142860759283e-03 5.56160698073653e-05
1.15060789473684e+01 2.81972377500713e-03 5.47222259296895e-05
1.15512894736842e+01 2.76894997376694e-03 5.38423319779340e-05
1.15965000000000e+01 2.71909043910397e-03 5.29761804257591e-05
1.16417105263158e+01 2.67012870771500e-03 5.21235663601387e-05
1.16869210526316e+01 2.62204861358157e-03 5.12842876697788e-05
1.17321315789474e+01 2.57483428135816e-03 5.04581452408354e-05
1.17773421052632e+01 2.52847012156149e-03 4.96449426808711e-05
1.18225526315789e+01 2.48294082504516e-03 4.88444861024692e-05
1.18677631578947e+01 2.43823135909426e-03 4.80565842950835e-05
1.19129736842105e+01 2.39432696129554e-03 4.72810489037051e-05
1.19581842105263e+01 2.35121313505799e-03 4.65176941725088e-05
1.20033947368421e+01 2.30887564447988e-03 4.57663367435076e-05
1.20486052631579e+01 2.26730051070087e-03 4.50267958133123e-05
1.20938157894737e+01 2.22647400621847e-03 4.42988933825584e-05
1.21390263157895e+01 2.18638265039286e-03 4.35824536709928e-05
1.21842368421053e+01 2.14701320598200e-03 4.28773033632020e-05
1.22294473684211e+01 2.10835267377023e-03 4.21832717614294e-05
1.22746578947368e+01 2.07038828861421e-03 4.15001905598275e-05
1.23198684210526e+01 2.03310751493145e-03 4.08278936665192e-05
1.23650789473684e+01 1.99649804346476e-03 4.01662173375717e-05
1.24102894736842e+01 1.96054778630125e-03 3.95150003165301e-05
1.24555000000000e+01 1.92524487319102e-03 3.88740836247572e-05
1.25007105263158e+01 1.89057764735578e-03 3.82433103958735e-05
1.25459210526316e+01 1.85653466246773e-03 3.76225259979856e-05
1.25911315789474e+01 1.82310467803043e-03 3.70115781610983e-05
1.26363421052632e+01 1.79027665595136e-03 3.64103167823885e-05
1.26815526315789e+01 1.75803975664794e-03 3.58185937721601e-05
1.27267631578947e+01 1.72638333622704e-03 3.52362631653643e-05
1.27719736842105e+01 1.69529694220093e-03 3.46631812379528e-05
1.28171842105263e+01 1.66477031029659e-03 3.40992063260089e-05
1.28623947368421e+01 1.63479336083772e-03 3.35441986824209e-05
1.29076052631579e+01 1.60535619611195e-03 3.29980205786333e-05
1.29528157894737e+01 1.57644909639740e-03 3.24605364699680e-05
1.29980263157895e+01 1.54806251677780e-03 3.19316125903110e-05
1.30432368421053e+01 1.52018708464289e-03 3.14111171150657e-05
1.30884473684211e+01 1.49281359593233e-03 3.08989202607229e-05
1.31336578947368e+01 1.46593301232005e-03 3.03948941255738e-05
1.31788684210526e+01 1.43953645803365e-03 2.98989125630816e-05
1.32240789473684e+01 1.41361521752163e-03 2.94108512688783e-05
1.32692894736842e+01 1.38816073196917e-03 2.89305878717046e-05
1.33145000000000e+01 1.36316459667713e-03 2.84580017854476e-05
1.33597105263158e+01 1.33861855810676e-03 2.79929740913237e-05
1.34049210526316e+01 1.31451451170285e-03 2.75353876172625e-05
1.34501315789474e+01 1.29084449866152e-03 2.70851270209700e-05
1.34953421052632e+01 1.26760070349048e-03 2.66420786524802e-05
1.35405526315789e+01 1.24477545126305e-03 2.62061304445329e-05
1.35857631578947e+01 1.22236120558699e-03 2.57771719850157e-05
1.36309736842105e+01 1.20035056560594e-03 2.53550945928331e-05
1.36761842105263e+01 1.17873626372844e-03 2.49397911902177e-05
1.37213947368421e+01 1.15751116307634e-03 2.45311562007360e-05
1.37666052631579e+01 1.13666825558990e-03 2.41290856153951e-05
1.38118157894737e+01 1.11620065924565e-03 2.37334771024387e-05
1.38570263157895e+01 1.09610161580018e-03 2.33442297259955e-05
1.39022368421053e+01 1.07636448899164e-03 2.29612440543651e-05
1.39474473684211e+01 1.05698276190935e-03 2.25844222249574e-05
1.39926578947368e+01 1.03795003499035e-03 2.22136678318295e-05
1.40378684210526e+01 1.01926002377589e-03 2.18488858355961e-05
1.40830789473684e+01 1.00090655723378e-03 2.14899826199526e-05
1.41282894736842e+01 9.82883575317707e-04 2.11368660509939e-05
1.41735000000000e+01 9.65185127102601e-04 2.07894453727340e-05
1.42187105263158e+01 9.47805368699793e-04 2.04476311232793e-05
1.42639210526316e+01 9.30738561692231e-04 2.01113351864108e-05
