Energy (eV)          EEDF (eV^-(3/2))     First Anisotropy
7.16666666666667e-02 1.00432217169860e-01 1.07589874454477e-04
2.15000000000000e-01 9.75755780230461e-02 1.75725565342191e-04
3.58333333333333e-01 9.48001915513868e-02 2.26905034552262e-04
5.01666666666667e-01 9.21037466624510e-02 2.62829964552878e-04
6.45000000000000e-01 8.94839979809778e-02 2.90437012175476e-04
7.88333333333333e-01 8.69387639980235e-02 3.12440483146708e-04
9.31666666666667e-01 8.44659252621894e-02 3.30290404970905e-04
1.07500000000000e+00 8.20634226083002e-02 3.44888881623639e-04
1.21833333333333e+00 7.97292554137378e-02 3.56851141321784e-04
1.36166666666667e+00 7.74614800037865e-02 3.66623488969190e-04
1.50500000000000e+00 7.52582079640996e-02 3.74544374238453e-04
1.64833333333333e+00 7.31176045819121e-02 3.80879153557161e-04
1.79166666666667e+00 7.10378873583543e-02 3.85841332754816e-04
1.93500000000000e+00 6.90173244793597e-02 3.89606275268868e-04
2.07833333333333e+00 6.70542333809643e-02 3.92320439932817e-04
2.22166666666667e+00 6.51469793773320e-02 3.94107841265853e-04
2.36500000000000e+00 6.32939742677690e-02 3.95074702419465e-04
2.50833333333333e+00 6.14936750187773e-02 3.95312889445597e-04
2.65166666666667e+00 5.97445825012134e-02 3.94902508804967e-04
2.79500000000000e+00 5.80452402182021e-02 3.93913907338830e-04
2.93833333333333e+00 5.63942330953532e-02 3.92409235140871e-04
3.08166666666667e+00 5.47901863196366e-02 3.90443690719775e-04
3.22500000000000e+00 5.32317641761842e-02 3.88066523896089e-04
3.36833333333333e+00 5.17176689381894e-02 3.85321850541046e-04
3.51166666666667e+00 5.02466398000218e-02 3.82249326438521e-04
3.65500000000000e+00 4.88174518127652e-02 3.78884707903791e-04
3.79833333333333e+00 4.74289148657817e-02 3.75260319986799e-04
3.94166666666667e+00 4.60798727068511e-02 3.71405454900554e-04
4.08500000000000e+00 4.47692019675710e-02 3.67346711636154e-04
4.22833333333333e+00 4.34958112291237e-02 3.63108285373996e-04
4.37166666666667e+00 4.22586401226156e-02 3.58712219383530e-04
4.51500000000000e+00 4.10566584364467e-02 3.54178623792385e-04
4.65833333333333e+00 3.98888652593785e-02 3.49525864811084e-04
4.80166666666667e+00 3.87542881546928e-02 3.44770732497404e-04
4.94500000000000e+00 3.76519823424333e-02 3.39928588612895e-04
5.08833333333333e+00 3.65810299134178e-02 3.35013495922177e-04
5.23166666666667e+00 3.55405390712816e-02 3.30038334614631e-04
5.37500000000000e+00 3.45296433831767e-02 3.25014906119802e-04
5.51833333333333e+00 3.35475010588776e-02 3.19954024620883e-04
5.66166666666667e+00 3.25932942552164e-02 3.14865600552507e-04
5.80500000000000e+00 3.16662283894141e-02 3.09758715763064e-04
5.94833333333333e+00 3.07655314779047e-02 3.04641690145864e-04
6.09166666666667e+00 2.98904534980890e-02 2.99522143140849e-04
6.23500000000000e+00 2.90402657589942e-02 2.94407049522204e-04
6.37833333333333e+00 2.82142602948811e-02 2.89302789041531e-04
6.52166666666667e+00 2.74117492796376e-02 2.84215192721979e-04
6.66500000000000e+00 2.66320644499324e-02 2.79149585114369e-04
6.80833333333333e+00 2.58745565490727e-02 2.74110821984682e-04
6.95166666666667e+00 2.51385947897301e-02 2.69103325785846e-04
7.09500000000000e+00 2.44235663251733e-02 2.64131118201566e-04
7.23833333333333e+00 2.37288757392176e-02 2.59197849200846e-04
7.38166666666667e+00 2.30539445533193e-02 2.54306824617167e-04
7.52500000000000e+00 2.23982107418534e-02 2.49461031557575e-04
7.66833333333333e+00 2.17611282643380e-02 2.44663161085842e-04
7.81166666666667e+00 2.11421666132531e-02 2.39915629924276e-04
7.95500000000000e+00 2.05408103696735e-02 2.35220600516704e-04
8.09833333333333e+00 1.99565587742671e-02 2.30579998920998e-04
8.24166666666667e+00 1.93889253124886e-02 2.25995532055391e-04
8.38500000000000e+00 1.88374373071912e-02 2.21468703687141e-04
8.52833333333333e+00 1.83016355251881e-02 2.17000828665065e-04
8.67166666666667e+00 1.77810737967418e-02 2.12593046736201e-04
8.81500000000000e+00 1.72753186420671e-02 2.08246335383985e-04
8.95833333333333e+00 1.67839489105070e-02 2.03961521226095e-04
9.10166666666667e+00 1.63065554314935e-02 1.99739291156278e-04
9.24500000000000e+00 1.58427406721104e-02 1.95580202715762e-04
9.38833333333333e+00 1.53921184061836e-02 1.91484693269795e-04
9.53166666666667e+00 1.49543133941154e-02 1.87453089039629e-04
9.67500000000000e+00 1.45289610689184e-02 1.83485613521775e-04
9.81833333333333e+00 1.41157072327397e-02 1.79582394906257e-04
9.96166666666667e+00 1.37142077631867e-02 1.75743473306541e-04
1.01050000000000e+01 1.33241283265900e-02 1.71968808229998e-04
1.02483333333333e+01 1.29451440940224e-02 1.68258283497071e-04
1.03916666666667e+01 1.25769394832762e-02 1.64611713714990e-04
1.05350000000000e+01 1.22192078845499e-02 1.61028851112999e-04
1.06783333333333e+01 1.18716514059130e-02 1.57509388266123e-04
1.08216666666667e+01 1.15339806350757e-02 1.54052964081753e-04
1.09650000000000e+01 1.12059143882556e-02 1.50659169362008e-04
1.11083333333333e+01 1.08871794767123e-02 1.47327548833303e-04
1.12516666666667e+01 1.05775104879215e-02 1.44057606135256e-04
1.13950000000000e+01 1.02766495556335e-02 1.40848808455926e-04
1.15383333333333e+01 9.98434614573607e-03 1.37700588013866e-04
1.16816666666667e+01 9.70035685527748e-03 1.34612346222971e-04
1.18250000000000e+01 9.42444520190300e-03 1.31583457561008e-04
1.19683333333333e+01 9.15638142744959e-03 1.28613270619187e-04
1.21116666666667e+01 8.89594231338099e-03 1.25701111583164e-04
1.22550000000000e+01 8.64291098794987e-03 1.22846287464657e-04
1.23983333333333e+01 8.39707674605721e-03 1.20048086809401e-04
1.25416666666667e+01 8.15823487977660e-03 1.17305782608340e-04
1.26850000000000e+01 7.92618650173251e-03 1.14618634998180e-04
1.28283333333333e+01 7.70073837987950e-03 1.11985891699796e-04
1.29716666666667e+01 7.48170278189562e-03 1.09406790453055e-04
1.31150000000000e+01 7.26889731339945e-03 1.06880561273111e-04
1.32583333333333e+01 7.06214476641474e-03 1.04406426676784e-04
1.34016666666667e+01 6.86127297650924e-03 1.01983603717949e-04
1.35450000000000e+01 6.66611467459242e-03 9.96113058712346e-05
1.36883333333333e+01 6.47650734793314e-03 9.72887430923697e-05
1.38316666666667e+01 6.29229310900925e-03 9.50151235178977e-05
1.39750000000000e+01 6.11331855973652e-03 9.27896550356674e-05
1.41183333333333e+01 5.93943466400043e-03 9.06115452160866e-05
1.42616666666667e+01 5.77049662726429e-03 8.84800027291889e-05
1.44050000000000e+01 5.60636377217884e-03 8.63942386514000e-05
1.45483333333333e+01 5.44689942167495e-03 8.43534662974082e-05
1.46916666666667e+01 5.29197078845429e-03 8.23569023988796e-05
1.48350000000000e+01 5.14144886101901e-03 8.04037681888651e-05
1.49783333333333e+01 4.99520829645097e-03 7.84932891582158e-05
1.51216666666667e+01 4.85312731897927e-03 7.66246960330887e-05
1.52650000000000e+01 4.71508761555148e-03 7.47972256716944e-05
1.54083333333333e+01 4.58097423749752e-03 7.30101207645414e-05
1.55516666666667e+01 4.45067550743279e-03 7.12626306419592e-05
1.56950000000000e+01 4.32408292356784e-03 6.95540120123890e-05
1.58383333333333e+01 4.20109106952079e-03 6.78835286219819e-05
1.59816666666667e+01 4.08159752887520e-03 6.62504519184743e-05
1.61250000000000e+01 3.96550279749278e-03 6.46540616556544e-05
1.62683333333333e+01 3.85271020079975e-03 6.30936455248071e-05
1.64116666666667e+01 3.74312581537307e-03 6.15684996971945e-05
1.65550000000000e+01 3.63665838858372e-03 6.00779293155212e-05
1.66983333333333e+01 3.53321926273781e-03 5.86212481072460e-05
1.68416666666667e+01 3.43272230311586e-03 5.71977788245132e-05
1.69850000000000e+01 3.33508382433101e-03 5.58068536402607e-05
1.71283333333333e+01 3.24022252075703e-03 5.44478137514052e-05
1.72716666666667e+01 3.14805940049194e-03 5.31200097322084e-05
1.74150000000000e+01 3.05851771786764e-03 5.18228018499872e-05
1.75583333333333e+01 2.97152290964407e-03 5.05555596645478e-05
1.77016666666667e+01 2.88700253441132e-03 4.93176623085664e-05
1.78450000000000e+01 2.80488621073489e-03 4.81084987356068e-05
1.79883333333333e+01 2.72510555863821e-03 4.69274673208303e-05
1.81316666666667e+01 2.64759414399710e-03 4.57739760799359e-05
1.82750000000000e+01 2.57228742184836e-03 4.46474428602930e-05
1.84183333333333e+01 2.49912268272245e-03 4.35472949468619e-05
1.85616666666667e+01 2.42803900162047e-03 4.24729692295168e-05
1.87050000000000e+01 2.35897718605353e-03 4.14239123464836e-05
1.88483333333333e+01 2.29187972682386e-03 4.03995802985103e-05
1.89916666666667e+01 2.22669075120775e-03 3.93994385729393e-05
1.91350000000000e+01 2.16335597532981e-03 3.84229622472720e-05
1.92783333333333e+01 2.10182265902375e-03 3.74696356139002e-05
1.94216666666667e+01 2.04203956287570e-03 3.65389522680459e-05
1.95650000000000e+01 1.98395690457063e-03 3.56304151781137e-05
1.97083333333333e+01 1.92752631749476e-03 3.47435363226954e-05
1.98516666666667e+01 1.87270081132184e-03 3.38778367484453e-05
1.99950000000000e+01 1.81943473199949e-03 3.30328466128864e-05
2.01383333333333e+01 1.76768372378317e-03 3.22081048349130e-05
2.02816666666667e+01 1.71740469307400e-03 3.14031591277685e-05
2.04250000000000e+01 1.66855577174074e-03 3.06175660191263e-05
2.05683333333333e+01 1.62109628230093e-03 2.98508905159216e-05
2.07116666666667e+01 1.57498670474263e-03 2.91027061168283e-05
2.08550000000000e+01 1.53018864290332e-03 2.83725948137125e-05
2.09983333333333e+01 1.48666479253744e-03 2.76601467713047e-05
2.11416666666667e+01 1.44437891087629e-03 2.69649603229146e-05
2.12850000000000e+01 1.40329578580862e-03 2.62866419567415e-05
2.14283333333333e+01 1.36338120659517e-03 2.56248060106395e-05
2.15716666666667e+01 1.32460193594149e-03 2.49790746542448e-05
2.17150000000000e+01 1.28692568174597e-03 2.43490778630962e-05
2.18583333333333e+01 1.25032107024228e-03 2.37344531285427e-05
2.20016666666667e+01 1.21475762037779e-03 2.31348454289766e-05
2.21450000000000e+01 1.18020571791504e-03 2.25499071942672e-05
2.22883333333333e+01 1.14663659080053e-03 2.19792980306942e-05
2.24316666666667e+01 1.11402228565904e-03 2.14226846835663e-05
2.25750000000000e+01 1.08233564405186e-03 2.08797409940854e-05
2.27183333333333e+01 1.05155027988763e-03 2.03501476390598e-05
2.28616666666667e+01 1.02164055785798e-03 1.98335920868378e-05
2.30050000000000e+01 9.92581571672677e-04 1.93297685483840e-05
2.31483333333333e+01 9.64349123343234e-04 1.88383777314298e-05
2.32916666666667e+01 9.36919703399738e-04 1.83591267913460e-05
2.34350000000000e+01 9.10270470938158e-04 1.78917292779319e-05
2.35783333333333e+01 8.84379234621329e-04 1.74359049035831e-05
2.37216666666667e+01 8.59224434530220e-04 1.69913794904668e-05
2.38650000000000e+01 8.34785123872165e-04 1.65578849142836e-05
2.40083333333333e+01 8.11040951556956e-04 1.61351588859747e-05
2.41516666666667e+01 7.87972145547673e-04 1.57229448963441e-05
2.42950000000000e+01 7.65559496091390e-04 1.53209921578404e-05
2.44383333333333e+01 7.43784339739802e-04 1.49290553992905e-05
2.45816666666667e+01 7.22628544075894e-04 1.45468948089195e-05
2.47250000000000e+01 7.02074492340223e-04 1.41742759750249e-05
2.48683333333333e+01 6.82105068776327e-04 1.38109696931936e-05
2.50116666666667e+01 6.62703644619702e-04 1.34567519085095e-05
2.51550000000000e+01 6.43854064003346e-04 1.31114036558397e-05
2.52983333333333e+01 6.25540630518148e-04 1.27747108789771e-05
2.54416666666667e+01 6.07748094359960e-04 1.24464643726866e-05
2.55850000000000e+01 5.90461639407840e-04 1.21264597231919e-05
2.57283333333333e+01 5.73666870898678e-04 1.18144971386792e-05
2.58716666666667e+01 5.57349803636773e-04 1.15103813917138e-05
2.60150000000000e+01 5.41496850147072e-04 1.12139217604067e-05
2.61583333333333e+01 5.26094809371674e-04 1.09249318697140e-05
2.63016666666667e+01 5.11130855854176e-04 1.06432296346543e-05
2.64450000000000e+01 4.96592528878371e-04 1.03686372025407e-05
2.65883333333333e+01 4.82467722101916e-04 1.01009808045155e-05
2.67316666666667e+01 4.68744673634952e-04 9.84009069991366e-06
2.68750000000000e+01 4.55411956082187e-04 9.58580111986373e-06
2.70183333333333e+01 4.42458467036048e-04 9.33795012850992e-06
2.71616666666667e+01 4.29873419975694e-04 9.09637956879124e-06
2.73050000000000e+01 4.17646335137286e-04 8.86093500764989e-06
2.74483333333333e+01 4.05767030795349e-04 8.63146560640344e-06
2.75916666666667e+01 3.94225614914423e-04 8.40782406814928e-06
2.77350000000000e+01 3.83012476778565e-04 8.18986658475987e-06
2.78783333333333e+01 3.72118278995574e-04 7.97745271588505e-06
2.80216666666667e+01 3.61533949839102e-04 7.77044533813887e-06
2.81650000000000e+01 3.51250675574183e-04 7.56871059401323e-06
2.83083333333333e+01 3.41259893124405e-04 7.37211777900765e-06
2.84516666666667e+01 3.31553283047414e-04 7.18053929271162e-06
2.85950000000000e+01 3.22122762498549e-04 6.99385058972718e-06
2.87383333333333e+01 3.12960478505992e-04 6.81193007444300e-06
2.88816666666667e+01 3.04058801527329e-04 6.63465905408854e-06
2.90250000000000e+01 2.95410318998187e-04 6.46192169172299e-06
2.91683333333333e+01 2.87007829164953e-04 6.29360490819016e-06
2.93116666666667e+01 2.78844335174371e-04 6.12959833718980e-06
2.94550000000000e+01 2.70913039158496e-04 5.96979428036194e-06
2.95983333333333e+01 2.63207336578769e-04 5.81408761598017e-06
2.97416666666667e+01 2.55720810804578e-04 5.66237575605984e-06
2.98850000000000e+01 2.48447227689918e-04 5.51455860354357e-06
3.00283333333333e+01 2.41380530386413e-04 5.37053846731115e-06
3.01716666666667e+01 2.34514834370432e-04 5.23022002132391e-06
3.03150000000000e+01 2.27844422470542e-04 5.09351026389793e-06
3.04583333333333e+01 2.21363740110602e-04 4.96031843862979e-06
3.06016666666667e+01 2.15067390748344e-04 4.83055599555858e-06
3.07450000000000e+01 2.08950131316125e-04 4.70413655249811e-06
3.08883333333333e+01 2.03006867858437e-04 4.58097582149888e-06
3.10316666666667e+01 1.97232651347929e-04 4.46099157199521e-06
3.11750000000000e+01 1.91622673505082e-04 4.34410359415531e-06
3.13183333333333e+01 1.86172262797431e-04 4.23023363051973e-06
3.14616666666667e+01 1.80876880601823e-04 4.11930534109025e-06
3.16050000000000e+01 1.75732117371500e-04 4.01124426864708e-06
3.17483333333333e+01 1.70733688967041e-04 3.90597777522382e-06
3.18916666666667e+01 1.65877433136224e-04 3.80343500908597e-06
3.20350000000000e+01 1.61159305999621e-04 3.70354687195688e-06
3.21783333333333e+01 1.56575378685770e-04 3.60624596000836e-06
3.23216666666667e+01 1.52121834102357e-04 3.51146653267012e-06
3.24650000000000e+01 1.47794963713856e-04 3.41914448170041e-06
3.26083333333333e+01 1.43591164455685e-04 3.32921727639022e-06
3.27516666666667e+01 1.39506935772637e-04 3.24162393413997e-06
3.28950000000000e+01 1.35538876664258e-04 3.15630499130645e-06
3.30383333333333e+01 1.31683682854881e-04 3.07320245233613e-06
3.31816666666667e+01 1.27938144077171e-04 2.99225976204210e-06
3.33250000000000e+01 1.24299141363009e-04 2.91342177815604e-06
3.34683333333333e+01 1.20763644448168e-04 2.83663472412383e-06
3.36116666666667e+01 1.17328709280714e-04 2.76184616301300e-06
3.37550000000000e+01 1.13991475536965e-04 2.68900497169699e-06
3.38983333333333e+01 1.10749164241370e-04 2.61806129706222e-06
3.40416666666667e+01 1.07599075481154e-04 2.54896653147522e-06
3.41850000000000e+01 1.04538586128653e-04 2.48167328852553e-06
3.43283333333333e+01 1.01565147658542e-04 2.41613536240936e-06
3.44716666666667e+01 9.86762840516660e-05 2.35230770488466e-06
3.46150000000000e+01 9.58695897065933e-05 2.29014640249959e-06
3.47583333333333e+01 9.31427274378312e-05 2.22960863893200e-06
3.49016666666667e+01 9.04934265531916e-05 2.17065267336155e-06
3.50450000000000e+01 8.79194809388325e-05 2.11323781911061e-06
3.51883333333333e+01 8.54187472234572e-05 2.05732440873348e-06
3.53316666666667e+01 8.29891430148521e-05 2.00287377373525e-06
3.54750000000000e+01 8.06286451440001e-05 1.94984822455324e-06
3.56183333333333e+01 7.83352879815003e-05 1.89821101820312e-06
3.57616666666667e+01 7.61071618201056e-05 1.84792633927521e-06
3.59050000000000e+01 7.39424112646893e-05 1.79895928118626e-06
3.60483333333333e+01 7.18392336882628e-05 1.75127581620218e-06
3.61916666666667e+01 6.97958777484318e-05 1.70484277764426e-06
3.63350000000000e+01 6.78106419110944e-05 1.65962784234289e-06
3.64783333333333e+01 6.58818730344826e-05 1.61559950286848e-06
3.66216666666667e+01 6.40079650084537e-05 1.57272705088177e-06
3.67650000000000e+01 6.21873574008072e-05 1.53098056072337e-06
3.69083333333333e+01 6.04185341587355e-05 1.49033086369550e-06
3.70516666666667e+01 5.87000223607832e-05 1.45074953249305e-06
3.71950000000000e+01 5.70303909755948e-05 1.41220886586461e-06
3.73383333333333e+01 5.54082496710389e-05 1.37468186479858e-06
3.74816666666667e+01 5.38322476695107e-05 1.33814221797355e-06
3.76250000000000e+01 5.23010726097683e-05 1.30256428742917e-06
3.77683333333333e+01 5.08134494548028e-05 1.26792308652006e-06
3.79116666666667e+01 4.93681394419297e-05 1.23419426632638e-06
3.80550000000000e+01 4.79639390391492e-05 1.20135410227554e-06
3.81983333333333e+01 4.65996789435740e-05 1.16937947373638e-06
3.83416666666667e+01 4.52742231184636e-05 1.13824785133348e-06
3.84850000000000e+01 4.39864678362555e-05 1.10793728446307e-06
3.86283333333333e+01 4.27353407600420e-05 1.07842638240886e-06
3.87716666666667e+01 4.15198000603504e-05 1.04969430250608e-06
3.89150000000000e+01 4.03388335376441e-05 1.02172073849749e-06
3.90583333333333e+01 3.91914577799630e-05 9.94485903060483e-07
3.92016666666667e+01 3.80767173528471e-05 9.67970516769182e-07
3.93450000000000e+01 3.69936839947068e-05 9.42155797239177e-07
3.94883333333333e+01 3.59414558443106e-05 9.17023442963083e-07
3.96316666666667e+01 3.49191566977978e-05 8.92555623021672e-07
3.97750000000000e+01 3.39259352708631e-05 8.68734966968323e-07
3.99183333333333e+01 3.29609644903021e-05 8.45544549877510e-07
4.00616666666667e+01 3.20234408125568e-05 8.22967882758274e-07
4.02050000000000e+01 3.11125835471666e-05 8.00988903132023e-07
4.03483333333333e+01 3.02276342070581e-05 7.79591961205003e-07
4.04916666666667e+01 2.93678558835300e-05 7.58761810939908e-07
4.06350000000000e+01 2.85325326258811e-05 7.38483601283048e-07
4.07783333333333e+01 2.77209688455733e-05 7.18742863378206e-07
4.09216666666667e+01 2.69324887429837e-05 6.99525502254488e-07
4.10650000000000e+01 2.61664357385426e-05 6.80817788661179e-07
4.12083333333333e+01 2.54221719263036e-05 6.62606347246313e-07
4.13516666666667e+01 2.46990775481754e-05 6.44878148821161e-07
4.14950000000000e+01 2.39965504722924e-05 6.27620502763436e-07
4.16383333333333e+01 2.33140056918949e-05 6.10821046089292e-07
4.17816666666667e+01 2.26508748431095e-05 5.94467736257042e-07
4.19250000000000e+01 2.20066057266289e-05 5.78548844101622e-07
4.20683333333333e+01 2.13806618481453e-05 5.63052943733848e-07
4.22116666666667e+01 2.07725219760734e-05 5.47968905848069e-07
4.23550000000000e+01 2.01816797029425e-05 5.33285891152937e-07
4.24983333333333e+01 1.96076430239381e-05 5.18993341036507e-07
4.26416666666667e+01 1.90499339312589e-05 5.05080971344591e-07
4.27850000000000e+01 1.85080880119243e-05 4.91538766274915e-07
4.29283333333333e+01 1.79816540612628e-05 4.78356969751055e-07
4.30716666666667e+01 1.74701937108711e-05 4.65526079640196e-07
4.32150000000000e+01 1.69732810598115e-05 4.53036842079746e-07
4.33583333333333e+01 1.64905023201503e-05 4.40880243507268e-07
4.35016666666667e+01 1.60214554757352e-05 4.29047505288210e-07
4.36450000000000e+01 1.55657499440107e-05 4.17530078445866e-07
4.37883333333333e+01 1.51230062509491e-05 4.06319636298306e-07
4.39316666666667e+01 1.46928557180929e-05 3.95408069468453e-07
4.40750000000000e+01 1.42749401524470e-05 3.84787480990078e-07
4.42183333333333e+01 1.38689115483633e-05 3.74450179506257e-07
4.43616666666667e+01 1.34744318005097e-05 3.64388674635883e-07
4.45050000000000e+01 1.30911724195050e-05 3.54595672430092e-07
4.46483333333333e+01 1.27188142585245e-05 3.45064069090126e-07
4.47916666666667e+01 1.23570472500463e-05 3.35786946665932e-07
4.49350000000000e+01 1.20055701450932e-05 3.26757568839043e-07
4.50783333333333e+01 1.16640902625077e-05 3.17969375120776e-07
4.52216666666667e+01 1.13323232475080e-05 3.09415976860157e-07
