Energy (eV)          EEDF (eV^-(3/2))     First Anisotropy
1.04032258064516e-03 4.95696148492511e+00 2.28706708704626e-03
3.12096774193548e-03 4.92932233355669e+00 3.77877248196614e-03
5.20161290322581e-03 4.90183729327554e+00 4.99417226095447e-03
7.28225806451613e-03 4.87450550478023e+00 5.92103808051526e-03
9.36290322580645e-03 4.84732611353305e+00 6.69697271205747e-03
1.14435483870968e-02 4.82029826985580e+00 7.37390369269033e-03
1.35241935483871e-02 4.79342112862653e+00 7.97865542415156e-03
1.56048387096774e-02 4.76669384976055e+00 8.52739806800129e-03
1.76854838709677e-02 4.74011559747240e+00 9.03083743013493e-03
1.97661290322581e-02 4.71368554082308e+00 9.49652710324786e-03
2.18467741935484e-02 4.68740285363622e+00 9.93004908320828e-03
2.39274193548387e-02 4.66126671407871e+00 1.03356765844708e-02
2.60080645161290e-02 4.63527630513163e+00 1.07167734185328e-02
2.80887096774194e-02 4.60943081412962e+00 1.10760481316965e-02
3.01693548387097e-02 4.58372943303757e+00 1.14157228796256e-02
3.22500000000000e-02 4.55817135840735e+00 1.17376498412959e-02
3.43306451612903e-02 4.53275579110846e+00 1.20433937755641e-02
3.64112903225806e-02 4.50748193661434e+00 1.23342921511159e-02
3.84919354838710e-02 4.48234900469340e+00 1.26114998923025e-02
4.05725806451613e-02 4.45735620958710e+00 1.28760232713604e-02
4.26532258064516e-02 4.43250276997610e+00 1.31287461069426e-02
4.47338709677419e-02 4.40778790878222e+00 1.33704502034764e-02
4.68145161290323e-02 4.38321085336758e+00 1.36018315832193e-02
4.88951612903226e-02 4.35877083530201e+00 1.38235135133988e-02
5.09758064516129e-02 4.33446709049007e+00 1.40360570376747e-02
5.30564516129032e-02 4.31029885914093e+00 1.42399696568888e-02
5.51370967741935e-02 4.28626538561191e+00 1.44357124515586e-02
5.72177419354839e-02 4.26236591851758e+00 1.46237060106099e-02
5.92983870967742e-02 4.23859971070136e+00 1.48043354548189e-02
6.13790322580645e-02 4.21496601909413e+00 1.49779546290987e-02
6.34596774193548e-02 4.19146410484465e+00 1.51448896896972e-02
6.55403225806452e-02 4.16809323315058e+00 1.53054421746841e-02
6.76209677419355e-02 4.14485267334186e+00 1.54598916174245e-02
6.97016129032258e-02 4.12174169885478e+00 1.56084978542066e-02
7.17822580645161e-02 4.09875958711260e+00 1.57515029821066e-02
7.38629032258065e-02 4.07590561962889e+00 1.58891330879626e-02
7.59435483870968e-02 4.05317908186470e+00 1.60215997652832e-02
7.80241935483871e-02 4.03057926329452e+00 1.61491014245071e-02
8.01048387096774e-02 4.00810545738148e+00 1.62718244938214e-02
8.21854838709677e-02 3.98575696147452e+00 1.63899444452230e-02
8.42661290322581e-02 3.96353307686726e+00 1.65036267053143e-02
8.63467741935484e-02 3.94143310877382e+00 1.66130275055285e-02
8.84274193548387e-02 3.91945636623293e+00 1.67182946021941e-02
9.05080645161290e-02 3.89760216218364e+00 1.68195679411683e-02
9.25887096774193e-02 3.87586981335006e+00 1.69169802572965e-02
9.46693548387097e-02 3.85425864028902e+00 1.70106575942333e-02
9.67500000000000e-02 3.83276796736708e+00 1.71007198130434e-02
9.88306451612903e-02 3.81139712267546e+00 1.71872810159591e-02
1.00911290322581e-01 3.79014543809298e+00 1.72704499521880e-02
1.02991935483871e-01 3.76901224916448e+00 1.73503303670641e-02
1.05072580645161e-01 3.74799689523678e+00 1.74270213438958e-02
1.07153225806452e-01 3.72709871928042e+00 1.75006176248411e-02
1.09233870967742e-01 3.70631706793009e+00 1.75712098922247e-02
1.11314516129032e-01 3.68565129128993e+00 1.76388849311406e-02
1.13395161290323e-01 3.66510074344017e+00 1.77037259324018e-02
1.15475806451613e-01 3.64466478188378e+00 1.77658127765513e-02
1.17556451612903e-01 3.62434276770616e+00 1.78252221270740e-02
1.19637096774194e-01 3.60413406555485e+00 1.78820276484300e-02
1.21717741935484e-01 3.58403804362066e+00 1.79363002065222e-02
1.23798387096774e-01 3.56405407346628e+00 1.79881079311229e-02
1.25879032258065e-01 3.54418153046452e+00 1.80375164247559e-02
1.27959677419355e-01 3.52441979331590e+00 1.80845889610345e-02
1.30040322580645e-01 3.50476824418529e+00 1.81293865140257e-02
1.32120967741935e-01 3.48522626868200e+00 1.81719679071914e-02
1.34201612903226e-01 3.46579325584170e+00 1.82123899223023e-02
1.36282258064516e-01 3.44646859810674e+00 1.82507074296199e-02
1.38362903225806e-01 3.42725169117769e+00 1.82869733971801e-02
1.40443548387097e-01 3.40814193438662e+00 1.83212390372832e-02
1.42524193548387e-01 3.38913873028220e+00 1.83535539472637e-02
1.44604838709677e-01 3.37024148474410e+00 1.83839661001802e-02
1.46685483870968e-01 3.35144960696500e+00 1.84125219472574e-02
1.48766129032258e-01 3.33276250943194e+00 1.84392665130188e-02
1.50846774193548e-01 3.31417960779302e+00 1.84642433806104e-02
1.52927419354839e-01 3.29570032118690e+00 1.84874948059701e-02
1.55008064516129e-01 3.27732407187351e+00 1.85090618284702e-02
1.57088709677419e-01 3.25905028533401e+00 1.85289842441375e-02
1.59169354838710e-01 3.24087839025308e+00 1.85473006836780e-02
1.61250000000000e-01 3.22280781850111e+00 1.85640486851059e-02
1.63330645161290e-01 3.20483800501373e+00 1.85792646655762e-02
1.65411290322581e-01 3.18696838808465e+00 1.85929840139494e-02
1.67491935483871e-01 3.16919840903476e+00 1.86052411811263e-02
1.69572580645161e-01 3.15152751229994e+00 1.86160696435955e-02
1.71653225806452e-01 3.13395514541376e+00 1.86255019651331e-02
1.73733870967742e-01 3.11648075899048e+00 1.86335698543145e-02
1.75814516129032e-01 3.09910380661545e+00 1.86403041288440e-02
1.77895161290323e-01 3.08182374510698e+00 1.86457347929928e-02
1.79975806451613e-01 3.06464003421801e+00 1.86498911136039e-02
1.82056451612903e-01 3.04755213671375e+00 1.86528015784973e-02
1.84137096774194e-01 3.03055951835482e+00 1.86544939468000e-02
1.86217741935484e-01 3.01366164788090e+00 1.86549952958932e-02
1.88298387096774e-01 2.99685799691064e+00 1.86543319817800e-02
1.90379032258065e-01 2.98014804017697e+00 1.86525297055021e-02
1.92459677419355e-01 2.96353125525672e+00 1.86496135786141e-02
1.94540322580645e-01 2.94700712263971e+00 1.86456080791379e-02
1.96620967741935e-01 2.93057512571226e+00 1.86405370936933e-02
1.98701612903226e-01 2.91423475074145e+00 1.86344239369022e-02
2.00782258064516e-01 2.89798548685887e+00 1.86272913896943e-02
2.02862903225806e-01 2.88182682597050e+00 1.86191616576859e-02
2.04943548387097e-01 2.86575826296501e+00 1.86100564280149e-02
2.07024193548387e-01 2.84977929547193e+00 1.85999969256059e-02
2.09104838709677e-01 2.83388942392185e+00 1.85890038683122e-02
2.11185483870968e-01 2.81808815153096e+00 1.85770975021086e-02
2.13266129032258e-01 2.80237498428549e+00 1.85642976339481e-02
2.15346774193548e-01 2.78674943085865e+00 1.85506235898115e-02
2.17427419354839e-01 2.77121100279952e+00 1.85360942652898e-02
2.19508064516129e-01 2.75575921431192e+00 1.85207281758182e-02
2.21588709677419e-01 2.74039358230833e+00 1.85045434121365e-02
2.23669354838710e-01 2.72511362639486e+00 1.84875576709838e-02
2.25750000000000e-01 2.70991886885632e+00 1.84697882837622e-02
2.27830645161290e-01 2.69480883457939e+00 1.84512521750094e-02
2.29911290322581e-01 2.67978305122449e+00 1.84319659079547e-02
2.31991935483871e-01 2.66484104902288e+00 1.84119457298669e-02
2.34072580645161e-01 2.64998236082516e+00 1.83912075284080e-02
2.36153225806452e-01 2.63520652208664e+00 1.83697668587849e-02
2.38233870967742e-01 2.62051307085295e+00 1.83476389690948e-02
2.40314516129032e-01 2.60590154768885e+00 1.83248387596937e-02
2.42395161290323e-01 2.59137149583505e+00 1.83013808246080e-02
2.44475806451613e-01 2.57692246102148e+00 1.82772794928475e-02
2.46556451612903e-01 2.56255399151100e+00 1.82525487859971e-02
2.48637096774194e-01 2.54826563808522e+00 1.82272024425021e-02
2.50717741935484e-01 2.53405695403062e+00 1.82012539403417e-02
2.52798387096774e-01 2.51992749507238e+00 1.81747164575757e-02
2.54879032258065e-01 2.50587681951789e+00 1.81476029102810e-02
2.56959677419355e-01 2.49190448808439e+00 1.81199259904544e-02
2.59040322580645e-01 2.47801006393854e+00 1.80916981250383e-02
2.61120967741935e-01 2.46419311268259e+00 1.80629314978575e-02
2.63201612903226e-01 2.45045320234102e+00 1.80336380555406e-02
2.65282258064516e-01 2.43678990334694e+00 1.80038295277030e-02
2.67362903225806e-01 2.42320278848141e+00 1.79735173890538e-02
2.69443548387097e-01 2.40969143300281e+00 1.79427128938847e-02
2.71524193548387e-01 2.39625541448982e+00 1.79114271105797e-02
2.73604838709677e-01 2.38289431287642e+00 1.78796708824402e-02
2.75685483870968e-01 2.36960771043886e+00 1.78474548473852e-02
2.77766129032258e-01 2.35639519178256e+00 1.78147894563371e-02
2.79846774193548e-01 2.34325634378543e+00 1.77816849367694e-02
2.81927419354839e-01 2.33019075571690e+00 1.77481513246757e-02
2.84008064516129e-01 2.31719801909221e+00 1.77141984966030e-02
2.86088709677419e-01 2.30427772770421e+00 1.76798361320655e-02
2.88169354838710e-01 2.29142947761072e+00 1.76450737316060e-02
2.90250000000000e-01 2.27865286712189e+00 1.76099206336597e-02
2.92330645161290e-01 2.26594749674720e+00 1.75743859795643e-02
2.94411290322581e-01 2.25331296930507e+00 1.75384787433236e-02
2.96491935483871e-01 2.24074888978751e+00 1.75022077614472e-02
2.98572580645161e-01 2.22825486538903e+00 1.74655816969513e-02
3.00653225806452e-01 2.21583050549431e+00 1.74286090560174e-02
3.02733870967742e-01 2.20347542166609e+00 1.73912982035327e-02
3.04814516129032e-01 2.19118922759548e+00 1.73536573295663e-02
3.06895161290323e-01 2.17897153920310e+00 1.73156944771652e-02
3.08975806451613e-01 2.16682197451311e+00 1.72774175702510e-02
3.11056451612903e-01 2.15474015367948e+00 1.72388343791791e-02
3.13137096774194e-01 2.14272569897412e+00 1.71999525361662e-02
3.15217741935484e-01 2.13077823477512e+00 1.71607795496852e-02
3.17298387096774e-01 2.11889738752013e+00 1.71213227723774e-02
3.19379032258065e-01 2.10708278579990e+00 1.70815894270884e-02
3.21459677419355e-01 2.09533406024077e+00 1.70415866330198e-02
3.23540322580645e-01 2.08365084352863e+00 1.70013213728047e-02
3.25620967741935e-01 2.07203277039742e+00 1.69608005068502e-02
3.27701612903226e-01 2.06047947761777e+00 1.69200307757581e-02
3.29782258064516e-01 2.04899060398565e+00 1.68790188135719e-02
3.31862903225806e-01 2.03756579027900e+00 1.68377711173136e-02
3.33943548387097e-01 2.02620467934320e+00 1.67962940711648e-02
3.36024193548387e-01 2.01490691598258e+00 1.67545939707690e-02
3.38104838709677e-01 2.00367214698198e+00 1.67126769920208e-02
3.40185483870968e-01 1.99250002109573e+00 1.66705492043106e-02
3.42266129032258e-01 1.98139018903666e+00 1.66282165828880e-02
3.44346774193548e-01 1.97034230343531e+00 1.65856849797455e-02
3.46427419354839e-01 1.95935601891917e+00 1.65429601463774e-02
3.48508064516129e-01 1.94843099201124e+00 1.65000477566664e-02
3.50588709677419e-01 1.93756688114967e+00 1.64569533770809e-02
3.52669354838710e-01 1.92676334667709e+00 1.64136824790650e-02
3.54750000000000e-01 1.91602005083004e+00 1.63702404506103e-02
3.56830645161290e-01 1.90533665770051e+00 1.63266325684384e-02
3.58911290322581e-01 1.89471283330953e+00 1.62828640194571e-02
3.60991935483871e-01 1.88414824551209e+00 1.62389399223538e-02
3.63072580645161e-01 1.87364256401520e+00 1.61948652991357e-02
3.65153225806452e-01 1.86319546036748e+00 1.61506450867538e-02
3.67233870967742e-01 1.85280660794900e+00 1.61062841479600e-02
3.69314516129032e-01 1.84247568193494e+00 1.60617872447309e-02
3.71395161290323e-01 1.83220235936406e+00 1.60171590585307e-02
3.73475806451613e-01 1.82198631904952e+00 1.59724042107102e-02
3.75556451612903e-01 1.81182724159537e+00 1.59275272353363e-02
3.77637096774194e-01 1.80172480938653e+00 1.58825325901215e-02
3.79717741935484e-01 1.79167870657892e+00 1.58374246666251e-02
3.81798387096774e-01 1.78168861906521e+00 1.57922077648684e-02
3.83879032258065e-01 1.77175423453846e+00 1.57468861124979e-02
3.85959677419355e-01 1.76187524240846e+00 1.57014638840823e-02
3.88040322580645e-01 1.75205133381680e+00 1.56559451751739e-02
3.90120967741935e-01 1.74228220162717e+00 1.56103340125940e-02
3.92201612903226e-01 1.73256754041584e+00 1.55646343556118e-02
3.94282258064516e-01 1.72290704646208e+00 1.55188501054792e-02
3.96362903225806e-01 1.71330041771612e+00 1.54729850813588e-02
3.98443548387097e-01 1.70374735385767e+00 1.54270430382959e-02
4.00524193548387e-01 1.69424755621822e+00 1.53810276853179e-02
4.02604838709677e-01 1.68480072779452e+00 1.53349426608590e-02
4.04685483870968e-01 1.67540657323941e+00 1.52887915423858e-02
4.06766129032258e-01 1.66606479885251e+00 1.52425778553822e-02
4.08846774193548e-01 1.65677511254997e+00 1.51963050503644e-02
4.10927419354839e-01 1.64753722391903e+00 1.51499765199124e-02
4.13008064516129e-01 1.63835084414484e+00 1.51035956158361e-02
4.15088709677419e-01 1.62921568602293e+00 1.50571656257069e-02
4.17169354838710e-01 1.62013146395024e+00 1.50106897819470e-02
4.19250000000000e-01 1.61109789391618e+00 1.49641712703246e-02
4.21330645161290e-01 1.60211469347395e+00 1.49176132079936e-02
4.23411290322581e-01 1.59318158179149e+00 1.48710186596531e-02
4.25491935483871e-01 1.58429827958255e+00 1.48243906538379e-02
4.27572580645161e-01 1.57546450911814e+00 1.47777321605069e-02
4.29653225806452e-01 1.56667999421782e+00 1.47310460996428e-02
4.31733870967742e-01 1.55794446024110e+00 1.46843353492865e-02
4.33814516129032e-01 1.54925763406024e+00 1.46376027245522e-02
4.35895161290323e-01 1.54061924410784e+00 1.45908509929771e-02
4.37975806451613e-01 1.53202902031189e+00 1.45440828899974e-02
4.40056451612903e-01 1.52348669410625e+00 1.44973010975358e-02
4.42137096774194e-01 1.51499199842224e+00 1.44505082521459e-02
4.44217741935484e-01 1.50654466768035e+00 1.44037069526231e-02
4.46298387096774e-01 1.49814443776436e+00 1.43568997399527e-02
4.48379032258065e-01 1.48979104606593e+00 1.43100891118944e-02
4.50459677419355e-01 1.48148423142331e+00 1.42632775376937e-02
4.52540322580645e-01 1.47322373413089e+00 1.42164674376296e-02
4.54620967741935e-01 1.46500929593115e+00 1.41696611907316e-02
4.56701612903226e-01 1.45684066000659e+00 1.41228611354222e-02
4.58782258064516e-01 1.44871757097165e+00 1.40760695766787e-02
4.60862903225806e-01 1.44063977484851e+00 1.40292887670123e-02
4.62943548387097e-01 1.43260701910821e+00 1.39825209202155e-02
4.65024193548387e-01 1.42461905261339e+00 1.39357682252330e-02
4.67104838709677e-01 1.41667562562699e+00 1.38890328267650e-02
4.69185483870968e-01 1.40877648980441e+00 1.38423168325366e-02
4.71266129032258e-01 1.40092139818583e+00 1.37956223200885e-02
4.73346774193548e-01 1.39311010517307e+00 1.37489513185959e-02
4.75427419354839e-01 1.38534236656820e+00 1.37023058219554e-02
4.77508064516129e-01 1.37761793951942e+00 1.36556878019863e-02
4.79588709677419e-01 1.36993658252899e+00 1.36090991898939e-02
4.81669354838710e-01 1.36229805544573e+00 1.35625418831685e-02
4.83750000000000e-01 1.35470211945753e+00 1.35160177520418e-02
4.85830645161290e-01 1.34714853706936e+00 1.34695286221010e-02
4.87911290322581e-01 1.33963707213953e+00 1.34230762867476e-02
4.89991935483871e-01 1.33216748982839e+00 1.33766625197778e-02
4.92072580645161e-01 1.32473955660573e+00 1.33302890576569e-02
4.94153225806452e-01 1.31735304024346e+00 1.32839576060783e-02
4.96233870967742e-01 1.31000770980834e+00 1.32376698460998e-02
4.98314516129032e-01 1.30270333564118e+00 1.31914274175183e-02
5.00395161290323e-01 1.29543968939071e+00 1.31452319307413e-02
5.02475806451613e-01 1.28821654396513e+00 1.30990849787717e-02
5.04556451612903e-01 1.28103367353889e+00 1.30529881202637e-02
5.06637096774194e-01 1.27389085354556e+00 1.30069428857619e-02
5.08717741935484e-01 1.26678786067088e+00 1.29609507835317e-02
5.10798387096774e-01 1.25972447283291e+00 1.29150132836616e-02
5.12879032258065e-01 1.25270046921383e+00 1.28691318293812e-02
5.14959677419355e-01 1.24571563021407e+00 1.28233078484853e-02
5.17040322580645e-01 1.23876973745852e+00 1.27775427371300e-02
5.19120967741936e-01 1.23186257378967e+00 1.27318378657695e-02
5.21201612903226e-01 1.22499392326087e+00 1.26861945795358e-02
5.23282258064516e-01 1.21816357112953e+00 1.26406142037475e-02
5.25362903225806e-01 1.21137130383843e+00 1.25950980288143e-02
5.27443548387097e-01 1.20461690904525e+00 1.25496473209398e-02
5.29524193548387e-01 1.19790017557954e+00 1.25042633329286e-02
5.31604838709677e-01 1.19122089344825e+00 1.24589472888040e-02
5.33685483870968e-01 1.18457885382925e+00 1.24137003894158e-02
5.35766129032258e-01 1.17797384906476e+00 1.23685238176906e-02
5.37846774193548e-01 1.17140567264352e+00 1.23234187241866e-02
5.39927419354839e-01 1.16487411922856e+00 1.22783862373042e-02
5.42008064516129e-01 1.15837898461635e+00 1.22334274736007e-02
5.44088709677419e-01 1.15192006574197e+00 1.21885435230741e-02
5.46169354838710e-01 1.14549716067275e+00 1.21437354545066e-02
5.48250000000000e-01 1.13911006860198e+00 1.20990043204637e-02
5.50330645161290e-01 1.13275858983187e+00 1.20543511434720e-02
5.52411290322581e-01 1.12644252579969e+00 1.20097769257685e-02
5.54491935483871e-01 1.12016167903900e+00 1.19652826591446e-02
5.56572580645161e-01 1.11391585318442e+00 1.19208693108622e-02
5.58653225806452e-01 1.10770485296546e+00 1.18765378287502e-02
5.60733870967742e-01 1.10152848420042e+00 1.18322891459704e-02
5.62814516129032e-01 1.09538655378019e+00 1.17881241677858e-02
5.64895161290323e-01 1.08927886969280e+00 1.17440437808694e-02
5.66975806451613e-01 1.08320524098665e+00 1.17000488627082e-02
5.69056451612903e-01 1.07716547777483e+00 1.16561402681217e-02
5.71137096774194e-01 1.07115939122925e+00 1.16123188341205e-02
5.73217741935484e-01 1.06518679357466e+00 1.15685853844539e-02
5.75298387096774e-01 1.05924749807322e+00 1.15249407169431e-02
5.77379032258065e-01 1.05334131904762e+00 1.14813856123718e-02
5.79459677419355e-01 1.04746807184614e+00 1.14379208434685e-02
5.81540322580645e-01 1.04162757284666e+00 1.13945471620042e-02
5.83620967741936e-01 1.03581963945088e+00 1.13512653034270e-02
5.85701612903226e-01 1.03004409007867e+00 1.13080759870977e-02
5.87782258064516e-01 1.02430074416232e+00 1.12649799205975e-02
5.89862903225806e-01 1.01858942213199e+00 1.12219777876843e-02
5.91943548387097e-01 1.01290994543714e+00 1.11790702567245e-02
5.94024193548387e-01 1.00726213651370e+00 1.11362579892082e-02
5.96104838709677e-01 1.00164581878768e+00 1.10935416274825e-02
5.98185483870968e-01 9.96060816669650e-01 1.10509217991452e-02
6.00266129032258e-01 9.90506955549214e-01 1.10083991211591e-02
6.02346774193548e-01 9.84984061781069e-01 1.09659741883174e-02
6.04427419354839e-01 9.79491962705246e-01 1.09236475813012e-02
6.06508064516129e-01 9.74030486615893e-01 1.08814198748199e-02
6.08588709677419e-01 9.68599462764560e-01 1.08392916258675e-02
6.10669354838710e-01 9.63198721354859e-01 1.07972633779154e-02
6.12750000000000e-01 9.57828093537163e-01 1.07553356648396e-02
6.14830645161290e-01 9.52487411395248e-01 1.07135089998768e-02
6.16911290322581e-01 9.47176507965384e-01 1.06717838833234e-02
6.18991935483871e-01 9.41895217206649e-01 1.06301608103229e-02
6.21072580645161e-01 9.36643374003938e-01 1.05886402596167e-02
6.23153225806452e-01 9.31420814162795e-01 1.05472226975473e-02
6.25233870967742e-01 9.26227374404289e-01 1.05059085818138e-02
6.27314516129032e-01 9.21062892352254e-01 1.04646983508871e-02
6.29395161290323e-01 9.15927206551279e-01 1.04235924313767e-02
6.31475806451613e-01 9.10820156438476e-01 1.03825912454778e-02
6.33556451612903e-01 9.05741582346227e-01 1.03416952001929e-02
6.35637096774194e-01 9.00691325497190e-01 1.03009046911627e-02
6.37717741935484e-01 8.95669227999342e-01 1.02602201062481e-02
6.39798387096774e-01 8.90675132833785e-01 1.02196418153906e-02
6.41879032258065e-01 8.85708883871708e-01 1.01791701776613e-02
6.43959677419355e-01 8.80770325847525e-01 1.01388055483842e-02
6.46040322580645e-01 8.75859304361382e-01 1.00985482688101e-02
6.48120967741936e-01 8.70975665874328e-01 1.00583986697767e-02
6.50201612903226e-01 8.66119257703521e-01 1.00183570718568e-02
6.52282258064516e-01 8.61289928017458e-01 9.97842378876397e-03
6.54362903225806e-01 8.56487525824401e-01 9.93859911770332e-03
6.56443548387097e-01 8.51711900988216e-01 9.89888334606138e-03
