Energy (eV)          EEDF (eV^-(3/2))     First Anisotropy
8.38461538461538e-03 2.02037824769483e-01 9.40309393140626e-05
2.51538461538462e-02 2.00962467239385e-01 1.55380945837104e-04
4.19230769230769e-02 1.99892833363018e-01 2.05409786474208e-04
5.86923076923077e-02 1.98828892671398e-01 2.43593706493362e-04
7.54615384615385e-02 1.97770614862491e-01 2.75586116664460e-04
9.22307692307692e-02 1.96717969796833e-01 3.03519685514467e-04
1.09000000000000e-01 1.95670927487868e-01 3.28495714426424e-04
1.25769230769231e-01 1.94629458127239e-01 3.51177862732177e-04
1.42538461538462e-01 1.93593532043059e-01 3.72005375285245e-04
1.59307692307692e-01 1.92563119731268e-01 3.91288063626735e-04
1.76076923076923e-01 1.91538191844705e-01 4.09254797459816e-04
1.92846153846154e-01 1.90518719198034e-01 4.26080728200485e-04
2.09615384615385e-01 1.89504672749785e-01 4.41903687338703e-04
2.26384615384615e-01 1.88496023618911e-01 4.56834619039208e-04
2.43153846153846e-01 1.87492743077944e-01 4.70964516141282e-04
2.59923076923077e-01 1.86494802552423e-01 4.84369195439517e-04
2.76692307692308e-01 1.85502173623678e-01 4.97112688733021e-04
2.93461538461538e-01 1.84514828016634e-01 5.09249709214927e-04
3.10230769230769e-01 1.83532737610573e-01 5.20827486105991e-04
3.27000000000000e-01 1.82555874434467e-01 5.31887157379679e-04
3.43769230769231e-01 1.81584210669071e-01 5.42464843424698e-04
3.60538461538462e-01 1.80617718637296e-01 5.52592485697968e-04
3.77307692307692e-01 1.79656370812354e-01 5.62298511405192e-04
3.94076923076923e-01 1.78700139813953e-01 5.71608368198508e-04
4.10846153846154e-01 1.77748998409901e-01 5.80544957668743e-04
4.27615384615385e-01 1.76802919508176e-01 5.89128988997616e-04
4.44384615384615e-01 1.75861876163376e-01 5.97379270926124e-04
4.61153846153846e-01 1.74925841573485e-01 6.05312956523168e-04
4.77923076923077e-01 1.73994789079167e-01 6.12945746948760e-04
4.94692307692308e-01 1.73068692164882e-01 6.20292065082289e-04
5.11461538461538e-01 1.72147524452357e-01 6.27365201666538e-04
5.28230769230769e-01 1.71231259705660e-01 6.34177440172794e-04
5.45000000000000e-01 1.70319871828507e-01 6.40740165374529e-04
5.61769230769231e-01 1.69413334865149e-01 6.47063957138271e-04
5.78538461538462e-01 1.68511622994681e-01 6.53158670813892e-04
5.95307692307692e-01 1.67614710535300e-01 6.59033507274365e-04
6.12076923076923e-01 1.66722571941887e-01 6.64697075381787e-04
6.28846153846154e-01 1.65835181806716e-01 6.70157446886300e-04
6.45615384615385e-01 1.64952514854425e-01 6.75422203913329e-04
6.62384615384615e-01 1.64074545945631e-01 6.80498480962597e-04
6.79153846153846e-01 1.63201250074745e-01 6.85393003511582e-04
6.95923076923077e-01 1.62332602369281e-01 6.90112121209556e-04
7.12692307692308e-01 1.61468578090360e-01 6.94661838752306e-04
7.29461538461538e-01 1.60609152628305e-01 6.99047842426280e-04
7.46230769230769e-01 1.59754301505669e-01 7.03275523926412e-04
7.63000000000000e-01 1.58904000375287e-01 7.07350002788137e-04
7.79769230769231e-01 1.58058225020677e-01 7.11276146632759e-04
7.96538461538462e-01 1.57216951352049e-01 7.15058588662359e-04
8.13307692307692e-01 1.56380155408940e-01 7.18701743499835e-04
8.30076923076923e-01 1.55547813358415e-01 7.22209822496916e-04
8.46846153846154e-01 1.54719901495374e-01 7.25586847664353e-04
8.63615384615385e-01 1.53896396238914e-01 7.28836663605320e-04
8.80384615384615e-01 1.53077274134637e-01 7.31962948399239e-04
8.97153846153846e-01 1.52262511852977e-01 7.34969224618463e-04
9.13923076923077e-01 1.51452086188548e-01 7.37858868446856e-04
9.30692307692308e-01 1.50645974060341e-01 7.40635119045910e-04
9.47461538461538e-01 1.49844152508446e-01 7.43301086242309e-04
9.64230769230769e-01 1.49046598696038e-01 7.45859757591102e-04
9.81000000000000e-01 1.48253289907845e-01 7.48314005692070e-04
9.97769230769231e-01 1.47464203550289e-01 7.50666595676125e-04
1.01453846153846e+00 1.46679317145329e-01 7.52920188348556e-04
1.03130769230769e+00 1.45898608342444e-01 7.55077347177299e-04
1.04807692307692e+00 1.45122054906088e-01 7.57140545469256e-04
1.06484615384615e+00 1.44349634719065e-01 7.59112168304686e-04
1.08161538461538e+00 1.43581325781902e-01 7.60994517924257e-04
1.09838461538462e+00 1.42817106212219e-01 7.62789817873099e-04
1.11515384615385e+00 1.42056954244097e-01 7.64500216863561e-04
1.13192307692308e+00 1.41300848227481e-01 7.66127792393697e-04
1.14869230769231e+00 1.40548766627549e-01 7.67674554141175e-04
1.16546153846154e+00 1.39800688024102e-01 7.69142447135484e-04
1.18223076923077e+00 1.39056591110950e-01 7.70533354737048e-04
1.19900000000000e+00 1.38316454695309e-01 7.71849102994527e-04
1.21576923076923e+00 1.37580257691168e-01 7.73091458566258e-04
1.23253846153846e+00 1.36847979136926e-01 7.74262134358065e-04
1.24930769230769e+00 1.36119598176396e-01 7.75362795022550e-04
1.26607692307692e+00 1.35395094064402e-01 7.76395054366441e-04
1.28284615384615e+00 1.34674446166186e-01 7.77360479030052e-04
1.29961538461538e+00 1.33957633956818e-01 7.78260590444296e-04
1.31638461538462e+00 1.33244637020617e-01 7.79096866682260e-04
1.33315384615385e+00 1.32535435050555e-01 7.79870744203567e-04
1.34992307692308e+00 1.31830007847702e-01 7.80583619509834e-04
1.36669230769231e+00 1.31128335320636e-01 7.81236850716908e-04
1.38346153846154e+00 1.30430397484873e-01 7.81831759038804e-04
1.40023076923077e+00 1.29736174462299e-01 7.82369630197131e-04
1.41700000000000e+00 1.29045646480603e-01 7.82851717098353e-04
1.43376923076923e+00 1.28358793867950e-01 7.83279237063127e-04
1.45053846153846e+00 1.27675597066822e-01 7.83653375746657e-04
1.46730769230769e+00 1.26996036618948e-01 7.83975291009087e-04
1.48407692307692e+00 1.26320093169622e-01 7.84246109899293e-04
1.50084615384615e+00 1.25647747467157e-01 7.84466931074169e-04
1.51761538461538e+00 1.24978980362334e-01 7.84638825790978e-04
1.53438461538462e+00 1.24313772807857e-01 7.84762838854936e-04
1.55115384615385e+00 1.23652105857806e-01 7.84839989518316e-04
1.56792307692308e+00 1.22993960667107e-01 7.84871272341878e-04
1.58469230769231e+00 1.22339318490990e-01 7.84857658020863e-04
1.60146153846154e+00 1.21688160684457e-01 7.84800094169478e-04
1.61823076923077e+00 1.21040468701748e-01 7.84699506072462e-04
1.63500000000000e+00 1.20396224095813e-01 7.84556798567694e-04
1.65176923076923e+00 1.19755408513937e-01 7.84372853223373e-04
1.66853846153846e+00 1.19118003708858e-01 7.84148531351707e-04
1.68530769230769e+00 1.18483991526517e-01 7.83884677004750e-04
1.70207692307692e+00 1.17853353909483e-01 7.83582114010551e-04
1.71884615384615e+00 1.17226072896436e-01 7.83241647749787e-04
1.73561538461538e+00 1.16602130621656e-01 7.82864065712177e-04
1.75238461538462e+00 1.15981509314515e-01 7.82450138031860e-04
1.76915384615385e+00 1.15364191298966e-01 7.82000617997705e-04
1.78592307692308e+00 1.14750158993050e-01 7.81516242545989e-04
1.80269230769231e+00 1.14139394908386e-01 7.80997732736348e-04
1.81946153846154e+00 1.13531881649680e-01 7.80445794205636e-04
1.83623076923077e+00 1.12927601914221e-01 7.79861117605709e-04
1.85300000000000e+00 1.12326538491397e-01 7.79244380044867e-04
1.86976923076923e+00 1.11728674259023e-01 7.78596242416140e-04
1.88653846153846e+00 1.11133992192447e-01 7.77917351850358e-04
1.90330769230769e+00 1.10542475354409e-01 7.77208344165602e-04
1.92007692307692e+00 1.09954106897797e-01 7.76469841102380e-04
1.93684615384615e+00 1.09368870065169e-01 7.75702451721123e-04
1.95361538461538e+00 1.08786748188277e-01 7.74906772739139e-04
1.97038461538462e+00 1.08207724687589e-01 7.74083388856468e-04
1.98715384615385e+00 1.07631783071816e-01 7.73232873067625e-04
2.00392307692308e+00 1.07058906937450e-01 7.72355786964455e-04
2.02069230769231e+00 1.06489079968290e-01 7.71452681030453e-04
2.03746153846154e+00 1.05922285934979e-01 7.70524094922065e-04
2.05423076923077e+00 1.05358508694543e-01 7.69570557741570e-04
2.07100000000000e+00 1.04797732189928e-01 7.68592589201688e-04
2.08776923076923e+00 1.04239940446895e-01 7.67590697164611e-04
2.10453846153846e+00 1.03685117581569e-01 7.66565379708423e-04
2.12130769230769e+00 1.03133247791929e-01 7.65517127196153e-04
2.13807692307692e+00 1.02584315360058e-01 7.64446419747119e-04
2.15484615384615e+00 1.02038304651704e-01 7.63353728385311e-04
2.17161538461538e+00 1.01495200115824e-01 7.62239515255813e-04
2.18838461538462e+00 1.00954986284150e-01 7.61104233835172e-04
2.20515384615385e+00 1.00417647770741e-01 7.59948329133154e-04
2.22192307692308e+00 9.98831692715519e-02 7.58772237889655e-04
2.23869230769231e+00 9.93515355639929e-02 7.57576388767035e-04
2.25546153846154e+00 9.88227315064988e-02 7.56361202534451e-04
2.27223076923077e+00 9.82967420380955e-02 7.55127092247129e-04
2.28900000000000e+00 9.77735521779724e-02 7.53874464220089e-04
2.30576923076923e+00 9.72531470228153e-02 7.52603715786929e-04
2.32253846153846e+00 9.67355117531430e-02 7.51315237078073e-04
2.33930769230769e+00 9.62206316260820e-02 7.50009412804795e-04
2.35607692307692e+00 9.57084919772285e-02 7.48686619965090e-04
2.37284615384615e+00 9.51990782202310e-02 7.47347228814200e-04
2.38961538461538e+00 9.46923758463748e-02 7.45991603010675e-04
2.40638461538462e+00 9.41883704241685e-02 7.44620099758658e-04
2.42315384615385e+00 9.36870475989319e-02 7.43233069944309e-04
2.43992307692308e+00 9.31883930923899e-02 7.41830858269993e-04
2.45669230769231e+00 9.26923927022647e-02 7.40413803385767e-04
2.47346153846154e+00 9.21990323018707e-02 7.38982238015348e-04
2.49023076923077e+00 9.17082978397126e-02 7.37536489079384e-04
2.50700000000000e+00 9.12201753390850e-02 7.36076878528164e-04
2.52376923076923e+00 9.07346508957659e-02 7.34603721309526e-04
2.54053846153846e+00 9.02517106833807e-02 7.33117326921458e-04
2.55730769230769e+00 8.97713409472131e-02 7.31618000971311e-04
2.57407692307692e+00 8.92935280057574e-02 7.30106043100730e-04
2.59084615384615e+00 8.88182582503285e-02 7.28581747821753e-04
2.60761538461538e+00 8.83455181446743e-02 7.27045404619026e-04
2.62438461538462e+00 8.78752942245903e-02 7.25497298049897e-04
2.64115384615385e+00 8.74075730975346e-02 7.23937707840358e-04
2.65792307692308e+00 8.69423414422496e-02 7.22366908979754e-04
2.67469230769231e+00 8.64795860083804e-02 7.20785171813877e-04
2.69146153846154e+00 8.60192936160984e-02 7.19192762134368e-04
2.70823076923077e+00 8.55614511557253e-02 7.17589941266522e-04
2.72500000000000e+00 8.51060455873596e-02 7.15976966792654e-04
2.74176923076923e+00 8.46530639388671e-02 7.14354090712448e-04
2.75853846153846e+00 8.42024933104556e-02 7.12721560811921e-04
2.77530769230769e+00 8.37543208693340e-02 7.11079622039455e-04
2.79207692307692e+00 8.33085338510146e-02 7.09428514629976e-04
2.80884615384615e+00 8.28651195589492e-02 7.07768474834953e-04
2.82561538461538e+00 8.24240653641681e-02 7.06099734996371e-04
2.84238461538462e+00 8.19853587049198e-02 7.04422523619203e-04
2.85915384615385e+00 8.15489870863126e-02 7.02737065441019e-04
2.87592307692308e+00 8.11149380799606e-02 7.01043581500949e-04
2.89269230769231e+00 8.06831993236286e-02 6.99342289207689e-04
2.90946153846154e+00 8.02537585208805e-02 6.97633402404731e-04
2.92623076923077e+00 7.98266034407283e-02 6.95917131434722e-04
2.94300000000000e+00 7.94017219172844e-02 6.94193683774943e-04
2.95976923076923e+00 7.89791018479989e-02 6.92463262372055e-04
2.97653846153846e+00 7.85587311975867e-02 6.90726066857914e-04
2.99330769230769e+00 7.81405979933886e-02 6.88982294772404e-04
3.01007692307692e+00 7.77246903264706e-02 6.87232139867252e-04
3.02684615384615e+00 7.73109963512846e-02 6.85475792749364e-04
3.04361538461538e+00 7.68995042853315e-02 6.83713440935687e-04
3.06038461538462e+00 7.64902024088248e-02 6.81945268907257e-04
3.07715384615385e+00 7.60830790643569e-02 6.80171458161125e-04
3.09392307692308e+00 7.56781226565678e-02 6.78392187261625e-04
3.11069230769231e+00 7.52753216518149e-02 6.76607631891333e-04
3.12746153846154e+00 7.48746645778439e-02 6.74817964900062e-04
3.14423076923077e+00 7.44761400234623e-02 6.73023356352914e-04
3.16100000000000e+00 7.40797366382142e-02 6.71223974093147e-04
3.17776923076923e+00 7.36854431308272e-02 6.69419982234258e-04
3.19453846153846e+00 7.32932482726013e-02 6.67611542245328e-04
3.21130769230769e+00 7.29031408933580e-02 6.65798814043445e-04
3.22807692307692e+00 7.25151098823726e-02 6.63981954458779e-04
3.24484615384615e+00 7.21291441880579e-02 6.62161117805645e-04
3.26161538461538e+00 7.17452328176493e-02 6.60336455924115e-04
3.27838461538462e+00 7.13633648368921e-02 6.58508118221080e-04
3.29515384615385e+00 7.09835293697290e-02 6.56676251709734e-04
3.31192307692308e+00 7.06057155979919e-02 6.54841001048781e-04
3.32869230769231e+00 7.02299127610929e-02 6.53002508581335e-04
3.34546153846154e+00 6.98561101557180e-02 6.51160914372244e-04
3.36223076923077e+00 6.94842971355224e-02 6.49316356245131e-04
3.37900000000000e+00 6.91144631108269e-02 6.47468970283903e-04
3.39576923076923e+00 6.87465975472426e-02 6.45618889465586e-04
3.41253846153846e+00 6.83806899686100e-02 6.43766244633816e-04
3.42930769230769e+00 6.80167299534438e-02 6.41911165478765e-04
3.44607692307692e+00 6.76547071357278e-02 6.40053779146454e-04
3.46284615384615e+00 6.72946112046194e-02 6.38194210748492e-04
3.47961538461538e+00 6.69364319041562e-02 6.36332583394170e-04
3.49638461538462e+00 6.65801590329635e-02 6.34469018222467e-04
3.51315384615385e+00 6.62257824439638e-02 6.32603634432442e-04
3.52992307692308e+00 6.58732920440884e-02 6.30736549313639e-04
3.54669230769231e+00 6.55226777939895e-02 6.28867878276571e-04
3.56346153846154e+00 6.51739297077544e-02 6.26997734881635e-04
3.58023076923077e+00 6.48270378526211e-02 6.25126230867935e-04
3.59700000000000e+00 6.44819923486950e-02 6.23253476602467e-04
3.61376923076923e+00 6.41387833677266e-02 6.21379579839203e-04
3.63053846153846e+00 6.37974011356707e-02 6.19504646595245e-04
3.64730769230769e+00 6.34578359295531e-02 6.17628782032984e-04
3.66407692307692e+00 6.31200780781512e-02 6.15752089198236e-04
3.68084615384615e+00 6.27841179617178e-02 6.13874669477384e-04
3.69761538461538e+00 6.24499460117075e-02 6.11996622622670e-04
3.71438461538462e+00 6.21175527105039e-02 6.10118046777254e-04
3.73115384615385e+00 6.17869285911482e-02 6.08239038499187e-04
3.74792307692308e+00 6.14580642370707e-02 6.06359692785444e-04
3.76469230769231e+00 6.11309502818218e-02 6.04480103095825e-04
3.78146153846154e+00 6.08055774088054e-02 6.02600361375870e-04
3.79823076923077e+00 6.04819363510134e-02 6.00720558079710e-04
3.81500000000000e+00 6.01600178907620e-02 5.98840782573642e-04
3.83176923076923e+00 5.98398128586010e-02 5.96961122009087e-04
3.84853846153846e+00 5.95213121355496e-02 5.95081662112837e-04
3.86530769230769e+00 5.92045066503269e-02 5.93202487983393e-04
3.88207692307692e+00 5.88893873799342e-02 5.91323682945104e-04
3.89884615384615e+00 5.85759453493985e-02 5.89445328959217e-04
3.91561538461538e+00 5.82641716315163e-02 5.87567506644171e-04
3.93238461538462e+00 5.79540573465997e-02 5.85690295295453e-04
3.94915384615385e+00 5.76455936622234e-02 5.83813772904763e-04
3.96592307692308e+00 5.73387717929732e-02 5.81938016179178e-04
3.98269230769231e+00 5.70335830001960e-02 5.80063100560265e-04
3.99946153846154e+00 5.67300185917505e-02 5.78189100242492e-04
4.01623076923077e+00 5.64280699217600e-02 5.76316088191432e-04
4.03300000000000e+00 5.61277283903659e-02 5.74444136507668e-04
4.04976923076923e+00 5.58289854427519e-02 5.72573315401796e-04
4.06653846153846e+00 5.55318325711044e-02 5.70703693909153e-04
4.08330769230769e+00 5.52362613121547e-02 5.68835340610248e-04
4.10007692307692e+00 5.49422632476804e-02 5.66968322588846e-04
4.11684615384615e+00 5.46498300042656e-02 5.65102705802964e-04
4.13361538461538e+00 5.43589532530625e-02 5.63238555101062e-04
4.15038461538462e+00 5.40696247095539e-02 5.61375934238152e-04
4.16715384615385e+00 5.37818361333172e-02 5.59514905891255e-04
4.18392307692308e+00 5.34955793277901e-02 5.57655531674832e-04
4.20069230769231e+00 5.32108461400372e-02 5.55797872156269e-04
4.21746153846154e+00 5.29276284605173e-02 5.53941986870663e-04
4.23423076923077e+00 5.26459182228531e-02 5.52087934335732e-04
4.25100000000000e+00 5.23657074036006e-02 5.50235772380634e-04
4.26776923076923e+00 5.20869880213741e-02 5.48385557212657e-04
4.28453846153846e+00 5.18097521385700e-02 5.46537344065242e-04
4.30130769230769e+00 5.15339918591793e-02 5.44691187850928e-04
4.31807692307692e+00 5.12596993292201e-02 5.42847142212915e-04
4.33484615384615e+00 5.09868667365136e-02 5.41005259860599e-04
4.35161538461538e+00 5.07154863104620e-02 5.39165592582706e-04
4.36838461538462e+00 5.04455503218269e-02 5.37328191260516e-04
4.38515384615385e+00 5.01770510825089e-02 5.35493105880365e-04
4.40192307692308e+00 4.99099809453291e-02 5.33660385546156e-04
4.41869230769231e+00 4.96443323038115e-02 5.31830078492121e-04
4.43546153846154e+00 4.93800975919655e-02 5.30002232094916e-04
4.45223076923077e+00 4.91172692840714e-02 5.28176892885619e-04
4.46900000000000e+00 4.88558398944653e-02 5.26354106847729e-04
4.48576923076923e+00 4.85958019767519e-02 5.24533918566620e-04
4.50253846153846e+00 4.83371481253239e-02 5.22716371817726e-04
4.51930769230769e+00 4.80798709734109e-02 5.20901510159620e-04
4.53607692307692e+00 4.78239631934526e-02 5.19089376069780e-04
4.55284615384615e+00 4.75694174968900e-02 5.17280011248464e-04
4.56961538461538e+00 4.73162266339579e-02 5.15473456629678e-04
4.58638461538462e+00 4.70643833934784e-02 5.13669752392010e-04
4.60315384615385e+00 4.68138806026553e-02 5.11868937968768e-04
4.61992307692308e+00 4.65647111268701e-02 5.10071052058416e-04
4.63669230769231e+00 4.63168678694790e-02 5.08276132635047e-04
4.65346153846154e+00 4.60703437716103e-02 5.06484216958191e-04
4.67023076923077e+00 4.58251318119635e-02 5.04695341582759e-04
4.68700000000000e+00 4.55812250066094e-02 5.02909542629612e-04
4.70376923076923e+00 4.53386164082804e-02 5.01126855009578e-04
4.72053846153846e+00 4.50972991077126e-02 4.99347312958288e-04
4.73730769230769e+00 4.48572662319013e-02 4.97570950575488e-04
4.75407692307692e+00 4.46185109444238e-02 4.95797801036747e-04
4.77084615384615e+00 4.43810264452446e-02 4.94027896869435e-04
4.78761538461538e+00 4.41448059705219e-02 4.92261269961816e-04
4.80438461538462e+00 4.39098427924147e-02 4.90497951571868e-04
4.82115384615385e+00 4.36761302188912e-02 4.88737972335750e-04
4.83792307692308e+00 4.34436615935385e-02 4.86981362276446e-04
4.85469230769231e+00 4.32124302953728e-02 4.85228150812324e-04
4.87146153846154e+00 4.29824297386509e-02 4.83478366765442e-04
4.88823076923077e+00 4.27536533726827e-02 4.81732038369688e-04
4.90500000000000e+00 4.25260946816443e-02 4.79989193516657e-04
4.92176923076923e+00 4.22997471839371e-02 4.78249859047255e-04
4.93853846153846e+00 4.20746044333768e-02 4.76514061238666e-04
4.95530769230769e+00 4.18506600176290e-02 4.74781826295396e-04
4.97207692307692e+00 4.16279075584898e-02 4.73053179629627e-04
4.98884615384615e+00 4.14063407117033e-02 4.71328146112281e-04
5.00561538461538e+00 4.11859531667814e-02 4.69606750080388e-04
5.02238461538462e+00 4.09667386468240e-02 4.67889015344565e-04
5.03915384615385e+00 4.07486909083399e-02 4.66174965196059e-04
5.05592307692308e+00 4.05318037410694e-02 4.64464622413786e-04
5.07269230769231e+00 4.03160709678074e-02 4.62758009271640e-04
5.08946153846154e+00 4.01014864442270e-02 4.61055147545260e-04
5.10623076923077e+00 3.98880440587053e-02 4.59356058518928e-04
5.12300000000000e+00 3.96757377321484e-02 4.57660763209393e-04
5.13976923076923e+00 3.94645614174120e-02 4.55969281718449e-04
5.15653846153846e+00 3.92545091003556e-02 4.54281633676850e-04
5.17330769230769e+00 3.90455747984388e-02 4.52597838692112e-04
5.19007692307692e+00 3.88377525609633e-02 4.50917915690905e-04
5.20684615384615e+00 3.86310364689040e-02 4.49241883147592e-04
5.22361538461538e+00 3.84254206347400e-02 4.47569759090473e-04
5.24038461538461e+00 3.82208992022871e-02 4.45901561107942e-04
5.25715384615385e+00 3.80174663465310e-02 4.44237306354442e-04
5.27392307692308e+00 3.78151162734611e-02 4.42577011556341e-04
5.29069230769231e+00 3.76138432199062e-02 4.40920693018036e-04
