Energy (eV)          EEDF (eV^-(3/2))     First Anisotropy
2.74468085106383e-03 1.73672958620294e+00 9.34073546199440e-04
8.23404255319149e-03 1.72403589457359e+00 1.54196796241980e-03
1.37234042553191e-02 1.71143498066343e+00 2.03437285256841e-03
1.92127659574468e-02 1.69892616636256e+00 2.40772739985845e-03
2.47021276595745e-02 1.68650877851812e+00 2.71850676107449e-03
3.01914893617021e-02 1.67418214889744e+00 2.98807694270428e-03
3.56808510638298e-02 1.66194561415201e+00 3.22750149479517e-03
4.11702127659574e-02 1.64979851578170e+00 3.44346526727653e-03
4.66595744680851e-02 1.63774020009940e+00 3.64040432105222e-03
5.21489361702128e-02 1.62577001819571e+00 3.82145576065373e-03
5.76382978723404e-02 1.61388732590416e+00 3.98894314990390e-03
6.31276595744681e-02 1.60209148376642e+00 4.14464931629780e-03
6.86170212765957e-02 1.59038185699796e+00 4.28998086438210e-03
7.41063829787234e-02 1.57875781545386e+00 4.42607295038253e-03
7.95957446808511e-02 1.56721873359492e+00 4.55385898678111e-03
8.50851063829787e-02 1.55576399045397e+00 4.67411870327989e-03
9.05744680851064e-02 1.54439296960247e+00 4.78751228929512e-03
9.60638297872340e-02 1.53310505911734e+00 4.89460527162191e-03
1.01553191489362e-01 1.52189965154800e+00 4.99588703785422e-03
1.07042553191489e-01 1.51077614391336e+00 5.09178491053211e-03
1.12531914893617e-01 1.49973393755061e+00 5.18267498571641e-03
1.18021276595745e-01 1.48877243823325e+00 5.26889061503833e-03
1.23510638297872e-01 1.47789105616636e+00 5.35072919762891e-03
1.29000000000000e-01 1.46708920568869e+00 5.42845756939123e-03
1.34489361702128e-01 1.45636630550852e+00 5.50231637802416e-03
1.39978723404255e-01 1.44572177858262e+00 5.57252370776847e-03
1.45468085106383e-01 1.43515505215822e+00 5.63927807580660e-03
1.50957446808511e-01 1.42466555752163e+00 5.70276089695055e-03
1.56446808510638e-01 1.41425273018946e+00 5.76313854144352e-03
1.61936170212766e-01 1.40391600986787e+00 5.82056415206876e-03
1.67425531914894e-01 1.39365484023046e+00 5.87517911843735e-03
1.72914893617021e-01 1.38346866908084e+00 5.92711433611015e-03
1.78404255319149e-01 1.37335694831457e+00 5.97649136171687e-03
1.83893617021277e-01 1.36331913372097e+00 6.02342334518488e-03
1.89382978723404e-01 1.35335468512347e+00 6.06801584520226e-03
1.94872340425532e-01 1.34346306629349e+00 6.11036757202917e-03
2.00361702127660e-01 1.33364374497030e+00 6.15057103805309e-03
2.05851063829787e-01 1.32389619268568e+00 6.18871310395741e-03
2.11340425531915e-01 1.31421988488285e+00 6.22487545248127e-03
2.16829787234043e-01 1.30461430088282e+00 6.25913507038607e-03
2.22319148936170e-01 1.29507892372448e+00 6.29156461860345e-03
2.27808510638298e-01 1.28561324026913e+00 6.32223276101665e-03
2.33297872340426e-01 1.27621674116797e+00 6.35120451682425e-03
2.38787234042553e-01 1.26688892071582e+00 6.37854152158573e-03
2.44276595744681e-01 1.25762927694356e+00 6.40430226697741e-03
2.49765957446809e-01 1.24843731155081e+00 6.42854234240303e-03
2.55255319148936e-01 1.23931252991444e+00 6.45131465281897e-03
2.60744680851064e-01 1.23025444095580e+00 6.47266959421022e-03
2.66234042553191e-01 1.22126255722085e+00 6.49265520608047e-03
2.71723404255319e-01 1.21233639485068e+00 6.51131736165598e-03
2.77212765957447e-01 1.20347547345817e+00 6.52869989235198e-03
2.82702127659574e-01 1.19467931619980e+00 6.54484470589537e-03
2.88191489361702e-01 1.18594744971730e+00 6.55979191705501e-03
2.93680851063830e-01 1.17727940414118e+00 6.57357996689025e-03
2.99170212765957e-01 1.16867471297776e+00 6.58624571257133e-03
3.04659574468085e-01 1.16013291317227e+00 6.59782450413776e-03
3.10148936170213e-01 1.15165354508122e+00 6.60835030102373e-03
3.15638297872340e-01 1.14323615236679e+00 6.61785573565261e-03
3.21127659574468e-01 1.13488028205346e+00 6.62637217155025e-03
3.26617021276596e-01 1.12658548450137e+00 6.63392980064439e-03
3.32106382978723e-01 1.11835131330722e+00 6.64055769163555e-03
3.37595744680851e-01 1.11017732535548e+00 6.64628383880342e-03
3.43085106382979e-01 1.10206308076933e+00 6.65113522652668e-03
3.48574468085106e-01 1.09400814290962e+00 6.65513788869020e-03
3.54063829787234e-01 1.08601207828306e+00 6.65831694711531e-03
3.59553191489362e-01 1.07807445658757e+00 6.66069664243881e-03
3.65042553191489e-01 1.07019485068723e+00 6.66230040209650e-03
3.70531914893617e-01 1.06237283652571e+00 6.66315086604183e-03
3.76021276595745e-01 1.05460799316731e+00 6.66326991033797e-03
3.81510638297872e-01 1.04689990277260e+00 6.66267870661025e-03
3.87000000000000e-01 1.03924815051665e+00 6.66139774165147e-03
3.92489361702128e-01 1.03165232462628e+00 6.65944683929539e-03
3.97978723404255e-01 1.02411201633797e+00 6.65684519744230e-03
4.03468085106383e-01 1.01662681989393e+00 6.65361142227931e-03
4.08957446808511e-01 1.00919633246563e+00 6.64976354581664e-03
4.14446808510638e-01 1.00182015418703e+00 6.64531903815327e-03
4.19936170212766e-01 9.94497888131740e-01 6.64029485291872e-03
4.25425531914894e-01 9.87229140240359e-01 6.63470743725791e-03
4.30914893617021e-01 9.80013519350752e-01 6.62857274091322e-03
4.36404255319149e-01 9.72850637175723e-01 6.62190625722983e-03
4.41893617021277e-01 9.65740108234039e-01 6.61472303041507e-03
4.47382978723404e-01 9.58681549878021e-01 6.60703766550002e-03
4.52872340425532e-01 9.51674582256733e-01 6.59886435209287e-03
4.58361702127660e-01 9.44718828310341e-01 6.59021688634036e-03
4.63851063829787e-01 9.37813913705219e-01 6.58110867892813e-03
4.69340425531915e-01 9.30959466858616e-01 6.57155275898972e-03
4.74829787234043e-01 9.24155118917626e-01 6.56156180740227e-03
4.80319148936170e-01 9.17400503697291e-01 6.55114815960792e-03
4.85808510638298e-01 9.10695257703116e-01 6.54032380803608e-03
4.91297872340426e-01 9.04039020110513e-01 6.52910043278819e-03
4.96787234042553e-01 8.97431432705764e-01 6.51748940316339e-03
5.02276595744681e-01 8.90872139906582e-01 6.50550178186875e-03
5.07765957446809e-01 8.84360788729599e-01 6.49314834157923e-03
5.13255319148936e-01 8.77897028783643e-01 6.48043958022367e-03
5.18744680851064e-01 8.71480512213934e-01 6.46738572427779e-03
5.24234042553192e-01 8.65110893720472e-01 6.45399672869439e-03
5.29723404255319e-01 8.58787830538654e-01 6.44028230284607e-03
5.35212765957447e-01 8.52510982385860e-01 6.42625190991045e-03
5.40702127659574e-01 8.46280011478253e-01 6.41191476880130e-03
5.46191489361702e-01 8.40094582500863e-01 6.39727986754980e-03
5.51680851063830e-01 8.33954362600343e-01 6.38235597563569e-03
5.57170212765957e-01 8.27859021334390e-01 6.36715164538443e-03
5.62659574468085e-01 8.21808230686818e-01 6.35167521040198e-03
5.68148936170213e-01 8.15801665049173e-01 6.33593480795560e-03
5.73638297872340e-01 8.09839001172238e-01 6.31993837704993e-03
5.79127659574468e-01 8.03919918179744e-01 6.30369365642336e-03
5.84617021276596e-01 7.98044097550459e-01 6.28720820561834e-03
5.90106382978723e-01 7.92211223071636e-01 6.27048940269451e-03
5.95595744680851e-01 7.86420980851538e-01 6.25354444429207e-03
6.01085106382979e-01 7.80673059292658e-01 6.23638035589765e-03
6.06574468085106e-01 7.74967149084075e-01 6.21900400127585e-03
6.12063829787234e-01 7.69302943157247e-01 6.20142208230468e-03
6.17553191489362e-01 7.63680136697195e-01 6.18364113625335e-03
6.23042553191489e-01 7.58098427125523e-01 6.16566755434330e-03
6.28531914893617e-01 7.52557514057912e-01 6.14750757884135e-03
6.34021276595745e-01 7.47057099314292e-01 6.12916730013922e-03
6.39510638297872e-01 7.41596886902256e-01 6.11065267435922e-03
6.45000000000000e-01 7.36176582976191e-01 6.09196952028682e-03
6.50489361702128e-01 7.30795895846523e-01 6.07312351844516e-03
6.55978723404255e-01 7.25454535955631e-01 6.05412021927008e-03
6.61468085106383e-01 7.20152215870034e-01 6.03496505060051e-03
6.66957446808511e-01 7.14888650241465e-01 6.01566331668135e-03
6.72446808510638e-01 7.09663555815090e-01 5.99622019492786e-03
6.77936170212766e-01 7.04476651413805e-01 5.97664075166346e-03
6.83425531914894e-01 6.99327657900719e-01 5.95692993879246e-03
6.88914893617021e-01 6.94216298186614e-01 5.93709259049356e-03
6.94404255319149e-01 6.89142297214581e-01 5.91713343822683e-03
6.99893617021277e-01 6.84105381923891e-01 5.89705710735234e-03
7.05382978723404e-01 6.79105281256738e-01 5.87686811569289e-03
7.10872340425532e-01 6.74141726136462e-01 5.85657088022842e-03
7.16361702127660e-01 6.69214449459748e-01 5.83616972321476e-03
7.21851063829787e-01 6.64323186062127e-01 5.81566887075615e-03
7.27340425531915e-01 6.59467672723926e-01 5.79507244939908e-03
7.32829787234043e-01 6.54647648155715e-01 5.77438449968630e-03
7.38319148936170e-01 6.49862852965023e-01 5.75360897271298e-03
7.43808510638298e-01 6.45113029661686e-01 5.73274972671807e-03
7.49297872340426e-01 6.40397922643613e-01 5.71181054005907e-03
7.54787234042553e-01 6.35717278164679e-01 5.69079510777069e-03
7.60276595744681e-01 6.31070844339519e-01 5.66970703988108e-03
7.65765957446809e-01 6.26458371123782e-01 5.64854986701134e-03
7.71255319148936e-01 6.21879610306437e-01 5.62732704548152e-03
7.76744680851064e-01 6.17334315479065e-01 5.60604195568109e-03
7.82234042553192e-01 6.12822242040028e-01 5.58469789867718e-03
7.87723404255319e-01 6.08343147180980e-01 5.56329810802398e-03
7.93212765957447e-01 6.03896789857206e-01 5.54184574636345e-03
7.98702127659574e-01 5.99482930791317e-01 5.52034390365033e-03
8.04191489361702e-01 5.95101332454801e-01 5.49879560215201e-03
8.09680851063830e-01 5.90751759060437e-01 5.47720380100110e-03
8.15170212765957e-01 5.86433976533902e-01 5.45557139449198e-03
8.20659574468085e-01 5.82147752516961e-01 5.43390120876294e-03
8.26148936170213e-01 5.77892856354671e-01 5.41219601258857e-03
8.31638297872340e-01 5.73669059067918e-01 5.39045851405854e-03
8.37127659574468e-01 5.69476133356211e-01 5.36869135730279e-03
8.42617021276596e-01 5.65313853585172e-01 5.34689713286945e-03
8.48106382978723e-01 5.61181995759982e-01 5.32507837445613e-03
8.53595744680851e-01 5.57080337527808e-01 5.30323755711155e-03
8.59085106382979e-01 5.53008658160984e-01 5.28137710152359e-03
8.64574468085106e-01 5.48966738549664e-01 5.25949937791797e-03
8.70063829787234e-01 5.44954361176371e-01 5.23760670434259e-03
8.75553191489362e-01 5.40971310118015e-01 5.21570134350453e-03
8.81042553191489e-01 5.37017371034031e-01 5.19378551229986e-03
8.86531914893617e-01 5.33092331141737e-01 5.17186137866003e-03
8.92021276595745e-01 5.29195979218045e-01 5.14993105844447e-03
8.97510638297872e-01 5.25328105587858e-01 5.12799662462118e-03
9.03000000000000e-01 5.21488502100221e-01 5.10606010417355e-03
9.08489361702128e-01 5.17676962129746e-01 5.08412347633762e-03
9.13978723404255e-01 5.13893280561261e-01 5.06218867631929e-03
9.19468085106383e-01 5.10137253782731e-01 5.04025759866875e-03
9.24957446808511e-01 5.06408679662365e-01 5.01833209560541e-03
9.30446808510638e-01 5.02707357549734e-01 4.99641397403920e-03
9.35936170212766e-01 4.99033088264754e-01 4.97450500403339e-03
9.41425531914894e-01 4.95385674075517e-01 4.95260691584349e-03
9.46914893617021e-01 4.91764918699152e-01 4.93072139700085e-03
9.52404255319149e-01 4.88170627291062e-01 4.90885010047760e-03
9.57893617021277e-01 4.84602606423439e-01 4.88699464178728e-03
9.63382978723404e-01 4.81060664085911e-01 4.86515659729187e-03
9.68872340425532e-01 4.77544609671497e-01 4.84333750745196e-03
9.74361702127660e-01 4.74054253969824e-01 4.82153887977211e-03
9.79851063829787e-01 4.70589409146489e-01 4.79976218719437e-03
9.85340425531915e-01 4.67149888743454e-01 4.77800886531786e-03
9.90829787234043e-01 4.63735507668830e-01 4.75628031994640e-03
9.96319148936170e-01 4.60346082176871e-01 4.73457792432889e-03
1.00180851063830e+00 4.56981429868173e-01 4.71290301536915e-03
1.00729787234043e+00 4.53641369682873e-01 4.69125690202992e-03
1.01278723404255e+00 4.50325721877916e-01 4.66964086477267e-03
1.01827659574468e+00 4.47034308023994e-01 4.64805616216673e-03
1.02376595744681e+00 4.43766950965188e-01 4.62650400221750e-03
1.02925531914894e+00 4.40523474902327e-01 4.60498556404444e-03
1.03474468085106e+00 4.37303705289970e-01 4.58350201981402e-03
1.04023404255319e+00 4.34107468858387e-01 4.56205450306603e-03
1.04572340425532e+00 4.30934593604313e-01 4.54064412999089e-03
1.05121276595745e+00 4.27784908752757e-01 4.51927196997999e-03
1.05670212765957e+00 4.24658244835107e-01 4.49793906622748e-03
1.06219148936170e+00 4.21554433592093e-01 4.47664645657783e-03
1.06768085106383e+00 4.18473307994245e-01 4.45539514336610e-03
1.07317021276596e+00 4.15414702232880e-01 4.43418610416557e-03
1.07865957446809e+00 4.12378451711239e-01 4.41302030162920e-03
1.08414893617021e+00 4.09364393008795e-01 4.39189865570841e-03
1.08963829787234e+00 4.06372363953428e-01 4.37082206303094e-03
1.09512765957447e+00 4.03402203531158e-01 4.34979141651335e-03
1.10061702127660e+00 4.00453751904844e-01 4.32880757691614e-03
1.10610638297872e+00 3.97526850405574e-01 4.30787138294210e-03
1.11159574468085e+00 3.94621341524171e-01 4.28698366048901e-03
1.11708510638298e+00 3.91737068877797e-01 4.26614519643359e-03
1.12257446808511e+00 3.88873877276727e-01 4.24535675686790e-03
1.12806382978723e+00 3.86031612640283e-01 4.22461910556256e-03
1.13355319148936e+00 3.83210122013951e-01 4.20393297712847e-03
1.13904255319149e+00 3.80409253561149e-01 4.18329908651374e-03
1.14453191489362e+00 3.77628856555085e-01 4.16271813770669e-03
1.15002127659574e+00 3.74868781347495e-01 4.14219079898815e-03
1.15551063829787e+00 3.72128879430457e-01 4.12171772010674e-03
1.16100000000000e+00 3.69409003358049e-01 4.10129954966693e-03
1.16648936170213e+00 3.66709006762014e-01 4.08093690979835e-03
1.17197872340426e+00 3.64028744343897e-01 4.06063040509324e-03
1.17746808510638e+00 3.61368071867241e-01 4.04038063079817e-03
1.18295744680851e+00 3.58726846128296e-01 4.02018814944467e-03
1.18844680851064e+00 3.56104925013291e-01 4.00005350703210e-03
1.19393617021277e+00 3.53502167425364e-01 3.97997724941376e-03
1.19942553191489e+00 3.50918433298911e-01 3.95995989838095e-03
1.20491489361702e+00 3.48353583592069e-01 3.94000196007740e-03
1.21040425531915e+00 3.45807480279240e-01 3.92010393271490e-03
1.21589361702128e+00 3.43279986323626e-01 3.90026628449922e-03
1.22138297872340e+00 3.40770965730334e-01 3.88048946888498e-03
1.22687234042553e+00 3.38280283478171e-01 3.86077394002487e-03
1.23236170212766e+00 3.35807805532789e-01 3.84112013018220e-03
1.23785106382979e+00 3.33353398839509e-01 3.82152845765788e-03
1.24334042553191e+00 3.30916931316149e-01 3.80199933406072e-03
1.24882978723404e+00 3.28498271827259e-01 3.78253314345025e-03
1.25431914893617e+00 3.26097290233399e-01 3.76313025672476e-03
1.25980851063830e+00 3.23713857327422e-01 3.74379104619330e-03
1.26529787234043e+00 3.21347844846534e-01 3.72451586423557e-03
1.27078723404255e+00 3.18999125465424e-01 3.70530505077362e-03
1.27627659574468e+00 3.16667572789404e-01 3.68615894012667e-03
1.28176595744681e+00 3.14353061330210e-01 3.66707784129827e-03
1.28725531914894e+00 3.12055466551767e-01 3.64806205155141e-03
1.29274468085106e+00 3.09774664810619e-01 3.62911187015891e-03
1.29823404255319e+00 3.07510533366999e-01 3.61022757823672e-03
1.30372340425532e+00 3.05262950378260e-01 3.59140945209682e-03
1.30921276595745e+00 3.03031794875872e-01 3.57265774443666e-03
1.31470212765957e+00 3.00816946808521e-01 3.55397269728287e-03
1.32019148936170e+00 2.98618286985710e-01 3.53535455510389e-03
1.32568085106383e+00 2.96435697088098e-01 3.51680354556545e-03
1.33117021276596e+00 2.94269059661126e-01 3.49831988623643e-03
1.33665957446809e+00 2.92118258108722e-01 3.47990379074285e-03
1.34214893617021e+00 2.89983176671680e-01 3.46155545097970e-03
1.34763829787234e+00 2.87863700467727e-01 3.44327504933241e-03
1.35312765957447e+00 2.85759715438739e-01 3.42506277105997e-03
1.35861702127660e+00 2.83671108360234e-01 3.40691878609725e-03
1.36410638297872e+00 2.81597766835277e-01 3.38884325538439e-03
1.36959574468085e+00 2.79539579288453e-01 3.37083633667629e-03
1.37508510638298e+00 2.77496434945530e-01 3.35289816771739e-03
1.38057446808511e+00 2.75468223870731e-01 3.33502887778505e-03
1.38606382978723e+00 2.73454836917302e-01 3.31722859938650e-03
1.39155319148936e+00 2.71456165736236e-01 3.29949745104861e-03
1.39704255319149e+00 2.69472102770439e-01 3.28183554329348e-03
1.40253191489362e+00 2.67502541248962e-01 3.26424298412460e-03
1.40802127659574e+00 2.65547375167859e-01 3.24671986310807e-03
1.41351063829787e+00 2.63606499324888e-01 3.22926626227981e-03
1.41900000000000e+00 2.61679809273179e-01 3.21188226719896e-03
1.42448936170213e+00 2.59767201329258e-01 3.19456795066553e-03
1.42997872340426e+00 2.57868572567470e-01 3.17732337836487e-03
1.43546808510638e+00 2.55983820814447e-01 3.16014861405097e-03
1.44095744680851e+00 2.54112844631098e-01 3.14304370448033e-03
1.44644680851064e+00 2.52255543344908e-01 3.12600868972213e-03
1.45193617021277e+00 2.50411817006519e-01 3.10904361360693e-03
1.45742553191489e+00 2.48581566397091e-01 3.09214850831816e-03
1.46291489361702e+00 2.46764693022974e-01 3.07532339972524e-03
1.46840425531915e+00 2.44961099110411e-01 3.05856831228252e-03
1.47389361702128e+00 2.43170687588571e-01 3.04188325476790e-03
1.47938297872340e+00 2.41393362119648e-01 3.02526823003082e-03
1.48487234042553e+00 2.39629027058127e-01 3.00872324487153e-03
1.49036170212766e+00 2.37877587457555e-01 2.99224829545692e-03
1.49585106382979e+00 2.36138949065445e-01 2.97584337236167e-03
1.50134042553191e+00 2.34413018318200e-01 2.95950846519890e-03
1.50682978723404e+00 2.32699702325130e-01 2.94324354911783e-03
1.51231914893617e+00 2.30998908896508e-01 2.92704859402242e-03
1.51780851063830e+00 2.29310546505336e-01 2.91092357391576e-03
1.52329787234043e+00 2.27634524293577e-01 2.89486845309335e-03
1.52878723404255e+00 2.25970752067282e-01 2.87888319090811e-03
1.53427659574468e+00 2.24319140291726e-01 2.86296774614945e-03
1.53976595744681e+00 2.22679600076338e-01 2.84712206425743e-03
1.54525531914894e+00 2.21052043200874e-01 2.83134608604294e-03
1.55074468085106e+00 2.19436382079509e-01 2.81563975652808e-03
1.55623404255319e+00 2.17832529766578e-01 2.80000301187260e-03
1.56172340425532e+00 2.16240399951903e-01 2.78443578796291e-03
1.56721276595745e+00 2.14659906946430e-01 2.76893800819191e-03
1.57270212765957e+00 2.13090965706951e-01 2.75350959179060e-03
1.57819148936170e+00 2.11533491802003e-01 2.73815046227479e-03
1.58368085106383e+00 2.09987401417233e-01 2.72286053494942e-03
1.58917021276596e+00 2.08452611350873e-01 2.70763972120757e-03
1.59465957446809e+00 2.06929039009285e-01 2.69248793248220e-03
1.60014893617021e+00 2.05416602393400e-01 2.67740506866956e-03
1.60563829787234e+00 2.03915220121791e-01 2.66239102601368e-03
1.61112765957447e+00 2.02424811398638e-01 2.64744570510161e-03
1.61661702127660e+00 2.00945296018650e-01 2.63256899902647e-03
1.62210638297872e+00 1.99476594362751e-01 2.61776079745499e-03
1.62759574468085e+00 1.98018627393804e-01 2.60302099036734e-03
1.63308510638298e+00 1.96571316643815e-01 2.58834945708746e-03
1.63857446808511e+00 1.95134584235483e-01 2.57374607374777e-03
1.64406382978723e+00 1.93708352852074e-01 2.55921072085825e-03
1.64955319148936e+00 1.92292545741955e-01 2.54474327209082e-03
1.65504255319149e+00 1.90887086714468e-01 2.53034359812915e-03
1.66053191489362e+00 1.89491900135834e-01 2.51601157020851e-03
1.66602127659574e+00 1.88106910917074e-01 2.50174704972030e-03
1.67151063829787e+00 1.86732044534134e-01 2.48754989527990e-03
1.67700000000000e+00 1.85367226999558e-01 2.47341996989384e-03
1.68248936170213e+00 1.84012384866655e-01 2.45935713033131e-03
1.68797872340426e+00 1.82667445225559e-01 2.44536123076878e-03
1.69346808510638e+00 1.81332335699297e-01 2.43143212614195e-03
1.69895744680851e+00 1.80006984432389e-01 2.41756966229112e-03
1.70444680851064e+00 1.78691320109654e-01 2.40377368265550e-03
1.70993617021277e+00 1.77385271929552e-01 2.39004403506196e-03
1.71542553191489e+00 1.76088769608024e-01 2.37638056165006e-03
1.72091489361702e+00 1.74801743374720e-01 2.36278310232384e-03
1.72640425531915e+00 1.73524123969239e-01 2.34925149792609e-03
1.73189361702128e+00 1.72255842630352e-01 2.33578558089512e-03
