Energy (eV)          EEDF (eV^-(3/2))     First Anisotropy
3.50000000000000e-02 7.87011838318286e-02 5.46419929637171e-05
1.05000000000000e-01 7.77695116543781e-02 8.99979442189652e-05
1.75000000000000e-01 7.68488687017674e-02 1.18195732501059e-04
2.45000000000000e-01 7.59391244089204e-02 1.39249154096150e-04
3.15000000000000e-01 7.50401497564454e-02 1.56505525080121e-04
3.85000000000000e-01 7.41518172523012e-02 1.71239928866723e-04
4.55000000000000e-01 7.32740009137116e-02 1.84116928156937e-04
5.25000000000000e-01 7.24065762492975e-02 1.95540616942732e-04
5.95000000000000e-01 7.15494202414208e-02 2.05780823746960e-04
6.65000000000000e-01 7.07024113287383e-02 2.15029538300456e-04
7.35000000000000e-01 6.98654293889619e-02 2.23429821656376e-04
8.05000000000000e-01 6.90383557218225e-02 2.31092094185100e-04
8.75000000000000e-01 6.82210730322364e-02 2.38103982203492e-04
9.45000000000000e-01 6.74134654136703e-02 2.44536604467216e-04
1.01500000000000e+00 6.66154183317037e-02 2.50448764735110e-04
1.08500000000000e+00 6.58268186077855e-02 2.55889849651410e-04
1.15500000000000e+00 6.50475544031833e-02 2.60901892507455e-04
1.22500000000000e+00 6.42775152031221e-02 2.65521080744894e-04
1.29500000000000e+00 6.35165918011118e-02 2.69778881439884e-04
1.36500000000000e+00 6.27646762834589e-02 2.73702897694399e-04
1.43500000000000e+00 6.20216620139627e-02 2.77317531242050e-04
1.50500000000000e+00 6.12874436187922e-02 2.80644502757779e-04
1.57500000000000e+00 6.05619169715419e-02 2.83703265859201e-04
1.64500000000000e+00 5.98449791784644e-02 2.86511340449731e-04
1.71500000000000e+00 5.91365285638788e-02 2.89084584008904e-04
1.78500000000000e+00 5.84364646557504e-02 2.91437414539965e-04
1.85500000000000e+00 5.77446881714423e-02 2.93582995422855e-04
1.92500000000000e+00 5.70611010036348e-02 2.95533389933471e-04
1.99500000000000e+00 5.63856062064122e-02 2.97299691376803e-04
2.06500000000000e+00 5.57181079815138e-02 2.98892133441867e-04
2.13500000000000e+00 5.50585116647481e-02 3.00320184384673e-04
2.20500000000000e+00 5.44067237125671e-02 3.01592627887884e-04
2.27500000000000e+00 5.37626516888004e-02 3.02717632866796e-04
2.34500000000000e+00 5.31262042515462e-02 3.03702814044649e-04
2.41500000000000e+00 5.24972911402164e-02 3.04555284772352e-04
2.48500000000000e+00 5.18758231627368e-02 3.05281703294786e-04
2.55500000000000e+00 5.12617121828973e-02 3.05888313449712e-04
2.62500000000000e+00 5.06548711078530e-02 3.06380980612935e-04
2.69500000000000e+00 5.00552138757721e-02 3.06765223565313e-04
2.76500000000000e+00 4.94626554436314e-02 3.07046242845383e-04
2.83500000000000e+00 4.88771117751549e-02 3.07228946060580e-04
2.90500000000000e+00 4.82984998288963e-02 3.07317970555809e-04
2.97500000000000e+00 4.77267375464619e-02 3.07317703777054e-04
3.04500000000000e+00 4.71617438408729e-02 3.07232301617364e-04
3.11500000000000e+00 4.66034385850663e-02 3.07065704990519e-04
3.18500000000000e+00 4.60517426005308e-02 3.06821654842904e-04
3.25500000000000e+00 4.55065776460779e-02 3.06503705784663e-04
3.32500000000000e+00 4.49678664067459e-02 3.06115238496646e-04
3.39500000000000e+00 4.44355324828350e-02 3.05659471048894e-04
3.46500000000000e+00 4.39095003790723e-02 3.05139469248552e-04
3.53500000000000e+00 4.33896954939053e-02 3.04558156120186e-04
3.60500000000000e+00 4.28760441089220e-02 3.03918320608608e-04
3.67500000000000e+00 4.23684733783957e-02 3.03222625583209e-04
3.74500000000000e+00 4.18669113189547e-02 3.02473615213450e-04
3.81500000000000e+00 4.13712867993732e-02 3.01673721776832e-04
3.88500000000000e+00 4.08815295304837e-02 3.00825271953683e-04
3.95500000000000e+00 4.03975700552088e-02 2.99930492656908e-04
4.02500000000000e+00 3.99193397387104e-02 2.98991516439504e-04
4.09500000000000e+00 3.94467707586564e-02 2.98010386518004e-04
4.16500000000000e+00 3.89797960956020e-02 2.96989061445849e-04
4.23500000000000e+00 3.85183495234847e-02 2.95929419467219e-04
4.30500000000000e+00 3.80623656002330e-02 2.94833262578568e-04
4.37500000000000e+00 3.76117796584845e-02 2.93702320322468e-04
4.44500000000000e+00 3.71665277964155e-02 2.92538253335826e-04
4.51500000000000e+00 3.67265468686782e-02 2.91342656672350e-04
4.58500000000000e+00 3.62917744774453e-02 2.90117062917348e-04
4.65500000000000e+00 3.58621489635613e-02 2.88862945111030e-04
4.72500000000000e+00 3.54376093977974e-02 2.87581719495157e-04
4.79500000000000e+00 3.50180955722110e-02 2.86274748096430e-04
4.86500000000000e+00 3.46035479916070e-02 2.84943341158719e-04
4.93500000000000e+00 3.41939078650999e-02 2.83588759435298e-04
5.00500000000000e+00 3.37891170977767e-02 2.82212216351252e-04
5.07500000000000e+00 3.33891182824572e-02 2.80814880045164e-04
5.14500000000000e+00 3.29938546915531e-02 2.79397875298658e-04
5.21500000000000e+00 3.26032702690228e-02 2.77962285361495e-04
5.28500000000000e+00 3.22173096224213e-02 2.76509153679301e-04
5.35500000000000e+00 3.18359180150449e-02 2.75039485530490e-04
5.42500000000000e+00 3.14590413581682e-02 2.73554249578339e-04
5.49500000000000e+00 3.10866262033733e-02 2.72054379343804e-04
5.56500000000000e+00 3.07186197349696e-02 2.70540774604049e-04
5.63500000000000e+00 3.03549697625042e-02 2.69014302721501e-04
5.70500000000000e+00 2.99956247133594e-02 2.67475799907701e-04
5.77500000000000e+00 2.96405336254392e-02 2.65926072425945e-04
5.84500000000000e+00 2.92896461399419e-02 2.64365897736507e-04
5.91500000000000e+00 2.89429124942179e-02 2.62796025587798e-04
5.98500000000000e+00 2.86002835147130e-02 2.61217179056705e-04
6.05500000000000e+00 2.82617106099940e-02 2.59630055541060e-04
6.12500000000000e+00 2.79271457638576e-02 2.58035327706955e-04
6.19500000000000e+00 2.75965415285214e-02 2.56433644393563e-04
6.26500000000000e+00 2.72698510178939e-02 2.54825631477749e-04
6.33500000000000e+00 2.69470279009261e-02 2.53211892700744e-04
6.40500000000000e+00 2.66280263950400e-02 2.51593010458946e-04
6.47500000000000e+00 2.63128012596365e-02 2.49969546560829e-04
6.54500000000000e+00 2.60013077896789e-02 2.48342042951696e-04
6.61500000000000e+00 2.56935018093529e-02 2.46711022407993e-04
6.68500000000000e+00 2.53893396658021e-02 2.45076989202822e-04
6.75500000000000e+00 2.50887782229365e-02 2.43440429744087e-04
6.82500000000000e+00 2.47917748553152e-02 2.41801813186677e-04
6.89500000000000e+00 2.44982874421018e-02 2.40161592019990e-04
6.96500000000000e+00 2.42082743610900e-02 2.38520202632025e-04
7.03500000000000e+00 2.39216944828013e-02 2.36878065851194e-04
7.10500000000000e+00 2.36385071646519e-02 2.35235587466977e-04
7.17500000000000e+00 2.33586722451889e-02 2.33593158730363e-04
7.24500000000000e+00 2.30821500383945e-02 2.31951156835093e-04
7.31500000000000e+00 2.28089013280578e-02 2.30309945380603e-04
7.38500000000000e+00 2.25388873622131e-02 2.28669874817504e-04
7.45500000000000e+00 2.22720698476443e-02 2.27031282876417e-04
7.52500000000000e+00 2.20084109444540e-02 2.25394494980902e-04
7.59500000000000e+00 2.17478732606971e-02 2.23759824645246e-04
7.66500000000000e+00 2.14904198470780e-02 2.22127573857734e-04
7.73500000000000e+00 2.12360141917106e-02 2.20498033450049e-04
7.80500000000000e+00 2.09846202149395e-02 2.18871483453470e-04
7.87500000000000e+00 2.07362022642244e-02 2.17248193442384e-04
7.94500000000000e+00 2.04907251090826e-02 2.15628422865643e-04
8.01500000000000e+00 2.02481539360937e-02 2.14012421366343e-04
8.08500000000000e+00 2.00084543439615e-02 2.12400429090473e-04
8.15500000000000e+00 1.97715923386360e-02 2.10792676984902e-04
8.22500000000000e+00 1.95375343284919e-02 2.09189387085158e-04
8.29500000000000e+00 1.93062471195646e-02 2.07590772793398e-04
8.36500000000000e+00 1.90776979108433e-02 2.05997039146999e-04
8.43500000000000e+00 1.88518542896182e-02 2.04408383078126e-04
8.50500000000000e+00 1.86286842268847e-02 2.02824993664613e-04
8.57500000000000e+00 1.84081560728003e-02 2.01247052372572e-04
8.64500000000000e+00 1.81902385521967e-02 1.99674733290969e-04
8.71500000000000e+00 1.79749007601436e-02 1.98108203358543e-04
8.78500000000000e+00 1.77621121575668e-02 1.96547622583356e-04
8.85500000000000e+00 1.75518425669161e-02 1.94993144255184e-04
8.92500000000000e+00 1.73440621678864e-02 1.93444915151172e-04
8.99500000000000e+00 1.71387414931879e-02 1.91903075734827e-04
9.06500000000000e+00 1.69358514243677e-02 1.90367760348711e-04
9.13500000000000e+00 1.67353631876799e-02 1.88839097401066e-04
9.20500000000000e+00 1.65372483500047e-02 1.87317209546546e-04
9.27500000000000e+00 1.63414788148168e-02 1.85802213861288e-04
9.34500000000000e+00 1.61480268181997e-02 1.84294222012545e-04
9.41500000000000e+00 1.59568649249092e-02 1.82793340423073e-04
9.48500000000000e+00 1.57679660244820e-02 1.81299670430407e-04
9.55500000000000e+00 1.55813033273911e-02 1.79813308441311e-04
9.62500000000000e+00 1.53968503612466e-02 1.78334346081484e-04
9.69500000000000e+00 1.52145809670412e-02 1.76862870340695e-04
9.76500000000000e+00 1.50344692954404e-02 1.75398963713550e-04
9.83500000000000e+00 1.48564898031166e-02 1.73942704336016e-04
9.90500000000000e+00 1.46806172491266e-02 1.72494166117841e-04
9.97500000000000e+00 1.45068266913321e-02 1.71053418871014e-04
1.00450000000000e+01 1.43350934828619e-02 1.69620528434415e-04
1.01150000000000e+01 1.41653932686170e-02 1.68195556794755e-04
1.01850000000000e+01 1.39977019818165e-02 1.66778562203946e-04
1.02550000000000e+01 1.38319958405841e-02 1.65369599293033e-04
1.03250000000000e+01 1.36682513445760e-02 1.63968719182755e-04
1.03950000000000e+01 1.35064452716473e-02 1.62575969590905e-04
1.04650000000000e+01 1.33465546745594e-02 1.61191394936555e-04
1.05350000000000e+01 1.31885568777253e-02 1.59815036441249e-04
1.06050000000000e+01 1.30324294739936e-02 1.58446932227260e-04
1.06750000000000e+01 1.28781503214710e-02 1.57087117413038e-04
1.07450000000000e+01 1.27256975403821e-02 1.55735624205909e-04
1.08150000000000e+01 1.25750495099664e-02 1.54392481992088e-04
1.08850000000000e+01 1.24261848654120e-02 1.53057717424147e-04
1.09550000000000e+01 1.22790824948256e-02 1.51731354505982e-04
1.10250000000000e+01 1.21337215362387e-02 1.50413414675368e-04
1.10950000000000e+01 1.19900813746486e-02 1.49103916884154e-04
1.11650000000000e+01 1.18481416390952e-02 1.47802877676205e-04
1.12350000000000e+01 1.17078821997715e-02 1.46510311263148e-04
1.13050000000000e+01 1.15692831651695e-02 1.45226229597965e-04
1.13750000000000e+01 1.14323248792584e-02 1.43950642446549e-04
1.14450000000000e+01 1.12969879186975e-02 1.42683557457218e-04
1.15150000000000e+01 1.11632530900815e-02 1.41424980228298e-04
1.15850000000000e+01 1.10311014272185e-02 1.40174914373830e-04
1.16550000000000e+01 1.09005141884402e-02 1.38933361587432e-04
1.17250000000000e+01 1.07714728539440e-02 1.37700321704391e-04
1.17950000000000e+01 1.06439591231663e-02 1.36475792762017e-04
1.18650000000000e+01 1.05179549121875e-02 1.35259771058328e-04
1.19350000000000e+01 1.03934423511673e-02 1.34052251209125e-04
1.20050000000000e+01 1.02704037818100e-02 1.32853226203462e-04
1.20750000000000e+01 1.01488217548607e-02 1.31662687457609e-04
1.21450000000000e+01 1.00286790276303e-02 1.30480624867514e-04
1.22150000000000e+01 9.90995856155064e-03 1.29307026859811e-04
1.22850000000000e+01 9.79264351975735e-03 1.28141880441424e-04
1.23550000000000e+01 9.67671726470273e-03 1.26985171247836e-04
1.24250000000000e+01 9.56216335579588e-03 1.25836883589996e-04
1.24950000000000e+01 9.44896554707125e-03 1.24697000499955e-04
1.25650000000000e+01 9.33710778488454e-03 1.23565503775253e-04
1.26350000000000e+01 9.22657420563608e-03 1.22442374022076e-04
1.27050000000000e+01 9.11734913352097e-03 1.21327590697239e-04
1.27750000000000e+01 9.00941707830603e-03 1.20221132149021e-04
1.28450000000000e+01 8.90276273313294e-03 1.19122975656879e-04
1.29150000000000e+01 8.79737097234743e-03 1.18033097470070e-04
1.29850000000000e+01 8.69322684935419e-03 1.16951472845220e-04
1.30550000000000e+01 8.59031559449713e-03 1.15878076082876e-04
1.31250000000000e+01 8.48862261296479e-03 1.14812880563042e-04
1.31950000000000e+01 8.38813348272046e-03 1.13755858779742e-04
1.32650000000000e+01 8.28883395245692e-03 1.12706982374657e-04
1.33350000000000e+01 8.19070993957527e-03 1.11666222169829e-04
1.34050000000000e+01 8.09374752818778e-03 1.10633548199453e-04
1.34750000000000e+01 7.99793296714432e-03 1.09608929740830e-04
1.35450000000000e+01 7.90325266808223e-03 1.08592335344452e-04
1.36150000000000e+01 7.80969320349916e-03 1.07583732863267e-04
1.36850000000000e+01 7.71724130484884e-03 1.06583089481146e-04
1.37550000000000e+01 7.62588386065932e-03 1.05590371740558e-04
1.38250000000000e+01 7.53560791467352e-03 1.04605545569495e-04
1.38950000000000e+01 7.44640066401176e-03 1.03628576307646e-04
1.39650000000000e+01 7.35824945735611e-03 1.02659428731869e-04
1.40350000000000e+01 7.27114179315613e-03 1.01698067080941e-04
1.41050000000000e+01 7.18506531785595e-03 1.00744455079640e-04
1.41750000000000e+01 7.10000782414227e-03 9.97985559621437e-05
1.42450000000000e+01 7.01595724921316e-03 9.88603324948106e-05
1.43150000000000e+01 6.93290167306728e-03 9.79297469983063e-05
1.43850000000000e+01 6.85082931681341e-03 9.70067613691164e-05
1.44550000000000e+01 6.76972854099998e-03 9.60913371004773e-05
1.45250000000000e+01 6.68958784396436e-03 9.51834353027059e-05
1.45950000000000e+01 6.61039586020173e-03 9.42830167229781e-05
1.46650000000000e+01 6.53214135875319e-03 9.33900417645528e-05
1.47350000000000e+01 6.45481324161301e-03 9.25044705054464e-05
1.48050000000000e+01 6.37840054215473e-03 9.16262627165952e-05
1.48750000000000e+01 6.30289242357586e-03 9.07553778795035e-05
1.49450000000000e+01 6.22827817736102e-03 8.98917752033896e-05
1.50150000000000e+01 6.15454722176325e-03 8.90354136418542e-05
1.50850000000000e+01 6.08168910030336e-03 8.81862519090715e-05
1.51550000000000e+01 6.00969348028693e-03 8.73442484955310e-05
1.52250000000000e+01 5.93855015133900e-03 8.65093616833211e-05
1.52950000000000e+01 5.86824902395599e-03 8.56815495609692e-05
1.53650000000000e+01 5.79878012807484e-03 8.48607700378752e-05
1.54350000000000e+01 5.73013361165906e-03 8.40469808583249e-05
1.55050000000000e+01 5.66229973930149e-03 8.32401396150879e-05
1.55750000000000e+01 5.59526889084370e-03 8.24402037626319e-05
1.56450000000000e+01 5.52903156001158e-03 8.16471306299577e-05
1.57150000000000e+01 5.46357835306722e-03 8.08608774330468e-05
1.57850000000000e+01 5.39889998747668e-03 8.00814012869579e-05
1.58550000000000e+01 5.33498729059357e-03 7.93086592175655e-05
1.59250000000000e+01 5.27183119835813e-03 7.85426081729448e-05
1.59950000000000e+01 5.20942275401183e-03 7.77832050344281e-05
1.60650000000000e+01 5.14775310682713e-03 7.70304066273280e-05
1.61350000000000e+01 5.08681351085222e-03 7.62841697313494e-05
1.62050000000000e+01 5.02659532367072e-03 7.55444510906799e-05
1.62750000000000e+01 4.96709000517601e-03 7.48112074237687e-05
1.63450000000000e+01 4.90828911636007e-03 7.40843954328327e-05
1.64150000000000e+01 4.85018431811667e-03 7.33639718130603e-05
1.64850000000000e+01 4.79276737005872e-03 7.26498932615207e-05
1.65550000000000e+01 4.73603012934961e-03 7.19421164858235e-05
1.66250000000000e+01 4.67996454954844e-03 7.12405982124952e-05
1.66950000000000e+01 4.62456267946882e-03 7.05452951950986e-05
1.67650000000000e+01 4.56981666205130e-03 6.98561642221030e-05
1.68350000000000e+01 4.51571873324902e-03 6.91731621244933e-05
1.69050000000000e+01 4.46226122092669e-03 6.84962457831544e-05
1.69750000000000e+01 4.40943654377247e-03 6.78253721360116e-05
1.70450000000000e+01 4.35723721022283e-03 6.71604981849400e-05
1.71150000000000e+01 4.30565581740007e-03 6.65015810024560e-05
1.71850000000000e+01 4.25468505006250e-03 6.58485777381886e-05
1.72550000000000e+01 4.20431767956692e-03 6.52014456251345e-05
1.73250000000000e+01 4.15454656284356e-03 6.45601419857118e-05
1.73950000000000e+01 4.10536464138294e-03 6.39246242376153e-05
1.74650000000000e+01 4.05676494023492e-03 6.32948498994605e-05
1.75350000000000e+01 4.00874056701951e-03 6.26707765962526e-05
1.76050000000000e+01 3.96128471094933e-03 6.20523620646615e-05
1.76750000000000e+01 3.91439064186379e-03 6.14395641581123e-05
1.77450000000000e+01 3.86805170927459e-03 6.08323408517064e-05
1.78150000000000e+01 3.82226134142252e-03 6.02306502469614e-05
1.78850000000000e+01 3.77701304434551e-03 5.96344505763838e-05
1.79550000000000e+01 3.73230040095764e-03 5.90437002078868e-05
1.80250000000000e+01 3.68811707013905e-03 5.84583576490426e-05
1.80950000000000e+01 3.64445678583669e-03 5.78783815511690e-05
1.81650000000000e+01 3.60131335617563e-03 5.73037307132783e-05
1.82350000000000e+01 3.55868066258096e-03 5.67343640858766e-05
1.83050000000000e+01 3.51655265891004e-03 5.61702407746140e-05
1.83750000000000e+01 3.47492337059506e-03 5.56113200437936e-05
1.84450000000000e+01 3.43378689379570e-03 5.50575613197457e-05
1.85150000000000e+01 3.39313739456188e-03 5.45089241940755e-05
1.85850000000000e+01 3.35296910800639e-03 5.39653684267698e-05
1.86550000000000e+01 3.31327633748730e-03 5.34268539491824e-05
1.87250000000000e+01 3.27405345380006e-03 5.28933408668987e-05
1.87950000000000e+01 3.23529489437921e-03 5.23647894624790e-05
1.88650000000000e+01 3.19699516250946e-03 5.18411601980829e-05
1.89350000000000e+01 3.15914882654617e-03 5.13224137179777e-05
1.90050000000000e+01 3.12175051914503e-03 5.08085108509441e-05
1.90750000000000e+01 3.08479493650085e-03 5.02994126125673e-05
1.91450000000000e+01 3.04827683759543e-03 4.97950802074263e-05
1.92150000000000e+01 3.01219104345423e-03 4.92954750311783e-05
1.92850000000000e+01 2.97653243641189e-03 4.88005586725447e-05
1.93550000000000e+01 2.94129595938649e-03 4.83102929152017e-05
1.94250000000000e+01 2.90647661516232e-03 4.78246397395733e-05
1.94950000000000e+01 2.87206946568120e-03 4.73435613245328e-05
1.95650000000000e+01 2.83806963134214e-03 4.68670200490196e-05
1.96350000000000e+01 2.80447229030936e-03 4.63949784935676e-05
1.97050000000000e+01 2.77127267782841e-03 4.59273994417399e-05
1.97750000000000e+01 2.73846608555048e-03 4.54642458814906e-05
1.98450000000000e+01 2.70604786086462e-03 4.50054810064452e-05
1.99150000000000e+01 2.67401340623798e-03 4.45510682171004e-05
1.99850000000000e+01 2.64235817856370e-03 4.41009711219492e-05
2.00550000000000e+01 2.61107768851667e-03 4.36551535385287e-05
2.01250000000000e+01 2.58016749991686e-03 4.32135794944038e-05
2.01950000000000e+01 2.54962322910015e-03 4.27762132280742e-05
2.02650000000000e+01 2.51944054429665e-03 4.23430191898125e-05
2.03350000000000e+01 2.48961516501640e-03 4.19139620424449e-05
2.04050000000000e+01 2.46014286144227e-03 4.14890066620590e-05
2.04750000000000e+01 2.43101945383012e-03 4.10681181386483e-05
2.05450000000000e+01 2.40224081191603e-03 4.06512617767052e-05
2.06150000000000e+01 2.37380285433053e-03 4.02384030957477e-05
2.06850000000000e+01 2.34570154801980e-03 3.98295078307870e-05
2.07550000000000e+01 2.31793290767370e-03 3.94245419327481e-05
2.08250000000000e+01 2.29049299516057e-03 3.90234715688270e-05
2.08950000000000e+01 2.26337791896873e-03 3.86262631227970e-05
2.09650000000000e+01 2.23658383365459e-03 3.82328831952709e-05
2.10350000000000e+01 2.21010693929730e-03 3.78432986039051e-05
2.11050000000000e+01 2.18394348095982e-03 3.74574763835588e-05
2.11750000000000e+01 2.15808974815644e-03 3.70753837864097e-05
2.12450000000000e+01 2.13254207432651e-03 3.66969882820154e-05
2.13150000000000e+01 2.10729683631450e-03 3.63222575573395e-05
2.13850000000000e+01 2.08235045385613e-03 3.59511595167315e-05
2.14550000000000e+01 2.05769938907063e-03 3.55836622818639e-05
2.15250000000000e+01 2.03334014595902e-03 3.52197341916320e-05
2.15950000000000e+01 2.00926926990827e-03 3.48593438020111e-05
2.16650000000000e+01 1.98548334720141e-03 3.45024598858777e-05
2.17350000000000e+01 1.96197900453337e-03 3.41490514327954e-05
2.18050000000000e+01 1.93875290853258e-03 3.37990876487609e-05
2.18750000000000e+01 1.91580176528827e-03 3.34525379559206e-05
2.19450000000000e+01 1.89312231988328e-03 3.31093719922498e-05
2.20150000000000e+01 1.87071135593247e-03 3.27695596112004e-05
2.20850000000000e+01 1.84856569512659e-03 3.24330708813204e-05
