Energy (eV)          EEDF (eV^-(3/2))     First Anisotropy
2.40384615384615e-02 1.62664955018557e-01 1.19006160949998e-04
7.21153846153846e-02 1.60519452249200e-01 1.95875517702098e-04
1.20192307692308e-01 1.58402248028383e-01 2.56894572775771e-04
1.68269230769231e-01 1.56312969110926e-01 3.02239528605395e-04
2.16346153846154e-01 1.54251247166110e-01 3.39229753260940e-04
2.64423076923077e-01 1.52216718725550e-01 3.70659270113096e-04
3.12500000000000e-01 1.50209025114922e-01 3.97987207832883e-04
3.60576923076923e-01 1.48227812384886e-01 4.22102514189924e-04
4.08653846153846e-01 1.46272731267142e-01 4.43599884213029e-04
4.56730769230769e-01 1.44343437093212e-01 4.62903228775886e-04
5.04807692307692e-01 1.42439589740763e-01 4.80328981473758e-04
5.52884615384615e-01 1.40560853573621e-01 4.96121794142681e-04
6.00961538461539e-01 1.38706897382583e-01 5.10476132306088e-04
6.49038461538462e-01 1.36877394327016e-01 5.23550073179223e-04
6.97115384615385e-01 1.35072021877210e-01 5.35474514883355e-04
7.45192307692308e-01 1.33290461757565e-01 5.46359546774846e-04
7.93269230769231e-01 1.31532399890447e-01 5.56298989727637e-04
8.41346153846154e-01 1.29797526340818e-01 5.65373715285715e-04
8.89423076923077e-01 1.28085535261595e-01 5.73654125708887e-04
9.37500000000000e-01 1.26396124839729e-01 5.81202042758020e-04
9.85576923076923e-01 1.24728997241293e-01 5.88072169051560e-04
1.03365384615385e+00 1.23083858572031e-01 5.94313240803197e-04
1.08173076923077e+00 1.21460418785693e-01 5.99968938752796e-04
1.12980769230769e+00 1.19858391695877e-01 6.05078626732371e-04
1.17788461538462e+00 1.18277494874725e-01 6.09677957994296e-04
1.22596153846154e+00 1.16717449607151e-01 6.13799361113640e-04
1.27403846153846e+00 1.15177980880477e-01 6.17472454241132e-04
1.32211538461538e+00 1.13658817295595e-01 6.20724391848451e-04
1.37019230769231e+00 1.12159691022421e-01 6.23580146705104e-04
1.41826923076923e+00 1.10680337786036e-01 6.26062759146543e-04
1.46634615384615e+00 1.09220496785480e-01 6.28193550121099e-04
1.51442307692308e+00 1.07779910650285e-01 6.29992294776388e-04
1.56250000000000e+00 1.06358325424289e-01 6.31477381611375e-04
1.61057692307692e+00 1.04955490490781e-01 6.32665949890643e-04
1.65865384615385e+00 1.03571158538645e-01 6.33574005372846e-04
1.70673076923077e+00 1.02205085510896e-01 6.34216522245100e-04
1.75480769230769e+00 1.00857030585835e-01 6.34607536190730e-04
1.80288461538462e+00 9.95267561097376e-02 6.34760227686329e-04
1.85096153846154e+00 9.82140275565213e-02 6.34686988136494e-04
1.89903846153846e+00 9.69186135078693e-02 6.34399486322993e-04
1.94711538461538e+00 9.56402855903299e-02 6.33908727823386e-04
1.99519230769231e+00 9.43788184364410e-02 6.33225101045575e-04
2.04326923076923e+00 9.31339896641542e-02 6.32358425664511e-04
2.09134615384615e+00 9.19055798179338e-02 6.31317996327830e-04
2.13942307692308e+00 9.06933723311998e-02 6.30112615434398e-04
2.18750000000000e+00 8.94971535053945e-02 6.28750629420411e-04
2.23557692307692e+00 8.83167124546469e-02 6.27239961102823e-04
2.28365384615385e+00 8.71518410746212e-02 6.25588136141028e-04
2.33173076923077e+00 8.60023340009794e-02 6.23802307516695e-04
2.37980769230769e+00 8.48679885880263e-02 6.21889280370916e-04
2.42788461538462e+00 8.37486048577994e-02 6.19855535490606e-04
2.47596153846154e+00 8.26439854656087e-02 6.17707245201453e-04
2.52403846153846e+00 8.15539356787070e-02 6.15450293555100e-04
2.57211538461538e+00 8.04782633281745e-02 6.13090294951191e-04
2.62019230769231e+00 7.94167787757675e-02 6.10632606015116e-04
2.66826923076923e+00 7.83692948927189e-02 6.08082341807143e-04
2.71634615384615e+00 7.73356270142290e-02 6.05444390846141e-04
2.76442307692308e+00 7.63155929075274e-02 6.02723424056497e-04
2.81250000000000e+00 7.53090127509277e-02 5.99923907983333e-04
2.86057692307692e+00 7.43157090907148e-02 5.97050116603489e-04
2.90865384615385e+00 7.33355068137416e-02 5.94106140102213e-04
2.95673076923077e+00 7.23682331133375e-02 5.91095893295463e-04
3.00480769230769e+00 7.14137174686795e-02 5.88023125344210e-04
3.05288461538462e+00 7.04717916047018e-02 5.84891429367554e-04
3.10096153846154e+00 6.95422894628923e-02 5.81704247164486e-04
3.14903846153846e+00 6.86250471810419e-02 5.78464877848692e-04
3.19711538461538e+00 6.77199030551429e-02 5.75176485950720e-04
3.24519230769231e+00 6.68266975113117e-02 5.71842105001161e-04
3.29326923076923e+00 6.59452730859497e-02 5.68464644867888e-04
3.34134615384615e+00 6.50754743895202e-02 5.65046898659102e-04
3.38942307692308e+00 6.42171480795270e-02 5.61591545429358e-04
3.43750000000000e+00 6.33701428411348e-02 5.58101156470732e-04
3.48557692307692e+00 6.25343093526991e-02 5.54578200871433e-04
3.53365384615385e+00 6.17095002620871e-02 5.51025049067956e-04
3.58173076923077e+00 6.08955701584624e-02 5.47443976376861e-04
3.62980769230769e+00 6.00923755534746e-02 5.43837167757669e-04
3.67788461538462e+00 5.92997748490179e-02 5.40206722721260e-04
3.72596153846154e+00 5.85176283125599e-02 5.36554656690891e-04
3.77403846153846e+00 5.77457980588187e-02 5.32882905535065e-04
3.82211538461539e+00 5.69841480190241e-02 5.29193329863165e-04
3.87019230769231e+00 5.62325439172034e-02 5.25487715997319e-04
3.91826923076923e+00 5.54908532523521e-02 5.21767779961491e-04
3.96634615384615e+00 5.47589452691234e-02 5.18035171267667e-04
4.01442307692308e+00 5.40366909350179e-02 5.14291473579813e-04
4.06250000000000e+00 5.33239629230631e-02 5.10538208243346e-04
4.11057692307692e+00 5.26206355838481e-02 5.06776837348790e-04
4.15865384615385e+00 5.19265849252424e-02 5.03008765335381e-04
4.20673076923077e+00 5.12416885889335e-02 4.99235340651366e-04
4.25480769230769e+00 5.05658258337404e-02 4.95457858446259e-04
4.30288461538462e+00 4.98988775093634e-02 4.91677563447533e-04
4.35096153846154e+00 4.92407260355720e-02 4.87895650143483e-04
4.39903846153846e+00 4.85912553860195e-02 4.84113265488072e-04
4.44711538461539e+00 4.79503510631658e-02 4.80331511479400e-04
4.49519230769231e+00 4.73179000782756e-02 4.76551445198167e-04
4.54326923076923e+00 4.66937909357276e-02 4.72774081241776e-04
4.59134615384615e+00 4.60779136090570e-02 4.69000394046869e-04
4.63942307692308e+00 4.54701595217222e-02 4.65231317812963e-04
4.68750000000000e+00 4.48704215319090e-02 4.61467748699877e-04
4.73557692307692e+00 4.42785939096343e-02 4.57710546697620e-04
4.78365384615385e+00 4.36945723194634e-02 4.53960536387540e-04
4.83173076923077e+00 4.31182538009411e-02 4.50218507772920e-04
4.87980769230769e+00 4.25495367540175e-02 4.46485217948465e-04
4.92788461538462e+00 4.19883209175043e-02 4.42761392942186e-04
4.97596153846154e+00 4.14345073515336e-02 4.39047727464850e-04
5.02403846153846e+00 4.08879984234554e-02 4.35344886662536e-04
5.07211538461539e+00 4.03486977872310e-02 4.31653507793557e-04
5.12019230769231e+00 3.98165103665746e-02 4.27974199925488e-04
5.16826923076923e+00 3.92913423413133e-02 4.24307545535496e-04
5.21634615384615e+00 3.87731011276751e-02 4.20654102042438e-04
5.26442307692308e+00 3.82616953620819e-02 4.17014401463256e-04
5.31250000000000e+00 3.77570348879650e-02 4.13388951877063e-04
5.36057692307692e+00 3.72590307369046e-02 4.09778238646353e-04
5.40865384615385e+00 3.67675951139491e-02 4.06182724777070e-04
5.45673076923077e+00 3.62826413812611e-02 4.02602851343363e-04
5.50480769230769e+00 3.58040840455080e-02 3.99039038588932e-04
5.55288461538462e+00 3.53318387400870e-02 3.95491687177106e-04
5.60096153846154e+00 3.48658222103469e-02 3.91961177793575e-04
5.64903846153846e+00 3.44059523014065e-02 3.88447872345542e-04
5.69711538461539e+00 3.39521479411367e-02 3.84952115111842e-04
5.74519230769231e+00 3.35043291259588e-02 3.81474232330727e-04
5.79326923076923e+00 3.30624169090792e-02 3.78014533305631e-04
5.84134615384615e+00 3.26263333841966e-02 3.74573311466075e-04
5.88942307692308e+00 3.21960016718495e-02 3.71150843945539e-04
5.93750000000000e+00 3.17713459080595e-02 3.67747392602179e-04
5.98557692307692e+00 3.13522912287288e-02 3.64363204853987e-04
6.03365384615385e+00 3.09387637571955e-02 3.60998513835913e-04
6.08173076923077e+00 3.05306905905484e-02 3.57653538612645e-04
6.12980769230769e+00 3.01279997887849e-02 3.54328484936556e-04
6.17788461538462e+00 2.97306203600897e-02 3.51023546130217e-04
6.22596153846154e+00 2.93384822483888e-02 3.47738902660373e-04
6.27403846153846e+00 2.89515163228867e-02 3.44474722989274e-04
6.32211538461539e+00 2.85696543639634e-02 3.41231164392505e-04
6.37019230769231e+00 2.81928290512130e-02 3.38008372533739e-04
6.41826923076923e+00 2.78209739533501e-02 3.34806482255172e-04
6.46634615384615e+00 2.74540235146976e-02 3.31625618336926e-04
6.51442307692308e+00 2.70919130436900e-02 3.28465895074777e-04
6.56250000000000e+00 2.67345787031381e-02 3.25327417014334e-04
6.61057692307692e+00 2.63819574972826e-02 3.22210279540797e-04
6.65865384615385e+00 2.60339872612598e-02 3.19114568929900e-04
6.70673076923077e+00 2.56906066496378e-02 3.16040362445256e-04
6.75480769230769e+00 2.53517551271355e-02 3.12987728875710e-04
6.80288461538462e+00 2.50173729563962e-02 3.09956729175673e-04
6.85096153846154e+00 2.46874011875069e-02 3.06947416059143e-04
6.89903846153846e+00 2.43617816490494e-02 3.03959834619945e-04
6.94711538461539e+00 2.40404569363809e-02 3.00994022928121e-04
6.99519230769231e+00 2.37233704015626e-02 2.98050011631252e-04
7.04326923076923e+00 2.34104661447321e-02 2.95127824533072e-04
7.09134615384615e+00 2.31016890028700e-02 2.92227479149887e-04
7.13942307692308e+00 2.27969845401197e-02 2.89348986319983e-04
7.18750000000000e+00 2.24962990394719e-02 2.86492350743458e-04
7.23557692307692e+00 2.21995794919965e-02 2.83657571408261e-04
7.28365384615385e+00 2.19067735879355e-02 2.80844641585210e-04
7.33173076923077e+00 2.16178297070931e-02 2.78053548861228e-04
7.37980769230769e+00 2.13326969109154e-02 2.75284275528420e-04
7.42788461538462e+00 2.10513249323144e-02 2.72536799057808e-04
7.47596153846154e+00 2.07736641668445e-02 2.69811091732266e-04
7.52403846153846e+00 2.04996656650702e-02 2.67107121106811e-04
7.57211538461539e+00 2.02292811228081e-02 2.64424850451486e-04
7.62019230769231e+00 1.99624628726484e-02 2.61764238393777e-04
7.66826923076923e+00 1.96991638766000e-02 2.59125239349526e-04
7.71634615384615e+00 1.94393377167345e-02 2.56507803937572e-04
7.76442307692308e+00 1.91829385870364e-02 2.53911878631872e-04
7.81250000000000e+00 1.89299212863189e-02 2.51337406164868e-04
7.86057692307692e+00 1.86802412092511e-02 2.48784325840318e-04
7.90865384615385e+00 1.84338543388335e-02 2.46252573499604e-04
7.95673076923077e+00 1.81907172383366e-02 2.43742081519361e-04
8.00480769230769e+00 1.79507870445584e-02 2.41252779097534e-04
8.05288461538461e+00 1.77140214593413e-02 2.38784592608906e-04
8.10096153846154e+00 1.74803787421438e-02 2.36337445282145e-04
8.14903846153846e+00 1.72498177035458e-02 2.33911257546072e-04
8.19711538461539e+00 1.70222976971114e-02 2.31505947362947e-04
8.24519230769231e+00 1.67977786122515e-02 2.29121429915324e-04
8.29326923076923e+00 1.65762208679676e-02 2.26757617931031e-04
8.34134615384616e+00 1.63575854050474e-02 2.24414421995977e-04
8.38942307692308e+00 1.61418336792045e-02 2.22091750250794e-04
8.43750000000000e+00 1.59289276550544e-02 2.19789508695761e-04
8.48557692307692e+00 1.57188297986279e-02 2.17507601423293e-04
8.53365384615385e+00 1.55115030710182e-02 2.15245930570719e-04
8.58173076923077e+00 1.53069109216156e-02 2.13004396298628e-04
8.62980769230769e+00 1.51050172823778e-02 2.10782897003529e-04
8.67788461538462e+00 1.49057865607488e-02 2.08581329587522e-04
8.72596153846154e+00 1.47091836334057e-02 2.06399589178643e-04
8.77403846153846e+00 1.45151738407419e-02 2.04237569393950e-04
8.82211538461539e+00 1.43237229800729e-02 2.02095162592825e-04
8.87019230769231e+00 1.41347972996278e-02 1.99972259606583e-04
8.91826923076923e+00 1.39483634932367e-02 1.97868749985872e-04
8.96634615384616e+00 1.37643886938134e-02 1.95784522238877e-04
9.01442307692308e+00 1.35828404675799e-02 1.93719463569990e-04
9.06250000000000e+00 1.34036868089526e-02 1.91673460112396e-04
9.11057692307692e+00 1.32268961342889e-02 1.89646397102411e-04
9.15865384615385e+00 1.30524372765249e-02 1.87638158827210e-04
9.20673076923077e+00 1.28802794794970e-02 1.85648628593467e-04
9.25480769230769e+00 1.27103923930791e-02 1.83677688886794e-04
9.30288461538462e+00 1.25427460672659e-02 1.81725221577910e-04
9.35096153846154e+00 1.23773109469093e-02 1.79791107682767e-04
9.39903846153846e+00 1.22140578670381e-02 1.77875227564010e-04
9.44711538461539e+00 1.20529580471796e-02 1.75977461124931e-04
9.49519230769231e+00 1.18939830863022e-02 1.74097687577979e-04
9.54326923076923e+00 1.17371049583098e-02 1.72235785634483e-04
9.59134615384616e+00 1.15822960065932e-02 1.70391633687293e-04
9.63942307692308e+00 1.14295289391691e-02 1.68565109587430e-04
9.68750000000000e+00 1.12787768243443e-02 1.66756090822687e-04
9.73557692307692e+00 1.11300130854865e-02 1.64964454649172e-04
9.78365384615385e+00 1.09832114965014e-02 1.63190078038834e-04
9.83173076923077e+00 1.08383461770641e-02 1.61432837644055e-04
9.87980769230769e+00 1.06953915884972e-02 1.59692609917871e-04
9.92788461538462e+00 1.05543225288223e-02 1.57969271272541e-04
9.97596153846154e+00 1.04151141283302e-02 1.56262697875106e-04
1.00240384615385e+01 1.02777418456144e-02 1.54572765728909e-04
1.00721153846154e+01 1.01421814630864e-02 1.52899350937142e-04
1.01201923076923e+01 1.00084090823063e-02 1.51242329972170e-04
1.01682692307692e+01 9.87640111876630e-03 1.49601578509467e-04
1.02163461538462e+01 9.74613430161976e-03 1.47976972265092e-04
1.02644230769231e+01 9.61758566564757e-03 1.46368387769184e-04
1.03125000000000e+01 9.49073254853609e-03 1.44775701605645e-04
1.03605769230769e+01 9.36555258568836e-03 1.43198789800705e-04
1.04086538461538e+01 9.24202370990024e-03 1.41637528533370e-04
1.04567307692308e+01 9.12012414381012e-03 1.40091794860644e-04
1.05048076923077e+01 8.99983239729303e-03 1.38561466000542e-04
1.05528846153846e+01 8.88112726256228e-03 1.37046418754764e-04
1.06009615384615e+01 8.76398781380063e-03 1.35546530174930e-04
1.06490384615385e+01 8.64839340006295e-03 1.34061678242647e-04
1.06971153846154e+01 8.53432364278258e-03 1.32591740896253e-04
1.07451923076923e+01 8.42175843218212e-03 1.31136596678067e-04
1.07932692307692e+01 8.31067792271038e-03 1.29696123870104e-04
1.08413461538462e+01 8.20106253262487e-03 1.28270201106891e-04
1.08894230769231e+01 8.09289293742388e-03 1.26858708001366e-04
1.09375000000000e+01 7.98615006749095e-03 1.25461524518449e-04
1.09855769230769e+01 7.88081510378591e-03 1.24078530469558e-04
1.10336538461538e+01 7.77686947739853e-03 1.22709606087534e-04
1.10817307692308e+01 7.67429486337134e-03 1.21354632613888e-04
1.11298076923077e+01 7.57307317844747e-03 1.20013491707920e-04
1.11778846153846e+01 7.47318657700092e-03 1.18686064969408e-04
1.12259615384615e+01 7.37461745056725e-03 1.17372234478084e-04
1.12740384615385e+01 7.27734842203259e-03 1.16071883344717e-04
1.13221153846154e+01 7.18136234348104e-03 1.14784894910728e-04
1.13701923076923e+01 7.08664229317411e-03 1.13511153272727e-04
1.14182692307692e+01 6.99317157175813e-03 1.12250542570804e-04
1.14663461538462e+01 6.90093370177055e-03 1.11002947485241e-04
1.15144230769231e+01 6.80991242225753e-03 1.09768253744151e-04
1.15625000000000e+01 6.72009168674302e-03 1.08546347606861e-04
1.16105769230769e+01 6.63145565964580e-03 1.07337115445749e-04
1.16586538461538e+01 6.54398871577352e-03 1.06140444212546e-04
1.17067307692308e+01 6.45767543525699e-03 1.04956221914908e-04
1.17548076923077e+01 6.37250060161036e-03 1.03784337128992e-04
1.18028846153846e+01 6.28844919834600e-03 1.02624678604557e-04
1.18509615384615e+01 6.20550640845981e-03 1.01477135702765e-04
1.18990384615385e+01 6.12365760966279e-03 1.00341598843658e-04
1.19471153846154e+01 6.04288837252883e-03 9.92179588471986e-05
1.19951923076923e+01 5.96318445795281e-03 9.81061073592356e-05
1.20432692307692e+01 5.88453181399466e-03 9.70059362648260e-05
1.20913461538462e+01 5.80691657535670e-03 9.59173380916701e-05
1.21394230769231e+01 5.73032505896313e-03 9.48402064226438e-05
1.21875000000000e+01 5.65474376221436e-03 9.37744354693318e-05
1.22355769230769e+01 5.58015936000453e-03 9.27199197258879e-05
1.22836538461538e+01 5.50655870419718e-03 9.16765543479595e-05
1.23317307692308e+01 5.43392881946249e-03 9.06442355401883e-05
1.23798076923077e+01 5.36225690161128e-03 8.96228601537465e-05
1.24278846153846e+01 5.29153031477623e-03 8.86123253593938e-05
1.24759615384615e+01 5.22173659088836e-03 8.76125290034344e-05
1.25240384615385e+01 5.15286342575618e-03 8.66233699717399e-05
1.25721153846154e+01 5.08489867747625e-03 8.56447476466145e-05
1.26201923076923e+01 5.01783036429413e-03 8.46765622533697e-05
1.26682692307692e+01 4.95164666197558e-03 8.37187143762216e-05
1.27163461538462e+01 4.88633590328545e-03 8.27711052865440e-05
1.27644230769231e+01 4.82188657435035e-03 8.18336372787088e-05
1.28125000000000e+01 4.75828731316183e-03 8.09062133177025e-05
1.28605769230769e+01 4.69552690709139e-03 7.99887367524138e-05
1.29086538461538e+01 4.63359429237448e-03 7.90811116240819e-05
1.29567307692308e+01 4.57247855068340e-03 7.81832429818959e-05
1.30048076923077e+01 4.51216890769989e-03 7.72950365503782e-05
1.30528846153846e+01 4.45265473076583e-03 7.64163984585256e-05
1.31009615384615e+01 4.39392552837384e-03 7.55472355296955e-05
1.31490384615385e+01 4.33597094693779e-03 7.46874555782085e-05
1.31971153846154e+01 4.27878076943183e-03 7.38369669612524e-05
1.32451923076923e+01 4.22234491359034e-03 7.29956788612751e-05
1.32932692307692e+01 4.16665342971635e-03 7.21635008861758e-05
1.33413461538462e+01 4.11169650018104e-03 7.13403433368058e-05
1.33894230769231e+01 4.05746443642586e-03 7.05261174807842e-05
1.34375000000000e+01 4.00394767768178e-03 6.97207352610842e-05
1.34855769230769e+01 3.95113678889699e-03 6.89241090583776e-05
1.35336538461538e+01 3.89902246024569e-03 6.81361519424961e-05
1.35817307692308e+01 3.84759550430208e-03 6.73567779298429e-05
1.36298076923077e+01 3.79684685481973e-03 6.65859017082813e-05
1.36778846153846e+01 3.74676756477202e-03 6.58234384125785e-05
1.37259615384615e+01 3.69734880587090e-03 6.50693038608221e-05
1.37740384615385e+01 3.64858186590261e-03 6.43234147964423e-05
1.38221153846154e+01 3.60045814756460e-03 6.35856885181678e-05
1.38701923076923e+01 3.55296916695069e-03 6.28560431104605e-05
1.39182692307692e+01 3.50610655172267e-03 6.21343971130330e-05
1.39663461538462e+01 3.45986204064164e-03 6.14206697391383e-05
1.40144230769231e+01 3.41422748109343e-03 6.07147810991189e-05
1.40625000000000e+01 3.36919482799471e-03 6.00166519592197e-05
1.41105769230769e+01 3.32475614206359e-03 5.93262035444636e-05
1.41586538461538e+01 3.28090358936251e-03 5.86433577439316e-05
1.42067307692308e+01 3.23762943896460e-03 5.79680373209987e-05
1.42548076923077e+01 3.19492606191157e-03 5.73001656855798e-05
1.43028846153846e+01 3.15278592957811e-03 5.66396667078526e-05
1.43509615384615e+01 3.11120161322653e-03 5.59864649113213e-05
1.43990384615385e+01 3.07016578180577e-03 5.53404856705464e-05
1.44471153846154e+01 3.02967120095893e-03 5.47016549052962e-05
1.44951923076923e+01 2.98971073174851e-03 5.40698992688065e-05
1.45432692307692e+01 2.95027732912993e-03 5.34451458743977e-05
1.45913461538462e+01 2.91136404152067e-03 5.28273224738187e-05
1.46394230769231e+01 2.87296400875499e-03 5.22163576399745e-05
1.46875000000000e+01 2.83507046115083e-03 5.16121805671655e-05
1.47355769230769e+01 2.79767671806588e-03 5.10147209074792e-05
1.47836538461538e+01 2.76077618747906e-03 5.04239089385636e-05
1.48317307692308e+01 2.72436236406103e-03 4.98396757355285e-05
1.48798076923077e+01 2.68842882828580e-03 4.92619529822702e-05
1.49278846153846e+01 2.65296924506464e-03 4.86906728168463e-05
1.49759615384615e+01 2.61797736334015e-03 4.81257679893148e-05
1.50240384615385e+01 2.58344701426580e-03 4.75671720234606e-05
1.50721153846154e+01 2.54937211036012e-03 4.70148189638031e-05
1.51201923076923e+01 2.51574664443401e-03 4.64686435295797e-05
1.51682692307692e+01 2.48256468831557e-03 4.59285808884143e-05
