Energy (eV)          EEDF (eV^-(3/2))     First Anisotropy
8.77777777777778e-03 3.24939643036374e-01 1.80872468257354e-04
2.63333333333333e-02 3.22455130356130e-01 2.98533631741906e-04
4.38888888888889e-02 3.19989614454569e-01 3.93732221101101e-04
6.14444444444444e-02 3.17542950068085e-01 4.65832957265760e-04
7.90000000000000e-02 3.15114993062028e-01 5.25782109888768e-04
9.65555555555556e-02 3.12705600394374e-01 5.77722995865280e-04
1.14111111111111e-01 3.10314630129520e-01 6.23802084654108e-04
1.31666666666667e-01 3.07941941392068e-01 6.65316919026138e-04
1.49222222222222e-01 3.05587394418195e-01 7.03128939779025e-04
1.66777777777778e-01 3.03250850478830e-01 7.37847619041272e-04
1.84333333333333e-01 3.00932171921896e-01 7.69924574821861e-04
2.01888888888889e-01 2.98631222161081e-01 7.99706482460230e-04
2.19444444444444e-01 2.96347865628200e-01 8.27466980103181e-04
2.37000000000000e-01 2.94081967814996e-01 8.53426995318417e-04
2.54555555555556e-01 2.91833395220776e-01 8.77768270595293e-04
2.72111111111111e-01 2.89602015384566e-01 9.00642689859464e-04
2.89666666666667e-01 2.87387696840938e-01 9.22178905985370e-04
3.07222222222222e-01 2.85190309145530e-01 9.42487170031345e-04
3.24777777777778e-01 2.83009722836737e-01 9.61662929595705e-04
3.42333333333333e-01 2.80845809450039e-01 9.79789556451080e-04
3.59888888888889e-01 2.78698441509592e-01 9.96940458761248e-04
3.77444444444444e-01 2.76567492501469e-01 1.01318072940429e-03
3.95000000000000e-01 2.74452836891034e-01 1.02856845703014e-03
4.12555555555556e-01 2.72354350092293e-01 1.04315577893069e-03
4.30111111111111e-01 2.70271908482396e-01 1.05698973531554e-03
4.47666666666667e-01 2.68205389373780e-01 1.07011296999091e-03
4.65222222222222e-01 2.66154671026366e-01 1.08256430942824e-03
4.82777777777778e-01 2.64119632622003e-01 1.09437924645193e-03
5.00333333333333e-01 2.62100154270745e-01 1.10559034355897e-03
5.17888888888889e-01 2.60096117003385e-01 1.11622757937728e-03
5.35444444444445e-01 2.58107402752288e-01 1.12631863851827e-03
5.53000000000000e-01 2.56133894360270e-01 1.13588916201445e-03
5.70555555555556e-01 2.54175475558599e-01 1.14496296272201e-03
5.88111111111111e-01 2.52232030974560e-01 1.15356221142812e-03
6.05666666666667e-01 2.50303446110875e-01 1.16170759894534e-03
6.23222222222222e-01 2.48389607352152e-01 1.16941847742748e-03
6.40777777777778e-01 2.46490401945546e-01 1.17671298500854e-03
6.58333333333333e-01 2.44605718003395e-01 1.18360815318471e-03
6.75888888888889e-01 2.42735444496397e-01 1.19012000611747e-03
6.93444444444445e-01 2.40879471238488e-01 1.19626364454893e-03
7.11000000000000e-01 2.39037688891578e-01 1.20205332241046e-03
7.28555555555556e-01 2.37209988948308e-01 1.20750251502244e-03
7.46111111111111e-01 2.35396263736060e-01 1.21262397996674e-03
7.63666666666667e-01 2.33596406400584e-01 1.21742981196027e-03
7.81222222222222e-01 2.31810310909383e-01 1.22193149208408e-03
7.98777777777778e-01 2.30037872036116e-01 1.22613993278797e-03
8.16333333333333e-01 2.28278985361292e-01 1.23006551665033e-03
8.33888888888889e-01 2.26533547265962e-01 1.23371813523773e-03
8.51444444444445e-01 2.24801454919176e-01 1.23710722090462e-03
8.69000000000000e-01 2.23082606280377e-01 1.24024177742199e-03
8.86555555555556e-01 2.21376900085212e-01 1.24313040775797e-03
9.04111111111111e-01 2.19684235847485e-01 1.24578133934114e-03
9.21666666666667e-01 2.18004513845559e-01 1.24820244737805e-03
9.39222222222222e-01 2.16337635123933e-01 1.25040127612259e-03
9.56777777777778e-01 2.14683501480178e-01 1.25238505890561e-03
9.74333333333333e-01 2.13042015464500e-01 1.25416073491387e-03
9.91888888888889e-01 2.11413080373882e-01 1.25573496876427e-03
1.00944444444444e+00 2.09796600236533e-01 1.25711416041893e-03
1.02700000000000e+00 2.08192479835284e-01 1.25830446733745e-03
1.04455555555556e+00 2.06600624651084e-01 1.25931181167321e-03
1.06211111111111e+00 2.05020940918254e-01 1.26014189449907e-03
1.07966666666667e+00 2.03453335558216e-01 1.26080020759696e-03
1.09722222222222e+00 2.01897716233123e-01 1.26129204352327e-03
1.11477777777778e+00 2.00353991282874e-01 1.26162250887637e-03
1.13233333333333e+00 1.98822069762338e-01 1.26179652215986e-03
1.14988888888889e+00 1.97301861435133e-01 1.26181883920430e-03
1.16744444444444e+00 1.95793276728067e-01 1.26169405041551e-03
1.18500000000000e+00 1.94296226778919e-01 1.26142659070353e-03
1.20255555555556e+00 1.92810623379485e-01 1.26102074717482e-03
1.22011111111111e+00 1.91336379020810e-01 1.26048066530975e-03
1.23766666666667e+00 1.89873406838849e-01 1.25981035578814e-03
1.25522222222222e+00 1.88421620657331e-01 1.25901369991489e-03
1.27277777777778e+00 1.86980934935857e-01 1.25809445806910e-03
1.29033333333333e+00 1.85551264799597e-01 1.25705626500180e-03
1.30788888888889e+00 1.84132526033618e-01 1.25590264940795e-03
1.32544444444444e+00 1.82724635045004e-01 1.25463702910239e-03
1.34300000000000e+00 1.81327508901386e-01 1.25326271748840e-03
1.36055555555556e+00 1.79941065283608e-01 1.25178292820517e-03
1.37811111111111e+00 1.78565222522354e-01 1.25020077865217e-03
1.39566666666667e+00 1.77199899552797e-01 1.24851929418406e-03
1.41322222222222e+00 1.75845015949454e-01 1.24674141124984e-03
1.43077777777778e+00 1.74500491882700e-01 1.24486998327686e-03
1.44833333333333e+00 1.73166248142836e-01 1.24290777512202e-03
1.46588888888889e+00 1.71842206134894e-01 1.24085747897273e-03
1.48344444444444e+00 1.70528287846655e-01 1.23872170886817e-03
1.50100000000000e+00 1.69224415880191e-01 1.23650300526529e-03
1.51855555555556e+00 1.67930513411943e-01 1.23420383805233e-03
1.53611111111111e+00 1.66646504222803e-01 1.23182660867573e-03
1.55366666666667e+00 1.65372312659748e-01 1.22937365289718e-03
1.57122222222222e+00 1.64107863664548e-01 1.22684724270819e-03
1.58877777777778e+00 1.62853082736869e-01 1.22424959070655e-03
1.60633333333333e+00 1.61607895954022e-01 1.22158284442306e-03
1.62388888888889e+00 1.60372229966172e-01 1.21884909968137e-03
1.64144444444444e+00 1.59146011969025e-01 1.21605039506885e-03
1.65900000000000e+00 1.57929169729946e-01 1.21318871535913e-03
1.67655555555556e+00 1.56721631553905e-01 1.21026599357914e-03
1.69411111111111e+00 1.55523326308458e-01 1.20728411234785e-03
1.71166666666667e+00 1.54334183390930e-01 1.20424490578766e-03
1.72922222222222e+00 1.53154132752317e-01 1.20115016073927e-03
1.74677777777778e+00 1.51983104865648e-01 1.19800162017808e-03
1.76433333333333e+00 1.50821030742352e-01 1.19480097772950e-03
1.78188888888889e+00 1.49667841927834e-01 1.19154988914076e-03
1.79944444444444e+00 1.48523470477917e-01 1.18824996696493e-03
1.81700000000000e+00 1.47387848980672e-01 1.18490278324424e-03
1.83455555555556e+00 1.46260910527108e-01 1.18150987099325e-03
1.85211111111111e+00 1.45142588732090e-01 1.17807272506849e-03
1.86966666666667e+00 1.44032817706035e-01 1.17459280355205e-03
1.88722222222222e+00 1.42931532074967e-01 1.17107152854573e-03
1.90477777777778e+00 1.41838666953170e-01 1.16751028893409e-03
1.92233333333333e+00 1.40754157956855e-01 1.16391043522031e-03
1.93988888888889e+00 1.39677941200068e-01 1.16027328952297e-03
1.95744444444444e+00 1.38609953274208e-01 1.15660014058297e-03
1.97500000000000e+00 1.37550131266421e-01 1.15289224593940e-03
1.99255555555556e+00 1.36498412734168e-01 1.14915083303325e-03
2.01011111111111e+00 1.35454735722881e-01 1.14537709978582e-03
2.02766666666667e+00 1.34419038741358e-01 1.14157221563570e-03
2.04522222222222e+00 1.33391260778724e-01 1.13773732206914e-03
2.06277777777778e+00 1.32371341280618e-01 1.13387353491490e-03
2.08033333333333e+00 1.31359220160676e-01 1.12998193954707e-03
2.09788888888889e+00 1.30354837796748e-01 1.12606359968767e-03
2.11544444444444e+00 1.29358135012969e-01 1.12211955277433e-03
2.13300000000000e+00 1.28369053095360e-01 1.11815081176941e-03
2.15055555555556e+00 1.27387533769612e-01 1.11415836600675e-03
2.16811111111111e+00 1.26413519216091e-01 1.11014318158228e-03
2.18566666666667e+00 1.25446952048307e-01 1.10610620215403e-03
2.20322222222222e+00 1.24487775327347e-01 1.10204834930147e-03
2.22077777777778e+00 1.23535932541012e-01 1.09797052446911e-03
2.23833333333333e+00 1.22591367613530e-01 1.09387360454367e-03
2.25588888888889e+00 1.21654024902035e-01 1.08975844966422e-03
2.27344444444444e+00 1.20723849180797e-01 1.08562589895302e-03
2.29100000000000e+00 1.19800785654522e-01 1.08147677204932e-03
2.30855555555556e+00 1.18884779938846e-01 1.07731186977491e-03
2.32611111111111e+00 1.17975778073138e-01 1.07313197440027e-03
2.34366666666667e+00 1.17073726501578e-01 1.06893785027676e-03
2.36122222222222e+00 1.16178572085487e-01 1.06473024408187e-03
2.37877777777778e+00 1.15290262084963e-01 1.06050988649008e-03
2.39633333333333e+00 1.14408744167127e-01 1.05627748811186e-03
2.41388888888889e+00 1.13533966402857e-01 1.05203374646334e-03
2.43144444444444e+00 1.12665877252837e-01 1.04777934204675e-03
2.44900000000000e+00 1.11804425578956e-01 1.04351493966974e-03
2.46655555555556e+00 1.10949560627091e-01 1.03924118897930e-03
2.48411111111111e+00 1.10101232038096e-01 1.03495872464370e-03
2.50166666666667e+00 1.09259389831078e-01 1.03066816686180e-03
2.51922222222222e+00 1.08423984413990e-01 1.02637012153059e-03
2.53677777777778e+00 1.07594966567388e-01 1.02206518169830e-03
2.55433333333333e+00 1.06772287451460e-01 1.01775392384389e-03
2.57188888888889e+00 1.05955898602991e-01 1.01343691412458e-03
2.58944444444444e+00 1.05145751922976e-01 1.00911470478469e-03
2.60700000000000e+00 1.04341799686424e-01 1.00478783530350e-03
2.62455555555556e+00 1.03543994527106e-01 1.00045683283101e-03
2.64211111111111e+00 1.02752289447008e-01 9.96122212311514e-04
2.65966666666667e+00 1.01966637801512e-01 9.91784476900808e-04
2.67722222222222e+00 1.01186993308512e-01 9.87444118079580e-04
2.69477777777778e+00 1.00413310034003e-01 9.83101616928588e-04
2.71233333333333e+00 9.96455423980877e-02 9.78757440724130e-04
2.72988888888889e+00 9.88836451721577e-02 9.74412048558454e-04
2.74744444444444e+00 9.81275734678516e-02 9.70065888052849e-04
2.76500000000000e+00 9.73772827455175e-02 9.65719396365296e-04
2.78255555555556e+00 9.66327288006502e-02 9.61373000551182e-04
2.80011111111111e+00 9.58938677720613e-02 9.57027117645874e-04
2.81766666666667e+00 9.51606561286824e-02 9.52682155011085e-04
2.83522222222222e+00 9.44330506774547e-02 9.48338510410477e-04
2.85277777777778e+00 9.37110085504860e-02 9.43996573136569e-04
2.87033333333333e+00 9.29944872102058e-02 9.39656720896564e-04
2.88788888888889e+00 9.22834444467398e-02 9.35319324883701e-04
2.90544444444444e+00 9.15778383680399e-02 9.30984746770279e-04
2.92300000000000e+00 9.08776274072093e-02 9.26653339598289e-04
2.94055555555556e+00 9.01827703104042e-02 9.22325448081639e-04
2.95811111111111e+00 8.94932261439121e-02 9.18001408659837e-04
2.97566666666667e+00 8.88089542823697e-02 9.13681549788661e-04
2.99322222222222e+00 8.81299144156041e-02 9.09366191988760e-04
3.01077777777778e+00 8.74560665371577e-02 9.05055648847282e-04
3.02833333333333e+00 8.67873709487196e-02 9.00750224169758e-04
3.04588888888889e+00 8.61237882576827e-02 8.96450216567321e-04
3.06344444444444e+00 8.54652793682928e-02 8.92155916705615e-04
3.08100000000000e+00 8.48118054880084e-02 8.87867608096814e-04
3.09855555555556e+00 8.41633281166762e-02 8.83585567355399e-04
3.11611111111111e+00 8.35198090526806e-02 8.79310064230836e-04
3.13366666666667e+00 8.28812103823949e-02 8.75041361854256e-04
3.15122222222222e+00 8.22474944861285e-02 8.70779716767623e-04
3.16877777777778e+00 8.16186240278453e-02 8.66525379818126e-04
3.18633333333333e+00 8.09945619589819e-02 8.62278593552774e-04
3.20388888888889e+00 8.03752715161732e-02 8.58039596376369e-04
3.22144444444444e+00 7.97607162132952e-02 8.53808620034432e-04
3.23900000000000e+00 7.91508598469997e-02 8.49585890320467e-04
3.25655555555556e+00 7.85456664870053e-02 8.45371627294449e-04
3.27411111111111e+00 7.79451004814509e-02 8.41166045300563e-04
3.29166666666667e+00 7.73491264474287e-02 8.36969353177915e-04
3.30922222222222e+00 7.67577092761646e-02 8.32781754275792e-04
3.32677777777778e+00 7.61708141237849e-02 8.28603447255451e-04
3.34433333333333e+00 7.55884064146111e-02 8.24434623706081e-04
3.36188888888889e+00 7.50104518390412e-02 8.20275471920368e-04
3.37944444444444e+00 7.44369163463808e-02 8.16126174590668e-04
3.39700000000000e+00 7.38677661496691e-02 8.11986909443317e-04
3.41455555555556e+00 7.33029677169495e-02 8.07857849426441e-04
3.43211111111111e+00 7.27424877759414e-02 8.03739162716759e-04
3.44966666666667e+00 7.21862933055233e-02 7.99631012901176e-04
3.46722222222222e+00 7.16343515402549e-02 7.95533558981832e-04
3.48477777777778e+00 7.10866299620669e-02 7.91446956097214e-04
3.50233333333333e+00 7.05430963031074e-02 7.87371353339714e-04
3.51988888888889e+00 7.00037185437695e-02 7.83306897189400e-04
3.53744444444444e+00 6.94684649062171e-02 7.79253729404560e-04
3.55500000000000e+00 6.89373038586022e-02 7.75211987592235e-04
3.57255555555556e+00 6.84102041071998e-02 7.71181805370808e-04
3.59011111111111e+00 6.78871346004915e-02 7.67163312368994e-04
3.60766666666667e+00 6.73680645214877e-02 7.63156634383195e-04
3.62522222222222e+00 6.68529632916826e-02 7.59161893375100e-04
3.64277777777778e+00 6.63418005635592e-02 7.55179208122083e-04
3.66033333333333e+00 6.58345462230519e-02 7.51208692218501e-04
3.67788888888889e+00 6.53311703877085e-02 7.47250457202822e-04
3.69544444444444e+00 6.48316434008341e-02 7.43304610625114e-04
3.71300000000000e+00 6.43359358351816e-02 7.39371256561835e-04
3.73055555555556e+00 6.38440184858518e-02 7.35450495757321e-04
3.74811111111111e+00 6.33558623738685e-02 7.31542425616988e-04
3.76566666666667e+00 6.28714387392451e-02 7.27647140344466e-04
3.78322222222222e+00 6.23907190444482e-02 7.23764730934129e-04
3.80077777777778e+00 6.19136749676255e-02 7.19895285758875e-04
3.81833333333333e+00 6.14402784047386e-02 7.16038888738659e-04
3.83588888888889e+00 6.09705014678503e-02 7.12195622191992e-04
3.85344444444444e+00 6.05043164798179e-02 7.08365565064770e-04
3.87100000000000e+00 6.00416959775276e-02 7.04548793395678e-04
3.88855555555556e+00 5.95826127054744e-02 7.00745380439864e-04
3.90611111111111e+00 5.91270396188964e-02 6.96955396658357e-04
3.92366666666667e+00 5.86749498775028e-02 6.93178909837873e-04
3.94122222222222e+00 5.82263168485113e-02 6.89415985079623e-04
3.95877777777778e+00 5.77811141005194e-02 6.85666685331817e-04
3.97633333333333e+00 5.73393154053522e-02 6.81931069710589e-04
3.99388888888889e+00 5.69008947364669e-02 6.78209196102914e-04
4.01144444444444e+00 5.64658262641362e-02 6.74501119542529e-04
4.02900000000000e+00 5.60340843582865e-02 6.70806892631620e-04
4.04655555555556e+00 5.56056435826834e-02 6.67126565649299e-04
4.06411111111111e+00 5.51804786976830e-02 6.63460186538254e-04
4.08166666666667e+00 5.47585646545492e-02 6.59807801010083e-04
4.09922222222222e+00 5.43398765981206e-02 6.56169452531499e-04
4.11677777777778e+00 5.39243898612561e-02 6.52545182807452e-04
4.13433333333333e+00 5.35120799664359e-02 6.48935030241082e-04
4.15188888888889e+00 5.31029226242751e-02 6.45339032312120e-04
4.16944444444445e+00 5.26968937291458e-02 6.41757224086817e-04
4.18700000000000e+00 5.22939693616705e-02 6.38189638600775e-04
4.20455555555556e+00 5.18941257834483e-02 6.34636306954461e-04
4.22211111111111e+00 5.14973394394727e-02 6.31097258297891e-04
4.23966666666667e+00 5.11035869529755e-02 6.27572519923720e-04
4.25722222222222e+00 5.07128451277707e-02 6.24062117251534e-04
4.27477777777778e+00 5.03250909432134e-02 6.20566074266944e-04
4.29233333333333e+00 4.99403015555879e-02 6.17084412108404e-04
4.30988888888889e+00 4.95584542967221e-02 6.13617151242231e-04
4.32744444444444e+00 4.91795266700038e-02 6.10164310095030e-04
4.34500000000000e+00 4.88034963525723e-02 6.06725905401575e-04
4.36255555555556e+00 4.84303411905300e-02 6.03301952289322e-04
4.38011111111111e+00 4.80600392010678e-02 5.99892464261978e-04
4.39766666666667e+00 4.76925685677812e-02 5.96497453281533e-04
4.41522222222222e+00 4.73279076427328e-02 5.93116929751771e-04
4.43277777777778e+00 4.69660349418702e-02 5.89750902917829e-04
4.45033333333333e+00 4.66069291462302e-02 5.86399379568529e-04
4.46788888888889e+00 4.62505691006468e-02 5.83062366027345e-04
4.48544444444445e+00 4.58969338101215e-02 5.79739866896503e-04
4.50300000000000e+00 4.55460024417523e-02 5.76431885373625e-04
4.52055555555556e+00 4.51977543203790e-02 5.73138423326612e-04
4.53811111111111e+00 4.48521689304546e-02 5.69859481276531e-04
4.55566666666667e+00 4.45092259117848e-02 5.66595058470399e-04
4.57322222222222e+00 4.41689050613432e-02 5.63345152864046e-04
4.59077777777778e+00 4.38311863291029e-02 5.60109761486140e-04
4.60833333333333e+00 4.34960498190802e-02 5.56888879246284e-04
4.62588888888889e+00 4.31634757881304e-02 5.53682500758633e-04
4.64344444444444e+00 4.28334446426364e-02 5.50490619188092e-04
4.66100000000000e+00 4.25059369402082e-02 5.47313226538885e-04
4.67855555555556e+00 4.21809333857179e-02 5.44150313721079e-04
4.69611111111111e+00 4.18584148329486e-02 5.41001870533147e-04
4.71366666666667e+00 4.15383622807144e-02 5.37867885726718e-04
4.73122222222222e+00 4.12207568744601e-02 5.34748346989120e-04
4.74877777777778e+00 4.09055799024637e-02 5.31643241275479e-04
4.76633333333333e+00 4.05928127967413e-02 5.28552553713398e-04
4.78388888888889e+00 4.02824371319243e-02 5.25476269274465e-04
4.80144444444444e+00 3.99744346222357e-02 5.22414371713760e-04
4.81900000000000e+00 3.96687871229877e-02 5.19366843833118e-04
4.83655555555556e+00 3.93654766269686e-02 5.16333667540395e-04
4.85411111111111e+00 3.90644852658957e-02 5.13314823831990e-04
4.87166666666667e+00 3.87657953068788e-02 5.10310292850527e-04
4.88922222222222e+00 3.84693891538298e-02 5.07320053867422e-04
4.90677777777778e+00 3.81752493440009e-02 5.04344085586075e-04
4.92433333333333e+00 3.78833585487679e-02 5.01382365134906e-04
4.94188888888889e+00 3.75936995725833e-02 4.98434869600469e-04
4.95944444444445e+00 3.73062553502127e-02 4.95501575052276e-04
4.97700000000000e+00 3.70210089480555e-02 4.92582456783165e-04
4.99455555555556e+00 3.67379435608485e-02 4.89677489362224e-04
5.01211111111111e+00 3.64570425129476e-02 4.86786646617454e-04
5.02966666666667e+00 3.61782892551004e-02 4.83909901687293e-04
5.04722222222222e+00 3.59016673656897e-02 4.81047227003497e-04
5.06477777777778e+00 3.56271605475737e-02 4.78198594568093e-04
5.08233333333333e+00 3.53547526287641e-02 4.75363975027212e-04
5.09988888888889e+00 3.50844275614501e-02 4.72543339078115e-04
5.11744444444444e+00 3.48161694194696e-02 4.69736656572155e-04
5.13500000000000e+00 3.45499623994751e-02 4.66943896734466e-04
5.15255555555556e+00 3.42857908179230e-02 4.64165028211171e-04
5.17011111111111e+00 3.40236391122047e-02 4.61400019052577e-04
5.18766666666667e+00 3.37634918376989e-02 4.58648836759100e-04
5.20522222222222e+00 3.35053336688691e-02 4.55911448264477e-04
5.22277777777778e+00 3.32491493963764e-02 4.53187820189223e-04
5.24033333333333e+00 3.29949239276662e-02 4.50477917988356e-04
5.25788888888889e+00 3.27426422860583e-02 4.47781707243336e-04
5.27544444444445e+00 3.24922896084314e-02 4.45099152836600e-04
5.29300000000000e+00 3.22438511462514e-02 4.42430219152537e-04
5.31055555555556e+00 3.19973122628211e-02 4.39774870119771e-04
5.32811111111111e+00 3.17526584342772e-02 4.37133069194705e-04
5.34566666666667e+00 3.15098752468970e-02 4.34504779402685e-04
5.36322222222222e+00 3.12689483980657e-02 4.31889963321759e-04
5.38077777777778e+00 3.10298636936380e-02 4.29288583314493e-04
5.39833333333333e+00 3.07926070484442e-02 4.26700600743650e-04
5.41588888888889e+00 3.05571644854412e-02 4.24125977159052e-04
5.43344444444444e+00 3.03235221335918e-02 4.21564673537594e-04
5.45100000000000e+00 3.00916662287717e-02 4.19016650467266e-04
5.46855555555556e+00 2.98615831112538e-02 4.16481868185015e-04
5.48611111111111e+00 2.96332592265890e-02 4.13960286560879e-04
5.50366666666667e+00 2.94066811231415e-02 4.11451865134858e-04
5.52122222222222e+00 2.91818354529433e-02 4.08956563101204e-04
5.53877777777778e+00 2.89587089692796e-02 4.06474339520811e-04
