Energy (eV)          EEDF (eV^-(3/2))     First Anisotropy
2.50000000000000e-03 4.98476099615837e-01 1.04599589003218e+00
7.50000000000000e-03 4.46176305114228e-01 8.15364132871080e-01
1.25000000000000e-02 4.16939686328729e-01 4.87279024977039e-01
1.75000000000000e-02 3.97448402616524e-01 3.41099597895984e-01
2.25000000000000e-02 3.82829726539131e-01 2.63138329365515e-01
2.75000000000000e-02 3.71134569679973e-01 2.14413370632212e-01
3.25000000000000e-02 3.61388389475910e-01 1.81002640685352e-01
3.75000000000000e-02 3.53034305611438e-01 1.56641207376094e-01
4.25000000000000e-02 3.45724268738300e-01 1.38080590006403e-01
4.75000000000000e-02 3.39226246610797e-01 1.23464515631078e-01
5.25000000000000e-02 3.33377817175193e-01 1.11653908879613e-01
5.75000000000000e-02 3.28060855722836e-01 1.01910481036057e-01
6.25000000000000e-02 3.23186769071587e-01 9.37344680864743e-02
6.75000000000000e-02 3.18687408914189e-01 8.67753866802001e-02
7.25000000000000e-02 3.14509230403567e-01 8.07801103478673e-02
7.75000000000000e-02 3.10609397879402e-01 7.55612284615975e-02
8.25000000000000e-02 3.06953107557407e-01 7.09770021475359e-02
8.75000000000000e-02 3.03511697664648e-01 6.69182401880897e-02
9.25000000000000e-02 3.00261283538598e-01 6.32994575296364e-02
9.75000000000000e-02 2.97181751911685e-01 6.00527691306873e-02
1.02500000000000e-01 2.94256006625529e-01 5.71235797398845e-02
1.07500000000000e-01 2.91469393937696e-01 5.44674818444429e-02
1.12500000000000e-01 2.88809258441085e-01 5.20479841466398e-02
1.17500000000000e-01 2.86264595523032e-01 4.98348221195055e-02
1.22500000000000e-01 2.83825776229135e-01 4.78026836841433e-02
1.27500000000000e-01 2.81484327154618e-01 4.59302356458435e-02
1.32500000000000e-01 2.79232752664550e-01 4.41993711815974e-02
1.37500000000000e-01 2.77064390036458e-01 4.25946219402601e-02
1.42500000000000e-01 2.74973290470524e-01 4.11026942102954e-02
1.47500000000000e-01 2.72954120615429e-01 3.97120996383077e-02
1.52500000000000e-01 2.71002080506693e-01 3.84128587452975e-02
1.57500000000000e-01 2.69112834740899e-01 3.71962610265719e-02
1.62500000000000e-01 2.67282454404036e-01 3.60546694221059e-02
1.67500000000000e-01 2.65507367798688e-01 3.49813598674031e-02
1.72500000000000e-01 2.63784318417296e-01 3.39703887937232e-02
1.77500000000000e-01 2.62110328919316e-01 3.30164830567831e-02
1.82500000000000e-01 2.60482670111618e-01 3.21149479854210e-02
1.87500000000000e-01 2.58898834120774e-01 3.12615901625041e-02
1.92500000000000e-01 2.57356511095367e-01 3.04526522554954e-02
1.97500000000000e-01 2.55853568895224e-01 2.96847577582798e-02
2.02500000000000e-01 2.54388035319539e-01 2.89548639288922e-02
2.07500000000000e-01 2.52958082502335e-01 2.82602215389538e-02
2.12500000000000e-01 2.51562013165644e-01 2.75983403115232e-02
2.17500000000000e-01 2.50198248471183e-01 2.69669591309202e-02
2.22500000000000e-01 2.48865317252552e-01 2.63640202730533e-02
2.27500000000000e-01 2.47561846443877e-01 2.57876470370669e-02
2.32500000000000e-01 2.46286552548845e-01 2.52361242657467e-02
2.37500000000000e-01 2.45038234017303e-01 2.47078813285823e-02
2.42500000000000e-01 2.43815764415987e-01 2.42014772117124e-02
2.47500000000000e-01 2.42618086296132e-01 2.37155874165418e-02
2.52500000000000e-01 2.41444205674333e-01 2.32489924161186e-02
2.57500000000000e-01 2.40293187054520e-01 2.28005674573639e-02
2.62500000000000e-01 2.39164148928596e-01 2.23692735295619e-02
2.67500000000000e-01 2.38056259701564e-01 2.19541493464015e-02
2.72500000000000e-01 2.36968733993956e-01 2.15543042112859e-02
2.77500000000000e-01 2.35900829280435e-01 2.11689116544439e-02
2.82500000000000e-01 2.34851842828512e-01 2.07972037461529e-02
2.87500000000000e-01 2.33821108905820e-01 2.04384660036952e-02
2.92500000000000e-01 2.32807996228142e-01 2.00920328209742e-02
2.97500000000000e-01 2.31811905623722e-01 1.97572833592646e-02
3.02500000000000e-01 2.30832267892216e-01 1.94336378456966e-02
3.07500000000000e-01 2.29868541839153e-01 1.91205542330469e-02
3.12500000000000e-01 2.28920212468911e-01 1.88175251803513e-02
3.17500000000000e-01 2.27986789321117e-01 1.85240753189489e-02
3.22500000000000e-01 2.27067804937016e-01 1.82397587729644e-02
3.27500000000000e-01 2.26162813443821e-01 1.79641569070235e-02
3.32500000000000e-01 2.25271389246314e-01 1.76968762772781e-02
3.37500000000000e-01 2.24393125816093e-01 1.74375467646290e-02
3.42500000000000e-01 2.23527634569851e-01 1.71858198715361e-02
3.47500000000000e-01 2.22674543828940e-01 1.69413671659277e-02
3.52500000000000e-01 2.21833497853258e-01 1.67038788575943e-02
3.57500000000000e-01 2.21004155943180e-01 1.64730624940884e-02
3.62500000000000e-01 2.20186191603849e-01 1.62486417645949e-02
3.67500000000000e-01 2.19379291766721e-01 1.60303554014785e-02
3.72500000000000e-01 2.18583156063702e-01 1.58179561703253e-02
3.77500000000000e-01 2.17797496149688e-01 1.56112099402825e-02
3.82500000000000e-01 2.17022035069673e-01 1.54098948273348e-02
3.87500000000000e-01 2.16256506666955e-01 1.52138004039243e-02
3.92500000000000e-01 2.15500655029281e-01 1.50227269690065e-02
3.97500000000000e-01 2.14754233970054e-01 1.48364848732152e-02
4.02500000000000e-01 2.14017006541959e-01 1.46548938943369e-02
4.07500000000000e-01 2.13288744580620e-01 1.44777826587814e-02
4.12500000000000e-01 2.12569228276081e-01 1.43049881051413e-02
4.17500000000000e-01 2.11858245770106e-01 1.41363549863022e-02
4.22500000000000e-01 2.11155592777451e-01 1.39717354069216e-02
4.27500000000000e-01 2.10461072229414e-01 1.38109883933793e-02
4.32500000000000e-01 2.09774493938113e-01 1.36539794935533e-02
4.37500000000000e-01 2.09095674280059e-01 1.35005804040600e-02
4.42500000000000e-01 2.08424435897707e-01 1.33506686227697e-02
4.47500000000000e-01 2.07760607417782e-01 1.32041271246192e-02
4.52500000000000e-01 2.07104023185245e-01 1.30608440589286e-02
4.57500000000000e-01 2.06454523011889e-01 1.29207124665659e-02
4.62500000000000e-01 2.05811951938589e-01 1.27836300154668e-02
4.67500000000000e-01 2.05176160010342e-01 1.26494987531312e-02
4.72500000000000e-01 2.04547002063275e-01 1.25182248748351e-02
4.77500000000000e-01 2.03924337522859e-01 1.23897185064137e-02
4.82500000000000e-01 2.03308030212634e-01 1.22638935005440e-02
4.87500000000000e-01 2.02697948172804e-01 1.21406672455768e-02
4.92500000000000e-01 2.02093963488076e-01 1.20199604860147e-02
4.97500000000000e-01 2.01495952124203e-01 1.19016971538091e-02
5.02500000000000e-01 2.00903793772695e-01 1.17858042097421e-02
5.07500000000000e-01 2.00317371703229e-01 1.16722114941864e-02
5.12500000000000e-01 1.99736572623277e-01 1.15608515865959e-02
5.17500000000000e-01 1.99161286544569e-01 1.14516596731479e-02
5.22500000000000e-01 1.98591406655962e-01 1.13445734219875e-02
5.27500000000000e-01 1.98026829202370e-01 1.12395328655654e-02
5.32500000000000e-01 1.97467453369406e-01 1.11364802896102e-02
5.37500000000000e-01 1.96913181173409e-01 1.10353601282981e-02
5.42500000000000e-01 1.96363917356576e-01 1.09361188652174e-02
5.47500000000000e-01 1.95819569286887e-01 1.08387049397618e-02
5.52500000000000e-01 1.95280046862600e-01 1.07430686586130e-02
5.57500000000000e-01 1.94745262421026e-01 1.06491621119820e-02
5.62500000000000e-01 1.94215130651401e-01 1.05569390943175e-02
5.67500000000000e-01 1.93689568511594e-01 1.04663550292131e-02
5.72500000000000e-01 1.93168495148480e-01 1.03773668982443e-02
5.77500000000000e-01 1.92651831821770e-01 1.02899331735040e-02
5.82500000000000e-01 1.92139501831130e-01 1.02040137536163e-02
5.87500000000000e-01 1.91631430446408e-01 1.01195699030188e-02
5.92500000000000e-01 1.91127544840828e-01 1.00365641943145e-02
5.97500000000000e-01 1.90627774026977e-01 9.95496045352096e-03
6.02500000000000e-01 1.90132048795476e-01 9.87472370805043e-03
6.07500000000000e-01 1.89640301656172e-01 9.79582013725527e-03
6.12500000000000e-01 1.89152466781750e-01 9.71821702539621e-03
6.17500000000000e-01 1.88668479953632e-01 9.64188271689842e-03
6.22500000000000e-01 1.88188278510060e-01 9.56678657375920e-03
6.27500000000000e-01 1.87711801296256e-01 9.49289893499961e-03
6.32500000000000e-01 1.87238988616560e-01 9.42019107803532e-03
6.37500000000000e-01 1.86769782188453e-01 9.34863518186529e-03
6.42500000000000e-01 1.86304125098374e-01 9.27820429198201e-03
6.47500000000000e-01 1.85841961759255e-01 9.20887228690576e-03
6.52500000000000e-01 1.85383237869683e-01 9.14061384625936e-03
6.57500000000000e-01 1.84927900374629e-01 9.07340442029975e-03
6.62500000000000e-01 1.84475897427653e-01 9.00722020082595e-03
6.67500000000000e-01 1.84027178354546e-01 8.94203809340105e-03
6.72500000000000e-01 1.83581693618313e-01 8.87783569081008e-03
6.77500000000000e-01 1.83139394785465e-01 8.81459124769224e-03
6.82500000000000e-01 1.82700234493544e-01 8.75228365629144e-03
6.87500000000000e-01 1.82264166419836e-01 8.69089242326260e-03
6.92500000000000e-01 1.81831145251218e-01 8.63039764748469e-03
6.97500000000000e-01 1.81401126655087e-01 8.57077999882744e-03
7.02500000000000e-01 1.80974067251335e-01 8.51202069782508e-03
7.07500000000000e-01 1.80549924585305e-01 8.45410149621278e-03
7.12500000000000e-01 1.80128657101714e-01 8.39700465828264e-03
7.17500000000000e-01 1.79710224119477e-01 8.34071294301603e-03
7.22500000000000e-01 1.79294585807412e-01 8.28520958696483e-03
7.27500000000000e-01 1.78881703160780e-01 8.23047828783230e-03
7.32500000000000e-01 1.78471537978629e-01 8.17650318872987e-03
7.37500000000000e-01 1.78064052841907e-01 8.12326886307502e-03
7.42500000000000e-01 1.77659211092321e-01 8.07076030009513e-03
7.47500000000000e-01 1.77256976811898e-01 8.01896289091913e-03
7.52500000000000e-01 1.76857314803229e-01 7.96786241521991e-03
7.57500000000000e-01 1.76460190570376e-01 7.91744502838726e-03
7.62500000000000e-01 1.76065570300391e-01 7.86769724920311e-03
7.67500000000000e-01 1.75673420845455e-01 7.81860594800149e-03
7.72500000000000e-01 1.75283709705591e-01 7.77015833529127e-03
7.77500000000000e-01 1.74896405011926e-01 7.72234195080879e-03
7.82500000000000e-01 1.74511475510510e-01 7.67514465299962e-03
7.87500000000000e-01 1.74128890546626e-01 7.62855460889500e-03
7.92500000000000e-01 1.73748620049620e-01 7.58256028437432e-03
7.97500000000000e-01 1.73370634518189e-01 7.53715043479708e-03
8.02500000000000e-01 1.72994905006140e-01 7.49231409597567e-03
8.07500000000000e-01 1.72621403108591e-01 7.44804057549231e-03
8.12500000000000e-01 1.72250100948591e-01 7.40431944433462e-03
8.17500000000000e-01 1.71880971164158e-01 7.36114052883707e-03
8.22500000000000e-01 1.71513986895707e-01 7.31849390291667e-03
8.27500000000000e-01 1.71149121773866e-01 7.27636988059083e-03
8.32500000000000e-01 1.70786349907648e-01 7.23475900876180e-03
8.37500000000000e-01 1.70425645872990e-01 7.19365206026418e-03
8.42500000000000e-01 1.70066984701622e-01 7.15304002716077e-03
8.47500000000000e-01 1.69710341870274e-01 7.11291411427006e-03
8.52500000000000e-01 1.69355693290195e-01 7.07326573292283e-03
8.57500000000000e-01 1.69003015296982e-01 7.03408649494253e-03
8.62500000000000e-01 1.68652284640701e-01 6.99536820683244e-03
8.67500000000000e-01 1.68303478476298e-01 6.95710286415990e-03
8.72500000000000e-01 1.67956574354285e-01 6.91928264613811e-03
8.77500000000000e-01 1.67611550211685e-01 6.88189991039034e-03
8.82500000000000e-01 1.67268384363246e-01 6.84494718789702e-03
8.87500000000000e-01 1.66927055492895e-01 6.80841717810826e-03
8.92500000000000e-01 1.66587542645435e-01 6.77230274422208e-03
8.97500000000000e-01 1.66249825218473e-01 6.73659690862444e-03
9.02500000000000e-01 1.65913882954572e-01 6.70129284847498e-03
9.07500000000000e-01 1.65579695933625e-01 6.66638389144325e-03
9.12500000000000e-01 1.65247244565428e-01 6.63186351158196e-03
9.17500000000000e-01 1.64916509582467e-01 6.59772532533659e-03
9.22500000000000e-01 1.64587472032894e-01 6.56396308768570e-03
9.27500000000000e-01 1.64260113273698e-01 6.53057068840418e-03
9.32500000000000e-01 1.63934414964054e-01 6.49754214844978e-03
9.37500000000000e-01 1.63610359058853e-01 6.46487161646198e-03
9.42500000000000e-01 1.63287927802408e-01 6.43255336537307e-03
9.47500000000000e-01 1.62967103722316e-01 6.40058178912772e-03
9.52500000000000e-01 1.62647869623495e-01 6.36895139950550e-03
9.57500000000000e-01 1.62330208582366e-01 6.33765682304416e-03
9.62500000000000e-01 1.62014103941191e-01 6.30669279805485e-03
9.67500000000000e-01 1.61699539302560e-01 6.27605417173493e-03
9.72500000000000e-01 1.61386498524017e-01 6.24573589736582e-03
9.77500000000000e-01 1.61074965712824e-01 6.21573303159761e-03
9.82500000000000e-01 1.60764925220857e-01 6.18604073182177e-03
9.87500000000000e-01 1.60456361639641e-01 6.15665425361650e-03
9.92500000000000e-01 1.60149259795496e-01 6.12756894827177e-03
9.97500000000000e-01 1.59843604744814e-01 6.09878026039096e-03
1.00250000000000e+00 1.59539381769457e-01 6.07028372556106e-03
1.00750000000000e+00 1.59236576372258e-01 6.04207496809644e-03
1.01250000000000e+00 1.58935174272647e-01 6.01414969884473e-03
1.01750000000000e+00 1.58635161402374e-01 5.98650371305964e-03
1.02250000000000e+00 1.58336523901341e-01 5.95913288833572e-03
1.02750000000000e+00 1.58039248113540e-01 5.93203318260627e-03
1.03250000000000e+00 1.57743320583080e-01 5.90520063219829e-03
1.03750000000000e+00 1.57448728050320e-01 5.87863134993649e-03
1.04250000000000e+00 1.57155457448087e-01 5.85232152331250e-03
1.04750000000000e+00 1.56863495897989e-01 5.82626741270048e-03
1.05250000000000e+00 1.56572830706817e-01 5.80046534962408e-03
1.05750000000000e+00 1.56283449363027e-01 5.77491173507527e-03
1.06250000000000e+00 1.55995339533309e-01 5.74960303787925e-03
1.06750000000000e+00 1.55708489059239e-01 5.72453579310406e-03
1.07250000000000e+00 1.55422885953999e-01 5.69970660051461e-03
1.07750000000000e+00 1.55138518399187e-01 5.67511212307248e-03
1.08250000000000e+00 1.54855374741692e-01 5.65074908547458e-03
1.08750000000000e+00 1.54573443490640e-01 5.62661427273320e-03
1.09250000000000e+00 1.54292713314418e-01 5.60270452879430e-03
1.09750000000000e+00 1.54013173037760e-01 5.57901675519695e-03
1.10250000000000e+00 1.53734811638899e-01 5.55554790976437e-03
1.10750000000000e+00 1.53457618246784e-01 5.53229500533214e-03
1.11250000000000e+00 1.53181582138365e-01 5.50925510851258e-03
1.11750000000000e+00 1.52906692735933e-01 5.48642533848953e-03
1.12250000000000e+00 1.52632939604516e-01 5.46380286585019e-03
1.12750000000000e+00 1.52360312449348e-01 5.44138491144153e-03
1.13250000000000e+00 1.52088801113372e-01 5.41916874526066e-03
1.13750000000000e+00 1.51818395574821e-01 5.39715168537513e-03
1.14250000000000e+00 1.51549085944835e-01 5.37533109686794e-03
1.14750000000000e+00 1.51280862465135e-01 5.35370439081417e-03
1.15250000000000e+00 1.51013715505753e-01 5.33226902328376e-03
1.15750000000000e+00 1.50747635562806e-01 5.31102249436755e-03
1.16250000000000e+00 1.50482613256317e-01 5.28996234723050e-03
1.16750000000000e+00 1.50218639328083e-01 5.26908616718974e-03
1.17250000000000e+00 1.49955704639598e-01 5.24839158081297e-03
1.17750000000000e+00 1.49693800170002e-01 5.22787625504312e-03
1.18250000000000e+00 1.49432917014093e-01 5.20753789634537e-03
1.18750000000000e+00 1.49173046380367e-01 5.18737424987203e-03
1.19250000000000e+00 1.48914179589106e-01 5.16738309865428e-03
1.19750000000000e+00 1.48656308070502e-01 5.14756226280860e-03
1.20250000000000e+00 1.48399423362825e-01 5.12790959876552e-03
1.20750000000000e+00 1.48143517110625e-01 5.10842299851794e-03
1.21250000000000e+00 1.47888581062973e-01 5.08910038888588e-03
1.21750000000000e+00 1.47634607071737e-01 5.06993973080350e-03
1.22250000000000e+00 1.47381587089893e-01 5.05093901861792e-03
1.22750000000000e+00 1.47129513169875e-01 5.03209627940898e-03
1.23250000000000e+00 1.46878377461952e-01 5.01340957232754e-03
1.23750000000000e+00 1.46628172212642e-01 4.99487698794460e-03
1.24250000000000e+00 1.46378889763158e-01 4.97649664761818e-03
1.24750000000000e+00 1.46130522547880e-01 4.95826670287719e-03
1.25250000000000e+00 1.45883063092870e-01 4.94018533482049e-03
1.25750000000000e+00 1.45636504014398e-01 4.92225075352570e-03
1.26250000000000e+00 1.45390838017517e-01 4.90446119747245e-03
1.26750000000000e+00 1.45146057894651e-01 4.88681493298893e-03
1.27250000000000e+00 1.44902156524218e-01 4.86931025369952e-03
1.27750000000000e+00 1.44659126869281e-01 4.85194547999168e-03
1.28250000000000e+00 1.44416961976219e-01 4.83471895849436e-03
1.28750000000000e+00 1.44175654973432e-01 4.81762906156424e-03
1.29250000000000e+00 1.43935199070063e-01 4.80067418679314e-03
1.29750000000000e+00 1.43695587554752e-01 4.78385275651888e-03
1.30250000000000e+00 1.43456813794411e-01 4.76716321734932e-03
1.30750000000000e+00 1.43218871233018e-01 4.75060403969801e-03
1.31250000000000e+00 1.42981753390441e-01 4.73417371733259e-03
1.31750000000000e+00 1.42745453861284e-01 4.71787076692903e-03
1.32250000000000e+00 1.42509966313748e-01 4.70169372763840e-03
1.32750000000000e+00 1.42275284488520e-01 4.68564116066522e-03
1.33250000000000e+00 1.42041402197682e-01 4.66971164885061e-03
1.33750000000000e+00 1.41808313323635e-01 4.65390379626979e-03
1.34250000000000e+00 1.41576011818055e-01 4.63821622783467e-03
1.34750000000000e+00 1.41344491700852e-01 4.62264758890801e-03
1.35250000000000e+00 1.41113747059164e-01 4.60719654492542e-03
1.35750000000000e+00 1.40883772046359e-01 4.59186178102422e-03
1.36250000000000e+00 1.40654560881062e-01 4.57664200168240e-03
1.36750000000000e+00 1.40426107846191e-01 4.56153593036496e-03
1.37250000000000e+00 1.40198407288025e-01 4.54654230917700e-03
1.37750000000000e+00 1.39971453615273e-01 4.53165989852511e-03
1.38250000000000e+00 1.39745241298173e-01 4.51688747678730e-03
1.38750000000000e+00 1.39519764867595e-01 4.50222383998777e-03
1.39250000000000e+00 1.39295018914174e-01 4.48766780148158e-03
1.39750000000000e+00 1.39070998087447e-01 4.47321819164070e-03
1.40250000000000e+00 1.38847697095010e-01 4.45887385755267e-03
1.40750000000000e+00 1.38625110701691e-01 4.44463366272602e-03
1.41250000000000e+00 1.38403233728737e-01 4.43049648679500e-03
1.41750000000000e+00 1.38182061053012e-01 4.41646122523703e-03
1.42250000000000e+00 1.37961587606213e-01 4.40252678909431e-03
1.42750000000000e+00 1.37741808374102e-01 4.38869210469983e-03
1.43250000000000e+00 1.37522718395743e-01 4.37495611341154e-03
1.43750000000000e+00 1.37304312762761e-01 4.36131777134890e-03
1.44250000000000e+00 1.37086586618609e-01 4.34777604913866e-03
1.44750000000000e+00 1.36869535157847e-01 4.33432993166449e-03
1.45250000000000e+00 1.36653153625442e-01 4.32097841782025e-03
1.45750000000000e+00 1.36437437316065e-01 4.30772052026768e-03
1.46250000000000e+00 1.36222381573415e-01 4.29455526520406e-03
1.46750000000000e+00 1.36007981789545e-01 4.28148169212966e-03
1.47250000000000e+00 1.35794233404202e-01 4.26849885362207e-03
1.47750000000000e+00 1.35581131904183e-01 4.25560581511608e-03
1.48250000000000e+00 1.35368672822691e-01 4.24280165468333e-03
1.48750000000000e+00 1.35156851738714e-01 4.23008546282300e-03
1.49250000000000e+00 1.34945664276408e-01 4.21745634225146e-03
1.49750000000000e+00 1.34735106104489e-01 4.20491340769963e-03
1.50250000000000e+00 1.34525172935638e-01 4.19245578571120e-03
1.50750000000000e+00 1.34315860525918e-01 4.18008261444724e-03
1.51250000000000e+00 1.34107164674194e-01 4.16779304349441e-03
1.51750000000000e+00 1.33899081221569e-01 4.15558623367701e-03
1.52250000000000e+00 1.33691606050826e-01 4.14346135687055e-03
1.52750000000000e+00 1.33484735085882e-01 4.13141759582181e-03
1.53250000000000e+00 1.33278464291244e-01 4.11945414397180e-03
1.53750000000000e+00 1.33072789671484e-01 4.10757020528008e-03
1.54250000000000e+00 1.32867707270716e-01 4.09576499405595e-03
1.54750000000000e+00 1.32663213172079e-01 4.08403773478949e-03
1.55250000000000e+00 1.32459303497237e-01 4.07238766198942e-03
1.55750000000000e+00 1.32255974405880e-01 4.06081402001907e-03
1.56250000000000e+00 1.32053222095235e-01 4.04931606294151e-03
1.56750000000000e+00 1.31851042799586e-01 4.03789305436497e-03
1.57250000000000e+00 1.31649432789799e-01 4.02654426728682e-03
1.57750000000000e+00 1.31448388372857e-01 4.01526898394872e-03
