Energy (eV)          EEDF (eV^-(3/2))     First Anisotropy
5.00000000000000e-03 4.60854591507685e-01 5.50486223419074e-01
1.50000000000000e-02 4.05805969165777e-01 4.21498582614666e-01
2.50000000000000e-02 3.76554874984752e-01 2.43763081317941e-01
3.50000000000000e-02 3.57053352902189e-01 1.70642336950910e-01
4.50000000000000e-02 3.42426407594570e-01 1.31646508623584e-01
5.50000000000000e-02 3.30724051177472e-01 1.07275556486656e-01
6.50000000000000e-02 3.20971296297238e-01 9.05651962535173e-02
7.50000000000000e-02 3.12611011926769e-01 7.83815086051862e-02
8.50000000000000e-02 3.05294994576201e-01 6.90995036134473e-02
9.50000000000000e-02 2.98791111204079e-01 6.17906190811127e-02
1.05000000000000e-01 2.92936870759978e-01 5.58850578944559e-02
1.15000000000000e-01 2.87614099625188e-01 5.10135088589533e-02
1.25000000000000e-01 2.82734168988188e-01 4.69259780127620e-02
1.35000000000000e-01 2.78228904022636e-01 4.34471459194341e-02
1.45000000000000e-01 2.74044739804301e-01 4.04503937739276e-02
1.55000000000000e-01 2.70138825267850e-01 3.78419755906359e-02
1.65000000000000e-01 2.66476344686174e-01 3.55509915554691e-02
1.75000000000000e-01 2.63028626956756e-01 3.35228229730358e-02
1.85000000000000e-01 2.59771780091567e-01 3.17147095045037e-02
1.95000000000000e-01 2.56685685055856e-01 3.00926947050509e-02
2.05000000000000e-01 2.53753241150556e-01 2.86294699383152e-02
2.15000000000000e-01 2.50959791068193e-01 2.73028226524602e-02
2.25000000000000e-01 2.48292676620064e-01 2.60945001096778e-02
2.35000000000000e-01 2.45740891046257e-01 2.49893642876035e-02
2.45000000000000e-01 2.43294803762544e-01 2.39747544355820e-02
2.55000000000000e-01 2.40945940159141e-01 2.30400000782124e-02
2.65000000000000e-01 2.38686803746901e-01 2.21760445942912e-02
2.75000000000000e-01 2.36510731240283e-01 2.13751511389440e-02
2.85000000000000e-01 2.34411773519112e-01 2.06306706272143e-02
2.95000000000000e-01 2.32384597114840e-01 1.99368570140379e-02
3.05000000000000e-01 2.30424402116305e-01 1.92887189891724e-02
3.15000000000000e-01 2.28526853317005e-01 1.86818999763934e-02
3.25000000000000e-01 2.26688022121026e-01 1.81125803276330e-02
3.35000000000000e-01 2.24904337251479e-01 1.75773970650071e-02
3.45000000000000e-01 2.23172542708025e-01 1.70733776035724e-02
3.55000000000000e-01 2.21489661730764e-01 1.65978846931597e-02
3.65000000000000e-01 2.19852965769393e-01 1.61485704240662e-02
3.75000000000000e-01 2.18259947645951e-01 1.57233376020030e-02
3.85000000000000e-01 2.16708298248992e-01 1.53203071504258e-02
3.95000000000000e-01 2.15195886215866e-01 1.49377904705737e-02
4.05000000000000e-01 2.13720740154877e-01 1.45742659011756e-02
4.15000000000000e-01 2.12281033035631e-01 1.42283585854226e-02
4.25000000000000e-01 2.10875068437793e-01 1.38988231833136e-02
4.35000000000000e-01 2.09501268398968e-01 1.35845289709705e-02
4.45000000000000e-01 2.08158162643599e-01 1.32844469510171e-02
4.55000000000000e-01 2.06844379008764e-01 1.29976386643017e-02
4.65000000000000e-01 2.05558634910739e-01 1.27232464465805e-02
4.75000000000000e-01 2.04299729719448e-01 1.24604849170115e-02
4.85000000000000e-01 2.03066537927336e-01 1.22086335205059e-02
4.95000000000000e-01 2.01858003015347e-01 1.19670299747707e-02
5.05000000000000e-01 2.00673131932382e-01 1.17350644965274e-02
5.15000000000000e-01 1.99510990116042e-01 1.15121747009148e-02
5.25000000000000e-01 1.98370696992199e-01 1.12978410842461e-02
5.35000000000000e-01 1.97251421899192e-01 1.10915830137255e-02
5.45000000000000e-01 1.96152380389454e-01 1.08929551589694e-02
5.55000000000000e-01 1.95072830867399e-01 1.07015443095675e-02
5.65000000000000e-01 1.94012071527541e-01 1.05169665308193e-02
5.75000000000000e-01 1.92969437561235e-01 1.03388646164501e-02
5.85000000000000e-01 1.91944298604250e-01 1.01669058027448e-02
5.95000000000000e-01 1.90936056400686e-01 1.00007797133307e-02
6.05000000000000e-01 1.89944142661584e-01 9.84019650789827e-03
6.15000000000000e-01 1.88968017099106e-01 9.68488521163768e-03
6.25000000000000e-01 1.88007165619257e-01 9.53459220514111e-03
6.35000000000000e-01 1.87061098658078e-01 9.38907985706422e-03
6.45000000000000e-01 1.86129349647844e-01 9.24812528405317e-03
6.55000000000000e-01 1.85211473601267e-01 9.11151922432421e-03
6.65000000000000e-01 1.84307045802979e-01 8.97906501292761e-03
6.75000000000000e-01 1.83415660598682e-01 8.85057764814248e-03
6.85000000000000e-01 1.82536930273351e-01 8.72588293968843e-03
6.95000000000000e-01 1.81670484010744e-01 8.60481673051111e-03
7.05000000000000e-01 1.80815966927248e-01 8.48722418482759e-03
7.15000000000000e-01 1.79973039173779e-01 8.37295913594494e-03
7.25000000000000e-01 1.79141375100059e-01 8.26188348807572e-03
7.35000000000000e-01 1.78320662476163e-01 8.15386666701085e-03
7.45000000000000e-01 1.77510601766657e-01 8.04878511505069e-03
7.55000000000000e-01 1.76710905453153e-01 7.94652182609143e-03
7.65000000000000e-01 1.75921297401439e-01 7.84696591719453e-03
7.75000000000000e-01 1.75141512269714e-01 7.75001223333613e-03
7.85000000000000e-01 1.74371294954772e-01 7.65556098238251e-03
7.95000000000000e-01 1.73610400073238e-01 7.56351739762240e-03
8.05000000000000e-01 1.72858591475247e-01 7.47379142546592e-03
8.15000000000000e-01 1.72115641788145e-01 7.38629743614647e-03
8.25000000000000e-01 1.71381331988018e-01 7.30095395546596e-03
8.35000000000000e-01 1.70655450997051e-01 7.21768341582718e-03
8.45000000000000e-01 1.69937795304853e-01 7.13641192495298e-03
8.55000000000000e-01 1.69228168612061e-01 7.05706905083897e-03
8.65000000000000e-01 1.68526381494685e-01 6.97958762163053e-03
8.75000000000000e-01 1.67832251087735e-01 6.90390353922807e-03
8.85000000000000e-01 1.67145600786839e-01 6.82995560553457e-03
8.95000000000000e-01 1.66466259966628e-01 6.75768536035640e-03
9.05000000000000e-01 1.65794063714768e-01 6.68703693005382e-03
9.15000000000000e-01 1.65128852580617e-01 6.61795688612105e-03
9.25000000000000e-01 1.64470472337544e-01 6.55039411294397e-03
9.35000000000000e-01 1.63818773758028e-01 6.48429968404585e-03
9.45000000000000e-01 1.63173612400734e-01 6.41962674619481e-03
9.55000000000000e-01 1.62534848408789e-01 6.35633041079581e-03
9.65000000000000e-01 1.61902346318575e-01 6.29436765203481e-03
9.75000000000000e-01 1.61275974878382e-01 6.23369721129932e-03
9.85000000000000e-01 1.60655606876315e-01 6.17427950741850e-03
9.95000000000000e-01 1.60041118976899e-01 6.11607655231883e-03
1.00500000000000e+00 1.59432391565852e-01 6.05905187172087e-03
1.01500000000000e+00 1.58829308602554e-01 6.00317043052065e-03
1.02500000000000e+00 1.58231757479748e-01 5.94839856254567e-03
1.03500000000000e+00 1.57639628890045e-01 5.89470390438079e-03
1.04500000000000e+00 1.57052816698871e-01 5.84205533299617e-03
1.05500000000000e+00 1.56471217823446e-01 5.79042290692638e-03
1.06500000000000e+00 1.55894732117486e-01 5.73977781076082e-03
1.07500000000000e+00 1.55323262261294e-01 5.69009230273684e-03
1.08500000000000e+00 1.54756713656939e-01 5.64133966523189e-03
1.09500000000000e+00 1.54194994328248e-01 5.59349415796592e-03
1.10500000000000e+00 1.53638014825346e-01 5.54653097374999e-03
1.11500000000000e+00 1.53085688133498e-01 5.50042619661656e-03
1.12500000000000e+00 1.52537929586022e-01 5.45515676218161e-03
1.13500000000000e+00 1.51994656781061e-01 5.41070042010580e-03
1.14500000000000e+00 1.51455789502001e-01 5.36703569852096e-03
1.15500000000000e+00 1.50921249641357e-01 5.32414187030775e-03
1.16500000000000e+00 1.50390961127940e-01 5.28199892110878e-03
1.17500000000000e+00 1.49864849857135e-01 5.24058751897621e-03
1.18500000000000e+00 1.49342843624144e-01 5.19988898555895e-03
1.19500000000000e+00 1.48824872060024e-01 5.15988526873512e-03
1.20500000000000e+00 1.48310866570397e-01 5.12055891660826e-03
1.21500000000000e+00 1.47800760276702e-01 5.08189305278850e-03
1.22500000000000e+00 1.47294487959840e-01 5.04387135288484e-03
1.23500000000000e+00 1.46791986006125e-01 5.00647802213969e-03
1.24500000000000e+00 1.46293192355412e-01 4.96969777414202e-03
1.25500000000000e+00 1.45798046451296e-01 4.93351581055984e-03
1.26500000000000e+00 1.45306489193300e-01 4.89791780183338e-03
1.27500000000000e+00 1.44818462890930e-01 4.86288986877637e-03
1.28500000000000e+00 1.44333911219544e-01 4.82841856503824e-03
1.29500000000000e+00 1.43852779177922e-01 4.79449086037864e-03
1.30500000000000e+00 1.43375013047469e-01 4.76109412471129e-03
1.31500000000000e+00 1.42900560352980e-01 4.72821611287755e-03
1.32500000000000e+00 1.42429369824893e-01 4.69584495010777e-03
1.33500000000000e+00 1.41961391362958e-01 4.66396911813688e-03
1.34500000000000e+00 1.41496576001266e-01 4.63257744194159e-03
1.35500000000000e+00 1.41034875874570e-01 4.60165907706256e-03
1.36500000000000e+00 1.40576244185853e-01 4.57120349748527e-03
1.37500000000000e+00 1.40120635175073e-01 4.54120048405088e-03
1.38500000000000e+00 1.39668004089043e-01 4.51164011336797e-03
1.39500000000000e+00 1.39218307152399e-01 4.48251274720216e-03
1.40500000000000e+00 1.38771501539603e-01 4.45380902231854e-03
1.41500000000000e+00 1.38327545347936e-01 4.42551984075654e-03
1.42500000000000e+00 1.37886397571451e-01 4.39763636051263e-03
1.43500000000000e+00 1.37448018075833e-01 4.37014998661306e-03
1.44500000000000e+00 1.37012367574129e-01 4.34305236255941e-03
1.45500000000000e+00 1.36579407603321e-01 4.31633536212533e-03
1.46500000000000e+00 1.36149100501704e-01 4.28999108148906e-03
1.47500000000000e+00 1.35721409387023e-01 4.26401183168751e-03
1.48500000000000e+00 1.35296298135366e-01 4.23839013137556e-03
1.49500000000000e+00 1.34873731360748e-01 4.21311869987423e-03
1.50500000000000e+00 1.34453674395391e-01 4.18819045049826e-03
1.51500000000000e+00 1.34036093270649e-01 4.16359848414705e-03
1.52500000000000e+00 1.33620954698562e-01 4.13933608314640e-03
1.53500000000000e+00 1.33208226054019e-01 4.11539670533506e-03
1.54500000000000e+00 1.32797875357495e-01 4.09177397837857e-03
1.55500000000000e+00 1.32389871258344e-01 4.06846169430111e-03
1.56500000000000e+00 1.31984183018635e-01 4.04545380423116e-03
1.57500000000000e+00 1.31580780497497e-01 4.02274441334324e-03
1.58500000000000e+00 1.31179634135966e-01 4.00032777599341e-03
1.59500000000000e+00 1.30780714942299e-01 3.97819829103946e-03
1.60500000000000e+00 1.30383994477758e-01 3.95635049733278e-03
1.61500000000000e+00 1.29989444842832e-01 3.93477906937931e-03
1.62500000000000e+00 1.29597038663882e-01 3.91347881316062e-03
1.63500000000000e+00 1.29206749080200e-01 3.89244466210983e-03
1.64500000000000e+00 1.28818549731460e-01 3.87167167323371e-03
1.65500000000000e+00 1.28432414745553e-01 3.85115502337399e-03
1.66500000000000e+00 1.28048318726786e-01 3.83089000560430e-03
1.67500000000000e+00 1.27666236744433e-01 3.81087202575681e-03
1.68500000000000e+00 1.27286144321634e-01 3.79109659907256e-03
1.69500000000000e+00 1.26908017424618e-01 3.77155934697032e-03
1.70500000000000e+00 1.26531832452240e-01 3.75225599392945e-03
1.71500000000000e+00 1.26157566225832e-01 3.73318236448095e-03
1.72500000000000e+00 1.25785195979344e-01 3.71433438030422e-03
1.73500000000000e+00 1.25414699349771e-01 3.69570805742347e-03
1.74500000000000e+00 1.25046054367859e-01 3.67729950350143e-03
1.75500000000000e+00 1.24679239449071e-01 3.65910491522604e-03
1.76500000000000e+00 1.24314233384814e-01 3.64112057578435e-03
1.77500000000000e+00 1.23951015333914e-01 3.62334285242315e-03
1.78500000000000e+00 1.23589564814329e-01 3.60576819409195e-03
1.79500000000000e+00 1.23229861695096e-01 3.58839312916338e-03
1.80500000000000e+00 1.22871886188497e-01 3.57121426323048e-03
1.81500000000000e+00 1.22515618842450e-01 3.55422827697668e-03
1.82500000000000e+00 1.22161040533101e-01 3.53743192411618e-03
1.83500000000000e+00 1.21808132457626e-01 3.52082202940092e-03
1.84500000000000e+00 1.21456876127221e-01 3.50439548669312e-03
1.85500000000000e+00 1.21107253360288e-01 3.48814925710067e-03
1.86500000000000e+00 1.20759246275801e-01 3.47208036717041e-03
1.87500000000000e+00 1.20412837286854e-01 3.45618590714185e-03
1.88500000000000e+00 1.20068009094373e-01 3.44046302925484e-03
1.89500000000000e+00 1.19724744681003e-01 3.42490894611198e-03
1.90500000000000e+00 1.19383027305150e-01 3.40952092909158e-03
1.91500000000000e+00 1.19042840495184e-01 3.39429630681100e-03
1.92500000000000e+00 1.18704168043788e-01 3.37923246363801e-03
1.93500000000000e+00 1.18366994002457e-01 3.36432683824869e-03
1.94500000000000e+00 1.18031302676138e-01 3.34957692222866e-03
1.95500000000000e+00 1.17697078618011e-01 3.33498025871751e-03
1.96500000000000e+00 1.17364306624395e-01 3.32053444109630e-03
1.97500000000000e+00 1.17032971729792e-01 3.30623711171291e-03
1.98500000000000e+00 1.16703059202052e-01 3.29208596064764e-03
1.99500000000000e+00 1.16374554537662e-01 3.27807872451430e-03
2.00500000000000e+00 1.16047443457149e-01 3.26421318529842e-03
2.01500000000000e+00 1.15721711900603e-01 3.25048716922995e-03
2.02500000000000e+00 1.15397346023303e-01 3.23689854568911e-03
2.03500000000000e+00 1.15074332191465e-01 3.22344522614461e-03
2.04500000000000e+00 1.14752656978074e-01 3.21012516312238e-03
2.05500000000000e+00 1.14432307158840e-01 3.19693634920633e-03
2.06500000000000e+00 1.14113269708233e-01 3.18387681606649e-03
2.07500000000000e+00 1.13795531795627e-01 3.17094463351493e-03
2.08500000000000e+00 1.13479080781530e-01 3.15813790859071e-03
2.09500000000000e+00 1.13163904213909e-01 3.14545478466988e-03
2.10500000000000e+00 1.12849989824596e-01 3.13289344060046e-03
2.11500000000000e+00 1.12537325525789e-01 3.12045208986235e-03
2.12500000000000e+00 1.12225899406624e-01 3.10812897975264e-03
2.13500000000000e+00 1.11915699729838e-01 3.09592239059221e-03
2.14500000000000e+00 1.11606714928505e-01 3.08383063495302e-03
2.15500000000000e+00 1.11298933602848e-01 3.07185205690980e-03
2.16500000000000e+00 1.10992344517123e-01 3.05998503131184e-03
2.17500000000000e+00 1.10686936596585e-01 3.04822796307350e-03
2.18500000000000e+00 1.10382698924509e-01 3.03657928648463e-03
2.19500000000000e+00 1.10079620739288e-01 3.02503746454234e-03
2.20500000000000e+00 1.09777691431600e-01 3.01360098829757e-03
2.21500000000000e+00 1.09476900541629e-01 3.00226837622063e-03
2.22500000000000e+00 1.09177237756356e-01 2.99103817358475e-03
2.23500000000000e+00 1.08878692906912e-01 2.97990895186499e-03
2.24500000000000e+00 1.08581255965983e-01 2.96887930815441e-03
2.25500000000000e+00 1.08284917045281e-01 2.95794786459455e-03
2.26500000000000e+00 1.07989666393064e-01 2.94711326782153e-03
2.27500000000000e+00 1.07695494391717e-01 2.93637418842689e-03
2.28500000000000e+00 1.07402391555379e-01 2.92572932043288e-03
2.29500000000000e+00 1.07110348527630e-01 2.91517738078048e-03
2.30500000000000e+00 1.06819356079223e-01 2.90471710883214e-03
2.31500000000000e+00 1.06529405105864e-01 2.89434726588593e-03
2.32500000000000e+00 1.06240486626046e-01 2.88406663470346e-03
2.33500000000000e+00 1.05952591778923e-01 2.87387401905058e-03
2.34500000000000e+00 1.05665711822235e-01 2.86376824324718e-03
2.35500000000000e+00 1.05379838130274e-01 2.85374815172983e-03
2.36500000000000e+00 1.05094962191889e-01 2.84381260862672e-03
2.37500000000000e+00 1.04811075608548e-01 2.83396049734284e-03
2.38500000000000e+00 1.04528170092421e-01 2.82419072015490e-03
2.39500000000000e+00 1.04246237464517e-01 2.81450219781536e-03
2.40500000000000e+00 1.03965269652858e-01 2.80489386916861e-03
2.41500000000000e+00 1.03685258690683e-01 2.79536469077683e-03
2.42500000000000e+00 1.03406196714702e-01 2.78591363655240e-03
2.43500000000000e+00 1.03128075963373e-01 2.77653969740103e-03
2.44500000000000e+00 1.02850888775222e-01 2.76724188087447e-03
2.45500000000000e+00 1.02574627587198e-01 2.75801921083126e-03
2.46500000000000e+00 1.02299284933056e-01 2.74887072710443e-03
2.47500000000000e+00 1.02024853441777e-01 2.73979548517843e-03
2.48500000000000e+00 1.01751325836020e-01 2.73079255587408e-03
2.49500000000000e+00 1.01478694930602e-01 2.72186102504041e-03
2.50500000000000e+00 1.01206953631012e-01 2.71299999325458e-03
2.51500000000000e+00 1.00936094931952e-01 2.70420857552758e-03
2.52500000000000e+00 1.00666111915907e-01 2.69548590101878e-03
2.53500000000000e+00 1.00396997751748e-01 2.68683111275661e-03
2.54500000000000e+00 1.00128745693355e-01 2.67824336736437e-03
2.55500000000000e+00 9.98613490782749e-02 2.66972183479493e-03
2.56500000000000e+00 9.95948013263964e-02 2.66126569807040e-03
2.57500000000000e+00 9.93290959386608e-02 2.65287415302677e-03
2.58500000000000e+00 9.90642264957910e-02 2.64454640806669e-03
2.59500000000000e+00 9.88001866570475e-02 2.63628168391691e-03
2.60500000000000e+00 9.85369701590076e-02 2.62807921339078e-03
2.61500000000000e+00 9.82745708143693e-02 2.61993824115701e-03
2.62500000000000e+00 9.80129825107762e-02 2.61185802351391e-03
2.63500000000000e+00 9.77521992096665e-02 2.60383782816752e-03
2.64500000000000e+00 9.74922149451427e-02 2.59587693401571e-03
2.65500000000000e+00 9.72330238228634e-02 2.58797463093763e-03
2.66500000000000e+00 9.69746200189552e-02 2.58013021958693e-03
2.67500000000000e+00 9.67169977789460e-02 2.57234301119007e-03
2.68500000000000e+00 9.64601514167172e-02 2.56461232734886e-03
2.69500000000000e+00 9.62040753134762e-02 2.55693749984791e-03
2.70500000000000e+00 9.59487639167476e-02 2.54931787046650e-03
2.71500000000000e+00 9.56942117393829e-02 2.54175279079338e-03
2.72500000000000e+00 9.54404133585889e-02 2.53424162204682e-03
2.73500000000000e+00 9.51873634149736e-02 2.52678373489856e-03
2.74500000000000e+00 9.49350566116092e-02 2.51937850930063e-03
2.75500000000000e+00 9.46834877131134e-02 2.51202533431742e-03
2.76500000000000e+00 9.44326515447457e-02 2.50472360796020e-03
2.77500000000000e+00 9.41825429915214e-02 2.49747273702548e-03
2.78500000000000e+00 9.39331569973406e-02 2.49027213693735e-03
2.79500000000000e+00 9.36844885641339e-02 2.48312123159233e-03
2.80500000000000e+00 9.34365327510222e-02 2.47601945320898e-03
2.81500000000000e+00 9.31892846734921e-02 2.46896624217972e-03
2.82500000000000e+00 9.29427395025862e-02 2.46196104692474e-03
2.83500000000000e+00 9.26968924641072e-02 2.45500332375144e-03
2.84500000000000e+00 9.24517388378359e-02 2.44809253671527e-03
2.85500000000000e+00 9.22072739567641e-02 2.44122815748316e-03
2.86500000000000e+00 9.19634932063393e-02 2.43440966520118e-03
2.87500000000000e+00 9.17203920237239e-02 2.42763654636421e-03
2.88500000000000e+00 9.14779658970665e-02 2.42090829468834e-03
2.89500000000000e+00 9.12362103647862e-02 2.41422441098565e-03
2.90500000000000e+00 9.09951210148693e-02 2.40758440304210e-03
2.91500000000000e+00 9.07546934841778e-02 2.40098778549726e-03
2.92500000000000e+00 9.05149234577699e-02 2.39443407972766e-03
2.93500000000000e+00 9.02758066682323e-02 2.38792281373176e-03
2.94500000000000e+00 9.00373388950235e-02 2.38145352201666e-03
2.95500000000000e+00 8.97995159638289e-02 2.37502574548867e-03
2.96500000000000e+00 8.95623337459258e-02 2.36863903134460e-03
2.97500000000000e+00 8.93257881575600e-02 2.36229293296607e-03
2.98500000000000e+00 8.90898751593326e-02 2.35598700981582e-03
2.99500000000000e+00 8.88545907555968e-02 2.34972082733584e-03
3.00500000000000e+00 8.86199309938654e-02 2.34349395684785e-03
3.01500000000000e+00 8.83858919642273e-02 2.33730597545570e-03
3.02500000000000e+00 8.81524697987743e-02 2.33115646594916e-03
3.03500000000000e+00 8.79196606710374e-02 2.32504501671095e-03
3.04500000000000e+00 8.76874607954321e-02 2.31897122162483e-03
3.05500000000000e+00 8.74558664267125e-02 2.31293467998418e-03
3.06500000000000e+00 8.72248738594353e-02 2.30693499640444e-03
3.07500000000000e+00 8.69944794274316e-02 2.30097178073638e-03
3.08500000000000e+00 8.67646795032880e-02 2.29504464798129e-03
3.09500000000000e+00 8.65354704978353e-02 2.28915321820740e-03
3.10500000000000e+00 8.63068488596465e-02 2.28329711646803e-03
3.11500000000000e+00 8.60788110745417e-02 2.27747597272183e-03
3.12500000000000e+00 8.58513536651021e-02 2.27168942175414e-03
3.13500000000000e+00 8.56244731901909e-02 2.26593710309989e-03
3.14500000000000e+00 8.53981662444822e-02 2.26021866096764e-03
3.15500000000000e+00 8.51724294579974e-02 2.25453374416547e-03
