Energy (eV)          EEDF (eV^-(3/2))     First Anisotropy
1.52272727272727e-02 1.47442762772326e-01 8.32542155364170e-05
4.56818181818182e-02 1.46287979886791e-01 1.37399921938407e-04
7.61363636363636e-02 1.45142241351064e-01 1.81181048706246e-04
1.06590909090909e-01 1.44005476325544e-01 2.14318970475971e-04
1.37045454545455e-01 1.42877614528312e-01 2.41854848612659e-04
1.67500000000000e-01 1.41758586233862e-01 2.65697359925591e-04
1.97954545454545e-01 1.40648322250141e-01 2.86835563584513e-04
2.28409090909091e-01 1.39546753940729e-01 3.05867499940492e-04
2.58863636363636e-01 1.38453813195105e-01 3.23190308840027e-04
2.89318181818182e-01 1.37369432446273e-01 3.39085037540434e-04
3.19772727272727e-01 1.36293544647530e-01 3.53759994840884e-04
3.50227272727273e-01 1.35226083285215e-01 3.67375122487461e-04
3.80681818181818e-01 1.34166982362347e-01 3.80056697712435e-04
4.11136363636364e-01 1.33116176396626e-01 3.91906697131154e-04
4.41590909090909e-01 1.32073600423887e-01 4.03009030209340e-04
4.72045454545455e-01 1.31039189983849e-01 4.13433837452009e-04
5.02500000000000e-01 1.30012881125679e-01 4.23240544749654e-04
5.32954545454545e-01 1.28994610395103e-01 4.32480089637542e-04
5.63409090909091e-01 1.27984314838870e-01 4.41196579555825e-04
5.93863636363636e-01 1.26981931992969e-01 4.49428550889005e-04
6.24318181818182e-01 1.25987399886211e-01 4.57209940771404e-04
6.54772727272727e-01 1.25000657029361e-01 4.64570848528061e-04
6.85227272727273e-01 1.24021642418006e-01 4.71538139854997e-04
7.15681818181818e-01 1.23050295523825e-01 4.78135933026413e-04
7.46136363636364e-01 1.22086556291346e-01 4.84385992016975e-04
7.76590909090909e-01 1.21130365138076e-01 4.90308050313654e-04
8.07045454545455e-01 1.20181662945663e-01 4.95920078034249e-04
8.37500000000000e-01 1.19240391061182e-01 5.01238504735162e-04
8.67954545454545e-01 1.18306491288774e-01 5.06278406647119e-04
8.98409090909091e-01 1.17379905890588e-01 5.11053664981662e-04
9.28863636363636e-01 1.16460577578850e-01 5.15577100750970e-04
9.59318181818182e-01 1.15548449516521e-01 5.19860590150203e-04
9.89772727272727e-01 1.14643465309733e-01 5.23915163961909e-04
1.02022727272727e+00 1.13745569008209e-01 5.27751094035919e-04
1.05068181818182e+00 1.12854705094553e-01 5.31377965941712e-04
1.08113636363636e+00 1.11970818499216e-01 5.34804747665608e-04
1.11159090909091e+00 1.11093854566955e-01 5.38039844678363e-04
1.14204545454545e+00 1.10223759086919e-01 5.41091150748797e-04
1.17250000000000e+00 1.09360478257154e-01 5.43966092891707e-04
1.20295454545455e+00 1.08503958712182e-01 5.46671670639507e-04
1.23340909090909e+00 1.07654147489956e-01 5.49214491582440e-04
1.26386363636364e+00 1.06810992057239e-01 5.51600802547159e-04
1.29431818181818e+00 1.05974440278732e-01 5.53836518062067e-04
1.32477272727273e+00 1.05144440440502e-01 5.55927245408806e-04
1.35522727272727e+00 1.04320941221054e-01 5.57878308680341e-04
1.38568181818182e+00 1.03503891707124e-01 5.59694765151917e-04
1.41613636363636e+00 1.02693241390097e-01 5.61381430083341e-04
1.44659090909091e+00 1.01888940145170e-01 5.62942889652896e-04
1.47704545454545e+00 1.01090938251521e-01 5.64383517171044e-04
1.50750000000000e+00 1.00299186366709e-01 5.65707487339930e-04
1.53795454545455e+00 9.95136355454381e-02 5.66918788846235e-04
1.56840909090909e+00 9.87342372153969e-02 5.68021236305495e-04
1.59886363636364e+00 9.79609431947435e-02 5.69018480809090e-04
1.62931818181818e+00 9.71937056692509e-02 5.69914020007463e-04
1.65977272727273e+00 9.64324772086429e-02 5.70711207007454e-04
1.69022727272727e+00 9.56772107449280e-02 5.71413259762208e-04
1.72068181818182e+00 9.49278595833456e-02 5.72023265356900e-04
1.75113636363636e+00 9.41843773991874e-02 5.72544192216285e-04
1.78159090909091e+00 9.34467182218922e-02 5.72978893455116e-04
1.81204545454545e+00 9.27148364493776e-02 5.73330113718462e-04
1.84250000000000e+00 9.19886868285166e-02 5.73600495067913e-04
1.87295454545455e+00 9.12682244685926e-02 5.73792582128419e-04
1.90340909090909e+00 9.05534048227043e-02 5.73908827201953e-04
1.93386363636364e+00 8.98441837004150e-02 5.73951594724706e-04
1.96431818181818e+00 8.91405172500174e-02 5.73923165733112e-04
1.99477272727273e+00 8.84423619704402e-02 5.73825741742300e-04
2.02522727272727e+00 8.77496746943114e-02 5.73661449350053e-04
2.05568181818182e+00 8.70624125958501e-02 5.73432340884485e-04
2.08613636363636e+00 8.63805331880109e-02 5.73140401945558e-04
2.11659090909091e+00 8.57039943098641e-02 5.72787551766126e-04
2.14704545454545e+00 8.50327541371725e-02 5.72375646723754e-04
2.17750000000000e+00 8.43667711669417e-02 5.71906483229242e-04
2.20795454545455e+00 8.37060042274092e-02 5.71381800186974e-04
2.23840909090909e+00 8.30504124632421e-02 5.70803281568430e-04
2.26886363636364e+00 8.23999553449797e-02 5.70172558592068e-04
2.29931818181818e+00 8.17545926548378e-02 5.69491212024673e-04
2.32977272727273e+00 8.11142844956431e-02 5.68760774119026e-04
2.36022727272727e+00 8.04789912772055e-02 5.67982731261388e-04
2.39068181818182e+00 7.98486737221566e-02 5.67158523367831e-04
2.42113636363636e+00 7.92232928633653e-02 5.66289549219549e-04
2.45159090909091e+00 7.86028100336596e-02 5.65377165779487e-04
2.48204545454545e+00 7.79871868738311e-02 5.64422690266686e-04
2.51250000000000e+00 7.73763853200967e-02 5.63427401758224e-04
2.54295454545455e+00 7.67703676116906e-02 5.62392542500485e-04
2.57340909090909e+00 7.61690962787987e-02 5.61319319362870e-04
2.60386363636364e+00 7.55725341497651e-02 5.60208905018404e-04
2.63431818181818e+00 7.49806443394729e-02 5.59062439266842e-04
2.66477272727273e+00 7.43933902561883e-02 5.57881030100345e-04
2.69522727272727e+00 7.38107355903647e-02 5.56665755410389e-04
2.72568181818182e+00 7.32326443190371e-02 5.55417661950006e-04
2.75613636363636e+00 7.26590807034759e-02 5.54137769423438e-04
2.78659090909091e+00 7.20900092806524e-02 5.52827069442698e-04
2.81704545454545e+00 7.15253948694091e-02 5.51486526885179e-04
2.84750000000000e+00 7.09652025600916e-02 5.50117080866557e-04
2.87795454545455e+00 7.04093977204184e-02 5.48719645496686e-04
2.90840909090909e+00 6.98579459854717e-02 5.47295110774770e-04
2.93886363636364e+00 6.93108132632847e-02 5.45844343278294e-04
2.96931818181818e+00 6.87679657251740e-02 5.44368186988477e-04
2.99977272727273e+00 6.82293698110603e-02 5.42867463919430e-04
3.03022727272727e+00 6.76949922201248e-02 5.41342975313407e-04
3.06068181818182e+00 6.71647999141577e-02 5.39795500483557e-04
3.09113636363636e+00 6.66387601154206e-02 5.38225800104415e-04
3.12159090909091e+00 6.61168402994591e-02 5.36634615076712e-04
3.15204545454545e+00 6.55990081999217e-02 5.35022667485646e-04
3.18250000000000e+00 6.50852317998643e-02 5.33390661233944e-04
3.21295454545455e+00 6.45754793363451e-02 5.31739282504011e-04
3.24340909090909e+00 6.40697192920096e-02 5.30069200346879e-04
3.27386363636364e+00 6.35679203994733e-02 5.28381067107121e-04
3.30431818181818e+00 6.30700516331741e-02 5.26675518971659e-04
3.33477272727273e+00 6.25760822135548e-02 5.24953176361132e-04
3.36522727272727e+00 6.20859815991704e-02 5.23214644818503e-04
3.39568181818182e+00 6.15997194892588e-02 5.21460513861674e-04
3.42613636363636e+00 6.11172658217912e-02 5.19691359712293e-04
3.45659090909091e+00 6.06385907673502e-02 5.17907744180160e-04
3.48704545454545e+00 6.01636647329308e-02 5.16110215378014e-04
3.51750000000000e+00 5.96924583545662e-02 5.14299308156504e-04
3.54795454545455e+00 5.92249425009587e-02 5.12475544399535e-04
3.57840909090909e+00 5.87610882663280e-02 5.10639433432207e-04
3.60886363636364e+00 5.83008669738813e-02 5.08791472294309e-04
3.63931818181818e+00 5.78442501688748e-02 5.06932146123605e-04
3.66977272727273e+00 5.73912096219299e-02 5.05061928409379e-04
3.70022727272727e+00 5.69417173223004e-02 5.03181281682214e-04
3.73068181818182e+00 5.64957454798557e-02 5.01290656429739e-04
3.76113636363636e+00 5.60532665233004e-02 4.99390493405029e-04
3.79159090909091e+00 5.56142530949125e-02 4.97481222576219e-04
3.82204545454545e+00 5.51786780535649e-02 4.95563263682167e-04
3.85250000000000e+00 5.47465144684140e-02 4.93637026544207e-04
3.88295454545455e+00 5.43177356217903e-02 4.91702911261383e-04
3.91340909090909e+00 5.38923150030670e-02 4.89761308504887e-04
3.94386363636364e+00 5.34702263114259e-02 4.87812599699810e-04
3.97431818181818e+00 5.30514434498997e-02 4.85857157303578e-04
4.00477272727273e+00 5.26359405280182e-02 4.83895344975234e-04
4.03522727272727e+00 5.22236918560185e-02 4.81927518128177e-04
4.06568181818182e+00 5.18146719463781e-02 4.79954022929105e-04
4.09613636363636e+00 5.14088555121883e-02 4.77975198277328e-04
4.12659090909091e+00 5.10062174625976e-02 4.75991374836461e-04
4.15704545454545e+00 5.06067329052274e-02 4.74002875479737e-04
4.18750000000000e+00 5.02103771407307e-02 4.72010015521193e-04
4.21795454545455e+00 4.98171256651038e-02 4.70013102848089e-04
4.24840909090909e+00 4.94269541643947e-02 4.68012438140457e-04
4.27886363636364e+00 4.90398385169160e-02 4.66008314994893e-04
4.30931818181818e+00 4.86557547880963e-02 4.64001020133159e-04
4.33977272727273e+00 4.82746792326001e-02 4.61990833518048e-04
4.37022727272727e+00 4.78965882893167e-02 4.59978028806758e-04
4.40068181818182e+00 4.75214585825447e-02 4.57962872437536e-04
4.43113636363636e+00 4.71492669205046e-02 4.55945625343618e-04
4.46159090909091e+00 4.67799902913695e-02 4.53926542070532e-04
4.49204545454545e+00 4.64136058652035e-02 4.51905871141062e-04
4.52250000000000e+00 4.60500909892421e-02 4.49883855231510e-04
4.55295454545455e+00 4.56894231897480e-02 4.47860731263330e-04
4.58340909090909e+00 4.53315801674155e-02 4.45836730571038e-04
4.61386363636364e+00 4.49765397991493e-02 4.43812078988145e-04
4.64431818181818e+00 4.46242801335870e-02 4.41786997007503e-04
4.67477272727273e+00 4.42747793928042e-02 4.39761699861834e-04
4.70522727272727e+00 4.39280159679530e-02 4.37736397902298e-04
4.73568181818182e+00 4.35839684201740e-02 4.35711295770804e-04
4.76613636363636e+00 4.32426154792355e-02 4.33686593894715e-04
4.79659090909091e+00 4.29039360400585e-02 4.31662487687123e-04
4.82704545454545e+00 4.25679091642763e-02 4.29639167851349e-04
4.85750000000000e+00 4.22345140761186e-02 4.27616820518239e-04
4.88795454545455e+00 4.19037301639063e-02 4.25595627310405e-04
4.91840909090909e+00 4.15755369760393e-02 4.23575765473575e-04
4.94886363636364e+00 4.12499142224289e-02 4.21557407936848e-04
4.97931818181818e+00 4.09268417705870e-02 4.19540723438551e-04
5.00977272727273e+00 4.06062996469983e-02 4.17525876582893e-04
5.04022727272727e+00 4.02882680333068e-02 4.15513028160292e-04
5.07068181818182e+00 3.99727272670142e-02 4.13502334400129e-04
5.10113636363636e+00 3.96596578402342e-02 4.11493948281409e-04
5.13159090909091e+00 3.93490403966370e-02 4.09488018810743e-04
5.16204545454545e+00 3.90408557327058e-02 4.07484691279804e-04
5.19250000000000e+00 3.87350847941320e-02 4.05484107374295e-04
5.22295454545455e+00 3.84317086770199e-02 4.03486405219253e-04
5.25340909090909e+00 3.81307086243693e-02 4.01491719483593e-04
5.28386363636364e+00 3.78320660272308e-02 3.99500181422769e-04
5.31431818181818e+00 3.75357624212738e-02 3.97511918979173e-04
5.34477272727273e+00 3.72417794878934e-02 3.95527056822231e-04
5.37522727272727e+00 3.69500990508617e-02 3.93545716622332e-04
5.40568181818182e+00 3.66607030768574e-02 3.91568016377516e-04
5.43613636363636e+00 3.63735736743255e-02 3.89594071567770e-04
5.46659090909091e+00 3.60886930907805e-02 3.87623994504449e-04
5.49704545454545e+00 3.58060437138192e-02 3.85657894550189e-04
5.52750000000000e+00 3.55256080679512e-02 3.83695878206630e-04
5.55795454545455e+00 3.52473688155700e-02 3.81738049146548e-04
5.58840909090909e+00 3.49713087538584e-02 3.79784508298249e-04
5.61886363636364e+00 3.46974108157191e-02 3.77835353875806e-04
5.64931818181818e+00 3.44256580667530e-02 3.75890681460243e-04
5.67977272727273e+00 3.41560337061518e-02 3.73950584028023e-04
5.71022727272727e+00 3.38885210637465e-02 3.72015152187163e-04
5.74068181818182e+00 3.36231036004043e-02 3.70084473571222e-04
5.77113636363636e+00 3.33597649069836e-02 3.68158633859421e-04
5.80159090909091e+00 3.30984887019466e-02 3.66237716190965e-04
5.83204545454545e+00 3.28392588321753e-02 3.64321801354503e-04
5.86250000000000e+00 3.25820592701748e-02 3.62410967859574e-04
5.89295454545455e+00 3.23268741148558e-02 3.60505291959387e-04
5.92340909090909e+00 3.20736875888028e-02 3.58604847719701e-04
5.95386363636364e+00 3.18224840390230e-02 3.56709707040210e-04
5.98431818181818e+00 3.15732479342778e-02 3.54819939721037e-04
6.01477272727273e+00 3.13259638658004e-02 3.52935613482751e-04
6.04522727272727e+00 3.10806165446880e-02 3.51056794171298e-04
6.07568181818182e+00 3.08371908021917e-02 3.49183545212775e-04
6.10613636363636e+00 3.05956715887605e-02 3.47315928517600e-04
6.13659090909091e+00 3.03560439719208e-02 3.45454003953502e-04
6.16704545454545e+00 3.01182931369323e-02 3.43597829509734e-04
6.19750000000000e+00 2.98824043843141e-02 3.41747461355955e-04
6.22795454545455e+00 2.96483631304734e-02 3.39902953858166e-04
6.25840909090909e+00 2.94161549052868e-02 3.38064359635552e-04
6.28886363636364e+00 2.91857653527024e-02 3.36231729575416e-04
6.31931818181818e+00 2.89571802283753e-02 3.34405112888138e-04
6.34977272727273e+00 2.87303854002444e-02 3.32584557121121e-04
6.38022727272727e+00 2.85053668462208e-02 3.30770108337582e-04
6.41068181818182e+00 2.82821106543939e-02 3.28961810626027e-04
6.44113636363636e+00 2.80606030221556e-02 3.27159706903590e-04
6.47159090909091e+00 2.78408302543126e-02 3.25363838441839e-04
6.50204545454545e+00 2.76227787636124e-02 3.23574245009868e-04
6.53250000000000e+00 2.74064350685490e-02 3.21790964923245e-04
6.56295454545455e+00 2.71917857938656e-02 3.20014035054964e-04
6.59340909090909e+00 2.69788176684090e-02 3.18243490882743e-04
6.62386363636364e+00 2.67675175256108e-02 3.16479366499253e-04
6.65431818181818e+00 2.65578723013883e-02 3.14721694657833e-04
6.68477272727273e+00 2.63498690346052e-02 3.12970506782095e-04
6.71522727272727e+00 2.61434948650186e-02 3.11225833122516e-04
6.74568181818182e+00 2.59387370334183e-02 3.09487702315082e-04
6.77613636363636e+00 2.57355828808243e-02 3.07756142096535e-04
6.80659090909091e+00 2.55340198468029e-02 3.06031178877564e-04
6.83704545454545e+00 2.53340354698868e-02 3.04312837868143e-04
6.86750000000000e+00 2.51356173856233e-02 3.02601143118411e-04
6.89795454545455e+00 2.49387533269760e-02 3.00896117526040e-04
6.92840909090909e+00 2.47434311224153e-02 2.99197782875798e-04
6.95886363636364e+00 2.45496386963023e-02 2.97506159846310e-04
6.98931818181818e+00 2.43573640670204e-02 2.95821268048476e-04
7.01977272727273e+00 2.41665953473417e-02 2.94143126031734e-04
7.05022727272727e+00 2.39773207425991e-02 2.92471751421735e-04
7.08068181818182e+00 2.37895285507735e-02 2.90807160523092e-04
7.11113636363636e+00 2.36032071617580e-02 2.89149368957390e-04
7.14159090909091e+00 2.34183450558531e-02 2.87498391278888e-04
7.17204545454545e+00 2.32349308040996e-02 2.85854241084627e-04
7.20250000000000e+00 2.30529530665402e-02 2.84216931048938e-04
7.23295454545454e+00 2.28724005925371e-02 2.82586472928004e-04
7.26340909090909e+00 2.26932622190707e-02 2.80962877593215e-04
7.29386363636364e+00 2.25155268710424e-02 2.79346155035419e-04
7.32431818181818e+00 2.23391835596093e-02 2.77736314397277e-04
7.35477272727273e+00 2.21642213824733e-02 2.76133363977068e-04
7.38522727272727e+00 2.19906295222506e-02 2.74537311350191e-04
7.41568181818182e+00 2.18183972465171e-02 2.72948163011468e-04
7.44613636363636e+00 2.16475139071349e-02 2.71365924945025e-04
7.47659090909091e+00 2.14779689389040e-02 2.69790602278222e-04
7.50704545454545e+00 2.13097518598251e-02 2.68222199378722e-04
7.53750000000000e+00 2.11428522695472e-02 2.66660719883623e-04
7.56795454545454e+00 2.09772598496177e-02 2.65106166702091e-04
7.59840909090909e+00 2.08129643619622e-02 2.63558542043595e-04
7.62886363636364e+00 2.06499556491230e-02 2.62017847420222e-04
7.65931818181818e+00 2.04882236327704e-02 2.60484083674101e-04
7.68977272727273e+00 2.03277583139297e-02 2.58957250979441e-04
7.72022727272727e+00 2.01685497715235e-02 2.57437348949967e-04
7.75068181818182e+00 2.00105881623850e-02 2.55924376316666e-04
7.78113636363636e+00 1.98538637206410e-02 2.54418331437632e-04
7.81159090909091e+00 1.96983667565025e-02 2.52919211986177e-04
7.84204545454545e+00 1.95440876564691e-02 2.51427015036631e-04
7.87250000000000e+00 1.93910168819417e-02 2.49941737089168e-04
7.90295454545454e+00 1.92391449694160e-02 2.48463374070861e-04
7.93340909090909e+00 1.90884625291234e-02 2.46991921359741e-04
7.96386363636364e+00 1.89389602452152e-02 2.45527373785703e-04
7.99431818181818e+00 1.87906288744311e-02 2.44069725653793e-04
8.02477272727273e+00 1.86434592462744e-02 2.42618970744965e-04
8.05522727272727e+00 1.84974422617072e-02 2.41175102411315e-04
8.08568181818182e+00 1.83525688931391e-02 2.39738113285624e-04
8.11613636363636e+00 1.82088301838609e-02 2.38307995737979e-04
8.14659090909091e+00 1.80662172469589e-02 2.36884741594610e-04
8.17704545454545e+00 1.79247212654723e-02 2.35468342213937e-04
8.20750000000000e+00 1.77843334911499e-02 2.34058788507719e-04
8.23795454545455e+00 1.76450452445985e-02 2.32656070941029e-04
8.26840909090909e+00 1.75068479140658e-02 2.31260179552783e-04
8.29886363636364e+00 1.73697329555802e-02 2.29871103955604e-04
8.32931818181818e+00 1.72336918917581e-02 2.28488833355729e-04
8.35977272727273e+00 1.70987163119367e-02 2.27113356552751e-04
8.39022727272727e+00 1.69647978710048e-02 2.25744662024183e-04
8.42068181818182e+00 1.68319282893718e-02 2.24382737663590e-04
8.45113636363636e+00 1.67000993524488e-02 2.23027571189969e-04
8.48159090909091e+00 1.65693029096726e-02 2.21679149894214e-04
8.51204545454545e+00 1.64395308746237e-02 2.20337460706579e-04
8.54250000000000e+00 1.63107752239119e-02 2.19002490214776e-04
8.57295454545454e+00 1.61830279972873e-02 2.17674224663179e-04
8.60340909090909e+00 1.60562812965484e-02 2.16352649970351e-04
8.63386363636364e+00 1.59305272856463e-02 2.15037751728197e-04
8.66431818181818e+00 1.58057581896148e-02 2.13729515218982e-04
8.69477272727273e+00 1.56819662946684e-02 2.12427925414359e-04
8.72522727272727e+00 1.55591439471532e-02 2.11132967050625e-04
8.75568181818182e+00 1.54372835535014e-02 2.09844624392456e-04
8.78613636363636e+00 1.53163775797557e-02 2.08562881600321e-04
8.81659090909091e+00 1.51964185506902e-02 2.07287722501709e-04
8.84704545454545e+00 1.50773990498975e-02 2.06019130651132e-04
8.87750000000000e+00 1.49593117187873e-02 2.04757089345645e-04
8.90795454545455e+00 1.48421492566679e-02 2.03501581623476e-04
8.93840909090909e+00 1.47259044197648e-02 2.02252590279053e-04
8.96886363636364e+00 1.46105700212965e-02 2.01010097861593e-04
8.99931818181818e+00 1.44961389305129e-02 1.99774086689766e-04
9.02977272727273e+00 1.43826040727654e-02 1.98544538850160e-04
9.06022727272727e+00 1.42699584285646e-02 1.97321436264351e-04
9.09068181818182e+00 1.41581950335235e-02 1.96104760475625e-04
9.12113636363636e+00 1.40473069779220e-02 1.94894492979060e-04
9.15159090909091e+00 1.39372874059145e-02 1.93690615015020e-04
9.18204545454545e+00 1.38281295155908e-02 1.92493107622536e-04
9.21250000000000e+00 1.37198265580767e-02 1.91301951652671e-04
9.24295454545454e+00 1.36123718375902e-02 1.90117127766739e-04
9.27340909090909e+00 1.35057587105592e-02 1.88938616449264e-04
9.30386363636364e+00 1.33999805856740e-02 1.87766398006156e-04
9.33431818181818e+00 1.32950309230217e-02 1.86600452577304e-04
9.36477272727273e+00 1.31909032341346e-02 1.85440760134687e-04
9.39522727272727e+00 1.30875910811418e-02 1.84287300542245e-04
9.42568181818182e+00 1.29850880767053e-02 1.83140053363293e-04
9.45613636363636e+00 1.28833878836203e-02 1.81998998157245e-04
9.48659090909091e+00 1.27824842141005e-02 1.80864114293095e-04
9.51704545454545e+00 1.26823708298185e-02 1.79735380997057e-04
9.54750000000000e+00 1.25830415410961e-02 1.78612777364065e-04
9.57795454545455e+00 1.24844902069404e-02 1.77496282355712e-04
9.60840909090909e+00 1.23867107342504e-02 1.76385874811414e-04
