Energy (eV)          EEDF (eV^-(3/2))     First Anisotropy
7.83333333333333e-05 2.70636307088662e+02 0.00000000000000e+00
2.35000000000000e-04 2.69001167953879e+02 0.00000000000000e+00
3.91666666666667e-04 2.67375908055339e+02 0.00000000000000e+00
5.48333333333333e-04 2.65760467704290e+02 0.00000000000000e+00
7.05000000000000e-04 2.64154787572661e+02 0.00000000000000e+00
8.61666666666667e-04 2.62558808690840e+02 0.00000000000000e+00
1.01833333333333e-03 2.60972472445502e+02 0.00000000000000e+00
1.17500000000000e-03 2.59395720577456e+02 0.00000000000000e+00
1.33166666666667e-03 2.57828495179503e+02 0.00000000000000e+00
1.48833333333333e-03 2.56270738694309e+02 0.00000000000000e+00
1.64500000000000e-03 2.54722393912292e+02 0.00000000000000e+00
1.80166666666667e-03 2.53183403969522e+02 0.00000000000000e+00
1.95833333333333e-03 2.51653712345631e+02 0.00000000000000e+00
2.11500000000000e-03 2.50133262861736e+02 0.00000000000000e+00
2.27166666666667e-03 2.48621999678379e+02 0.00000000000000e+00
2.42833333333333e-03 2.47119867293475e+02 0.00000000000000e+00
2.58500000000000e-03 2.45626810540271e+02 0.00000000000000e+00
2.74166666666667e-03 2.44142774585326e+02 0.00000000000000e+00
2.89833333333333e-03 2.42667704926489e+02 0.00000000000000e+00
3.05500000000000e-03 2.41201547390905e+02 0.00000000000000e+00
3.21166666666667e-03 2.39744248133022e+02 0.00000000000000e+00
3.36833333333333e-03 2.38295753632613e+02 0.00000000000000e+00
3.52500000000000e-03 2.36856010692811e+02 0.00000000000000e+00
3.68166666666667e-03 2.35424966438155e+02 0.00000000000000e+00
3.83833333333333e-03 2.34002568312652e+02 0.00000000000000e+00
3.99500000000000e-03 2.32588764077839e+02 0.00000000000000e+00
4.15166666666667e-03 2.31183501810872e+02 0.00000000000000e+00
4.30833333333333e-03 2.29786729902615e+02 0.00000000000000e+00
4.46500000000000e-03 2.28398397055747e+02 0.00000000000000e+00
4.62166666666667e-03 2.27018452282874e+02 0.00000000000000e+00
4.77833333333333e-03 2.25646844904663e+02 0.00000000000000e+00
4.93500000000000e-03 2.24283524547973e+02 0.00000000000000e+00
5.09166666666667e-03 2.22928441144013e+02 0.00000000000000e+00
5.24833333333333e-03 2.21581544926496e+02 0.00000000000000e+00
5.40500000000000e-03 2.20242786429817e+02 0.00000000000000e+00
5.56166666666667e-03 2.18912116487232e+02 0.00000000000000e+00
5.71833333333333e-03 2.17589486229055e+02 0.00000000000000e+00
5.87500000000000e-03 2.16274847080863e+02 0.00000000000000e+00
6.03166666666667e-03 2.14968150761711e+02 0.00000000000000e+00
6.18833333333333e-03 2.13669349282359e+02 0.00000000000000e+00
6.34500000000000e-03 2.12378394943510e+02 0.00000000000000e+00
6.50166666666667e-03 2.11095240334059e+02 0.00000000000000e+00
6.65833333333333e-03 2.09819838329351e+02 0.00000000000000e+00
6.81500000000000e-03 2.08552142089448e+02 0.00000000000000e+00
6.97166666666667e-03 2.07292105057413e+02 0.00000000000000e+00
7.12833333333333e-03 2.06039680957598e+02 0.00000000000000e+00
7.28500000000000e-03 2.04794823793945e+02 0.00000000000000e+00
7.44166666666667e-03 2.03557487848296e+02 0.00000000000000e+00
7.59833333333333e-03 2.02327627678714e+02 0.00000000000000e+00
7.75500000000000e-03 2.01105198117815e+02 0.00000000000000e+00
7.91166666666667e-03 1.99890154271109e+02 0.00000000000000e+00
8.06833333333333e-03 1.98682451515351e+02 0.00000000000000e+00
8.22500000000000e-03 1.97482045496901e+02 0.00000000000000e+00
8.38166666666667e-03 1.96288892130098e+02 0.00000000000000e+00
8.53833333333333e-03 1.95102947595637e+02 0.00000000000000e+00
8.69500000000000e-03 1.93924168338965e+02 0.00000000000000e+00
8.85166666666667e-03 1.92752511068675e+02 0.00000000000000e+00
9.00833333333333e-03 1.91587932754922e+02 0.00000000000000e+00
9.16500000000000e-03 1.90430390627837e+02 0.00000000000000e+00
9.32166666666667e-03 1.89279842175964e+02 0.00000000000000e+00
9.47833333333333e-03 1.88136245144690e+02 0.00000000000000e+00
9.63500000000000e-03 1.86999557534698e+02 0.00000000000000e+00
9.79166666666667e-03 1.85869737600426e+02 0.00000000000000e+00
9.94833333333333e-03 1.84746743848529e+02 0.00000000000000e+00
1.01050000000000e-02 1.83630535036360e+02 0.00000000000000e+00
1.02616666666667e-02 1.82521070170452e+02 0.00000000000000e+00
1.04183333333333e-02 1.81418308505014e+02 0.00000000000000e+00
1.05750000000000e-02 1.80322209540433e+02 0.00000000000000e+00
1.07316666666667e-02 1.79232733021789e+02 0.00000000000000e+00
1.08883333333333e-02 1.78149838937377e+02 0.00000000000000e+00
1.10450000000000e-02 1.77073487517232e+02 0.00000000000000e+00
1.12016666666667e-02 1.76003639231677e+02 0.00000000000000e+00
1.13583333333333e-02 1.74940254789864e+02 0.00000000000000e+00
1.15150000000000e-02 1.73883295138334e+02 0.00000000000000e+00
1.16716666666667e-02 1.72832721459582e+02 0.00000000000000e+00
1.18283333333333e-02 1.71788495170633e+02 0.00000000000000e+00
1.19850000000000e-02 1.70750577921624e+02 0.00000000000000e+00
1.21416666666667e-02 1.69718931594394e+02 0.00000000000000e+00
1.22983333333333e-02 1.68693518301087e+02 0.00000000000000e+00
1.24550000000000e-02 1.67674300382758e+02 0.00000000000000e+00
1.26116666666667e-02 1.66661240407991e+02 0.00000000000000e+00
1.27683333333333e-02 1.65654301171525e+02 0.00000000000000e+00
1.29250000000000e-02 1.64653445692887e+02 0.00000000000000e+00
1.30816666666667e-02 1.63658637215034e+02 0.00000000000000e+00
1.32383333333333e-02 1.62669839203001e+02 0.00000000000000e+00
1.33950000000000e-02 1.61687015342564e+02 0.00000000000000e+00
1.35516666666667e-02 1.60710129538901e+02 0.00000000000000e+00
1.37083333333333e-02 1.59739145915270e+02 0.00000000000000e+00
1.38650000000000e-02 1.58774028811690e+02 0.00000000000000e+00
1.40216666666667e-02 1.57814742783632e+02 0.00000000000000e+00
1.41783333333333e-02 1.56861252600716e+02 0.00000000000000e+00
1.43350000000000e-02 1.55913523245420e+02 0.00000000000000e+00
1.44916666666667e-02 1.54971519911789e+02 0.00000000000000e+00
1.46483333333333e-02 1.54035208004162e+02 0.00000000000000e+00
1.48050000000000e-02 1.53104553135898e+02 0.00000000000000e+00
1.49616666666667e-02 1.52179521128116e+02 0.00000000000000e+00
1.51183333333333e-02 1.51260078008436e+02 0.00000000000000e+00
1.52750000000000e-02 1.50346190009735e+02 0.00000000000000e+00
1.54316666666667e-02 1.49437823568903e+02 0.00000000000000e+00
1.55883333333333e-02 1.48534945325617e+02 0.00000000000000e+00
1.57450000000000e-02 1.47637522121106e+02 0.00000000000000e+00
1.59016666666667e-02 1.46745520996943e+02 0.00000000000000e+00
1.60583333333333e-02 1.45858909193829e+02 0.00000000000000e+00
1.62150000000000e-02 1.44977654150390e+02 0.00000000000000e+00
1.63716666666667e-02 1.44101723501984e+02 0.00000000000000e+00
1.65283333333333e-02 1.43231085079509e+02 0.00000000000000e+00
1.66850000000000e-02 1.42365706908226e+02 0.00000000000000e+00
1.68416666666667e-02 1.41505557206579e+02 0.00000000000000e+00
1.69983333333333e-02 1.40650604385032e+02 0.00000000000000e+00
1.71550000000000e-02 1.39800817044910e+02 0.00000000000000e+00
1.73116666666667e-02 1.38956163977239e+02 0.00000000000000e+00
1.74683333333333e-02 1.38116614161607e+02 0.00000000000000e+00
1.76250000000000e-02 1.37282136765023e+02 0.00000000000000e+00
1.77816666666667e-02 1.36452701140783e+02 0.00000000000000e+00
1.79383333333333e-02 1.35628276827343e+02 0.00000000000000e+00
1.80950000000000e-02 1.34808833547206e+02 0.00000000000000e+00
1.82516666666667e-02 1.33994341205804e+02 0.00000000000000e+00
1.84083333333333e-02 1.33184769890397e+02 0.00000000000000e+00
1.85650000000000e-02 1.32380089868971e+02 0.00000000000000e+00
1.87216666666667e-02 1.31580271589151e+02 0.00000000000000e+00
1.88783333333333e-02 1.30785285677108e+02 0.00000000000000e+00
1.90350000000000e-02 1.29995102936488e+02 0.00000000000000e+00
1.91916666666667e-02 1.29209694347336e+02 0.00000000000000e+00
1.93483333333333e-02 1.28429031065031e+02 0.00000000000000e+00
1.95050000000000e-02 1.27653084419223e+02 0.00000000000000e+00
1.96616666666667e-02 1.26881825912789e+02 0.00000000000000e+00
1.98183333333333e-02 1.26115227220776e+02 0.00000000000000e+00
1.99750000000000e-02 1.25353260189369e+02 0.00000000000000e+00
2.01316666666667e-02 1.24595896834851e+02 0.00000000000000e+00
2.02883333333333e-02 1.23843109342579e+02 0.00000000000000e+00
2.04450000000000e-02 1.23094870065962e+02 0.00000000000000e+00
2.06016666666667e-02 1.22351151525445e+02 0.00000000000000e+00
2.07583333333333e-02 1.21611926407498e+02 0.00000000000000e+00
2.09150000000000e-02 1.20877167563617e+02 0.00000000000000e+00
2.10716666666667e-02 1.20146848009325e+02 0.00000000000000e+00
2.12283333333333e-02 1.19420940923177e+02 0.00000000000000e+00
2.13850000000000e-02 1.18699419645784e+02 0.00000000000000e+00
2.15416666666667e-02 1.17982257678823e+02 0.00000000000000e+00
2.16983333333333e-02 1.17269428684075e+02 0.00000000000000e+00
2.18550000000000e-02 1.16560906482447e+02 0.00000000000000e+00
2.20116666666667e-02 1.15856665053019e+02 0.00000000000000e+00
2.21683333333333e-02 1.15156678532083e+02 0.00000000000000e+00
2.23250000000000e-02 1.14460921212198e+02 0.00000000000000e+00
2.24816666666667e-02 1.13769367541240e+02 0.00000000000000e+00
2.26383333333333e-02 1.13081992121468e+02 0.00000000000000e+00
2.27950000000000e-02 1.12398769708590e+02 0.00000000000000e+00
2.29516666666667e-02 1.11719675210835e+02 0.00000000000000e+00
2.31083333333333e-02 1.11044683688033e+02 0.00000000000000e+00
2.32650000000000e-02 1.10373770350699e+02 0.00000000000000e+00
2.34216666666667e-02 1.09706910559119e+02 0.00000000000000e+00
2.35783333333333e-02 1.09044079822453e+02 0.00000000000000e+00
2.37350000000000e-02 1.08385253797825e+02 0.00000000000000e+00
2.38916666666667e-02 1.07730408289438e+02 0.00000000000000e+00
2.40483333333333e-02 1.07079519247682e+02 0.00000000000000e+00
2.42050000000000e-02 1.06432562768248e+02 0.00000000000000e+00
2.43616666666667e-02 1.05789515091256e+02 0.00000000000000e+00
2.45183333333333e-02 1.05150352600378e+02 0.00000000000000e+00
2.46750000000000e-02 1.04515051821970e+02 0.00000000000000e+00
2.48316666666667e-02 1.03883589424216e+02 0.00000000000000e+00
2.49883333333333e-02 1.03255942216262e+02 0.00000000000000e+00
2.51450000000000e-02 1.02632087147374e+02 0.00000000000000e+00
2.53016666666667e-02 1.02012001306082e+02 0.00000000000000e+00
2.54583333333333e-02 1.01395661919348e+02 0.00000000000000e+00
2.56150000000000e-02 1.00783046351721e+02 0.00000000000000e+00
2.57716666666667e-02 1.00174132104511e+02 0.00000000000000e+00
2.59283333333333e-02 9.95688968149618e+01 0.00000000000000e+00
2.60850000000000e-02 9.89673182554291e+01 0.00000000000000e+00
2.62416666666667e-02 9.83693743325637e+01 0.00000000000000e+00
2.63983333333333e-02 9.77750430865011e+01 0.00000000000000e+00
2.65550000000000e-02 9.71843026900544e+01 0.00000000000000e+00
2.67116666666667e-02 9.65971314479131e+01 0.00000000000000e+00
2.68683333333333e-02 9.60135077958461e+01 0.00000000000000e+00
2.70250000000000e-02 9.54334102999097e+01 0.00000000000000e+00
2.71816666666667e-02 9.48568176556605e+01 0.00000000000000e+00
2.73383333333333e-02 9.42837086873729e+01 0.00000000000000e+00
2.74950000000000e-02 9.37140623472617e+01 0.00000000000000e+00
2.76516666666667e-02 9.31478577147087e+01 0.00000000000000e+00
2.78083333333333e-02 9.25850739954945e+01 0.00000000000000e+00
2.79650000000000e-02 9.20256905210351e+01 0.00000000000000e+00
2.81216666666667e-02 9.14696867476225e+01 0.00000000000000e+00
2.82783333333333e-02 9.09170422556704e+01 0.00000000000000e+00
2.84350000000000e-02 9.03677367489639e+01 0.00000000000000e+00
2.85916666666667e-02 8.98217500539150e+01 0.00000000000000e+00
2.87483333333333e-02 8.92790621188205e+01 0.00000000000000e+00
2.89050000000000e-02 8.87396530131267e+01 0.00000000000000e+00
2.90616666666667e-02 8.82035029266968e+01 0.00000000000000e+00
2.92183333333333e-02 8.76705921690835e+01 0.00000000000000e+00
2.93750000000000e-02 8.71409011688059e+01 0.00000000000000e+00
2.95316666666667e-02 8.66144104726306e+01 0.00000000000000e+00
2.96883333333333e-02 8.60911007448575e+01 0.00000000000000e+00
2.98450000000000e-02 8.55709527666096e+01 0.00000000000000e+00
3.00016666666667e-02 8.50539474351269e+01 0.00000000000000e+00
3.01583333333333e-02 8.45400657630654e+01 0.00000000000000e+00
3.03150000000000e-02 8.40292888777991e+01 0.00000000000000e+00
3.04716666666667e-02 8.35215980207274e+01 0.00000000000000e+00
3.06283333333333e-02 8.30169745465862e+01 0.00000000000000e+00
3.07850000000000e-02 8.25153999227625e+01 0.00000000000000e+00
3.09416666666667e-02 8.20168557286147e+01 0.00000000000000e+00
3.10983333333333e-02 8.15213236547954e+01 0.00000000000000e+00
3.12550000000000e-02 8.10287855025791e+01 0.00000000000000e+00
3.14116666666667e-02 8.05392231831942e+01 0.00000000000000e+00
3.15683333333333e-02 8.00526187171583e+01 0.00000000000000e+00
3.17250000000000e-02 7.95689542336180e+01 0.00000000000000e+00
3.18816666666667e-02 7.90882119696926e+01 0.00000000000000e+00
3.20383333333333e-02 7.86103742698217e+01 0.00000000000000e+00
3.21950000000000e-02 7.81354235851169e+01 0.00000000000000e+00
3.23516666666667e-02 7.76633424727173e+01 0.00000000000000e+00
3.25083333333333e-02 7.71941135951487e+01 0.00000000000000e+00
3.26650000000000e-02 7.67277197196870e+01 0.00000000000000e+00
3.28216666666667e-02 7.62641437177255e+01 0.00000000000000e+00
3.29783333333333e-02 7.58033685641456e+01 0.00000000000000e+00
3.31350000000000e-02 7.53453773366913e+01 0.00000000000000e+00
3.32916666666667e-02 7.48901532153486e+01 0.00000000000000e+00
3.34483333333333e-02 7.44376794817268e+01 0.00000000000000e+00
3.36050000000000e-02 7.39879395184449e+01 0.00000000000000e+00
3.37616666666667e-02 7.35409168085216e+01 0.00000000000000e+00
3.39183333333333e-02 7.30965949347682e+01 0.00000000000000e+00
3.40750000000000e-02 7.26549575791860e+01 0.00000000000000e+00
3.42316666666667e-02 7.22159885223667e+01 0.00000000000000e+00
3.43883333333333e-02 7.17796716428973e+01 0.00000000000000e+00
3.45450000000000e-02 7.13459909167675e+01 0.00000000000000e+00
3.47016666666667e-02 7.09149304167812e+01 0.00000000000000e+00
3.48583333333333e-02 7.04864743119720e+01 0.00000000000000e+00
3.50150000000000e-02 7.00606068670215e+01 0.00000000000000e+00
3.51716666666667e-02 6.96373124416813e+01 0.00000000000000e+00
3.53283333333333e-02 6.92165754901990e+01 0.00000000000000e+00
3.54850000000000e-02 6.87983805607467e+01 0.00000000000000e+00
3.56416666666667e-02 6.83827122948542e+01 0.00000000000000e+00
3.57983333333333e-02 6.79695554268443e+01 0.00000000000000e+00
3.59550000000000e-02 6.75588947832726e+01 0.00000000000000e+00
3.61116666666667e-02 6.71507152823702e+01 0.00000000000000e+00
3.62683333333333e-02 6.67450019334895e+01 0.00000000000000e+00
3.64250000000000e-02 6.63417398365541e+01 0.00000000000000e+00
3.65816666666667e-02 6.59409141815112e+01 0.00000000000000e+00
3.67383333333333e-02 6.55425102477878e+01 0.00000000000000e+00
3.68950000000000e-02 6.51465134037504e+01 0.00000000000000e+00
3.70516666666667e-02 6.47529091061671e+01 0.00000000000000e+00
3.72083333333333e-02 6.43616828996738e+01 0.00000000000000e+00
3.73650000000000e-02 6.39728204162436e+01 0.00000000000000e+00
3.75216666666667e-02 6.35863073746583e+01 0.00000000000000e+00
3.76783333333333e-02 6.32021295799849e+01 0.00000000000000e+00
3.78350000000000e-02 6.28202729230534e+01 0.00000000000000e+00
3.79916666666667e-02 6.24407233799393e+01 0.00000000000000e+00
3.81483333333333e-02 6.20634670114483e+01 0.00000000000000e+00
3.83050000000000e-02 6.16884899626041e+01 0.00000000000000e+00
3.84616666666667e-02 6.13157784621402e+01 0.00000000000000e+00
3.86183333333333e-02 6.09453188219935e+01 0.00000000000000e+00
3.87750000000000e-02 6.05770974368021e+01 0.00000000000000e+00
3.89316666666667e-02 6.02111007834052e+01 0.00000000000000e+00
3.90883333333333e-02 5.98473154203469e+01 0.00000000000000e+00
3.92450000000000e-02 5.94857279873820e+01 0.00000000000000e+00
3.94016666666667e-02 5.91263252049861e+01 0.00000000000000e+00
3.95583333333333e-02 5.87690938738670e+01 0.00000000000000e+00
3.97150000000000e-02 5.84140208744806e+01 0.00000000000000e+00
3.98716666666667e-02 5.80610931665491e+01 0.00000000000000e+00
4.00283333333333e-02 5.77102977885815e+01 0.00000000000000e+00
4.01850000000000e-02 5.73616218573982e+01 0.00000000000000e+00
4.03416666666667e-02 5.70150525676576e+01 0.00000000000000e+00
4.04983333333333e-02 5.66705771913855e+01 0.00000000000000e+00
4.06550000000000e-02 5.63281830775085e+01 0.00000000000000e+00
4.08116666666667e-02 5.59878576513884e+01 0.00000000000000e+00
4.09683333333333e-02 5.56495884143612e+01 0.00000000000000e+00
4.11250000000000e-02 5.53133629432775e+01 0.00000000000000e+00
4.12816666666667e-02 5.49791688900466e+01 0.00000000000000e+00
4.14383333333333e-02 5.46469939811829e+01 0.00000000000000e+00
4.15950000000000e-02 5.43168260173549e+01 0.00000000000000e+00
4.17516666666667e-02 5.39886528729379e+01 0.00000000000000e+00
4.19083333333333e-02 5.36624624955677e+01 0.00000000000000e+00
4.20650000000000e-02 5.33382429056987e+01 0.00000000000000e+00
4.22216666666667e-02 5.30159821961637e+01 0.00000000000000e+00
4.23783333333333e-02 5.26956685317365e+01 0.00000000000000e+00
4.25350000000000e-02 5.23772901486974e+01 0.00000000000000e+00
4.26916666666667e-02 5.20608353544013e+01 0.00000000000000e+00
4.28483333333333e-02 5.17462925268477e+01 0.00000000000000e+00
4.30050000000000e-02 5.14336501142547e+01 0.00000000000000e+00
4.31616666666667e-02 5.11228966346340e+01 0.00000000000000e+00
4.33183333333333e-02 5.08140206753697e+01 0.00000000000000e+00
4.34750000000000e-02 5.05070108927992e+01 0.00000000000000e+00
4.36316666666667e-02 5.02018560117959e+01 0.00000000000000e+00
4.37883333333333e-02 4.98985448253562e+01 0.00000000000000e+00
4.39450000000000e-02 4.95970661941868e+01 0.00000000000000e+00
4.41016666666667e-02 4.92974090462966e+01 0.00000000000000e+00
4.42583333333333e-02 4.89995623765893e+01 0.00000000000000e+00
4.44150000000000e-02 4.87035152464597e+01 0.00000000000000e+00
4.45716666666667e-02 4.84092567833917e+01 0.00000000000000e+00
4.47283333333333e-02 4.81167761805593e+01 0.00000000000000e+00
4.48850000000000e-02 4.78260626964293e+01 0.00000000000000e+00
4.50416666666667e-02 4.75371056543672e+01 0.00000000000000e+00
4.51983333333333e-02 4.72498944422448e+01 0.00000000000000e+00
4.53550000000000e-02 4.69644185120508e+01 0.00000000000000e+00
4.55116666666667e-02 4.66806673795031e+01 0.00000000000000e+00
4.56683333333333e-02 4.63986306236638e+01 0.00000000000000e+00
4.58250000000000e-02 4.61182978865567e+01 0.00000000000000e+00
4.59816666666667e-02 4.58396588727866e+01 0.00000000000000e+00
4.61383333333333e-02 4.55627033491615e+01 0.00000000000000e+00
4.62950000000000e-02 4.52874211443165e+01 0.00000000000000e+00
4.64516666666667e-02 4.50138021483405e+01 0.00000000000000e+00
4.66083333333333e-02 4.47418363124046e+01 0.00000000000000e+00
4.67650000000000e-02 4.44715136483935e+01 0.00000000000000e+00
4.69216666666667e-02 4.42028242285382e+01 0.00000000000000e+00
4.70783333333333e-02 4.39357581850518e+01 0.00000000000000e+00
4.72350000000000e-02 4.36703057097666e+01 0.00000000000000e+00
4.73916666666667e-02 4.34064570537746e+01 0.00000000000000e+00
4.75483333333333e-02 4.31442025270688e+01 0.00000000000000e+00
4.77050000000000e-02 4.28835324981876e+01 0.00000000000000e+00
4.78616666666667e-02 4.26244373938612e+01 0.00000000000000e+00
4.80183333333333e-02 4.23669076986599e+01 0.00000000000000e+00
4.81750000000000e-02 4.21109339546444e+01 0.00000000000000e+00
4.83316666666667e-02 4.18565067610189e+01 0.00000000000000e+00
4.84883333333333e-02 4.16036167737856e+01 0.00000000000000e+00
4.86450000000000e-02 4.13522547054016e+01 0.00000000000000e+00
4.88016666666667e-02 4.11024113244375e+01 0.00000000000000e+00
4.89583333333333e-02 4.08540774552391e+01 0.00000000000000e+00
4.91150000000000e-02 4.06072439775896e+01 0.00000000000000e+00
4.92716666666667e-02 4.03619018263751e+01 0.00000000000000e+00
4.94283333333333e-02 4.01180419912517e+01 0.00000000000000e+00
