Energy (eV)          EEDF (eV^-(3/2))     First Anisotropy
1.36507936507937e-02 1.01633050254198e-01 4.80709407193517e-05
4.09523809523810e-02 1.01076009523139e-01 7.94282749685011e-05
6.82539682539683e-02 1.00522021877647e-01 1.04985509136898e-04
9.55555555555556e-02 9.99710705838934e-02 1.24481596212028e-04
1.22857142857143e-01 9.94231390007400e-02 1.40807983268174e-04
1.50158730158730e-01 9.88782105734303e-02 1.55055674412668e-04
1.77460317460317e-01 9.83362688467099e-02 1.67788181190704e-04
2.04761904761905e-01 9.77972974501778e-02 1.79345154530692e-04
2.32063492063492e-01 9.72612801033868e-02 1.89951439463605e-04
2.59365079365079e-01 9.67282006132513e-02 1.99765658465582e-04
2.86666666666667e-01 9.61980428799587e-02 2.08905016156391e-04
3.13968253968254e-01 9.56707908894369e-02 2.17459226370523e-04
3.41269841269841e-01 9.51464287139430e-02 2.25498901376723e-04
3.68571428571429e-01 9.46249405163717e-02 2.33080891033536e-04
3.95873015873016e-01 9.41063105446170e-02 2.40251831563503e-04
4.23174603174603e-01 9.35905231317076e-02 2.47050588829676e-04
4.50476190476190e-01 9.30775626991821e-02 2.53509993613080e-04
4.77777777777778e-01 9.25674137525727e-02 2.59658104748263e-04
5.05079365079365e-01 9.20600608823448e-02 2.65519148345037e-04
5.32380952380952e-01 9.15554887624979e-02 2.71114230004475e-04
5.59682539682540e-01 9.10536821530048e-02 2.76461884371407e-04
5.86984126984127e-01 9.05546258963270e-02 2.81578505287469e-04
6.14285714285714e-01 9.00583049172137e-02 2.86478685796696e-04
6.41587301587302e-01 8.95647042247247e-02 2.91175491894794e-04
6.68888888888889e-01 8.90738089092013e-02 2.95680684525896e-04
6.96190476190476e-01 8.85856041420077e-02 3.00004900380494e-04
7.23492063492064e-01 8.81000751772481e-02 3.04157802157121e-04
7.50793650793651e-01 8.76172073490884e-02 3.08148203612368e-04
7.78095238095238e-01 8.71369860720793e-02 3.11984174049148e-04
8.05396825396825e-01 8.66593968401296e-02 3.15673126607053e-04
8.32698412698413e-01 8.61844252278683e-02 3.19221893669255e-04
8.60000000000000e-01 8.57120568883593e-02 3.22636791455027e-04
8.87301587301587e-01 8.52422775527795e-02 3.25923674741236e-04
9.14603174603175e-01 8.47750730315989e-02 3.29087984943608e-04
9.41904761904762e-01 8.43104292124962e-02 3.32134791882547e-04
9.69206349206349e-01 8.38483320600261e-02 3.35068829441353e-04
9.96507936507937e-01 8.33887676166512e-02 3.37894527551699e-04
1.02380952380952e+00 8.29317220008299e-02 3.40616040500764e-04
1.05111111111111e+00 8.24771814057832e-02 3.43237269986239e-04
1.07841269841270e+00 8.20251321060291e-02 3.45761889421064e-04
1.10571428571429e+00 8.15755604427891e-02 3.48193362226893e-04
1.13301587301587e+00 8.11284528364386e-02 3.50534957246591e-04
1.16031746031746e+00 8.06837957817589e-02 3.52789765883382e-04
1.18761904761905e+00 8.02415758513305e-02 3.54960717395633e-04
1.21492063492063e+00 7.98017796837483e-02 3.57050589884648e-04
1.24222222222222e+00 7.93643939946445e-02 3.59062020020435e-04
1.26952380952381e+00 7.89294055724622e-02 3.60997514777822e-04
1.29682539682540e+00 7.84968012814330e-02 3.62859461992477e-04
1.32412698412698e+00 7.80665680509898e-02 3.64650137328682e-04
1.35142857142857e+00 7.76386928856070e-02 3.66371710464456e-04
1.37873015873016e+00 7.72131628610022e-02 3.68026253507996e-04
1.40603174603175e+00 7.67899651267713e-02 3.69615748612572e-04
1.43333333333333e+00 7.63690868968060e-02 3.71142092464051e-04
1.46063492063492e+00 7.59505154581512e-02 3.72607099643358e-04
1.48793650793651e+00 7.55342381703561e-02 3.74012511403151e-04
1.51523809523810e+00 7.51202424565883e-02 3.75359998256740e-04
1.54253968253968e+00 7.47085158117921e-02 3.76651162858811e-04
1.56984126984127e+00 7.42990457994463e-02 3.77887545150630e-04
1.59714285714286e+00 7.38918200537651e-02 3.79070627045821e-04
1.62444444444444e+00 7.34868262715727e-02 3.80201834533028e-04
1.65174603174603e+00 7.30840522197152e-02 3.81282539516093e-04
1.67904761904762e+00 7.26834857320941e-02 3.82314063882441e-04
1.70634920634921e+00 7.22851147116434e-02 3.83297683216155e-04
1.73365079365079e+00 7.18889271228669e-02 3.84234628123818e-04
1.76095238095238e+00 7.14949109986025e-02 3.85126084839293e-04
1.78825396825397e+00 7.11030544394857e-02 3.85973200667899e-04
1.81555555555556e+00 7.07133456069524e-02 3.86777084337399e-04
1.84285714285714e+00 7.03257727295447e-02 3.87538806770317e-04
1.87015873015873e+00 6.99403241003175e-02 3.88259403946563e-04
1.89746031746032e+00 6.95569880785225e-02 3.88939879521352e-04
1.92476190476190e+00 6.91757530831353e-02 3.89581205340753e-04
1.95206349206349e+00 6.87966075986516e-02 3.90184321844499e-04
1.97936507936508e+00 6.84195401726840e-02 3.90750140485823e-04
2.00666666666667e+00 6.80445394174931e-02 3.91279545945308e-04
2.03396825396825e+00 6.76715940039787e-02 3.91773396359479e-04
2.06126984126984e+00 6.73006926670259e-02 3.92232522999054e-04
2.08857142857143e+00 6.69318242050336e-02 3.92657734212117e-04
2.11587301587302e+00 6.65649774742448e-02 3.93049815007122e-04
2.14317460317460e+00 6.62001413937656e-02 3.93409527060431e-04
2.17047619047619e+00 6.58373049434294e-02 3.93737610589108e-04
2.19777777777778e+00 6.54764571651187e-02 3.94034786064586e-04
2.22507936507936e+00 6.51175871574708e-02 3.94301754131935e-04
2.25238095238095e+00 6.47606840805314e-02 3.94539195471294e-04
2.27968253968254e+00 6.44057371537581e-02 3.94747772453638e-04
2.30698412698413e+00 6.40527356572310e-02 3.94928130655013e-04
2.33428571428571e+00 6.37016689267019e-02 3.95080898660993e-04
2.36158730158730e+00 6.33525263579176e-02 3.95206687823944e-04
2.38888888888889e+00 6.30052974047491e-02 3.95306093744571e-04
2.41619047619048e+00 6.26599715803033e-02 3.95379697626530e-04
2.44349206349206e+00 6.23165384522817e-02 3.95428065997658e-04
2.47079365079365e+00 6.19749876470087e-02 3.95451750002238e-04
2.49809523809524e+00 6.16353088490288e-02 3.95451288306658e-04
2.52539682539683e+00 6.12974917966926e-02 3.95427206366665e-04
2.55269841269841e+00 6.09615262859653e-02 3.95380016074854e-04
2.58000000000000e+00 6.06274021687378e-02 3.95310217003630e-04
2.60730158730159e+00 6.02951093537988e-02 3.95218297540743e-04
2.63460317460317e+00 5.99646378026830e-02 3.95104734525164e-04
2.66190476190476e+00 5.96359775332303e-02 3.94969992853522e-04
2.68920634920635e+00 5.93091186179931e-02 3.94814526620549e-04
2.71650793650794e+00 5.89840511851338e-02 3.94638780160623e-04
2.74380952380952e+00 5.86607654145131e-02 3.94443187651194e-04
2.77111111111111e+00 5.83392515410213e-02 3.94228172343571e-04
2.79841269841270e+00 5.80194998542137e-02 3.93994149007916e-04
2.82571428571429e+00 5.77015006945758e-02 3.93741523156472e-04
2.85301587301587e+00 5.73852444566870e-02 3.93470690612244e-04
2.88031746031746e+00 5.70707215877708e-02 3.93182038500178e-04
2.90761904761905e+00 5.67579225884853e-02 3.92875946152025e-04
2.93492063492064e+00 5.64468380093938e-02 3.92552784681570e-04
2.96222222222222e+00 5.61374584539345e-02 3.92212916539482e-04
2.98952380952381e+00 5.58297745770475e-02 3.91856696437901e-04
3.01682539682540e+00 5.55237770859070e-02 3.91484472194305e-04
3.04412698412698e+00 5.52194567365825e-02 3.91096584296758e-04
3.07142857142857e+00 5.49168043368297e-02 3.90693365451089e-04
3.09873015873016e+00 5.46158107447886e-02 3.90275141447299e-04
3.12603174603175e+00 5.43164668696624e-02 3.89842231950082e-04
3.15333333333333e+00 5.40187636685545e-02 3.89394950058506e-04
3.18063492063492e+00 5.37226921490965e-02 3.88933601551902e-04
3.20793650793651e+00 5.34282433691247e-02 3.88458486901802e-04
3.23523809523810e+00 5.31354084336456e-02 3.87969900519122e-04
3.26253968253968e+00 5.28441784973422e-02 3.87468130301895e-04
3.28984126984127e+00 5.25545447633770e-02 3.86953458411301e-04
3.31714285714286e+00 5.22664984839958e-02 3.86426161979587e-04
3.34444444444444e+00 5.19800309576469e-02 3.85886512673604e-04
3.37174603174603e+00 5.16951335313449e-02 3.85334776244477e-04
3.39904761904762e+00 5.14117975995318e-02 3.84771213261747e-04
3.42634920634921e+00 5.11300146046374e-02 3.84196079782830e-04
3.45365079365079e+00 5.08497760343437e-02 3.83609626919364e-04
3.48095238095238e+00 5.05710734238149e-02 3.83012100122359e-04
3.50825396825397e+00 5.02938983554000e-02 3.82403740955147e-04
3.53555555555556e+00 5.00182424560016e-02 3.81784786382838e-04
3.56285714285714e+00 4.97440973992090e-02 3.81155468333461e-04
3.59015873015873e+00 4.94714549042464e-02 3.80516014364785e-04
3.61746031746032e+00 4.92003067364733e-02 3.79866648272385e-04
3.64476190476190e+00 4.89306447048802e-02 3.79207589668270e-04
3.67206349206349e+00 4.86624606641048e-02 3.78539053548554e-04
3.69936507936508e+00 4.83957465134294e-02 3.77861250928173e-04
3.72666666666667e+00 4.81304941972465e-02 3.77174389419959e-04
3.75396825396825e+00 4.78666957026729e-02 3.76478672819849e-04
3.78126984126984e+00 4.76043430614586e-02 3.75774300439157e-04
3.80857142857143e+00 4.73434283497106e-02 3.75061468682483e-04
3.83587301587302e+00 4.70839436855950e-02 3.74340370384988e-04
3.86317460317460e+00 4.68258812311660e-02 3.73611194396440e-04
3.89047619047619e+00 4.65692331914354e-02 3.72874126163450e-04
3.91777777777778e+00 4.63139918147894e-02 3.72129348260665e-04
3.94507936507937e+00 4.60601493907950e-02 3.71377039991986e-04
3.97238095238095e+00 4.58076982519341e-02 3.70617376982681e-04
3.99968253968254e+00 4.55566307727133e-02 3.69850531736457e-04
4.02698412698413e+00 4.53069393700531e-02 3.69076674143457e-04
4.05428571428571e+00 4.50586165011932e-02 3.68295971089742e-04
4.08158730158730e+00 4.48116546653375e-02 3.67508586058326e-04
4.10888888888889e+00 4.45660464028019e-02 3.66714679662523e-04
4.13619047619048e+00 4.43217842953776e-02 3.65914410132731e-04
4.16349206349206e+00 4.40788609643299e-02 3.65107932934221e-04
4.19079365079365e+00 4.38372690719600e-02 3.64295400164961e-04
4.21809523809524e+00 4.35970013213545e-02 3.63476961918248e-04
4.24539682539683e+00 4.33580504544540e-02 3.62652765685769e-04
4.27269841269841e+00 4.31204092535520e-02 3.61822955976653e-04
4.30000000000000e+00 4.28840705405007e-02 3.60987674811389e-04
4.32730158730159e+00 4.26490271770375e-02 3.60147062172429e-04
4.35460317460317e+00 4.24152720629360e-02 3.59301255639625e-04
4.38190476190476e+00 4.21827981374310e-02 3.58450390018541e-04
4.40920634920635e+00 4.19515983784569e-02 3.57594597814852e-04
4.43650793650794e+00 4.17216658029527e-02 3.56734009667237e-04
4.46380952380952e+00 4.14929934650924e-02 3.55868753991741e-04
4.49111111111111e+00 4.12655744576395e-02 3.54998956426099e-04
4.51841269841270e+00 4.10394019117151e-02 3.54124741059541e-04
4.54571428571429e+00 4.08144689950868e-02 3.53246229882432e-04
4.57301587301587e+00 4.05907689134712e-02 3.52363542432502e-04
4.60031746031746e+00 4.03682949098233e-02 3.51476796236061e-04
4.62761904761905e+00 4.01470402646098e-02 3.50586107210880e-04
4.65492063492063e+00 3.99269982941698e-02 3.49691589327711e-04
4.68222222222222e+00 3.97081623519545e-02 3.48793354265460e-04
4.70952380952381e+00 3.94905258278446e-02 3.47891511836111e-04
4.73682539682540e+00 3.92740821484058e-02 3.46986170372641e-04
4.76412698412698e+00 3.90588247753173e-02 3.46077436399192e-04
4.79142857142857e+00 3.88447472065528e-02 3.45165414295274e-04
4.81873015873016e+00 3.86318429757236e-02 3.44250206705111e-04
4.84603174603175e+00 3.84201056523184e-02 3.43331914911525e-04
4.87333333333333e+00 3.82095288401957e-02 3.42410638514488e-04
4.90063492063492e+00 3.80001061787091e-02 3.41486474934065e-04
4.92793650793651e+00 3.77918313424961e-02 3.40559520487445e-04
4.95523809523810e+00 3.75846980400176e-02 3.39629869896563e-04
4.98253968253968e+00 3.73787000146417e-02 3.38697615969201e-04
5.00984126984127e+00 3.71738310440285e-02 3.37762849981603e-04
5.03714285714286e+00 3.69700849403454e-02 3.36825662027950e-04
5.06444444444444e+00 3.67674555488653e-02 3.35886140715244e-04
5.09174603174603e+00 3.65659367490005e-02 3.34944372852886e-04
5.11904761904762e+00 3.63655224537099e-02 3.34000443821880e-04
5.14634920634921e+00 3.61662066097010e-02 3.33054437912285e-04
5.17365079365079e+00 3.59679831960835e-02 3.32106438026140e-04
5.20095238095238e+00 3.57708462253555e-02 3.31156525219723e-04
5.22825396825397e+00 3.55747897432059e-02 3.30204779683582e-04
5.25555555555556e+00 3.53798078272093e-02 3.29251280289360e-04
5.28285714285714e+00 3.51858945877762e-02 3.28296104295099e-04
5.31015873015873e+00 3.49930441675974e-02 3.27339327691372e-04
5.33746031746032e+00 3.48012507418251e-02 3.26381025517636e-04
5.36476190476191e+00 3.46105085168183e-02 3.25421271580135e-04
5.39206349206349e+00 3.44208117310509e-02 3.24460138165273e-04
5.41936507936508e+00 3.42321546545752e-02 3.23497696374115e-04
5.44666666666667e+00 3.40445315891921e-02 3.22534016428046e-04
5.47396825396825e+00 3.38579368672446e-02 3.21569167394404e-04
5.50126984126984e+00 3.36723648524851e-02 3.20603216765147e-04
5.52857142857143e+00 3.34878099398900e-02 3.19636231350733e-04
5.55587301587302e+00 3.33042665544898e-02 3.18668276862784e-04
5.58317460317460e+00 3.31217291522052e-02 3.17699417642193e-04
5.61047619047619e+00 3.29401922193433e-02 3.16729716973291e-04
5.63777777777778e+00 3.27596502727503e-02 3.15759237371123e-04
5.66507936507937e+00 3.25800978586849e-02 3.14788040320973e-04
5.69238095238095e+00 3.24015295536183e-02 3.13816186013716e-04
5.71968253968254e+00 3.22239399637476e-02 3.12843733649869e-04
5.74698412698413e+00 3.20473237251389e-02 3.11870741717386e-04
5.77428571428571e+00 3.18716755026431e-02 3.10897267738330e-04
5.80158730158730e+00 3.16969899906604e-02 3.09923368011539e-04
5.82888888888889e+00 3.15232619126709e-02 3.08949097906745e-04
5.85619047619048e+00 3.13504860213689e-02 3.07974512133540e-04
5.88349206349206e+00 3.11786570976181e-02 3.06999664494841e-04
5.91079365079365e+00 3.10077699511839e-02 3.06024607510100e-04
5.93809523809524e+00 3.08378194205638e-02 3.05049393207039e-04
5.96539682539683e+00 3.06688003719735e-02 3.04074072748472e-04
5.99269841269841e+00 3.05007077000531e-02 3.03098696188016e-04
6.02000000000000e+00 3.03335363274245e-02 3.02123312747080e-04
6.04730158730159e+00 3.01672812048122e-02 3.01147971068214e-04
6.07460317460318e+00 3.00019373100659e-02 3.00172718981200e-04
6.10190476190476e+00 2.98374996488365e-02 2.99197603265480e-04
6.12920634920635e+00 2.96739632541487e-02 2.98222669918398e-04
6.15650793650794e+00 2.95113231865140e-02 2.97247964400657e-04
6.18380952380952e+00 2.93495745329883e-02 2.96273531408698e-04
6.21111111111111e+00 2.91887124078197e-02 2.95299414527483e-04
6.23841269841270e+00 2.90287319522900e-02 2.94325656955899e-04
6.26571428571429e+00 2.88696283337991e-02 2.93352301162758e-04
6.29301587301587e+00 2.87113967464909e-02 2.92379388661465e-04
6.32031746031746e+00 2.85540324108493e-02 2.91406960262959e-04
6.34761904761905e+00 2.83975305738002e-02 2.90435056307176e-04
6.37492063492064e+00 2.82418865078277e-02 2.89463716447002e-04
6.40222222222222e+00 2.80870955115742e-02 2.88492979428999e-04
6.42952380952381e+00 2.79331529094497e-02 2.87522883338657e-04
6.45682539682540e+00 2.77800540517269e-02 2.86553465824691e-04
6.48412698412698e+00 2.76277943136892e-02 2.85584763888901e-04
6.51142857142857e+00 2.74763690962052e-02 2.84616813672904e-04
6.53873015873016e+00 2.73257738253511e-02 2.83649650695854e-04
6.56603174603175e+00 2.71760039524997e-02 2.82683310071973e-04
6.59333333333333e+00 2.70270549534979e-02 2.81717826305992e-04
6.62063492063492e+00 2.68789223292180e-02 2.80753232982166e-04
6.64793650793651e+00 2.67316016054121e-02 2.79789563410165e-04
6.67523809523810e+00 2.65850883319128e-02 2.78826850316818e-04
6.70253968253968e+00 2.64393780831655e-02 2.77865125643609e-04
6.72984126984127e+00 2.62944664578716e-02 2.76904420771254e-04
6.75714285714286e+00 2.61503490790679e-02 2.75944766725148e-04
6.78444444444444e+00 2.60070215933550e-02 2.74986193981286e-04
6.81174603174603e+00 2.58644796714076e-02 2.74028732269359e-04
6.83904761904762e+00 2.57227190076289e-02 2.73072410790435e-04
6.86634920634921e+00 2.55817353202255e-02 2.72117258416334e-04
6.89365079365079e+00 2.54415243504614e-02 2.71163303500826e-04
6.92095238095238e+00 2.53020818631482e-02 2.70210573592610e-04
6.94825396825397e+00 2.51634036465087e-02 2.69259096028868e-04
6.97555555555556e+00 2.50254855114517e-02 2.68308897650921e-04
7.00285714285714e+00 2.48883232920459e-02 2.67360004617212e-04
7.03015873015873e+00 2.47519128451929e-02 2.66412442609186e-04
7.05746031746032e+00 2.46162500506936e-02 2.65466237019857e-04
7.08476190476190e+00 2.44813308105474e-02 2.64521412774451e-04
7.11206349206349e+00 2.43471510494069e-02 2.63577994148392e-04
7.13936507936508e+00 2.42137067142616e-02 2.62636004967168e-04
7.16666666666667e+00 2.40809937744991e-02 2.61695468789331e-04
7.19396825396825e+00 2.39490082212287e-02 2.60756408731903e-04
7.22126984126984e+00 2.38177460677174e-02 2.59818847205503e-04
7.24857142857143e+00 2.36872033492622e-02 2.58882806460568e-04
7.27587301587302e+00 2.35573761225312e-02 2.57948308324699e-04
7.30317460317460e+00 2.34282604659854e-02 2.57015374029864e-04
7.33047619047619e+00 2.32998524795795e-02 2.56084024401507e-04
7.35777777777778e+00 2.31721482848166e-02 2.55154280031811e-04
7.38507936507937e+00 2.30451440241112e-02 2.54226161113877e-04
7.41238095238095e+00 2.29188358611942e-02 2.53299687273468e-04
7.43968253968254e+00 2.27932199808232e-02 2.52374877752658e-04
7.46698412698413e+00 2.26682925888328e-02 2.51451751578044e-04
7.49428571428571e+00 2.25440499115194e-02 2.50530327399351e-04
7.52158730158730e+00 2.24204881960298e-02 2.49610623325816e-04
7.54888888888889e+00 2.22976037100802e-02 2.48692657104464e-04
7.57619047619048e+00 2.21753927420035e-02 2.47776446283467e-04
7.60349206349206e+00 2.20538516001537e-02 2.46862008055082e-04
7.63079365079365e+00 2.19329766132798e-02 2.45949359017672e-04
7.65809523809524e+00 2.18127641304089e-02 2.45038515664506e-04
7.68539682539683e+00 2.16932105202653e-02 2.44129494147896e-04
7.71269841269841e+00 2.15743121716333e-02 2.43222310123672e-04
7.74000000000000e+00 2.14560654930896e-02 2.42316978920058e-04
7.76730158730159e+00 2.13384669130462e-02 2.41413515692504e-04
7.79460317460317e+00 2.12215128791880e-02 2.40511935274433e-04
7.82190476190476e+00 2.11051998588214e-02 2.39612252025854e-04
7.84920634920635e+00 2.09895243386155e-02 2.38714479997456e-04
7.87650793650794e+00 2.08744828246405e-02 2.37818633080970e-04
7.90380952380952e+00 2.07600718418253e-02 2.36924724863927e-04
7.93111111111111e+00 2.06462879342910e-02 2.36032768409622e-04
7.95841269841270e+00 2.05331276652420e-02 2.35142776707903e-04
7.98571428571429e+00 2.04205876164355e-02 2.34254762457122e-04
8.01301587301587e+00 2.03086643885060e-02 2.33368737920228e-04
8.04031746031746e+00 2.01973546007196e-02 2.32484715080340e-04
8.06761904761905e+00 2.00866548910086e-02 2.31602705783362e-04
8.09492063492064e+00 1.99765619154582e-02 2.30722721599837e-04
8.12222222222222e+00 1.98670723486190e-02 2.29844773684889e-04
8.14952380952381e+00 1.97581828832677e-02 2.28968872929366e-04
8.17682539682540e+00 1.96498902304397e-02 2.28095030098463e-04
8.20412698412698e+00 1.95421911189322e-02 2.27223255697250e-04
8.23142857142857e+00 1.94350822956043e-02 2.26353559834353e-04
8.25873015873016e+00 1.93285605251451e-02 2.25485952368861e-04
8.28603174603175e+00 1.92226225901037e-02 2.24620443045012e-04
8.31333333333333e+00 1.91172652904080e-02 2.23757041361280e-04
8.34063492063492e+00 1.90124854436535e-02 2.22895756372423e-04
8.36793650793651e+00 1.89082798850017e-02 2.22036597094032e-04
8.39523809523810e+00 1.88046454667122e-02 2.21179572306247e-04
8.42253968253968e+00 1.87015790584213e-02 2.20324690424088e-04
8.44984126984127e+00 1.85990775469228e-02 2.19471959636884e-04
8.47714285714286e+00 1.84971378361932e-02 2.18621388036078e-04
8.50444444444445e+00 1.83957568469379e-02 2.17772983490740e-04
8.53174603174603e+00 1.82949315168601e-02 2.16926753521341e-04
8.55904761904762e+00 1.81946588004470e-02 2.16082705435257e-04
8.58634920634921e+00 1.80949356689937e-02 2.15240846451063e-04
8.61365079365079e+00 1.79957591101634e-02 2.14401183577287e-04
