Energy (eV)          EEDF (eV^-(3/2))     First Anisotropy
2.54054054054054e-03 2.80589836866836e+00 1.69098721923471e-03
7.62162162162162e-03 2.77976983715999e+00 2.78867455651781e-03
1.27027027027027e-02 2.75388461443715e+00 3.67177310171675e-03
1.77837837837838e-02 2.72824043516950e+00 4.33685996661966e-03
2.28648648648649e-02 2.70283505452199e+00 4.88676329032787e-03
2.79459459459459e-02 2.67766624881259e+00 5.36050200217315e-03
3.30270270270270e-02 2.65273181505846e+00 5.77833796237176e-03
3.81081081081081e-02 2.62802957079196e+00 6.15254777205549e-03
4.31891891891892e-02 2.60355735392538e+00 6.49130042874920e-03
4.82702702702703e-02 2.57931302238213e+00 6.80038851900404e-03
5.33513513513514e-02 2.55529445409593e+00 7.08411392556056e-03
5.84324324324324e-02 2.53149954676011e+00 7.34578615092408e-03
6.35135135135135e-02 2.50792621764441e+00 7.58802314052567e-03
6.85945945945946e-02 2.48457240341324e+00 7.81294307375754e-03
7.36756756756757e-02 2.46143605997596e+00 8.02229210386305e-03
7.87567567567568e-02 2.43851516221156e+00 8.21753251700144e-03
8.38378378378378e-02 2.41580770389020e+00 8.39990542586283e-03
8.89189189189189e-02 2.39331169746367e+00 8.57047651149615e-03
9.40000000000000e-02 2.37102517389213e+00 8.73017011392541e-03
9.90810810810811e-02 2.34894618249319e+00 8.87979515225447e-03
1.04162162162162e-01 2.32707279061993e+00 9.02006510780594e-03
1.09243243243243e-01 2.30540308383867e+00 9.15161373348577e-03
1.14324324324324e-01 2.28393516543115e+00 9.27500754408938e-03
1.19405405405405e-01 2.26266715634166e+00 9.39075580746766e-03
1.24486486486486e-01 2.24159719501252e+00 9.49931869989307e-03
1.29567567567568e-01 2.22072343722083e+00 9.60111398868726e-03
1.34648648648649e-01 2.20004405591711e+00 9.69652256404301e-03
1.39729729729730e-01 2.17955724106607e+00 9.78589305575356e-03
1.44810810810811e-01 2.15926119948756e+00 9.86954571496826e-03
1.49891891891892e-01 2.13915415469963e+00 9.94777570038391e-03
1.54972972972973e-01 2.11923434676303e+00 1.00208558924266e-02
1.60054054054054e-01 2.09950003200836e+00 1.00890392497242e-02
1.65135135135135e-01 2.07994948324609e+00 1.01525609066390e-02
1.70216216216216e-01 2.06058098924601e+00 1.02116399940047e-02
1.75297297297297e-01 2.04139285471295e+00 1.02664811538951e-02
1.80378378378378e-01 2.02238340013844e+00 1.03172759182178e-02
1.85459459459459e-01 2.00355096165362e+00 1.03642039059851e-02
1.90540540540541e-01 1.98489389088367e+00 1.04074338788681e-02
1.95621621621622e-01 1.96641055480320e+00 1.04471246751716e-02
2.00702702702703e-01 1.94809933559392e+00 1.04834260393534e-02
2.05783783783784e-01 1.92995863050271e+00 1.05164793612696e-02
2.10864864864865e-01 1.91198685170131e+00 1.05464183368908e-02
2.15945945945946e-01 1.89418242614737e+00 1.05733695607645e-02
2.21027027027027e-01 1.87654379544674e+00 1.05974530693306e-02
2.26108108108108e-01 1.85906941564311e+00 1.06187827892739e-02
2.31189189189189e-01 1.84175775730793e+00 1.06374669934605e-02
2.36270270270270e-01 1.82460730517811e+00 1.06536087162373e-02
2.41351351351351e-01 1.80761655810076e+00 1.06673060780082e-02
2.46432432432432e-01 1.79078402890171e+00 1.06786526219426e-02
2.51513513513514e-01 1.77410824425542e+00 1.06877376110896e-02
2.56594594594595e-01 1.75758774455587e+00 1.06946463000266e-02
2.61675675675676e-01 1.74122108378896e+00 1.06994601837640e-02
2.66756756756757e-01 1.72500682940598e+00 1.07022572262901e-02
2.71837837837838e-01 1.70894356219810e+00 1.07031120707281e-02
2.76918918918919e-01 1.69302987617219e+00 1.07020962329548e-02
2.82000000000000e-01 1.67726437842776e+00 1.06992782886705e-02
2.87081081081081e-01 1.66164568898301e+00 1.06947240132103e-02
2.92162162162162e-01 1.64617244081205e+00 1.06884965515931e-02
2.97243243243243e-01 1.63084327956518e+00 1.06806565775631e-02
3.02324324324324e-01 1.61565686350442e+00 1.06712623991615e-02
3.07405405405405e-01 1.60061186338608e+00 1.06603700899977e-02
3.12486486486487e-01 1.58570696234440e+00 1.06480336033033e-02
3.17567567567568e-01 1.57094085577627e+00 1.06343048782717e-02
3.22648648648649e-01 1.55631225122700e+00 1.06192339393264e-02
3.27729729729730e-01 1.54181986827734e+00 1.06028689889407e-02
3.32810810810811e-01 1.52746243843130e+00 1.05852564945123e-02
3.37891891891892e-01 1.51323870500516e+00 1.05664412697401e-02
3.42972972972973e-01 1.49914742301741e+00 1.05464665577613e-02
3.48054054054054e-01 1.48518735904156e+00 1.05253740822567e-02
3.53135135135135e-01 1.47135729121434e+00 1.05032041286921e-02
3.58216216216216e-01 1.45765600901117e+00 1.04799956217138e-02
3.63297297297297e-01 1.44408231317991e+00 1.04557861636945e-02
3.68378378378378e-01 1.43063501563584e+00 1.04306120981723e-02
3.73459459459459e-01 1.41731293935772e+00 1.04045085629899e-02
3.78540540540541e-01 1.40411491828471e+00 1.03775095404954e-02
3.83621621621622e-01 1.39103979721431e+00 1.03496479049689e-02
3.88702702702703e-01 1.37808643170132e+00 1.03209554675187e-02
3.93783783783784e-01 1.36525368795762e+00 1.02914630186128e-02
3.98864864864865e-01 1.35254044275294e+00 1.02612003683555e-02
4.03945945945946e-01 1.33994558331652e+00 1.02301963846978e-02
4.09027027027027e-01 1.32746800723976e+00 1.01984790352130e-02
4.14108108108108e-01 1.31510662235122e+00 1.01660754048736e-02
4.19189189189189e-01 1.30286034670731e+00 1.01330117400042e-02
4.24270270270270e-01 1.29072810841041e+00 1.00993134907680e-02
4.29351351351351e-01 1.27870884554439e+00 1.00650053236604e-02
4.34432432432432e-01 1.26680150608171e+00 1.00301111555184e-02
4.39513513513514e-01 1.25500504779131e+00 9.99465418044005e-03
4.44594594594595e-01 1.24331843814737e+00 9.95865689544243e-03
4.49675675675676e-01 1.23174065423897e+00 9.92214112495155e-03
4.54756756756757e-01 1.22027068268054e+00 9.88512804420034e-03
4.59837837837838e-01 1.20890751952319e+00 9.84763820157313e-03
4.64918918918919e-01 1.19765017016678e+00 9.80969153996286e-03
4.70000000000000e-01 1.18649764927290e+00 9.77130742179876e-03
4.75081081081081e-01 1.17544898065648e+00 9.73250463468738e-03
4.80162162162162e-01 1.16450319726744e+00 9.69330141947511e-03
4.85243243243243e-01 1.15365934103825e+00 9.65371549764944e-03
4.90324324324324e-01 1.14291646282291e+00 9.61376407421767e-03
4.95405405405405e-01 1.13227362231387e+00 9.57346385900186e-03
5.00486486486487e-01 1.12172988795974e+00 9.53283108245362e-03
5.05567567567568e-01 1.11128433688372e+00 9.49188151082926e-03
5.10648648648649e-01 1.10093605480283e+00 9.45063046075878e-03
5.15729729729730e-01 1.09068413594794e+00 9.40909281325029e-03
5.20810810810811e-01 1.08052768298442e+00 9.36728302715237e-03
5.25891891891892e-01 1.07046580693364e+00 9.32521515208864e-03
5.30972972972973e-01 1.06049762709513e+00 9.28290284477184e-03
5.36054054054054e-01 1.05062227095197e+00 9.24035936927772e-03
5.41135135135135e-01 1.04083887414756e+00 9.19759761642986e-03
5.46216216216216e-01 1.03114658035629e+00 9.15463012287093e-03
5.51297297297297e-01 1.02154454122665e+00 9.11146906972341e-03
5.56378378378378e-01 1.01203191630698e+00 9.06812629694508e-03
5.61459459459460e-01 1.00260787297194e+00 9.02461331326732e-03
5.66540540540541e-01 9.93271586349560e-01 8.98094130578438e-03
5.71621621621622e-01 9.84022239249092e-01 8.93712114919378e-03
5.76702702702703e-01 9.74859022089478e-01 8.89316341472056e-03
5.81783783783784e-01 9.65781132828485e-01 8.84907837874169e-03
5.86864864864865e-01 9.56787776892500e-01 8.80487603110332e-03
5.91945945945946e-01 9.47878167106981e-01 8.76056608315759e-03
5.97027027027027e-01 9.39051523627560e-01 8.71615797875918e-03
6.02108108108108e-01 9.30307073857967e-01 8.67166089200816e-03
6.07189189189189e-01 9.21644052424240e-01 8.62708374106015e-03
6.12270270270270e-01 9.13061701065503e-01 8.58243520179979e-03
6.17351351351351e-01 9.04559268581806e-01 8.53772370459030e-03
6.22432432432433e-01 8.96136010768379e-01 8.49295744422088e-03
6.27513513513514e-01 8.87791190350488e-01 8.44814438627102e-03
6.32594594594595e-01 8.79524076918897e-01 8.40329227326829e-03
6.37675675675676e-01 8.71333946865947e-01 8.35840863065164e-03
6.42756756756757e-01 8.63220083322221e-01 8.31350077255364e-03
6.47837837837838e-01 8.55181776093791e-01 8.26857580740038e-03
6.52918918918919e-01 8.47218321600059e-01 8.22364064333751e-03
6.58000000000000e-01 8.39329022812171e-01 8.17870199624130e-03
6.63081081081081e-01 8.31513189180799e-01 8.13376638650280e-03
6.68162162162162e-01 8.23770136609631e-01 8.08884014955325e-03
6.73243243243243e-01 8.16099187361250e-01 8.04392944632927e-03
6.78324324324324e-01 8.08499670009332e-01 7.99904025937820e-03
6.83405405405405e-01 8.00970919379877e-01 7.95417840025051e-03
6.88486486486487e-01 7.93512276492987e-01 7.90934951388636e-03
6.93567567567568e-01 7.86123088505183e-01 7.86455908287481e-03
6.98648648648649e-01 7.78802708652266e-01 7.81981243158568e-03
7.03729729729730e-01 7.71550496192712e-01 7.77511473018799e-03
7.08810810810811e-01 7.64365816351587e-01 7.73047099855469e-03
7.13891891891892e-01 7.57248040264980e-01 7.68588611005089e-03
7.18972972972973e-01 7.50196544924963e-01 7.64136479757197e-03
7.24054054054054e-01 7.43210713115885e-01 7.59691165000970e-03
7.29135135135135e-01 7.36289933388120e-01 7.55253112050302e-03
7.34216216216216e-01 7.29433599976522e-01 7.50822753467202e-03
7.39297297297297e-01 7.22641112756837e-01 7.46400508659398e-03
7.44378378378378e-01 7.15911877193167e-01 7.41986784446264e-03
7.49459459459459e-01 7.09245304285936e-01 7.37581975370257e-03
7.54540540540541e-01 7.02640810520330e-01 7.33186464000035e-03
7.59621621621622e-01 6.96097817815226e-01 7.28800621224963e-03
7.64702702702703e-01 6.89615753472596e-01 7.24424806542135e-03
7.69783783783784e-01 6.83194050127381e-01 7.20059368335912e-03
7.74864864864865e-01 6.76832145697827e-01 7.15704644149735e-03
7.79945945945946e-01 6.70529483336284e-01 7.11360960950904e-03
7.85027027027027e-01 6.64285511380474e-01 7.07028635587645e-03
7.90108108108108e-01 6.58099683297755e-01 7.02707974437640e-03
7.95189189189189e-01 6.51971457659803e-01 6.98399274056489e-03
8.00270270270270e-01 6.45900298072513e-01 6.94102821826662e-03
8.05351351351351e-01 6.39885673136681e-01 6.89818895570191e-03
8.10432432432432e-01 6.33927056401495e-01 6.85547763982945e-03
8.15513513513514e-01 6.28023926318455e-01 6.81289686855121e-03
8.20594594594595e-01 6.22175766195719e-01 6.77044915286026e-03
8.25675675675676e-01 6.16382064152882e-01 6.72813691893335e-03
8.30756756756757e-01 6.10642313076173e-01 6.68596251017433e-03
8.35837837837838e-01 6.04956010574065e-01 6.64392818920563e-03
8.40918918918919e-01 5.99322658933305e-01 6.60203613980821e-03
8.46000000000000e-01 5.93741765075345e-01 6.56028847053115e-03
8.51081081081081e-01 5.88212840507012e-01 6.51868721134805e-03
8.56162162162162e-01 5.82735401296429e-01 6.47723431893554e-03
8.61243243243243e-01 5.77308968011822e-01 6.43593168196810e-03
8.66324324324324e-01 5.71933065685884e-01 6.39478111749652e-03
8.71405405405405e-01 5.66607223774208e-01 6.35378437441203e-03
8.76486486486487e-01 5.61330976114097e-01 6.31294313507827e-03
8.81567567567568e-01 5.56103860883758e-01 6.27225901692344e-03
8.86648648648649e-01 5.50925420561887e-01 6.23173357399246e-03
8.91729729729730e-01 5.45795201887620e-01 6.19136829846484e-03
8.96810810810811e-01 5.40712755820861e-01 6.15116462213601e-03
9.01891891891892e-01 5.35677637502974e-01 6.11112391786188e-03
9.06972972972973e-01 5.30689406217851e-01 6.07124750245211e-03
9.12054054054054e-01 5.25747625348181e-01 6.03153663356719e-03
9.17135135135135e-01 5.20851862352817e-01 5.99199251406558e-03
9.22216216216216e-01 5.16001688713202e-01 5.95261629637240e-03
9.27297297297297e-01 5.11196679901149e-01 5.91340907915652e-03
9.32378378378378e-01 5.06436415341675e-01 5.87437191013018e-03
9.37459459459460e-01 5.01720478376194e-01 5.83550578727276e-03
9.42540540540541e-01 4.97048456226046e-01 5.79681166002730e-03
9.47621621621622e-01 4.92419939956364e-01 5.75829043046611e-03
9.52702702702703e-01 4.87834524440287e-01 5.71994295443148e-03
9.57783783783784e-01 4.83291808323496e-01 5.68177004265232e-03
9.62864864864865e-01 4.78791393989085e-01 5.64377246183189e-03
9.67945945945946e-01 4.74332887522756e-01 5.60595093571187e-03
9.73027027027027e-01 4.69915898678344e-01 5.56830614737906e-03
9.78108108108108e-01 4.65540040839407e-01 5.53083873645267e-03
9.83189189189189e-01 4.61204930998240e-01 5.49354930264132e-03
9.88270270270270e-01 4.56910189709392e-01 5.45643840932556e-03
9.93351351351351e-01 4.52655441060808e-01 5.41950658057060e-03
9.98432432432433e-01 4.48440312640928e-01 5.38275429980479e-03
1.00351351351351e+00 4.44264435517911e-01 5.34618202033665e-03
1.00859459459459e+00 4.40127444175478e-01 5.30979017307019e-03
1.01367567567568e+00 4.36028976470623e-01 5.27357912475545e-03
1.01875675675676e+00 4.31968673710035e-01 5.23754921108789e-03
1.02383783783784e+00 4.27946180501553e-01 5.20170075908991e-03
1.02891891891892e+00 4.23961144762428e-01 5.16603405169216e-03
1.03400000000000e+00 4.20013217688512e-01 5.13054934069599e-03
1.03908108108108e+00 4.16102053723708e-01 5.09524684754305e-03
1.04416216216216e+00 4.12227310529745e-01 5.06012676406280e-03
1.04924324324324e+00 4.08388648956219e-01 5.02518925322138e-03
1.05432432432432e+00 4.04585733010902e-01 4.99043444984966e-03
1.05940540540541e+00 4.00818229830327e-01 4.95586247170262e-03
1.06448648648649e+00 3.97085809617359e-01 4.92147338885375e-03
1.06956756756757e+00 3.93388145713020e-01 4.88726724533362e-03
1.07464864864865e+00 3.89724914466390e-01 4.85324408113921e-03
1.07972972972973e+00 3.86095795240386e-01 4.81940390071081e-03
1.08481081081081e+00 3.82500470383696e-01 4.78574668437101e-03
1.08989189189189e+00 3.78938625202968e-01 4.75227238893336e-03
1.09497297297297e+00 3.75409947935298e-01 4.71898094831137e-03
1.10005405405405e+00 3.71914129720917e-01 4.68587227412107e-03
1.10513513513514e+00 3.68450864576165e-01 4.65294626557856e-03
1.11021621621622e+00 3.65019849337351e-01 4.62020278189205e-03
1.11529729729730e+00 3.61620783722977e-01 4.58764166168504e-03
1.12037837837838e+00 3.58253370217983e-01 4.55526274275735e-03
1.12545945945946e+00 3.54917314077772e-01 4.52306583365550e-03
1.13054054054054e+00 3.51612323302412e-01 4.49105072392353e-03
1.13562162162162e+00 3.48338108611057e-01 4.45921718459738e-03
1.14070270270270e+00 3.45094383416667e-01 4.42756496870335e-03
1.14578378378378e+00 3.41880863800902e-01 4.39609381175718e-03
1.15086486486486e+00 3.38697268489273e-01 4.36480344063333e-03
1.15594594594595e+00 3.35543318800607e-01 4.33369354864628e-03
1.16102702702703e+00 3.32418738701014e-01 4.30276381300413e-03
1.16610810810811e+00 3.29323254700739e-01 4.27201391257126e-03
1.17118918918919e+00 3.26256595856770e-01 4.24144350221144e-03
1.17627027027027e+00 3.23218493749115e-01 4.21105222198040e-03
1.18135135135135e+00 3.20208682457299e-01 4.18083969753596e-03
1.18643243243243e+00 3.17226898537111e-01 4.15080554054406e-03
1.19151351351351e+00 3.14272880997537e-01 4.12094934908708e-03
1.19659459459459e+00 3.11346371277917e-01 4.09127071562730e-03
1.20167567567568e+00 3.08447113202387e-01 4.06176920450026e-03
1.20675675675676e+00 3.05574853026759e-01 4.03244436761470e-03
1.21183783783784e+00 3.02729339346464e-01 4.00329576043273e-03
1.21691891891892e+00 2.99910323098014e-01 3.97432291880270e-03
1.22200000000000e+00 2.97117557537203e-01 3.94552536721204e-03
1.22708108108108e+00 2.94350798217501e-01 3.91690261912721e-03
1.23216216216216e+00 2.91609802968667e-01 3.88845417732459e-03
1.23724324324324e+00 2.88894331875557e-01 3.86017953422401e-03
1.24232432432432e+00 2.86204147257121e-01 3.83207817221268e-03
1.24740540540541e+00 2.83539013645596e-01 3.80414957071053e-03
1.25248648648649e+00 2.80898697745882e-01 3.77639318607235e-03
1.25756756756757e+00 2.78282968475632e-01 3.74880846554965e-03
1.26264864864865e+00 2.75691596884042e-01 3.72139486150754e-03
1.26772972972973e+00 2.73124356152299e-01 3.69415181074050e-03
1.27281081081081e+00 2.70581021573727e-01 3.66707874179714e-03
1.27789189189189e+00 2.68061370534113e-01 3.64017507524975e-03
1.28297297297297e+00 2.65565182492239e-01 3.61344022396598e-03
1.28805405405405e+00 2.63092238960570e-01 3.58687359337861e-03
1.29313513513514e+00 2.60642323486125e-01 3.56047458783875e-03
1.29821621621622e+00 2.58215221613786e-01 3.53424259244188e-03
1.30329729729730e+00 2.55810720921191e-01 3.50817698561071e-03
1.30837837837838e+00 2.53428610946054e-01 3.48227715190958e-03
1.31345945945946e+00 2.51068683185916e-01 3.45654246334152e-03
1.31854054054054e+00 2.48730731079896e-01 3.43097228594172e-03
1.32362162162162e+00 2.46414549990597e-01 3.40556597999710e-03
1.32870270270270e+00 2.44119937186219e-01 3.38032290026715e-03
1.33378378378378e+00 2.41846691822802e-01 3.35524239620792e-03
1.33886486486486e+00 2.39594614926645e-01 3.33032381769060e-03
1.34394594594595e+00 2.37363509361129e-01 3.30556649855930e-03
1.34902702702703e+00 2.35153179857115e-01 3.28096976797849e-03
1.35410810810811e+00 2.32963432947829e-01 3.25653296199156e-03
1.35918918918919e+00 2.30794076968061e-01 3.23225540660219e-03
1.36427027027027e+00 2.28644922037390e-01 3.20813642371154e-03
1.36935135135135e+00 2.26515780043553e-01 3.18417533129936e-03
1.37443243243243e+00 2.24406464625998e-01 3.16037144360343e-03
1.37951351351351e+00 2.22316791159565e-01 3.13672407130168e-03
1.38459459459459e+00 2.20246576738322e-01 3.11323252666615e-03
1.38967567567568e+00 2.18195640145547e-01 3.08989610867980e-03
1.39475675675676e+00 2.16163801880227e-01 3.06671411327681e-03
1.39983783783784e+00 2.14150884098657e-01 3.04368584377546e-03
1.40491891891892e+00 2.12156710613212e-01 3.02081059556641e-03
1.41000000000000e+00 2.10181106876930e-01 2.99808766146226e-03
1.41508108108108e+00 2.08223899968226e-01 2.97551633184700e-03
1.42016216216216e+00 2.06284918575762e-01 2.95309589482106e-03
1.42524324324324e+00 2.04363992983456e-01 2.93082563634838e-03
1.43032432432432e+00 2.02460955055626e-01 2.90870484039884e-03
1.43540540540541e+00 2.00575638222267e-01 2.88673279353904e-03
1.44048648648649e+00 1.98707877452169e-01 2.86490877160982e-03
1.44556756756757e+00 1.96857509275673e-01 2.84323204886480e-03
1.45064864864865e+00 1.95024371732877e-01 2.82170190728208e-03
1.45572972972973e+00 1.93208304372050e-01 2.80031762285986e-03
1.46081081081081e+00 1.91409148235585e-01 2.77907847038281e-03
1.46589189189189e+00 1.89626745846088e-01 2.75798372353828e-03
1.47097297297297e+00 1.87860941192602e-01 2.73703265503472e-03
1.47605405405405e+00 1.86111579716943e-01 2.71622453671890e-03
1.48113513513514e+00 1.84378508300173e-01 2.69555864371744e-03
1.48621621621622e+00 1.82661575238234e-01 2.67503424236587e-03
1.49129729729730e+00 1.80960630261814e-01 2.65465059846672e-03
1.49637837837838e+00 1.79275524489796e-01 2.63440698570538e-03
1.50145945945946e+00 1.77606110427447e-01 2.61430267323382e-03
1.50654054054054e+00 1.75952241953502e-01 2.59433692997413e-03
1.51162162162162e+00 1.74313774307376e-01 2.57450902471071e-03
1.51670270270270e+00 1.72690564076500e-01 2.55481822618449e-03
1.52178378378378e+00 1.71082469183762e-01 2.53526380318969e-03
1.52686486486487e+00 1.69489348875077e-01 2.51584502831211e-03
1.53194594594595e+00 1.67911063697278e-01 2.49656116698743e-03
1.53702702702703e+00 1.66347475515478e-01 2.47741148496818e-03
1.54210810810811e+00 1.64798447471194e-01 2.45839525593363e-03
1.54718918918919e+00 1.63263843980366e-01 2.43951175023632e-03
1.55227027027027e+00 1.61743530721498e-01 2.42076023878788e-03
1.55735135135135e+00 1.60237374623889e-01 2.40213999313409e-03
1.56243243243243e+00 1.58745243855998e-01 2.38365028552930e-03
1.56751351351351e+00 1.57267007813901e-01 2.36529038901255e-03
1.57259459459459e+00 1.55802537109859e-01 2.34705958078610e-03
1.57767567567568e+00 1.54351703552259e-01 2.32895713229380e-03
1.58275675675676e+00 1.52914380160788e-01 2.31098231597505e-03
1.58783783783784e+00 1.51490441128726e-01 2.29313441214975e-03
1.59291891891892e+00 1.50079761820866e-01 2.27541269881476e-03
1.59800000000000e+00 1.48682218762605e-01 2.25781645515455e-03
1.60308108108108e+00 1.47297689629135e-01 2.24034496160163e-03
