Energy (eV)          EEDF (eV^-(3/2))     First Anisotropy
9.05555555555555e-04 3.86193240740277e+01 2.89745090457127e-02
2.71666666666667e-03 3.78842722809330e+01 4.75496778827734e-02
4.52777777777778e-03 3.71632109227639e+01 6.19930438592313e-02
6.33888888888889e-03 3.64558737158523e+01 7.25036556064996e-02
8.15000000000000e-03 3.57619994447937e+01 8.08952807657337e-02
9.96111111111111e-03 3.50813318654252e+01 8.78667829299382e-02
1.17722222222222e-02 3.44136196104356e+01 9.37863386712764e-02
1.35833333333333e-02 3.37586160998781e+01 9.88801272048941e-02
1.53944444444444e-02 3.31160794446379e+01 1.03300663461491e-01
1.72055555555556e-02 3.24857723596225e+01 1.07157483492749e-01
1.90166666666667e-02 3.18674620760548e+01 1.10532933601150e-01
2.08277777777778e-02 3.12609202555929e+01 1.13491103843741e-01
2.26388888888889e-02 3.06659229059311e+01 1.16083251684344e-01
2.44500000000000e-02 3.00822502980774e+01 1.18351279608135e-01
2.62611111111111e-02 2.95096868835876e+01 1.20330064283209e-01
2.80722222222222e-02 2.89480212200033e+01 1.22049073786858e-01
2.98833333333333e-02 2.83970458875155e+01 1.23533524501777e-01
3.16944444444444e-02 2.78565574141988e+01 1.24805229787190e-01
3.35055555555556e-02 2.73263562008679e+01 1.25883236701559e-01
3.53166666666667e-02 2.68062464473565e+01 1.26784312724345e-01
3.71277777777778e-02 2.62960360802295e+01 1.27523324144390e-01
3.89388888888889e-02 2.57955366818385e+01 1.28113534634674e-01
4.07500000000000e-02 2.53045634207401e+01 1.28566844029456e-01
4.25611111111111e-02 2.48229349826086e+01 1.28893981415564e-01
4.43722222222222e-02 2.43504735058364e+01 1.29104663235596e-01
4.61833333333333e-02 2.38870045132145e+01 1.29207723897405e-01
4.79944444444444e-02 2.34323568484064e+01 1.29211224462274e-01
4.98055555555556e-02 2.29863626127406e+01 1.29122544106853e-01
5.16166666666667e-02 2.25488571032028e+01 1.28948457527012e-01
5.34277777777778e-02 2.21196787516200e+01 1.28695200929014e-01
5.52388888888889e-02 2.16986690649897e+01 1.28368528653382e-01
5.70500000000000e-02 2.12856725669491e+01 1.27973762074567e-01
5.88611111111111e-02 2.08805367398574e+01 1.27515831950938e-01
6.06722222222222e-02 2.04831119700123e+01 1.26999315488139e-01
6.24833333333333e-02 2.00932514908190e+01 1.26428468839238e-01
6.42944444444444e-02 1.97108113291307e+01 1.25807255602797e-01
6.61055555555556e-02 1.93356502520798e+01 1.25139372123361e-01
6.79166666666667e-02 1.89676297149200e+01 1.24428269932245e-01
6.97277777777778e-02 1.86066138098662e+01 1.23677175748225e-01
7.15388888888889e-02 1.82524692159022e+01 1.22889109366384e-01
7.33500000000000e-02 1.79050651495464e+01 1.22066899728527e-01
7.51611111111111e-02 1.75642733162246e+01 1.21213199319819e-01
7.69722222222222e-02 1.72299678639013e+01 1.20330497252745e-01
7.87833333333333e-02 1.69020253355707e+01 1.19421131118426e-01
8.05944444444444e-02 1.65803246240170e+01 1.18487297652060e-01
8.24055555555556e-02 1.62647469270905e+01 1.17531062512912e-01
8.42166666666667e-02 1.59551757038333e+01 1.16554369187982e-01
8.60277777777778e-02 1.56514966314435e+01 1.15559047133160e-01
8.78388888888889e-02 1.53535975630556e+01 1.14546819233239e-01
8.96500000000000e-02 1.50613684863252e+01 1.13519308664917e-01
9.14611111111111e-02 1.47747014825747e+01 1.12478045157235e-01
9.32722222222222e-02 1.44934906876352e+01 1.11424470827426e-01
9.50833333333333e-02 1.42176322520415e+01 1.10359945573031e-01
9.68944444444444e-02 1.39470243029229e+01 1.09285751987095e-01
9.87055555555555e-02 1.36815669063820e+01 1.08203099967965e-01
1.00516666666667e-01 1.34211620305893e+01 1.07113130959609e-01
1.02327777777778e-01 1.31657135099390e+01 1.06016921969605e-01
1.04138888888889e-01 1.29151270086154e+01 1.04915489231028e-01
1.05950000000000e-01 1.26693099865077e+01 1.03809791690059e-01
1.07761111111111e-01 1.24281716632263e+01 1.02700733940804e-01
1.09572222222222e-01 1.21916229895312e+01 1.01589169417242e-01
1.11383333333333e-01 1.19595766093963e+01 1.00475903418655e-01
1.13194444444444e-01 1.17319468294667e+01 9.93616953819067e-02
1.15005555555556e-01 1.15086495874125e+01 9.82472614526141e-02
1.16816666666667e-01 1.12896024208814e+01 9.71332767859118e-02
1.18627777777778e-01 1.10747244370537e+01 9.60203777072057e-02
1.20438888888889e-01 1.08639362827644e+01 9.49091637433759e-02
1.22250000000000e-01 1.06571601151990e+01 9.38001996139299e-02
1.24061111111111e-01 1.04543195719637e+01 9.26940167806617e-02
1.25872222222222e-01 1.02553397464982e+01 9.15911153083999e-02
1.27683333333333e-01 1.00601471567324e+01 9.04919656423989e-02
1.29494444444444e-01 9.86866971920036e+00 8.93970098449272e-02
1.31305555555556e-01 9.68083672242043e+00 8.83066631111355e-02
1.33116666666667e-01 9.49657880077934e+00 8.72213151139674e-02
1.34927777777778e-01 9.31582790892083e+00 8.61413312762002e-02
1.36738888888889e-01 9.13851729661425e+00 8.50670539743518e-02
1.38550000000000e-01 8.96458148410411e+00 8.39988037421617e-02
1.40361111111111e-01 8.79395623705014e+00 8.29368801536651e-02
1.42172222222222e-01 8.62657854548834e+00 8.18815629772468e-02
1.43983333333333e-01 8.46238659783095e+00 8.08331132882115e-02
1.45794444444444e-01 8.30131975896685e+00 7.97917741749229e-02
1.47605555555556e-01 8.14331854786931e+00 7.87577716853308e-02
1.49416666666667e-01 7.98832461562848e+00 7.77313156564087e-02
1.51227777777778e-01 7.83628072390668e+00 7.67126005024165e-02
1.53038888888889e-01 7.68713072379887e+00 7.57018059643761e-02
1.54850000000000e-01 7.54081953509723e+00 7.46990978734568e-02
1.56661111111111e-01 7.39729312528852e+00 7.37046286725504e-02
1.58472222222222e-01 7.25649849161966e+00 7.27185381651062e-02
1.60283333333333e-01 7.11838363946932e+00 7.17409542425927e-02
1.62094444444444e-01 6.98289756384380e+00 7.07719932984315e-02
1.63905555555556e-01 6.84999023054109e+00 6.98117608427118e-02
1.65716666666667e-01 6.71961255767256e+00 6.88603520324906e-02
1.67527777777778e-01 6.59171639753947e+00 6.79178521773852e-02
1.69338888888889e-01 6.46625451885108e+00 6.69843372217591e-02
1.71150000000000e-01 6.34318058928250e+00 6.60598742451565e-02
1.72961111111111e-01 6.22244915786039e+00 6.51445217758963e-02
1.74772222222222e-01 6.10401563971547e+00 6.42383302923715e-02
1.76583333333333e-01 5.98783629805413e+00 6.33413427132881e-02
1.78394444444444e-01 5.87386822853682e+00 6.24535946420997e-02
1.80205555555556e-01 5.76206934343380e+00 6.15751147770562e-02
1.82016666666667e-01 5.65239835608162e+00 6.07059252583313e-02
1.83827777777778e-01 5.54481476563773e+00 5.98460419996411e-02
1.85638888888889e-01 5.43927884212292e+00 5.89954750051163e-02
1.87450000000000e-01 5.33575161174932e+00 5.81542287046781e-02
1.89261111111111e-01 5.23419484214029e+00 5.73223021428377e-02
1.91072222222222e-01 5.13457102939234e+00 5.64996893215433e-02
1.92883333333333e-01 5.03684338302457e+00 5.56863795374935e-02
1.94694444444444e-01 4.94097581279910e+00 5.48823575246641e-02
1.96505555555556e-01 4.84693291539323e+00 5.40876037327240e-02
1.98316666666667e-01 4.75467996132461e+00 5.33020945574582e-02
2.00127777777778e-01 4.66418288212696e+00 5.25258025611433e-02
2.01938888888889e-01 4.57540825776822e+00 5.17586966833374e-02
2.03750000000000e-01 4.48832330430872e+00 5.10007424687873e-02
2.05561111111111e-01 4.40289586149441e+00 5.02519021791491e-02
2.07372222222222e-01 4.31909438179430e+00 4.95121350308201e-02
2.09183333333333e-01 4.23688791782118e+00 4.87813974302964e-02
2.10994444444444e-01 4.15624611121767e+00 4.80596430539715e-02
2.12805555555556e-01 4.07713918144515e+00 4.73468230392160e-02
2.14616666666667e-01 3.99953791478553e+00 4.66428861382767e-02
2.16427777777778e-01 3.92341365355362e+00 4.59477788654998e-02
2.18238888888889e-01 3.84873828551358e+00 4.52614456381799e-02
2.20050000000000e-01 3.77548423349724e+00 4.45838289325870e-02
2.21861111111111e-01 3.70362444498641e+00 4.39148693472071e-02
2.23672222222222e-01 3.63313238283455e+00 4.32545057691588e-02
2.25483333333333e-01 3.56398201474322e+00 4.26026755398300e-02
2.27294444444444e-01 3.49614780389369e+00 4.19593144955903e-02
2.29105555555556e-01 3.42960469951627e+00 4.13243570995874e-02
2.30916666666667e-01 3.36432812763901e+00 4.06977365444022e-02
2.32727777777778e-01 3.30029398201316e+00 4.00793848501999e-02
2.34538888888889e-01 3.23747861521066e+00 3.94692329585730e-02
2.36350000000000e-01 3.17585882989121e+00 3.88672108395339e-02
2.38161111111111e-01 3.11541187005266e+00 3.82732475239897e-02
2.39972222222222e-01 3.05611541318501e+00 3.76872712206610e-02
2.41783333333333e-01 2.99794756146028e+00 3.71092094331543e-02
2.43594444444444e-01 2.94088683383769e+00 3.65389889762599e-02
2.45405555555556e-01 2.88491215813082e+00 3.59765360668357e-02
2.47216666666667e-01 2.83000286322559e+00 3.54217763916566e-02
2.49027777777778e-01 2.77613867144694e+00 3.48746351721884e-02
2.50838888888889e-01 2.72329969107019e+00 3.43350372264184e-02
2.52650000000000e-01 2.67146640897516e+00 3.38029070419306e-02
2.54461111111111e-01 2.62061968329600e+00 3.32781687888787e-02
2.56272222222222e-01 2.57074073679112e+00 3.27607464021108e-02
2.58083333333333e-01 2.52181114946307e+00 3.22505636639468e-02
2.59894444444444e-01 2.47381285190711e+00 3.17475442053814e-02
2.61705555555556e-01 2.42672811863831e+00 3.12516115684034e-02
2.63516666666667e-01 2.38053956154543e+00 3.07626892499874e-02
2.65327777777778e-01 2.33523012346993e+00 3.02807007439750e-02
2.67138888888889e-01 2.29078307190674e+00 2.98055695809349e-02
2.68950000000000e-01 2.24718199282496e+00 2.93372193775550e-02
2.70761111111111e-01 2.20441078449247e+00 2.88755738373923e-02
2.72572222222222e-01 2.16245365187644e+00 2.84205568083097e-02
2.74383333333333e-01 2.12129510045812e+00 2.79720923408007e-02
2.76194444444444e-01 2.08091993063005e+00 2.75301046800897e-02
2.78005555555556e-01 2.04131323208294e+00 2.70945183083613e-02
2.79816666666667e-01 2.00246037829927e+00 2.66652579723328e-02
2.81627777777778e-01 1.96434702115203e+00 2.62422487093734e-02
2.83438888888889e-01 1.92695908560591e+00 2.58254158722348e-02
2.85250000000000e-01 1.89028276451952e+00 2.54146851618254e-02
2.87061111111111e-01 1.85430451345609e+00 2.50099826204980e-02
2.88872222222222e-01 1.81901104595676e+00 2.46112346718511e-02
2.90683333333333e-01 1.78438932835460e+00 2.42183681615154e-02
2.92494444444444e-01 1.75042657505594e+00 2.38313103440425e-02
2.94305555555556e-01 1.71711024381867e+00 2.34499889109462e-02
2.96116666666667e-01 1.68442803112048e+00 2.30743320069786e-02
2.97927777777778e-01 1.65236786761530e+00 2.27042682454087e-02
2.99738888888889e-01 1.62091791367617e+00 2.23397267223495e-02
3.01550000000000e-01 1.59006655502287e+00 2.19806370378493e-02
3.03361111111111e-01 1.55980239836097e+00 2.16269292848526e-02
3.05172222222222e-01 1.53011426739328e+00 2.12785340763705e-02
3.06983333333333e-01 1.50099119847025e+00 2.09353825736345e-02
3.08794444444444e-01 1.47242243661637e+00 2.05974064702998e-02
3.10605555555556e-01 1.44439743155843e+00 2.02645380104715e-02
3.12416666666667e-01 1.41690583382933e+00 1.99367099972441e-02
3.14227777777778e-01 1.38993749094617e+00 1.96138558005675e-02
3.16038888888889e-01 1.36348244366096e+00 1.92959093644680e-02
3.17850000000000e-01 1.33753092228271e+00 1.89828052199426e-02
3.19661111111111e-01 1.31207334301220e+00 1.86744784716560e-02
3.21472222222222e-01 1.28710030457738e+00 1.83708648160555e-02
3.23283333333333e-01 1.26260258458427e+00 1.80719005604265e-02
3.25094444444444e-01 1.23857113617113e+00 1.77775226060383e-02
3.26905555555556e-01 1.21499708466756e+00 1.74876684591148e-02
3.28716666666667e-01 1.19187172431705e+00 1.72022762341417e-02
3.30527777777778e-01 1.16918651506213e+00 1.69212846567221e-02
3.32338888888889e-01 1.14693307939050e+00 1.66446330660027e-02
3.34150000000000e-01 1.12510319924129e+00 1.63722614218518e-02
3.35961111111111e-01 1.10368881292422e+00 1.61041102906393e-02
3.37772222222222e-01 1.08268201228230e+00 1.58401208568773e-02
3.39583333333333e-01 1.06207503962950e+00 1.55802349357280e-02
3.41394444444444e-01 1.04186028493388e+00 1.53243949561300e-02
3.43205555555556e-01 1.02203028300723e+00 1.50725439668374e-02
3.45016666666667e-01 1.00257771074825e+00 1.48246256362486e-02
3.46827777777778e-01 9.83495384438185e-01 1.45805842519433e-02
3.48638888888889e-01 9.64776257087910e-01 1.43403647199403e-02
3.50450000000000e-01 9.46413415835513e-01 1.41039125679314e-02
3.52261111111111e-01 9.28400079356579e-01 1.38711739310124e-02
3.54072222222222e-01 9.10729595472028e-01 1.36420955587154e-02
3.55883333333333e-01 8.93395438577692e-01 1.34166248228306e-02
3.57694444444444e-01 8.76391207272956e-01 1.31947097011520e-02
3.59505555555556e-01 8.59710621996762e-01 1.29762987801049e-02
3.61316666666667e-01 8.43347522708576e-01 1.27613412523364e-02
3.63127777777778e-01 8.27295866613577e-01 1.25497869141209e-02
3.64938888888889e-01 8.11549725931060e-01 1.23415861625952e-02
3.66750000000000e-01 7.96103285705341e-01 1.21366899963171e-02
3.68561111111111e-01 7.80950841628718e-01 1.19350500014869e-02
3.70372222222222e-01 7.66086798025044e-01 1.17366183557326e-02
3.72183333333333e-01 7.51505665691798e-01 1.15413478325994e-02
3.73994444444444e-01 7.37202059903905e-01 1.13491917862891e-02
3.75805555555556e-01 7.23170698425192e-01 1.11601041519727e-02
3.77616666666667e-01 7.09406399557666e-01 1.09740394420072e-02
3.79427777777778e-01 6.95904080227987e-01 1.07909527420470e-02
3.81238888888889e-01 6.82658754110296e-01 1.06107997070555e-02
3.83050000000000e-01 6.69665529784800e-01 1.04335365600979e-02
3.84861111111111e-01 6.56919608907538e-01 1.02591200793739e-02
3.86672222222222e-01 6.44416284510991e-01 1.00875075997434e-02
3.88483333333333e-01 6.32150939192150e-01 9.91865701487671e-03
3.90294444444444e-01 6.20119043432263e-01 9.75252676318299e-03
3.92105555555556e-01 6.08316153924106e-01 9.58907582659388e-03
3.93916666666667e-01 5.96737911931086e-01 9.42826372601258e-03
3.95727777777778e-01 5.85380041677613e-01 9.27005051670984e-03
3.97538888888889e-01 5.74238348770070e-01 9.11439678367321e-03
3.99350000000000e-01 5.63308718647843e-01 8.96126363927936e-03
4.01161111111111e-01 5.52587115044594e-01 8.81061271131110e-03
4.02972222222222e-01 5.42069578556272e-01 8.66240614294298e-03
4.04783333333333e-01 5.31752225119487e-01 8.51660659327511e-03
4.06594444444444e-01 5.21631244597258e-01 8.37317722453081e-03
4.08405555555556e-01 5.11702899371949e-01 8.23208169987344e-03
4.10216666666667e-01 5.01963522964981e-01 8.09328417850457e-03
4.12027777777778e-01 4.92409518682844e-01 7.95674931074579e-03
4.13838888888889e-01 4.83037358288851e-01 7.82244223310753e-03
4.15650000000000e-01 4.73843580700177e-01 7.69032856529991e-03
4.17461111111111e-01 4.64824790694145e-01 7.56037439930835e-03
4.19272222222222e-01 4.55977657701742e-01 7.43254629836016e-03
4.21083333333333e-01 4.47298914529614e-01 7.30681129636950e-03
4.22894444444444e-01 4.38785356169766e-01 7.18313688640780e-03
4.24705555555556e-01 4.30433838615968e-01 7.06149101795310e-03
4.26516666666667e-01 4.22241277702685e-01 6.94184209191977e-03
4.28327777777778e-01 4.14204647966132e-01 6.82415895569649e-03
4.30138888888889e-01 4.06320981526975e-01 6.70841089819418e-03
4.31950000000000e-01 3.98587366994318e-01 6.59456764651686e-03
4.33761111111111e-01 3.91000948377942e-01 6.48259935610492e-03
4.35572222222222e-01 3.83558924071935e-01 6.37247660905794e-03
4.37383333333333e-01 3.76258545781190e-01 6.26417041287333e-03
4.39194444444444e-01 3.69097117519631e-01 6.15765219014606e-03
4.41005555555556e-01 3.62071994614598e-01 6.05289377553091e-03
4.42816666666667e-01 3.55180582730179e-01 5.94986741089062e-03
4.44627777777778e-01 3.48420336909152e-01 5.84854574046763e-03
4.46438888888889e-01 3.41788760633141e-01 5.74890180608082e-03
4.48250000000000e-01 3.35283404900663e-01 5.65090904367864e-03
4.50061111111111e-01 3.28901867312524e-01 5.55454127451804e-03
4.51872222222222e-01 3.22641791215685e-01 5.45977270311226e-03
4.53683333333333e-01 3.16500864801456e-01 5.36657791553815e-03
4.55494444444444e-01 3.10476820262412e-01 5.27493187029337e-03
4.57305555555556e-01 3.04567432954907e-01 5.18480989516533e-03
4.59116666666667e-01 2.98770520577522e-01 5.09618768261611e-03
4.60927777777778e-01 2.93083942365164e-01 5.00904128520010e-03
4.62738888888889e-01 2.87505598298491e-01 4.92334711101579e-03
4.64550000000000e-01 2.82033428328384e-01 4.83908192029132e-03
4.66361111111111e-01 2.76665411606896e-01 4.75622281754213e-03
4.68172222222222e-01 2.71399565766184e-01 4.67474724933285e-03
4.69983333333333e-01 2.66233946160852e-01 4.59463300234987e-03
4.71794444444444e-01 2.61166645158453e-01 4.51585819532906e-03
4.73605555555556e-01 2.56195791435014e-01 4.43840127596209e-03
4.75416666666667e-01 2.51319549283962e-01 4.36224101658753e-03
4.77227777777778e-01 2.46536117938219e-01 4.28735650992065e-03
4.79038888888889e-01 2.41843730905182e-01 4.21372716482156e-03
4.80850000000000e-01 2.37240655314372e-01 4.14133270301090e-03
4.82661111111111e-01 2.32725191270756e-01 4.07015315213549e-03
4.84472222222222e-01 2.28295671247480e-01 4.00016884347626e-03
4.86283333333333e-01 2.23950459449275e-01 3.93136040992381e-03
4.88094444444444e-01 2.19687951215396e-01 3.86370877888219e-03
4.89905555555556e-01 2.15506572427032e-01 3.79719516929820e-03
4.91716666666667e-01 2.11404778925986e-01 3.73180108769554e-03
4.93527777777778e-01 2.07381055944440e-01 3.66750832424899e-03
4.95338888888889e-01 2.03433917545551e-01 3.60429894889901e-03
4.97150000000000e-01 1.99561906074705e-01 3.54215530825910e-03
4.98961111111111e-01 1.95763591615734e-01 3.48106001951088e-03
5.00772222222222e-01 1.92037571479532e-01 3.42099596814796e-03
5.02583333333333e-01 1.88382469669135e-01 3.36194630594960e-03
5.04394444444444e-01 1.84796936377292e-01 3.30389444476536e-03
5.06205555555556e-01 1.81279647487993e-01 3.24682405372035e-03
5.08016666666667e-01 1.77829304087475e-01 3.19071905560464e-03
5.09827777777778e-01 1.74444631984547e-01 3.13556362330284e-03
5.11638888888889e-01 1.71124381240036e-01 3.08134217626378e-03
5.13450000000000e-01 1.67867325705194e-01 3.02803937763336e-03
5.15261111111111e-01 1.64672262564420e-01 2.97564012890092e-03
5.17072222222222e-01 1.61538011904655e-01 2.92412956773696e-03
5.18883333333333e-01 1.58463416265866e-01 2.87349306602819e-03
5.20694444444444e-01 1.55447340218262e-01 2.82371622445103e-03
5.22505555555556e-01 1.52488669942990e-01 2.77478486988243e-03
5.24316666666667e-01 1.49586312820804e-01 2.72668505214136e-03
5.26127777777778e-01 1.46739197028570e-01 2.67940304076915e-03
5.27938888888889e-01 1.43946271143450e-01 2.63292532184885e-03
5.29750000000000e-01 1.41206503754611e-01 2.58723859537908e-03
5.31561111111111e-01 1.38518883078700e-01 2.54232977059414e-03
5.33372222222222e-01 1.35882416597265e-01 2.49818596393208e-03
5.35183333333333e-01 1.33296130678996e-01 2.45479449717161e-03
5.36994444444444e-01 1.30759070223965e-01 2.41214289270701e-03
5.38805555555556e-01 1.28270298310913e-01 2.37021887117801e-03
5.40616666666667e-01 1.25828895851252e-01 2.32901034854976e-03
5.42427777777778e-01 1.23433961249649e-01 2.28850543322973e-03
5.44238888888889e-01 1.21084610071077e-01 2.24869242322170e-03
5.46050000000000e-01 1.18779974714192e-01 2.20955980374332e-03
5.47861111111111e-01 1.16519204087968e-01 2.17109624314667e-03
5.49672222222222e-01 1.14301463306426e-01 2.13329059103682e-03
5.51483333333333e-01 1.12125933371155e-01 2.09613187653449e-03
5.53294444444444e-01 1.09991810871956e-01 2.05960930417158e-03
5.55105555555556e-01 1.07898307690151e-01 2.02371225174171e-03
5.56916666666667e-01 1.05844650707529e-01 1.98843026769906e-03
5.58727777777778e-01 1.03830081520847e-01 1.95375306859187e-03
5.60538888888889e-01 1.01853856161750e-01 1.91967053652995e-03
5.62350000000000e-01 9.99152448220294e-02 1.88617271704030e-03
5.64161111111111e-01 9.80135315816845e-02 1.85324981551972e-03
5.65972222222222e-01 9.61480141519157e-02 1.82089219551253e-03
5.67783333333333e-01 9.43180036082900e-02 1.78909037711140e-03
5.69594444444444e-01 9.25228241388552e-02 1.75783503339928e-03
5.71405555555555e-01 9.07618127945670e-02 1.72711698851497e-03
