Energy (eV)          EEDF (eV^-(3/2))     First Anisotropy
8.60000000000000e-01 8.57767060865219e-02 2.75255249494328e-04
2.58000000000000e+00 6.04598241630003e-02 3.88755395658918e-04
4.30000000000000e+00 4.26151866234379e-02 3.64179122619297e-04
6.02000000000000e+00 3.00373703710144e-02 3.06037906603189e-04
7.74000000000000e+00 2.11718800337077e-02 2.45347557648215e-04
9.46000000000000e+00 1.49230275029090e-02 1.91481363809220e-04
1.11800000000000e+01 1.05185155733937e-02 1.46853601522384e-04
1.29000000000000e+01 7.41398954375435e-03 1.11249295819962e-04
1.46200000000000e+01 5.22576028635990e-03 8.35092530513205e-05
1.63400000000000e+01 3.68338401468362e-03 6.22439619214372e-05
1.80600000000000e+01 2.59623806990148e-03 4.61327828261451e-05
1.97800000000000e+01 1.82996182009133e-03 3.40347849213288e-05
2.15000000000000e+01 1.28985099703089e-03 2.50134726362229e-05
2.32200000000000e+01 9.09153172637532e-04 1.83240140478424e-05
2.49400000000000e+01 6.40817810134308e-04 1.33864383036665e-05
2.66600000000000e+01 4.51681276757806e-04 9.75592861799972e-06
2.83800000000000e+01 3.18368142313026e-04 7.09515998217078e-06
3.01000000000000e+01 2.24402204066113e-04 5.15054728157358e-06
3.18200000000000e+01 1.58170188838234e-04 3.73277427995279e-06
3.35400000000000e+01 1.11486465746798e-04 2.70129853366425e-06
3.52600000000000e+01 7.85813820923221e-05 1.95227018148457e-06
3.69800000000000e+01 5.53881905769971e-05 1.40925162267521e-06
3.87000000000000e+01 3.90404390163239e-05 1.01616854456746e-06
4.04200000000000e+01 2.75177048159485e-05 7.32002622001685e-07
4.21400000000000e+01 1.93958904514639e-05 5.26823526373548e-07
4.38600000000000e+01 1.36712189087497e-05 3.78839227125396e-07
4.55800000000000e+01 9.63617663848218e-06 2.72213676979758e-07
4.73000000000000e+01 6.79207178436745e-06 1.95458701026016e-07
4.90200000000000e+01 4.78740073524294e-06 1.40253051600425e-07
5.07400000000000e+01 3.37440570821928e-06 1.00577712527198e-07
5.24600000000000e+01 2.37845430398988e-06 7.20843852732618e-08
5.41800000000000e+01 1.67645664609584e-06 5.16353121621969e-08
5.59000000000000e+01 1.18165267313493e-06 3.69686177192590e-08
5.76200000000000e+01 8.32889441655806e-07 2.64553625622593e-08
5.93400000000000e+01 5.87063218992529e-07 1.89234557891722e-08
6.10600000000000e+01 4.13792282453131e-07 1.35302086592012e-08
6.27800000000000e+01 2.91662034817329e-07 9.67021235565392e-09
6.45000000000000e+01 2.05578369053849e-07 6.90882729190226e-09
6.62200000000000e+01 1.44902183958602e-07 4.93421497308062e-09
6.79400000000000e+01 1.02134495047349e-07 3.52277688683657e-09
6.96600000000000e+01 7.19896332380833e-08 2.51427565300831e-09
7.13800000000000e+01 5.07419877226705e-08 1.79394086758253e-09
7.31000000000000e+01 3.57655568202779e-08 1.27960861332479e-09
7.48200000000000e+01 2.52093997904820e-08 9.12485259991170e-10
7.65400000000000e+01 1.77688786166482e-08 6.50518580951824e-10
7.82600000000000e+01 1.25244174759126e-08 4.63643107162252e-10
7.99800000000000e+01 8.82785213941278e-09 3.30371775657446e-10
8.17000000000000e+01 6.22232319748320e-09 2.35353990022266e-10
8.34200000000000e+01 4.38581269401653e-09 1.67626964800564e-10
8.51400000000000e+01 3.09134584889079e-09 1.19364125005007e-10
8.68600000000000e+01 2.17893918964937e-09 8.49796767853809e-11
8.85800000000000e+01 1.53582815520089e-09 6.04882652300174e-11
9.03000000000000e+01 1.08253049626746e-09 4.30472349561032e-11
9.20200000000000e+01 7.63023044850874e-10 3.06295461726864e-11
9.37400000000000e+01 5.37817797263840e-10 2.17901366786436e-11
9.54600000000000e+01 3.79081582143118e-10 1.54990899686991e-11
9.71800000000000e+01 2.67196152026246e-10 1.10225457557567e-11
9.89000000000000e+01 1.88333559372660e-10 7.83771673460385e-12
1.00620000000000e+02 1.32747157161496e-10 5.57226172214023e-12
1.02340000000000e+02 9.35670084139936e-11 3.96104674664444e-12
1.04060000000000e+02 6.59508290101725e-11 2.81531545367414e-12
1.05780000000000e+02 4.64855286158590e-11 2.00071306667695e-12
1.07500000000000e+02 3.27653860175516e-11 1.42162520885617e-12
1.09220000000000e+02 2.30947254521035e-11 1.01001962084733e-12
1.10940000000000e+02 1.62783476264350e-11 7.17497894257735e-13
1.12660000000000e+02 1.14738147459955e-11 5.09634986800149e-13
1.14380000000000e+02 8.08733342268933e-12 3.61948853928459e-13
1.16100000000000e+02 5.70036760551456e-12 2.57031325149864e-13
1.17820000000000e+02 4.01791160814961e-12 1.82506034375074e-13
1.19540000000000e+02 2.83203028437780e-12 1.29575265654985e-13
1.21260000000000e+02 1.99616027275589e-12 9.19860598188605e-14
1.22980000000000e+02 1.40699619510048e-12 6.52947436725096e-14
1.24700000000000e+02 9.91723119654181e-13 4.63438315359764e-14
1.26420000000000e+02 6.99017345946972e-13 3.28900343690589e-14
1.28140000000000e+02 4.92703296163081e-13 2.33397666687224e-14
1.29860000000000e+02 3.47282566673789e-13 1.65611144089600e-14
1.31580000000000e+02 2.44782574126753e-13 1.17501794595077e-14
1.33300000000000e+02 1.72535319495039e-13 8.33608869017750e-15
1.35020000000000e+02 1.21611746994050e-13 5.91349168126757e-15
1.36740000000000e+02 8.57181999038187e-14 4.19459858731243e-15
1.38460000000000e+02 6.04185860031308e-14 2.97510608397483e-15
1.40180000000000e+02 4.25861198521866e-14 2.10999287316367e-15
1.41900000000000e+02 3.00168826190475e-14 1.49632806262697e-15
1.43620000000000e+02 2.11574392147730e-14 1.06106195202850e-15
1.45340000000000e+02 1.49128488726794e-14 7.52356211269812e-16
1.47060000000000e+02 1.05113411524818e-14 5.33428064837619e-16
1.48780000000000e+02 7.40893264373345e-15 3.78179950324185e-16
1.50500000000000e+02 5.22219592372554e-15 2.68097097259969e-16
1.52220000000000e+02 3.68087166899027e-15 1.90045396928383e-16
1.53940000000000e+02 2.59446723973340e-15 1.34708458922106e-16
1.55660000000000e+02 1.82871364811703e-15 9.54784294025825e-17
1.57380000000000e+02 1.28897122137228e-15 6.76689046652497e-17
1.59100000000000e+02 9.08533061606815e-16 4.79564564957710e-17
1.60820000000000e+02 6.40380724058271e-16 3.39844026610059e-17
1.62540000000000e+02 4.51373196061928e-16 2.40817116852743e-17
1.64260000000000e+02 3.18150991229118e-16 1.70636032231125e-17
1.65980000000000e+02 2.24249144838860e-16 1.20901119369267e-17
1.67700000000000e+02 1.58062304840487e-16 8.56577331701713e-18
1.69420000000000e+02 1.11410423569016e-16 6.06848085219143e-18
1.71140000000000e+02 7.85277836632445e-17 5.04329644134053e-18
