Energy (eV)          EEDF (eV^-(3/2))     First Anisotropy
1.19354838709677e-04 1.26407280537585e+02 3.80334445641623e-02
3.58064516129032e-04 1.25706696921927e+02 6.28412486696888e-02
5.96774193548387e-04 1.25009996131711e+02 8.30562336133356e-02
8.35483870967742e-04 1.24317156647588e+02 9.84739190422507e-02
1.07419354838710e-03 1.23628157068651e+02 1.11382394590227e-01
1.31290322580645e-03 1.22942976112603e+02 1.22645081259552e-01
1.55161290322581e-03 1.22261592617793e+02 1.32707979522740e-01
1.79032258064516e-03 1.21583985535631e+02 1.41839933074966e-01
2.02903225806452e-03 1.20910133936301e+02 1.50218927830054e-01
2.26774193548387e-03 1.20240017005938e+02 1.57970538648731e-01
2.50645161290323e-03 1.19573614047190e+02 1.65187558969651e-01
2.74516129032258e-03 1.18910904475065e+02 1.71941022408037e-01
2.98387096774194e-03 1.18251867819841e+02 1.78286843268827e-01
3.22258064516129e-03 1.17596483725236e+02 1.84270041688625e-01
3.46129032258065e-03 1.16944731948583e+02 1.89927552027648e-01
3.70000000000000e-03 1.16296592357789e+02 1.95290157542246e-01
3.93870967741935e-03 1.15652044933153e+02 2.00383863598830e-01
4.17741935483871e-03 1.15011069765926e+02 2.05230897207055e-01
4.41612903225806e-03 1.14373647058300e+02 2.09850450726894e-01
4.65483870967742e-03 1.13739757120974e+02 2.14259245866619e-01
4.89354838709677e-03 1.13109380374378e+02 2.18471968581706e-01
5.13225806451613e-03 1.12482497347465e+02 2.22501609258725e-01
5.37096774193548e-03 1.11859088677578e+02 2.26359732445489e-01
5.60967741935484e-03 1.11239135108401e+02 2.30056693308423e-01
5.84838709677419e-03 1.10622617490828e+02 2.33601813186371e-01
6.08709677419355e-03 1.10009516781890e+02 2.37003523230038e-01
6.32580645161290e-03 1.09399814044550e+02 2.40269483065595e-01
6.56451612903226e-03 1.08793490445925e+02 2.43406679670367e-01
6.80322580645161e-03 1.08190527257911e+02 2.46421510350383e-01
7.04193548387097e-03 1.07590905856203e+02 2.49319852747142e-01
7.28064516129032e-03 1.06994607720051e+02 2.52107124360703e-01
7.51935483870968e-03 1.06401614430675e+02 2.54788333507230e-01
7.75806451612903e-03 1.05811907671715e+02 2.57368123169890e-01
7.99677419354839e-03 1.05225469228624e+02 2.59850808740562e-01
8.23548387096774e-03 1.04642280987209e+02 2.62240410933525e-01
8.47419354838710e-03 1.04062324933968e+02 2.64540684496002e-01
8.71290322580645e-03 1.03485583155237e+02 2.66755143287150e-01
8.95161290322581e-03 1.02912037836893e+02 2.68887082340546e-01
9.19032258064516e-03 1.02341671263020e+02 2.70939597391608e-01
9.42903225806452e-03 1.01774465816154e+02 2.72915602189730e-01
9.66774193548387e-03 1.01210403976469e+02 2.74817843821128e-01
9.90645161290322e-03 1.00649468321469e+02 2.76648916306076e-01
1.01451612903226e-02 1.00091641523633e+02 2.78411273191756e-01
1.03838709677419e-02 9.95369063557090e+01 2.80107238090637e-01
1.06225806451613e-02 9.89852456808615e+01 2.81739014607725e-01
1.08612903225806e-02 9.84366424594261e+01 2.83308695743373e-01
1.11000000000000e-02 9.78910797461837e+01 2.84818271598646e-01
1.13387096774194e-02 9.73485406917604e+01 2.86269636433422e-01
1.15774193548387e-02 9.68090085362719e+01 2.87664595530604e-01
1.18161290322581e-02 9.62724666146831e+01 2.89004871515610e-01
1.20548387096774e-02 9.57388983543147e+01 2.90292109577108e-01
1.22935483870968e-02 9.52082872760775e+01 2.91527882267923e-01
1.25322580645161e-02 9.46806169887178e+01 2.92713694330972e-01
1.27709677419355e-02 9.41558711935894e+01 2.93850987186545e-01
1.30096774193548e-02 9.36340336823682e+01 2.94941142436938e-01
1.32483870967742e-02 9.31150883365679e+01 2.95985485673814e-01
1.34870967741935e-02 9.25990191285747e+01 2.96985289433225e-01
1.37258064516129e-02 9.20858101164989e+01 2.97941776446608e-01
1.39645161290323e-02 9.15754454483666e+01 2.98856122695726e-01
1.42032258064516e-02 9.10679093600583e+01 2.99729459774530e-01
1.44419354838710e-02 9.05631861762288e+01 3.00562877100167e-01
1.46806451612903e-02 9.00612603055844e+01 3.01357424355250e-01
1.49193548387097e-02 8.95621162446660e+01 3.02114113800083e-01
1.51580645161290e-02 8.90657385759315e+01 3.02833921887011e-01
1.53967741935484e-02 8.85721119672939e+01 3.03517791277512e-01
1.56354838709677e-02 8.80812211729014e+01 3.04166632231468e-01
1.58741935483871e-02 8.75930510288561e+01 3.04781324375517e-01
1.61129032258065e-02 8.71075864565796e+01 3.05362718390849e-01
1.63516129032258e-02 8.66248124610641e+01 3.05911637184801e-01
1.65903225806452e-02 8.61447141315698e+01 3.06428877003815e-01
1.68290322580645e-02 8.56672766376594e+01 3.06915208830278e-01
1.70677419354839e-02 8.51924852322660e+01 3.07371379723594e-01
1.73064516129032e-02 8.47203252500507e+01 3.07798113605484e-01
1.75451612903226e-02 8.42507821069586e+01 3.08196112455018e-01
1.77838709677419e-02 8.37838413008167e+01 3.08566056992697e-01
1.80225806451613e-02 8.33194884077039e+01 3.08908607749935e-01
1.82612903225806e-02 8.28577090847058e+01 3.09224406102287e-01
1.85000000000000e-02 8.23984890684025e+01 3.09514074883059e-01
1.87387096774194e-02 8.19418141754025e+01 3.09778218973829e-01
1.89774193548387e-02 8.14876702989570e+01 3.10017426183658e-01
1.92161290322581e-02 8.10360434114887e+01 3.10232268101904e-01
1.94548387096774e-02 8.05869195631633e+01 3.10423300563439e-01
1.96935483870968e-02 8.01402848823690e+01 3.10591064098796e-01
1.99322580645161e-02 7.96961255725493e+01 3.10736084667625e-01
2.01709677419355e-02 7.92544279145305e+01 3.10858874372893e-01
2.04096774193548e-02 7.88151782651709e+01 3.10959931736440e-01
2.06483870967742e-02 7.83783630569453e+01 3.11039742351270e-01
2.08870967741935e-02 7.79439687983562e+01 3.11098779121371e-01
2.11258064516129e-02 7.75119820710035e+01 3.11137502859063e-01
2.13645161290323e-02 7.70823895316974e+01 3.11156362868594e-01
2.16032258064516e-02 7.66551779111995e+01 3.11155797195050e-01
2.18419354838710e-02 7.62303340145914e+01 3.11136232868427e-01
2.20806451612903e-02 7.58078447185204e+01 3.11098086416450e-01
2.23193548387097e-02 7.53876969731541e+01 3.11041764366992e-01
2.25580645161290e-02 7.49698778009828e+01 3.10967663365137e-01
2.27967741935484e-02 7.45543742964243e+01 3.10876170638054e-01
2.30354838709677e-02 7.41411736261405e+01 3.10767664093998e-01
2.32741935483871e-02 7.37302630264741e+01 3.10642512753784e-01
2.35129032258065e-02 7.33216298052330e+01 3.10501077174397e-01
2.37516129032258e-02 7.29152613405689e+01 3.10343709577422e-01
2.39903225806452e-02 7.25111450812612e+01 3.10170753977014e-01
2.42290322580645e-02 7.21092685442973e+01 3.09982546559208e-01
2.44677419354839e-02 7.17096193165294e+01 3.09779416054564e-01
2.47064516129032e-02 7.13121850536054e+01 3.09561683767360e-01
2.49451612903226e-02 7.09169534795907e+01 3.09329663924457e-01
2.51838709677419e-02 7.05239123872114e+01 3.09083663695253e-01
2.54225806451613e-02 7.01330496355934e+01 3.08823983519231e-01
2.56612903225806e-02 6.97443531517810e+01 3.08550917428269e-01
2.59000000000000e-02 6.93578109297307e+01 3.08264753105170e-01
2.61387096774194e-02 6.89734110305282e+01 3.07965771943641e-01
2.63774193548387e-02 6.85911415802454e+01 3.07654249341623e-01
2.66161290322581e-02 6.82109907713569e+01 3.07330454989949e-01
2.68548387096774e-02 6.78329468617770e+01 3.06994652910223e-01
2.70935483870968e-02 6.74569981750524e+01 3.06647101494288e-01
2.73322580645161e-02 6.70831330983304e+01 3.06288053768724e-01
2.75709677419355e-02 6.67113400836799e+01 3.05917757655320e-01
2.78096774193548e-02 6.63416076471701e+01 3.05536455935886e-01
2.80483870967742e-02 6.59739243685181e+01 3.05144386499531e-01
2.82870967741935e-02 6.56082788912521e+01 3.04741782304284e-01
2.85258064516129e-02 6.52446599208022e+01 3.04328871612314e-01
2.87645161290323e-02 6.48830562257178e+01 3.03905878221363e-01
2.90032258064516e-02 6.45234566367956e+01 3.03473021469189e-01
2.92419354838710e-02 6.41658500472236e+01 3.03030516240082e-01
2.94806451612903e-02 6.38102254107660e+01 3.02578573179879e-01
2.97193548387097e-02 6.34565717429011e+01 3.02117398907366e-01
2.99580645161290e-02 6.31048781199853e+01 3.01647195957072e-01
3.01967741935484e-02 6.27551336789177e+01 3.01168162981679e-01
3.04354838709677e-02 6.24073276172604e+01 3.00680494693349e-01
3.06741935483871e-02 6.20614491915277e+01 3.00184382057824e-01
3.09129032258065e-02 6.17174877182375e+01 2.99680012485151e-01
3.11516129032258e-02 6.13754325731189e+01 2.99167569813837e-01
3.13903225806452e-02 6.10352731912164e+01 2.98647234297150e-01
3.16290322580645e-02 6.06969990652590e+01 2.98119182782378e-01
3.18677419354839e-02 6.03605997466465e+01 2.97583588886845e-01
3.21064516129032e-02 6.00260648446871e+01 2.97040622928663e-01
3.23451612903226e-02 5.96933840262778e+01 2.96490452096302e-01
3.25838709677419e-02 5.93625470159898e+01 2.95933240378893e-01
3.28225806451613e-02 5.90335435945283e+01 2.95369148730057e-01
3.30612903225806e-02 5.87063635996458e+01 2.94798335228526e-01
3.33000000000000e-02 5.83809969254171e+01 2.94220955050112e-01
3.35387096774194e-02 5.80574335223116e+01 2.93637160441556e-01
3.37774193548387e-02 5.77356633957225e+01 2.93047100873134e-01
3.40161290322581e-02 5.74156766068244e+01 2.92450923188192e-01
3.42548387096774e-02 5.70974632718749e+01 2.91848771571656e-01
3.44935483870968e-02 5.67810135622765e+01 2.91240787520189e-01
3.47322580645161e-02 5.64663177031693e+01 2.90627109984901e-01
3.49709677419355e-02 5.61533659742377e+01 2.90007875511017e-01
3.52096774193548e-02 5.58421487090380e+01 2.89383218161294e-01
3.54483870967742e-02 5.55326562947011e+01 2.88753269651836e-01
3.56870967741935e-02 5.52248791719793e+01 2.88118159275764e-01
3.59258064516129e-02 5.49188078339131e+01 2.87478014035417e-01
3.61645161290323e-02 5.46144328265803e+01 2.86832958771399e-01
3.64032258064516e-02 5.43117447484551e+01 2.86183116125406e-01
3.66419354838710e-02 5.40107342504448e+01 2.85528606504487e-01
3.68806451612903e-02 5.37113920346143e+01 2.84869548205358e-01
3.71193548387097e-02 5.34137088548906e+01 2.84206057535698e-01
3.73580645161290e-02 5.31176755164443e+01 2.83538248736417e-01
3.75967741935484e-02 5.28232828754068e+01 2.82866234100151e-01
3.78354838709677e-02 5.25305218388962e+01 2.82190123894020e-01
3.80741935483871e-02 5.22393833638053e+01 2.81510026475533e-01
3.83129032258065e-02 5.19498584574573e+01 2.80826048405451e-01
3.85516129032258e-02 5.16619381770159e+01 2.80138294407598e-01
3.87903225806452e-02 5.13756136295024e+01 2.79446867329908e-01
3.90290322580645e-02 5.10908759706343e+01 2.78751868253964e-01
3.92677419354839e-02 5.08077164054437e+01 2.78053396601598e-01
3.95064516129032e-02 5.05261261877060e+01 2.77351550057951e-01
3.97451612903226e-02 5.02460966196712e+01 2.76646424675973e-01
3.99838709677419e-02 4.99676190520724e+01 2.75938114800046e-01
4.02225806451613e-02 4.96906848830211e+01 2.75226713168694e-01
4.04612903225806e-02 4.94152855585826e+01 2.74512311014333e-01
4.07000000000000e-02 4.91414125722309e+01 2.73794998021800e-01
4.09387096774194e-02 4.88690574648506e+01 2.73074862287902e-01
4.11774193548387e-02 4.85982118236764e+01 2.72351990418913e-01
4.14161290322581e-02 4.83288672828360e+01 2.71626467625120e-01
4.16548387096774e-02 4.80610155228233e+01 2.70898377679361e-01
4.18935483870968e-02 4.77946482704942e+01 2.70167802876343e-01
4.21322580645161e-02 4.75297572980482e+01 2.69434824125380e-01
4.23709677419355e-02 4.72663344235408e+01 2.68699521040196e-01
4.26096774193548e-02 4.70043715103740e+01 2.67961971865116e-01
4.28483870967742e-02 4.67438604670449e+01 2.67222253563674e-01
4.30870967741935e-02 4.64847932471359e+01 2.66480441745264e-01
4.33258064516129e-02 4.62271618483434e+01 2.65736610752695e-01
4.35645161290323e-02 4.59709583129562e+01 2.64990833746750e-01
4.38032258064516e-02 4.57161747273669e+01 2.64243182664866e-01
4.40419354838710e-02 4.54628032220568e+01 2.63493728180469e-01
4.42806451612903e-02 4.52108359706619e+01 2.62742539786444e-01
4.45193548387097e-02 4.49602651904253e+01 2.61989685875700e-01
4.47580645161290e-02 4.47110831417236e+01 2.61235233670149e-01
4.49967741935484e-02 4.44632821278293e+01 2.60479249300479e-01
4.52354838709677e-02 4.42168544948890e+01 2.59721797735544e-01
4.54741935483871e-02 4.39717926310329e+01 2.58962942861378e-01
4.57129032258064e-02 4.37280889667973e+01 2.58202747557379e-01
4.59516129032258e-02 4.34857359746704e+01 2.57441273655782e-01
4.61903225806452e-02 4.32447261690679e+01 2.56678581901619e-01
4.64290322580645e-02 4.30050521054751e+01 2.55914732028300e-01
4.66677419354839e-02 4.27667063808467e+01 2.55149782830322e-01
4.69064516129032e-02 4.25296816331665e+01 2.54383792095354e-01
4.71451612903226e-02 4.22939705412211e+01 2.53616816676392e-01
4.73838709677419e-02 4.20595658245704e+01 2.52848912424281e-01
4.76225806451613e-02 4.18264602427282e+01 2.52080134259439e-01
4.78612903225806e-02 4.15946465955360e+01 2.51310536240746e-01
4.81000000000000e-02 4.13641177227404e+01 2.50540171526264e-01
4.83387096774194e-02 4.11348665039613e+01 2.49769092334256e-01
4.85774193548387e-02 4.09068858579020e+01 2.48997350011930e-01
4.88161290322581e-02 4.06801687427030e+01 2.48224995101386e-01
4.90548387096774e-02 4.04547081555323e+01 2.47452077301016e-01
4.92935483870968e-02 4.02304971325508e+01 2.46678645427167e-01
4.95322580645161e-02 4.00075287481513e+01 2.45904747480047e-01
4.97709677419355e-02 3.97857961152929e+01 2.45130430706905e-01
5.00096774193548e-02 3.95652923851041e+01 2.44355741538907e-01
5.02483870967742e-02 3.93460107466721e+01 2.43580725654163e-01
5.04870967741935e-02 3.91279444270040e+01 2.42805427914890e-01
5.07258064516129e-02 3.89110866902990e+01 2.42029892430184e-01
5.09645161290323e-02 3.86954308382615e+01 2.41254162616106e-01
5.12032258064516e-02 3.84809702097196e+01 2.40478281158567e-01
5.14419354838710e-02 3.82676981805846e+01 2.39702289976414e-01
5.16806451612903e-02 3.80556081631488e+01 2.38926230281727e-01
5.19193548387097e-02 3.78446936063818e+01 2.38150142637459e-01
5.21580645161290e-02 3.76349479955606e+01 2.37374066897621e-01
5.23967741935484e-02 3.74263648520688e+01 2.36598042264844e-01
5.26354838709677e-02 3.72189377333531e+01 2.35822107230755e-01
5.28741935483871e-02 3.70126602322515e+01 2.35046299633607e-01
5.31129032258065e-02 3.68075259772702e+01 2.34270656713160e-01
5.33516129032258e-02 3.66035286322280e+01 2.33495215075176e-01
5.35903225806452e-02 3.64006618962116e+01 2.32720010656008e-01
5.38290322580645e-02 3.61989195029261e+01 2.31945078777919e-01
5.40677419354839e-02 3.59982952209582e+01 2.31170454201938e-01
5.43064516129032e-02 3.57987828534305e+01 2.30396171071170e-01
5.45451612903226e-02 3.56003762378108e+01 2.29622262963628e-01
5.47838709677419e-02 3.54030692458646e+01 2.28848762835857e-01
5.50225806451613e-02 3.52068557830335e+01 2.28075703075764e-01
5.52612903225806e-02 3.50117297886816e+01 2.27303115553035e-01
5.55000000000000e-02 3.48176852357626e+01 2.26531031585278e-01
5.57387096774194e-02 3.46247161307717e+01 2.25759481904160e-01
5.59774193548387e-02 3.44328165131448e+01 2.24988496706397e-01
5.62161290322581e-02 3.42419804554919e+01 2.24218105702166e-01
5.64548387096774e-02 3.40522020632741e+01 2.23448338082111e-01
5.66935483870968e-02 3.38634754747542e+01 2.22679222484188e-01
5.69322580645161e-02 3.36757948604163e+01 2.21910787042806e-01
5.71709677419355e-02 3.34891544231869e+01 2.21143059435457e-01
5.74096774193548e-02 3.33035483981214e+01 2.20376066830597e-01
5.76483870967742e-02 3.31189710522258e+01 2.19609835934539e-01
5.78870967741935e-02 3.29354166844067e+01 2.18844392939438e-01
5.81258064516129e-02 3.27528796249139e+01 2.18079763570303e-01
5.83645161290323e-02 3.25713542355476e+01 2.17315973129585e-01
5.86032258064516e-02 3.23908349093567e+01 2.16553046465819e-01
5.88419354838710e-02 3.22113160705867e+01 2.15791007942074e-01
5.90806451612903e-02 3.20327921741415e+01 2.15029881481331e-01
5.93193548387097e-02 3.18552577057801e+01 2.14269690609447e-01
5.95580645161290e-02 3.16787071818226e+01 2.13510458406002e-01
5.97967741935484e-02 3.15031351489813e+01 2.12752207547522e-01
6.00354838709677e-02 3.13285361843080e+01 2.11994960258375e-01
6.02741935483871e-02 3.11549048946774e+01 2.11238738354270e-01
6.05129032258064e-02 3.09822359169708e+01 2.10483563283358e-01
6.07516129032258e-02 3.08105239177936e+01 2.09729456096506e-01
6.09903225806452e-02 3.06397635934219e+01 2.08976437417318e-01
6.12290322580645e-02 3.04699496693024e+01 2.08224527484096e-01
6.14677419354839e-02 3.03010769002274e+01 2.07473746189556e-01
6.17064516129032e-02 3.01331400700593e+01 2.06724113034440e-01
6.19451612903226e-02 2.99661339915701e+01 2.05975647167474e-01
6.21838709677419e-02 2.98000535063869e+01 2.05228367339070e-01
6.24225806451613e-02 2.96348934845124e+01 2.04482291941587e-01
6.26612903225806e-02 2.94706488244885e+01 2.03737439047364e-01
6.29000000000000e-02 2.93073144531305e+01 2.02993826380484e-01
6.31387096774194e-02 2.91448853254733e+01 2.02251471288363e-01
6.33774193548387e-02 2.89833564243066e+01 2.01510390780682e-01
6.36161290322581e-02 2.88227227603302e+01 2.00770601566064e-01
6.38548387096774e-02 2.86629793718959e+01 2.00032120024596e-01
6.40935483870968e-02 2.85041213249528e+01 1.99294962180109e-01
6.43322580645161e-02 2.83461437125980e+01 1.98559143737780e-01
6.45709677419355e-02 2.81890416552234e+01 1.97824680119548e-01
6.48096774193548e-02 2.80328103002648e+01 1.97091586421614e-01
6.50483870967742e-02 2.78774448220524e+01 1.96359877450242e-01
6.52870967741935e-02 2.77229404217559e+01 1.95629567679186e-01
6.55258064516129e-02 2.75692923269520e+01 1.94900671285833e-01
6.57645161290323e-02 2.74164957917625e+01 1.94173202185224e-01
6.60032258064516e-02 2.72645460966123e+01 1.93447174003998e-01
6.62419354838710e-02 2.71134385481740e+01 1.92722600054172e-01
6.64806451612903e-02 2.69631684789499e+01 1.91999493368050e-01
6.67193548387097e-02 2.68137312474021e+01 1.91277866731073e-01
6.69580645161290e-02 2.66651222377175e+01 1.90557732641781e-01
6.71967741935484e-02 2.65173368596650e+01 1.89839103345013e-01
6.74354838709677e-02 2.63703705485406e+01 1.89121990791802e-01
6.76741935483871e-02 2.62242187647650e+01 1.88406406672941e-01
6.79129032258065e-02 2.60788769940059e+01 1.87692362450555e-01
6.81516129032258e-02 2.59343407469506e+01 1.86979869333502e-01
6.83903225806452e-02 2.57906055592510e+01 1.86268938252519e-01
6.86290322580645e-02 2.56476669911338e+01 1.85559579892679e-01
6.88677419354839e-02 2.55055206275164e+01 1.84851804723935e-01
6.91064516129032e-02 2.53641620777857e+01 1.84145622963352e-01
6.93451612903226e-02 2.52235869756628e+01 1.83441044605974e-01
6.95838709677419e-02 2.50837909791475e+01 1.82738079387048e-01
6.98225806451613e-02 2.49447697701440e+01 1.82036736813233e-01
7.00612903225806e-02 2.48065190545688e+01 1.81337026191950e-01
7.03000000000000e-02 2.46690345621376e+01 1.80638956608119e-01
7.05387096774193e-02 2.45323120463102e+01 1.79942536900660e-01
7.07774193548387e-02 2.43963472839271e+01 1.79247775692724e-01
7.10161290322581e-02 2.42611360753124e+01 1.78554681420040e-01
7.12548387096774e-02 2.41266742440659e+01 1.77863262308297e-01
7.14935483870968e-02 2.39929576370086e+01 1.77173526350225e-01
7.17322580645161e-02 2.38599821238301e+01 1.76485481334887e-01
7.19709677419355e-02 2.37277435971865e+01 1.75799134875097e-01
7.22096774193548e-02 2.35962379724975e+01 1.75114494372831e-01
7.24483870967742e-02 2.34654611878211e+01 1.74431567047054e-01
7.26870967741935e-02 2.33354092037986e+01 1.73750359899060e-01
7.29258064516129e-02 2.32060780033157e+01 1.73070879740633e-01
7.31645161290323e-02 2.30774635915937e+01 1.72393133220442e-01
7.34032258064516e-02 2.29495619959942e+01 1.71717126802675e-01
7.36419354838710e-02 2.28223692659648e+01 1.71042866745371e-01
7.38806451612903e-02 2.26958814727102e+01 1.70370359127730e-01
7.41193548387097e-02 2.25700947092790e+01 1.69699609875641e-01
7.43580645161290e-02 2.24450050903729e+01 1.69030624729089e-01
7.45967741935484e-02 2.23206087522271e+01 1.68363409268094e-01
7.48354838709677e-02 2.21969018525566e+01 1.67697968880056e-01
7.50741935483871e-02 2.20738805702395e+01 1.67034308785997e-01
7.53129032258064e-02 2.19515411053975e+01 1.66372434065179e-01
