Energy (eV)          EEDF (eV^-(3/2))     First Anisotropy
9.00000000000000e-03 1.81312416539789e-01 8.43535419276220e-05
2.70000000000000e-02 1.80348652220957e-01 1.39390074006081e-04
4.50000000000000e-02 1.79390010780397e-01 1.84271556593759e-04
6.30000000000000e-02 1.78436464988433e-01 2.18527612957228e-04
8.10000000000000e-02 1.77487987759376e-01 2.47229720764255e-04
9.90000000000000e-02 1.76544552151391e-01 2.72291002753485e-04
1.17000000000000e-01 1.75606131365821e-01 2.94699379274282e-04
1.35000000000000e-01 1.74672698746442e-01 3.15050178400529e-04
1.53000000000000e-01 1.73744227778714e-01 3.33737415432800e-04
1.71000000000000e-01 1.72820692089033e-01 3.51038998988437e-04
1.89000000000000e-01 1.71902065443982e-01 3.67160228981761e-04
2.07000000000000e-01 1.70988321749587e-01 3.82258216799231e-04
2.25000000000000e-01 1.70079435050573e-01 3.96456596485430e-04
2.43000000000000e-01 1.69175379529632e-01 4.09854884315739e-04
2.61000000000000e-01 1.68276129506687e-01 4.22534699180017e-04
2.79000000000000e-01 1.67381659438163e-01 4.34564047135473e-04
2.97000000000000e-01 1.66491943916260e-01 4.46000362050471e-04
3.15000000000000e-01 1.65606957668234e-01 4.56892718885144e-04
3.33000000000000e-01 1.64726675555677e-01 4.67283480255438e-04
3.51000000000000e-01 1.63851072573807e-01 4.77209544849364e-04
3.69000000000000e-01 1.62980123850751e-01 4.86703309871811e-04
3.87000000000000e-01 1.62113804646843e-01 4.95793424053532e-04
4.05000000000000e-01 1.61252090353921e-01 5.04505384605296e-04
4.23000000000000e-01 1.60394956494628e-01 5.12862016084153e-04
4.41000000000000e-01 1.59542378721714e-01 5.20883858653219e-04
4.59000000000000e-01 1.58694332817350e-01 5.28589485943086e-04
4.77000000000000e-01 1.57850794692433e-01 5.35995767588098e-04
4.95000000000000e-01 1.57011740385907e-01 5.43118087828429e-04
5.13000000000000e-01 1.56177146064081e-01 5.49970528888787e-04
5.31000000000000e-01 1.55346988019951e-01 5.56566025868158e-04
5.49000000000000e-01 1.54521242672528e-01 5.62916498399883e-04
5.67000000000000e-01 1.53699886566168e-01 5.69032963227421e-04
5.85000000000000e-01 1.52882896369903e-01 5.74925630991549e-04
6.03000000000000e-01 1.52070248876783e-01 5.80603989870502e-04
6.21000000000000e-01 1.51261921003213e-01 5.86076878205590e-04
6.39000000000000e-01 1.50457889788299e-01 5.91352547846789e-04
6.57000000000000e-01 1.49658132393195e-01 5.96438719637385e-04
6.75000000000000e-01 1.48862626100455e-01 6.01342632206328e-04
6.93000000000000e-01 1.48071348313387e-01 6.06071085036706e-04
7.11000000000000e-01 1.47284276555412e-01 6.10630476616386e-04
7.29000000000000e-01 1.46501388469426e-01 6.15026838345403e-04
7.47000000000000e-01 1.45722661817161e-01 6.19265864767756e-04
7.65000000000000e-01 1.44948074478560e-01 6.23352940607490e-04
7.83000000000000e-01 1.44177604451141e-01 6.27293165015742e-04
8.01000000000000e-01 1.43411229849379e-01 6.31091373375813e-04
8.19000000000000e-01 1.42648928904079e-01 6.34752156963177e-04
8.37000000000000e-01 1.41890679961764e-01 6.38279880715157e-04
8.55000000000000e-01 1.41136461484050e-01 6.41678699329995e-04
8.73000000000000e-01 1.40386252047045e-01 6.44952571885232e-04
8.91000000000000e-01 1.39640030340733e-01 6.48105275140417e-04
9.09000000000000e-01 1.38897775168371e-01 6.51140415667580e-04
9.27000000000000e-01 1.38159465445889e-01 6.54061440934513e-04
9.45000000000000e-01 1.37425080201287e-01 6.56871649450724e-04
9.63000000000000e-01 1.36694598574043e-01 6.59574200072065e-04
9.81000000000000e-01 1.35967999814519e-01 6.62172120549275e-04
9.99000000000000e-01 1.35245263283369e-01 6.64668315394669e-04
1.01700000000000e+00 1.34526368450959e-01 6.67065573133096e-04
1.03500000000000e+00 1.33811294896777e-01 6.69366572996382e-04
1.05300000000000e+00 1.33100022308857e-01 6.71573891112646e-04
1.07100000000000e+00 1.32392530483201e-01 6.73690006237309e-04
1.08900000000000e+00 1.31688799323207e-01 6.75717305067165e-04
1.10700000000000e+00 1.30988808839093e-01 6.77658087174611e-04
1.12500000000000e+00 1.30292539147334e-01 6.79514569594852e-04
1.14300000000000e+00 1.29599970470097e-01 6.81288891096149e-04
1.16100000000000e+00 1.28911083134676e-01 6.82983116160061e-04
1.17900000000000e+00 1.28225857572936e-01 6.84599238695365e-04
1.19700000000000e+00 1.27544274320755e-01 6.86139185507800e-04
1.21500000000000e+00 1.26866314017475e-01 6.87604819545363e-04
1.23300000000000e+00 1.26191957405346e-01 6.88997942936462e-04
1.25100000000000e+00 1.25521185328985e-01 6.90320299837598e-04
1.26900000000000e+00 1.24853978734827e-01 6.91573579105381e-04
1.28700000000000e+00 1.24190318670590e-01 6.92759416805477e-04
1.30500000000000e+00 1.23530186284727e-01 6.93879398571366e-04
1.32300000000000e+00 1.22873562825901e-01 6.94935061823856e-04
1.34100000000000e+00 1.22220429642446e-01 6.95927897861140e-04
1.35900000000000e+00 1.21570768181837e-01 6.96859353828945e-04
1.37700000000000e+00 1.20924559990167e-01 6.97730834579394e-04
1.39500000000000e+00 1.20281786711620e-01 6.98543704425965e-04
1.41300000000000e+00 1.19642430087950e-01 6.99299288801901e-04
1.43100000000000e+00 1.19006471957961e-01 6.99998875828689e-04
1.44900000000000e+00 1.18373894256997e-01 7.00643717800412e-04
1.46700000000000e+00 1.17744679016419e-01 7.01235032589778e-04
1.48500000000000e+00 1.17118808363104e-01 7.01774004980844e-04
1.50300000000000e+00 1.16496264518932e-01 7.02261787933172e-04
1.52100000000000e+00 1.15877029800282e-01 7.02699503781652e-04
1.53900000000000e+00 1.15261086617531e-01 7.03088245376206e-04
1.55700000000000e+00 1.14648417474554e-01 7.03429077165083e-04
1.57500000000000e+00 1.14039004968225e-01 7.03723036225128e-04
1.59300000000000e+00 1.13432831787924e-01 7.03971133242344e-04
1.61100000000000e+00 1.12829880715047e-01 7.04174353445579e-04
1.62900000000000e+00 1.12230134622515e-01 7.04333657496295e-04
1.64700000000000e+00 1.11633576474286e-01 7.04449982336845e-04
1.66500000000000e+00 1.11040189324874e-01 7.04524241999697e-04
1.68300000000000e+00 1.10449956318869e-01 7.04557328379853e-04
1.70100000000000e+00 1.09862860690452e-01 7.04550111972627e-04
1.71900000000000e+00 1.09278885762924e-01 7.04503442578554e-04
1.73700000000000e+00 1.08698014948231e-01 7.04418149977300e-04
1.75500000000000e+00 1.08120231746493e-01 7.04295044572368e-04
1.77300000000000e+00 1.07545519745534e-01 7.04134918008135e-04
1.79100000000000e+00 1.06973862620417e-01 7.03938543760614e-04
1.80900000000000e+00 1.06405244132982e-01 7.03706677703346e-04
1.82700000000000e+00 1.05839648131379e-01 7.03440058650002e-04
1.84500000000000e+00 1.05277058549616e-01 7.03139408874443e-04
1.86300000000000e+00 1.04717459407098e-01 7.02805434609645e-04
1.88100000000000e+00 1.04160834808177e-01 7.02438826526731e-04
1.89900000000000e+00 1.03607168941695e-01 7.02040260194790e-04
1.91700000000000e+00 1.03056446080540e-01 7.01610396522601e-04
1.93500000000000e+00 1.02508650581196e-01 7.01149882183116e-04
1.95300000000000e+00 1.01963766883303e-01 7.00659350021573e-04
1.97100000000000e+00 1.01421779509208e-01 7.00139419448078e-04
1.98900000000000e+00 1.00882673063531e-01 6.99590696815288e-04
2.00700000000000e+00 1.00346432232727e-01 6.99013775781908e-04
2.02500000000000e+00 9.98130417846493e-02 6.98409237662745e-04
2.04300000000000e+00 9.92824865681162e-02 6.97777651765923e-04
2.06100000000000e+00 9.87547515124835e-02 6.97119575717841e-04
2.07900000000000e+00 9.82298216272143e-02 6.96435555776405e-04
2.09700000000000e+00 9.77076820014540e-02 6.95726127133061e-04
2.11500000000000e+00 9.71883178036062e-02 6.94991814204331e-04
2.13300000000000e+00 9.66717142809118e-02 6.94233130912972e-04
2.15100000000000e+00 9.61578567590301e-02 6.93450580959385e-04
2.16900000000000e+00 9.56467306416213e-02 6.92644658083736e-04
2.18700000000000e+00 9.51383214099325e-02 6.91815846319228e-04
2.20500000000000e+00 9.46326146223851e-02 6.90964620236813e-04
2.22300000000000e+00 9.41295959141645e-02 6.90091445181594e-04
2.24100000000000e+00 9.36292509968122e-02 6.89196777501544e-04
2.25900000000000e+00 9.31315656578197e-02 6.88281064768685e-04
2.27700000000000e+00 9.26365257602252e-02 6.87344745993047e-04
2.29500000000000e+00 9.21441172422115e-02 6.86388251829775e-04
2.31300000000000e+00 9.16543261167071e-02 6.85412004779503e-04
2.33100000000000e+00 9.11671384709885e-02 6.84416419382487e-04
2.34900000000000e+00 9.06825404662852e-02 6.83401902406614e-04
2.36700000000000e+00 9.02005183373865e-02 6.82368853029550e-04
2.38500000000000e+00 8.97210583922505e-02 6.81317663015310e-04
2.40300000000000e+00 8.92441470116154e-02 6.80248716885284e-04
2.42100000000000e+00 8.87697706486121e-02 6.79162392084127e-04
2.43900000000000e+00 8.82979158283802e-02 6.78059059140752e-04
2.45700000000000e+00 8.78285691476843e-02 6.76939081824433e-04
2.47500000000000e+00 8.73617172745341e-02 6.75802817296203e-04
2.49300000000000e+00 8.68973469478053e-02 6.74650616255975e-04
2.51100000000000e+00 8.64354449768628e-02 6.73482823085282e-04
2.52900000000000e+00 8.59759982411864e-02 6.72299775985752e-04
2.54700000000000e+00 8.55189936899979e-02 6.71101807113878e-04
2.56500000000000e+00 8.50644183418902e-02 6.69889242711803e-04
2.58300000000000e+00 8.46122592844589e-02 6.68662403234373e-04
2.60100000000000e+00 8.41625036739352e-02 6.67421603472683e-04
2.61900000000000e+00 8.37151387348214e-02 6.66167152674130e-04
2.63700000000000e+00 8.32701517595277e-02 6.64899354659393e-04
2.65500000000000e+00 8.28275301080114e-02 6.63618507935797e-04
2.67300000000000e+00 8.23872612074179e-02 6.62324905807771e-04
2.69100000000000e+00 8.19493325517233e-02 6.61018836484627e-04
2.70900000000000e+00 8.15137317013796e-02 6.59700583184987e-04
2.72700000000000e+00 8.10804462829608e-02 6.58370424238621e-04
2.74500000000000e+00 8.06494639888120e-02 6.57028633185711e-04
2.76300000000000e+00 8.02207725766993e-02 6.55675478873344e-04
2.78100000000000e+00 7.97943598694623e-02 6.54311225549554e-04
2.79900000000000e+00 7.93702137546684e-02 6.52936132954935e-04
2.81700000000000e+00 7.89483221842681e-02 6.51550456411887e-04
2.83500000000000e+00 7.85286731742537e-02 6.50154446911717e-04
2.85300000000000e+00 7.81112548043179e-02 6.48748351199295e-04
2.87100000000000e+00 7.76960552175160e-02 6.47332411855664e-04
2.88900000000000e+00 7.72830626199285e-02 6.45906867378856e-04
2.90700000000000e+00 7.68722652803265e-02 6.44471952262239e-04
2.92500000000000e+00 7.64636515298383e-02 6.43027897071290e-04
2.94300000000000e+00 7.60572097616182e-02 6.41574928518492e-04
2.96100000000000e+00 7.56529284305161e-02 6.40113269536066e-04
2.97900000000000e+00 7.52507960527505e-02 6.38643139347308e-04
2.99700000000000e+00 7.48508012055815e-02 6.37164753536132e-04
3.01500000000000e+00 7.44529325269869e-02 6.35678324114835e-04
3.03300000000000e+00 7.40571787153391e-02 6.34184059590422e-04
3.05100000000000e+00 7.36635285290840e-02 6.32682165029212e-04
3.06900000000000e+00 7.32719707864223e-02 6.31172842120005e-04
3.08700000000000e+00 7.28824943649909e-02 6.29656289235830e-04
3.10500000000000e+00 7.24950882015481e-02 6.28132701494216e-04
3.12300000000000e+00 7.21097412916583e-02 6.26602270816119e-04
3.14100000000000e+00 7.17264426893799e-02 6.25065185983412e-04
3.15900000000000e+00 7.13451815069547e-02 6.23521632695145e-04
3.17700000000000e+00 7.09659469144978e-02 6.21971793622694e-04
3.19500000000000e+00 7.05887281396909e-02 6.20415848463373e-04
3.21300000000000e+00 7.02135144674755e-02 6.18853973992963e-04
3.23100000000000e+00 6.98402952397489e-02 6.17286344117239e-04
3.24900000000000e+00 6.94690598550618e-02 6.15713129922174e-04
3.26700000000000e+00 6.90997977683163e-02 6.14134499723118e-04
3.28500000000000e+00 6.87324984904672e-02 6.12550619112967e-04
3.30300000000000e+00 6.83671515882236e-02 6.10961651009178e-04
3.32100000000000e+00 6.80037466837526e-02 6.09367755699825e-04
3.33900000000000e+00 6.76422734543848e-02 6.07769090888683e-04
3.35700000000000e+00 6.72827216323205e-02 6.06165811739401e-04
3.37500000000000e+00 6.69250810043387e-02 6.04558070918660e-04
3.39300000000000e+00 6.65693414115065e-02 6.02946018638422e-04
3.41100000000000e+00 6.62154927488907e-02 6.01329802697508e-04
3.42900000000000e+00 6.58635249652708e-02 5.99709568521854e-04
3.44700000000000e+00 6.55134280628536e-02 5.98085459204364e-04
3.46500000000000e+00 6.51651920969888e-02 5.96457615543951e-04
3.48300000000000e+00 6.48188071758871e-02 5.94826176083422e-04
3.50100000000000e+00 6.44742634603385e-02 5.93191277146925e-04
3.51900000000000e+00 6.41315511634336e-02 5.91553052876431e-04
3.53700000000000e+00 6.37906605502851e-02 5.89911635267620e-04
3.55500000000000e+00 6.34515819377513e-02 5.88267154205056e-04
3.57300000000000e+00 6.31143056941613e-02 5.86619737496565e-04
3.59100000000000e+00 6.27788222390411e-02 5.84969510906963e-04
3.60900000000000e+00 6.24451220428417e-02 5.83316598191184e-04
3.62700000000000e+00 6.21131956266683e-02 5.81661121126699e-04
3.64500000000000e+00 6.17830335620110e-02 5.80003199545244e-04
3.66300000000000e+00 6.14546264704773e-02 5.78342951364107e-04
3.68100000000000e+00 6.11279650235250e-02 5.76680492616682e-04
3.69900000000000e+00 6.08030399421982e-02 5.75015937482442e-04
3.71700000000000e+00 6.04798419968628e-02 5.73349398316366e-04
3.73500000000000e+00 6.01583620069448e-02 5.71680985677831e-04
3.75300000000000e+00 5.98385908406697e-02 5.70010808358966e-04
3.77100000000000e+00 5.95205194148026e-02 5.68338973412359e-04
3.78900000000000e+00 5.92041386943904e-02 5.66665586178348e-04
3.80700000000000e+00 5.88894396925054e-02 5.64990750311817e-04
3.82500000000000e+00 5.85764134699897e-02 5.63314567808443e-04
3.84300000000000e+00 5.82650511352015e-02 5.61637139030448e-04
3.86100000000000e+00 5.79553438437624e-02 5.59958562731932e-04
3.87900000000000e+00 5.76472827983061e-02 5.58278936083723e-04
3.89700000000000e+00 5.73408592482287e-02 5.56598354697759e-04
3.91500000000000e+00 5.70360644894401e-02 5.54916912650995e-04
3.93300000000000e+00 5.67328898641165e-02 5.53234702508943e-04
3.95100000000000e+00 5.64313267604549e-02 5.51551815348767e-04
3.96900000000000e+00 5.61313666124282e-02 5.49868340782002e-04
3.98700000000000e+00 5.58330008995419e-02 5.48184366976798e-04
4.00500000000000e+00 5.55362211465920e-02 5.46499980679736e-04
4.02300000000000e+00 5.52410189234246e-02 5.44815267237418e-04
4.04100000000000e+00 5.49473858446959e-02 5.43130310617536e-04
4.05900000000000e+00 5.46553135696346e-02 5.41445193429650e-04
4.07700000000000e+00 5.43647938018044e-02 5.39759996945510e-04
4.09500000000000e+00 5.40758182888690e-02 5.38074801119126e-04
4.11300000000000e+00 5.37883788223569e-02 5.36389684606458e-04
4.13100000000000e+00 5.35024672374289e-02 5.34704724784796e-04
4.14900000000000e+00 5.32180754126458e-02 5.33019997771707e-04
4.16700000000000e+00 5.29351952697380e-02 5.31335578443677e-04
4.18500000000000e+00 5.26538187733757e-02 5.29651540454658e-04
4.20300000000000e+00 5.23739379309408e-02 5.27967956253989e-04
4.22100000000000e+00 5.20955447923000e-02 5.26284897104101e-04
4.23900000000000e+00 5.18186314495787e-02 5.24602433098160e-04
4.25700000000000e+00 5.15431900369368e-02 5.22920633177087e-04
4.27500000000000e+00 5.12692127303447e-02 5.21239565146412e-04
4.29300000000000e+00 5.09966917473614e-02 5.19559295693034e-04
4.31100000000000e+00 5.07256193469136e-02 5.17879890401390e-04
4.32900000000000e+00 5.04559878290754e-02 5.16201413769536e-04
4.34700000000000e+00 5.01877895348497e-02 5.14523929224960e-04
4.36500000000000e+00 4.99210168459511e-02 5.12847499140119e-04
4.38300000000000e+00 4.96556621845886e-02 5.11172184847692e-04
4.40100000000000e+00 4.93917180132513e-02 5.09498046655629e-04
4.41900000000000e+00 4.91291768344936e-02 5.07825143861934e-04
4.43700000000000e+00 4.88680311907227e-02 5.06153534769188e-04
4.45500000000000e+00 4.86082736639864e-02 5.04483276698864e-04
4.47300000000000e+00 4.83498968757626e-02 5.02814426005400e-04
4.49100000000000e+00 4.80928934867497e-02 5.01147038090101e-04
4.50900000000000e+00 4.78372561966581e-02 4.99481167414809e-04
4.52700000000000e+00 4.75829777440026e-02 4.97816867515206e-04
4.54500000000000e+00 4.73300509058966e-02 4.96154191014050e-04
4.56300000000000e+00 4.70784684978467e-02 4.94493189634246e-04
4.58100000000000e+00 4.68282233735484e-02 4.92833914211624e-04
4.59900000000000e+00 4.65793084246835e-02 4.91176414707500e-04
4.61700000000000e+00 4.63317165807178e-02 4.89520740221076e-04
4.63500000000000e+00 4.60854408087005e-02 4.87866939001672e-04
4.65300000000000e+00 4.58404741130646e-02 4.86215058460711e-04
4.67100000000000e+00 4.55968095354278e-02 4.84565145183613e-04
4.68900000000000e+00 4.53544401543949e-02 4.82917244941341e-04
4.70700000000000e+00 4.51133590853615e-02 4.81271402701974e-04
4.72500000000000e+00 4.48735594803181e-02 4.79627662641998e-04
4.74300000000000e+00 4.46350345276559e-02 4.77986068157301e-04
4.76100000000000e+00 4.43977774519729e-02 4.76346661874255e-04
4.77900000000000e+00 4.41617815138819e-02 4.74709485660519e-04
4.79700000000000e+00 4.39270400098187e-02 4.73074580635532e-04
4.81500000000000e+00 4.36935462718520e-02 4.71441987181065e-04
4.83300000000000e+00 4.34612936674935e-02 4.69811744951526e-04
4.85100000000000e+00 4.32302755995101e-02 4.68183892884077e-04
4.86900000000000e+00 4.30004855057363e-02 4.66558469208702e-04
4.88700000000000e+00 4.27719168588875e-02 4.64935511458015e-04
4.90500000000000e+00 4.25445631663748e-02 4.63315056476926e-04
4.92300000000000e+00 4.23184179701208e-02 4.61697140432237e-04
4.94100000000000e+00 4.20934748463757e-02 4.60081798822083e-04
4.95900000000000e+00 4.18697274055354e-02 4.58469066485171e-04
4.97700000000000e+00 4.16471692919593e-02 4.56858977609974e-04
4.99500000000000e+00 4.14257941837904e-02 4.55251565743695e-04
5.01300000000000e+00 4.12055957927754e-02 4.53646863801142e-04
5.03100000000000e+00 4.09865678640861e-02 4.52044904073522e-04
5.04900000000000e+00 4.07687041761419e-02 4.50445718237060e-04
5.06700000000000e+00 4.05519985404329e-02 4.48849337361457e-04
5.08500000000000e+00 4.03364448013439e-02 4.47255791918258e-04
5.10300000000000e+00 4.01220368359802e-02 4.45665111789152e-04
5.12100000000000e+00 3.99087685539931e-02 4.44077326274022e-04
5.13900000000000e+00 3.96966338974072e-02 4.42492464099075e-04
5.15700000000000e+00 3.94856268404479e-02 4.40910553424732e-04
5.17500000000000e+00 3.92757413893710e-02 4.39331621853300e-04
5.19300000000000e+00 3.90669715822916e-02 4.37755696436754e-04
5.21100000000000e+00 3.88593114890153e-02 4.36182803684291e-04
5.22900000000000e+00 3.86527552108697e-02 4.34612969569764e-04
5.24700000000000e+00 3.84472968805364e-02 4.33046219539032e-04
5.26500000000000e+00 3.82429306618850e-02 4.31482578517261e-04
5.28300000000000e+00 3.80396507498069e-02 4.29922070916057e-04
5.30100000000000e+00 3.78374513700505e-02 4.28364720640467e-04
5.31900000000000e+00 3.76363267790570e-02 4.26810551096006e-04
5.33700000000000e+00 3.74362712637977e-02 4.25259585195447e-04
5.35500000000000e+00 3.72372791416113e-02 4.23711845365615e-04
5.37300000000000e+00 3.70393447600426e-02 4.22167353554089e-04
5.39100000000000e+00 3.68424624966821e-02 4.20626131235664e-04
5.40900000000000e+00 3.66466267590060e-02 4.19088199418877e-04
5.42700000000000e+00 3.64518319842176e-02 4.17553578652447e-04
5.44500000000000e+00 3.62580726390892e-02 4.16022289031509e-04
5.46300000000000e+00 3.60653432198049e-02 4.14494350203912e-04
5.48100000000000e+00 3.58736382518042e-02 4.12969781376282e-04
5.49900000000000e+00 3.56829522896267e-02 4.11448601320050e-04
5.51700000000000e+00 3.54932799167572e-02 4.09930828377470e-04
5.53500000000000e+00 3.53046157454720e-02 4.08416480467488e-04
5.55300000000000e+00 3.51169544166857e-02 4.06905575091560e-04
5.57100000000000e+00 3.49302905997991e-02 4.05398129339272e-04
5.58900000000000e+00 3.47446189925479e-02 4.03894159894111e-04
5.60700000000000e+00 3.45599343208516e-02 4.02393683039006e-04
5.62500000000000e+00 3.43762313386644e-02 4.00896714661739e-04
5.64300000000000e+00 3.41935048278255e-02 3.99403270260464e-04
5.66100000000000e+00 3.40117495979114e-02 3.97913364949002e-04
5.67900000000000e+00 3.38309604860880e-02 3.96427013462091e-04
