Energy (eV)          EEDF (eV^-(3/2))     First Anisotropy
4.38888888888889e-02 6.23198966078237e-02 4.48274118399461e-05
1.31666666666667e-01 6.15281881872338e-02 7.38007111407944e-05
2.19444444444444e-01 6.07465375824458e-02 9.68387220385149e-05
3.07222222222222e-01 5.99748170264839e-02 1.13987994826971e-04
3.95000000000000e-01 5.92129003639748e-02 1.28001635358794e-04
4.82777777777778e-01 5.84606630469659e-02 1.39929788897796e-04
5.70555555555555e-01 5.77179821097166e-02 1.50320480833021e-04
6.58333333333333e-01 5.69847361498403e-02 1.59507354673963e-04
7.46111111111111e-01 5.62608053046466e-02 1.67713463877875e-04
8.33888888888889e-01 5.55460712355082e-02 1.75097701691911e-04
9.21666666666667e-01 5.48404171071217e-02 1.81778601502524e-04
1.00944444444444e+00 5.41437275684783e-02 1.87847752222610e-04
1.09722222222222e+00 5.34558887364592e-02 1.93377913047391e-04
1.18500000000000e+00 5.27767881684117e-02 1.98428195881386e-04
1.27277777777778e+00 5.21063148540839e-02 2.03047523280054e-04
1.36055555555556e+00 5.14443591934764e-02 2.07277020332736e-04
1.44833333333333e+00 5.07908129836163e-02 2.11151719531085e-04
1.53611111111111e+00 5.01455693865721e-02 2.14701805381129e-04
1.62388888888889e+00 4.95085229265568e-02 2.17953543892071e-04
1.71166666666667e+00 4.88795694676553e-02 2.20929991921539e-04
1.79944444444444e+00 4.82586061969526e-02 2.23651544728187e-04
1.88722222222222e+00 4.76455316109827e-02 2.26136367634947e-04
1.97500000000000e+00 4.70402454889403e-02 2.28400738325761e-04
2.06277777777778e+00 4.64426488866792e-02 2.30459322478839e-04
2.15055555555556e+00 4.58526441170304e-02 2.32325399412295e-04
2.23833333333333e+00 4.52701347364897e-02 2.34011047537067e-04
2.32611111111111e+00 4.46950255213772e-02 2.35527297290004e-04
2.41388888888889e+00 4.41272224604689e-02 2.36884258948986e-04
2.50166666666667e+00 4.35666327368205e-02 2.38091231606153e-04
2.58944444444444e+00 4.30131647126553e-02 2.39156794447881e-04
2.67722222222222e+00 4.24667279164247e-02 2.40088885815249e-04
2.76500000000000e+00 4.19272330217041e-02 2.40894870077008e-04
2.85277777777778e+00 4.13945918390001e-02 2.41581595326546e-04
2.94055555555556e+00 4.08687172991725e-02 2.42155444387600e-04
3.02833333333333e+00 4.03495234409366e-02 2.42622379246513e-04
3.11611111111111e+00 3.98369253915420e-02 2.42987979272267e-04
3.20388888888889e+00 3.93308393582389e-02 2.43257474801818e-04
3.29166666666667e+00 3.88311826127591e-02 2.43435777805080e-04
3.37944444444444e+00 3.83378734778233e-02 2.43527508155089e-04
3.46722222222222e+00 3.78508313151909e-02 2.43537017889920e-04
3.55500000000000e+00 3.73699765081654e-02 2.43468412055058e-04
3.64277777777778e+00 3.68952304529502e-02 2.43325567337882e-04
3.73055555555556e+00 3.64265155443262e-02 2.43112149533933e-04
3.81833333333333e+00 3.59637551641871e-02 2.42831629235078e-04
3.90611111111111e+00 3.55068736653101e-02 2.42487295427773e-04
3.99388888888889e+00 3.50557963627408e-02 2.42082267780819e-04
4.08166666666667e+00 3.46104495203086e-02 2.41619508597264e-04
4.16944444444444e+00 3.41707603385909e-02 2.41101832947238e-04
4.25722222222222e+00 3.37366569440291e-02 2.40531918622883e-04
4.34500000000000e+00 3.33080683740628e-02 2.39912314570586e-04
4.43277777777778e+00 3.28849245686855e-02 2.39245448591319e-04
4.52055555555556e+00 3.24671563579284e-02 2.38533634992318e-04
4.60833333333333e+00 3.20546954514525e-02 2.37779081581466e-04
4.69611111111111e+00 3.16474744246600e-02 2.36983895638006e-04
4.78388888888889e+00 3.12454267104295e-02 2.36150089401420e-04
4.87166666666667e+00 3.08484865872991e-02 2.35279585791679e-04
4.95944444444444e+00 3.04565891687335e-02 2.34374223092911e-04
5.04722222222222e+00 3.00696703932803e-02 2.33435759878825e-04
5.13500000000000e+00 2.96876670117629e-02 2.32465879034908e-04
5.22277777777778e+00 2.93105165793044e-02 2.31466191481179e-04
5.31055555555556e+00 2.89381574443233e-02 2.30438240117349e-04
5.39833333333333e+00 2.85705287391391e-02 2.29383503465648e-04
5.48611111111111e+00 2.82075703679527e-02 2.28303398678905e-04
5.57388888888889e+00 2.78492229991151e-02 2.27199284336619e-04
5.66166666666667e+00 2.74954280547198e-02 2.26072463595304e-04
5.74944444444444e+00 2.71461277010335e-02 2.24924186631294e-04
5.83722222222222e+00 2.68012648396306e-02 2.23755653414648e-04
5.92500000000000e+00 2.64607830962637e-02 2.22568015853734e-04
6.01277777777778e+00 2.61246268134643e-02 2.21362379797422e-04
6.10055555555556e+00 2.57927410408328e-02 2.20139807315640e-04
6.18833333333333e+00 2.54650715265863e-02 2.18901318816525e-04
6.27611111111111e+00 2.51415647070839e-02 2.17647894712775e-04
6.36388888888889e+00 2.48221676996948e-02 2.16380476981591e-04
6.45166666666667e+00 2.45068282936032e-02 2.15099971082593e-04
6.53944444444444e+00 2.41954949412790e-02 2.13807247344007e-04
6.62722222222222e+00 2.38881167505122e-02 2.12503142677394e-04
6.71500000000000e+00 2.35846434746870e-02 2.11188461814304e-04
6.80277777777778e+00 2.32850255059903e-02 2.09863978467120e-04
6.89055555555556e+00 2.29892138668238e-02 2.08530436761598e-04
6.97833333333333e+00 2.26971602022160e-02 2.07188552569827e-04
7.06611111111111e+00 2.24088167706503e-02 2.05839014497830e-04
7.15388888888889e+00 2.21241364375419e-02 2.04482484814095e-04
7.24166666666667e+00 2.18430726670993e-02 2.03119600706104e-04
7.32944444444444e+00 2.15655795147204e-02 2.01750975115883e-04
7.41722222222222e+00 2.12916116198495e-02 2.00377197875236e-04
7.50500000000000e+00 2.10211241974433e-02 1.98998836460164e-04
7.59277777777778e+00 2.07540730317808e-02 1.97616436701242e-04
7.68055555555556e+00 2.04904144688549e-02 1.96230523740749e-04
7.76833333333333e+00 2.02301054095713e-02 1.94841602923409e-04
7.85611111111111e+00 1.99731033016889e-02 1.93450160411036e-04
7.94388888888889e+00 1.97193661338890e-02 1.92056663761643e-04
8.03166666666667e+00 1.94688524285606e-02 1.90661562798844e-04
8.11944444444444e+00 1.92215212350233e-02 1.89265290137953e-04
8.20722222222222e+00 1.89773321231283e-02 1.87868261977073e-04
8.29500000000000e+00 1.87362451757496e-02 1.86470878576478e-04
8.38277777777778e+00 1.84982209831681e-02 1.85073524710568e-04
8.47055555555555e+00 1.82632206363235e-02 1.83676570337783e-04
8.55833333333333e+00 1.80312057207246e-02 1.82280371223315e-04
8.64611111111111e+00 1.78021383093501e-02 1.80885269335312e-04
8.73388888888889e+00 1.75759809572768e-02 1.79491593218339e-04
8.82166666666667e+00 1.73526966952786e-02 1.78099658620232e-04
8.90944444444444e+00 1.71322490237853e-02 1.76709768833805e-04
8.99722222222222e+00 1.69146019071562e-02 1.75322215269945e-04
9.08500000000000e+00 1.66997197670582e-02 1.73937277771211e-04
9.17277777777778e+00 1.64875674773886e-02 1.72555224907348e-04
9.26055555555556e+00 1.62781103582850e-02 1.71176314461118e-04
9.34833333333333e+00 1.60713141706761e-02 1.69800793878936e-04
9.43611111111111e+00 1.58671451100176e-02 1.68428900532657e-04
9.52388888888889e+00 1.56655698014402e-02 1.67060861966064e-04
9.61166666666667e+00 1.54665552940665e-02 1.65696896361201e-04
9.69944444444444e+00 1.52700690556257e-02 1.64337212765132e-04
9.78722222222222e+00 1.50760789673327e-02 1.62982011517617e-04
9.87500000000000e+00 1.48845533180386e-02 1.61631484460363e-04
9.96277777777778e+00 1.46954607996523e-02 1.60285815251013e-04
1.00505555555556e+01 1.45087705012608e-02 1.58945179103216e-04
1.01383333333333e+01 1.43244519072146e-02 1.57609744243099e-04
1.02261111111111e+01 1.41424748856912e-02 1.56279671633298e-04
1.03138888888889e+01 1.39628096895034e-02 1.54955114217866e-04
1.04016666666667e+01 1.37854269493653e-02 1.53636218394179e-04
1.04894444444444e+01 1.36102976691009e-02 1.52323123487092e-04
1.05772222222222e+01 1.34373932225281e-02 1.51015963034083e-04
1.06650000000000e+01 1.32666853438430e-02 1.49714864284927e-04
1.07527777777778e+01 1.30981461279850e-02 1.48419947676767e-04
1.08405555555556e+01 1.29317480243972e-02 1.47131327804395e-04
1.09283333333333e+01 1.27674638340205e-02 1.45849114235047e-04
1.10161111111111e+01 1.26052667003131e-02 1.44573411029602e-04
1.11038888888889e+01 1.24451301094394e-02 1.43304316241073e-04
1.11916666666667e+01 1.22870278843900e-02 1.42041923113493e-04
1.12794444444444e+01 1.21309341807100e-02 1.40786319602434e-04
1.13672222222222e+01 1.19768234836206e-02 1.39537589452648e-04
1.14550000000000e+01 1.18246705997568e-02 1.38295811742492e-04
1.15427777777778e+01 1.16744506571812e-02 1.37061060408234e-04
1.16305555555556e+01 1.15261390999278e-02 1.35833405054191e-04
1.17183333333333e+01 1.13797116852317e-02 1.34612911631547e-04
1.18061111111111e+01 1.12351444757998e-02 1.33399642004602e-04
1.18938888888889e+01 1.10924138397013e-02 1.32193653498319e-04
1.19816666666667e+01 1.09514964452207e-02 1.30994999910114e-04
1.20694444444444e+01 1.08123692570501e-02 1.29803731077763e-04
1.21572222222222e+01 1.06750095336452e-02 1.28619893789235e-04
1.22450000000000e+01 1.05393948200996e-02 1.27443531372442e-04
1.23327777777778e+01 1.04055029479158e-02 1.26274683268240e-04
1.24205555555556e+01 1.02733120302235e-02 1.25113385711782e-04
1.25083333333333e+01 1.01428004592399e-02 1.23959672302365e-04
1.25961111111111e+01 1.00139468995939e-02 1.22813573614011e-04
1.26838888888889e+01 9.88673028801268e-03 1.21675116790460e-04
1.27716666666667e+01 9.76112982880772e-03 1.20544326403771e-04
1.28594444444444e+01 9.63712499047967e-03 1.19421224067774e-04
1.29472222222222e+01 9.51469550330080e-03 1.18305829210384e-04
1.30350000000000e+01 9.39382135315067e-03 1.17198158706661e-04
1.31227777777778e+01 9.27448278112318e-03 1.16098226497879e-04
1.32105555555556e+01 9.15666027932801e-03 1.15006044167838e-04
1.32983333333333e+01 9.04033458857208e-03 1.13921621424101e-04
1.33861111111111e+01 8.92548669257635e-03 1.12844965750364e-04
1.34738888888889e+01 8.81209781752765e-03 1.11776082045743e-04
1.35616666666667e+01 8.70014942811225e-03 1.10714973356610e-04
1.36494444444444e+01 8.58962322448962e-03 1.09661640532372e-04
1.37372222222222e+01 8.48050114008930e-03 1.08616082883911e-04
1.38250000000000e+01 8.37276533626363e-03 1.07578297856866e-04
1.39127777777778e+01 8.26639820178885e-03 1.06548280693067e-04
1.40005555555556e+01 8.16138234917304e-03 1.05526024920281e-04
1.40883333333333e+01 8.05770061254581e-03 1.04511522760573e-04
1.41761111111111e+01 7.95533604263613e-03 1.03504764821148e-04
1.42638888888889e+01 7.85427190623906e-03 1.02505739774115e-04
1.43516666666667e+01 7.75449168272573e-03 1.01514434982508e-04
1.44394444444444e+01 7.65597906134570e-03 1.00530836194743e-04
1.45272222222222e+01 7.55871793922498e-03 9.95549281079240e-05
1.46150000000000e+01 7.46269241671673e-03 9.85866940777821e-05
1.47027777777778e+01 7.36788679683861e-03 9.76261158185693e-05
1.47905555555556e+01 7.27428558202169e-03 9.66731738207864e-05
1.48783333333333e+01 7.18187347219480e-03 9.57278476990653e-05
1.49661111111111e+01 7.09063536041359e-03 9.47901159179105e-05
1.50538888888889e+01 7.00055633227874e-03 9.38599555079980e-05
1.51416666666667e+01 6.91162166286134e-03 9.29373426032998e-05
1.52294444444444e+01 6.82381681429815e-03 9.20222521703970e-05
1.53172222222222e+01 6.73712743397665e-03 9.11146584918353e-05
1.54050000000000e+01 6.65153935048435e-03 9.02145349091079e-05
1.54927777777778e+01 6.56703857301300e-03 8.93218535570468e-05
1.55805555555556e+01 6.48361128849272e-03 8.84365857212741e-05
1.56683333333333e+01 6.40124385985656e-03 8.75587021355298e-05
1.57561111111111e+01 6.31992282222920e-03 8.66881727387608e-05
1.58438888888889e+01 6.23963488232300e-03 8.58249664241429e-05
1.59316666666667e+01 6.16036691572648e-03 8.49690515010912e-05
1.60194444444444e+01 6.08210596476074e-03 8.41203954557682e-05
1.61072222222222e+01 6.00483923683722e-03 8.32789653668728e-05
1.61950000000000e+01 5.92855410092214e-03 8.24447276781896e-05
1.62827777777778e+01 5.85323808692986e-03 8.16176479637678e-05
1.63705555555556e+01 5.77887888319389e-03 8.07976912345999e-05
1.64583333333333e+01 5.70546433489775e-03 7.99848221934447e-05
1.65461111111111e+01 5.63298244074585e-03 7.91790050199085e-05
1.66338888888889e+01 5.56142135235652e-03 7.83802031486145e-05
1.67216666666667e+01 5.49076937186843e-03 7.75883796674641e-05
1.68094444444444e+01 5.42101495002989e-03 7.68034971059215e-05
1.68972222222222e+01 5.35214668471518e-03 7.60255177934488e-05
1.69850000000000e+01 5.28415331783382e-03 7.52544036583722e-05
1.70727777777778e+01 5.21702373472875e-03 7.44901160204299e-05
1.71605555555556e+01 5.15074696194278e-03 7.37326158544877e-05
1.72483333333333e+01 5.08531216580185e-03 7.29818640094405e-05
1.73361111111111e+01 5.02070864950277e-03 7.22378210181961e-05
1.74238888888889e+01 4.95692585251671e-03 7.15004469017012e-05
1.75116666666667e+01 4.89395334847448e-03 7.07697015129094e-05
1.75994444444444e+01 4.83178084346343e-03 7.00455443497007e-05
1.76872222222222e+01 4.77039817468896e-03 6.93279348644488e-05
1.77750000000000e+01 4.70979530776877e-03 6.86168322862633e-05
1.78627777777778e+01 4.64996233614689e-03 6.79121954377743e-05
1.79505555555556e+01 4.59088947911958e-03 6.72139829623531e-05
1.80383333333333e+01 4.53256708055781e-03 6.65221535125301e-05
1.81261111111111e+01 4.47498560635633e-03 6.58366655820708e-05
1.82138888888889e+01 4.41813564385670e-03 6.51574773328996e-05
1.83016666666667e+01 4.36200789997782e-03 6.44845468926490e-05
1.83894444444444e+01 4.30659319969779e-03 6.38178321894163e-05
1.84772222222222e+01 4.25188248484778e-03 6.31572912195471e-05
1.85650000000000e+01 4.19786681174035e-03 6.25028818905782e-05
1.86527777777778e+01 4.14453735060679e-03 6.18545618594578e-05
1.87405555555556e+01 4.09188538385120e-03 6.12122887286652e-05
1.88283333333333e+01 4.03990230489976e-03 6.05760202086753e-05
1.89161111111111e+01 3.98857961596357e-03 5.99457139695823e-05
1.90038888888889e+01 3.93790892748755e-03 5.93213274882710e-05
1.90916666666667e+01 3.88788195649661e-03 5.87028183061847e-05
1.91794444444444e+01 3.83849052524244e-03 5.80901438833890e-05
1.92672222222222e+01 3.78972656011773e-03 5.74832618305367e-05
1.93550000000000e+01 3.74158208957502e-03 5.68821297701222e-05
1.94427777777778e+01 3.69404924359212e-03 5.62867051936429e-05
1.95305555555556e+01 3.64712025212709e-03 5.56969456311221e-05
1.96183333333333e+01 3.60078744408273e-03 5.51128087914132e-05
1.97061111111111e+01 3.55504324534246e-03 5.45342524311081e-05
1.97938888888889e+01 3.50988017824897e-03 5.39612342195873e-05
1.98816666666667e+01 3.46529086014027e-03 5.33937119626159e-05
1.99694444444444e+01 3.42126800214361e-03 5.28316434734555e-05
2.00572222222222e+01 3.37780440819882e-03 5.22749867740644e-05
2.01450000000000e+01 3.33489297323024e-03 5.17236999725237e-05
2.02327777777778e+01 3.29252668264312e-03 5.11777411369138e-05
2.03205555555556e+01 3.25069861095569e-03 5.06370684420562e-05
2.04083333333333e+01 3.20940192086802e-03 5.01016402908337e-05
2.04961111111111e+01 3.16862986153607e-03 4.95714151983709e-05
2.05838888888889e+01 3.12837576808207e-03 4.90463516728739e-05
2.06716666666667e+01 3.08863306029819e-03 4.85264084097934e-05
2.07594444444444e+01 3.04939524157141e-03 4.80115441779962e-05
2.08472222222222e+01 3.01065589800580e-03 4.75017179944687e-05
2.09350000000000e+01 2.97240869681526e-03 4.69968890160265e-05
2.10227777777778e+01 2.93464738585229e-03 4.64970164279517e-05
2.11105555555556e+01 2.89736579239633e-03 4.60020595711498e-05
2.11983333333333e+01 2.86055782231705e-03 4.55119780471895e-05
2.12861111111111e+01 2.82421745855636e-03 4.50267316159680e-05
2.13738888888889e+01 2.78833876067146e-03 4.45462800904709e-05
2.14616666666667e+01 2.75291586368637e-03 4.40705835055665e-05
2.15494444444444e+01 2.71794297713360e-03 4.35996020174513e-05
2.16372222222222e+01 2.68341438426588e-03 4.31332960555078e-05
2.17250000000000e+01 2.64932444064179e-03 4.26716262266274e-05
2.18127777777778e+01 2.61566757368735e-03 4.22145532168548e-05
2.19005555555556e+01 2.58243828162224e-03 4.17620379016973e-05
2.19883333333333e+01 2.54963113270855e-03 4.13140414371643e-05
2.20761111111111e+01 2.51724076391447e-03 4.08705251693381e-05
2.21638888888889e+01 2.48526188049017e-03 4.04314505414192e-05
2.22516666666667e+01 2.45368925494981e-03 3.99967792405914e-05
2.23394444444444e+01 2.42251772621739e-03 3.95664731091882e-05
2.24272222222222e+01 2.39174219891914e-03 3.91404942768130e-05
2.25150000000000e+01 2.36135764213803e-03 3.87188050757899e-05
2.26027777777778e+01 2.33135908900778e-03 3.83013679542829e-05
2.26905555555556e+01 2.30174163576085e-03 3.78881455720819e-05
2.27783333333333e+01 2.27250044105433e-03 3.74791008795838e-05
2.28661111111111e+01 2.24363072479275e-03 3.70741970378733e-05
2.29538888888889e+01 2.21512776773602e-03 3.66733973365991e-05
2.30416666666667e+01 2.18698691059681e-03 3.62766653218720e-05
2.31294444444444e+01 2.15920355327927e-03 3.58839647177710e-05
2.32172222222222e+01 2.13177315424417e-03 3.54952595413843e-05
2.33050000000000e+01 2.10469122941134e-03 3.51105140280820e-05
2.33927777777778e+01 2.07795335178511e-03 3.47296925547570e-05
2.34805555555556e+01 2.05155515061013e-03 3.43527597230733e-05
2.35683333333333e+01 2.02549231076659e-03 3.39796804280459e-05
2.36561111111111e+01 1.99976057173265e-03 3.36104197873921e-05
2.37438888888889e+01 1.97435572722326e-03 3.32449430689665e-05
2.38316666666667e+01 1.94927362438963e-03 3.28832158022304e-05
2.39194444444444e+01 1.92451016314063e-03 3.25252037088726e-05
2.40072222222222e+01 1.90006129557354e-03 3.21708728030609e-05
2.40950000000000e+01 1.87592302500622e-03 3.18201893253834e-05
2.41827777777778e+01 1.85209140563273e-03 3.14731196750128e-05
2.42705555555556e+01 1.82856254177441e-03 3.11296304821212e-05
2.43583333333333e+01 1.80533258733772e-03 3.07896886674707e-05
2.44461111111111e+01 1.78239774489902e-03 3.04532613799523e-05
2.45338888888889e+01 1.75975426537296e-03 3.01203159324515e-05
2.46216666666667e+01 1.73739844730224e-03 2.97908198990616e-05
2.47094444444444e+01 1.71532663625275e-03 2.94647410537591e-05
2.47972222222222e+01 1.69353522430331e-03 2.91420474578233e-05
2.48850000000000e+01 1.67202064919179e-03 2.88227074014260e-05
2.49727777777778e+01 1.65077939399932e-03 2.85066893436747e-05
2.50605555555556e+01 1.62980798648578e-03 2.81939619756408e-05
2.51483333333333e+01 1.60910299860387e-03 2.78844942721857e-05
2.52361111111111e+01 1.58866104569142e-03 2.75782554367214e-05
2.53238888888889e+01 1.56847878616775e-03 2.72752148445128e-05
2.54116666666667e+01 1.54855292090330e-03 2.69753421275227e-05
2.54994444444444e+01 1.52888019268054e-03 2.66786071201862e-05
2.55872222222222e+01 1.50945738573679e-03 2.63849799356918e-05
2.56750000000000e+01 1.49028132501041e-03 2.60944309143260e-05
2.57627777777778e+01 1.47134887585197e-03 2.58069305704642e-05
2.58505555555556e+01 1.45265694343448e-03 2.55224496474684e-05
2.59383333333333e+01 1.43420247231801e-03 2.52409591627868e-05
2.60261111111111e+01 1.41598244573659e-03 2.49624303590962e-05
2.61138888888889e+01 1.39799388532068e-03 2.46868346541656e-05
2.62016666666667e+01 1.38023385053770e-03 2.44141437149479e-05
2.62894444444444e+01 1.36269943821151e-03 2.41443294096240e-05
2.63772222222222e+01 1.34538778211283e-03 2.38773638742030e-05
2.64650000000000e+01 1.32829605229360e-03 2.36132194668306e-05
2.65527777777778e+01 1.31142145482328e-03 2.33518687209134e-05
2.66405555555556e+01 1.29476123126530e-03 2.30932843929650e-05
2.67283333333333e+01 1.27831265828715e-03 2.28374395018745e-05
2.68161111111111e+01 1.26207304703038e-03 2.25843072856798e-05
2.69038888888889e+01 1.24603974285761e-03 2.23338611572300e-05
2.69916666666667e+01 1.23021012485575e-03 2.20860747689191e-05
2.70794444444444e+01 1.21458160540767e-03 2.18409219702669e-05
2.71672222222222e+01 1.19915162982556e-03 2.15983768661012e-05
2.72550000000000e+01 1.18391767576264e-03 2.13584137761283e-05
2.73427777777778e+01 1.16887725297305e-03 2.11210071934735e-05
2.74305555555556e+01 1.15402790284686e-03 2.08861318264039e-05
2.75183333333333e+01 1.13936719806104e-03 2.06537626325385e-05
2.76061111111111e+01 1.12489274202268e-03 2.04238747806015e-05
2.76938888888889e+01 1.11060216863866e-03 2.01964436111957e-05
