Energy (eV)          EEDF (eV^-(3/2))     First Anisotropy
1.21750000000000e-02 6.67438420877469e-01 5.52478893533656e-04
3.65250000000000e-02 6.56018003708384e-01 9.07545577993445e-04
6.08750000000000e-02 6.44792999215645e-01 1.18553423801781e-03
8.52250000000000e-02 6.33760063728790e-01 1.38925292064780e-03
1.09575000000000e-01 6.22915910790111e-01 1.55308374864136e-03
1.33925000000000e-01 6.12257310175848e-01 1.69023343585917e-03
1.58275000000000e-01 6.01781086934006e-01 1.80763948292466e-03
1.82625000000000e-01 5.91484120438609e-01 1.90955216926188e-03
2.06975000000000e-01 5.81363343460142e-01 1.99883017306309e-03
2.31325000000000e-01 5.71415741251896e-01 2.07752168770143e-03
2.55675000000000e-01 5.61638350651942e-01 2.14716308067554e-03
2.80025000000000e-01 5.52028259200474e-01 2.20894767705448e-03
3.04375000000000e-01 5.42582604272255e-01 2.26382810902304e-03
3.28725000000000e-01 5.33298572223908e-01 2.31258186243210e-03
3.53075000000000e-01 5.24173397555793e-01 2.35585512752383e-03
3.77425000000000e-01 5.15204362088231e-01 2.39419320427114e-03
4.01775000000000e-01 5.06388794151821e-01 2.42806222539849e-03
4.26125000000000e-01 4.97724067791608e-01 2.45786507597856e-03
4.50475000000000e-01 4.89207601984876e-01 2.48395331818739e-03
4.74825000000000e-01 4.80836859872316e-01 2.50663629552167e-03
4.99175000000000e-01 4.72609348002357e-01 2.52618820102556e-03
5.23525000000000e-01 4.64522615588425e-01 2.54285364692549e-03
5.47875000000000e-01 4.56574253778906e-01 2.55685211197165e-03
5.72225000000000e-01 4.48761894939608e-01 2.56838153519126e-03
5.96575000000000e-01 4.41083211948497e-01 2.57762125132105e-03
6.20925000000000e-01 4.33535917502497e-01 2.58473441207934e-03
6.45275000000000e-01 4.26117763436162e-01 2.58987000124180e-03
6.69625000000000e-01 4.18826540051991e-01 2.59316452543588e-03
6.93975000000000e-01 4.11660075462219e-01 2.59474344355104e-03
7.18325000000000e-01 4.04616234941853e-01 2.59472238359110e-03
7.42675000000000e-01 3.97692920292791e-01 2.59320818525370e-03
7.67025000000000e-01 3.90888069218816e-01 2.59029979854001e-03
7.91375000000000e-01 3.84199654711289e-01 2.58608906258780e-03
8.15725000000000e-01 3.77625684445341e-01 2.58066138419770e-03
8.40075000000000e-01 3.71164200186415e-01 2.57409633184079e-03
8.64425000000000e-01 3.64813277206946e-01 2.56646815803993e-03
8.88775000000000e-01 3.58571023713034e-01 2.55784626072144e-03
9.13125000000000e-01 3.52435580280917e-01 2.54829559230162e-03
9.37475000000000e-01 3.46405119303096e-01 2.53787702379907e-03
9.61825000000000e-01 3.40477844443929e-01 2.52664767007070e-03
9.86175000000000e-01 3.34651990104548e-01 2.51466118129954e-03
1.01052500000000e+00 3.28925820896924e-01 2.50196800506662e-03
1.03487500000000e+00 3.23297631126936e-01 2.48861562268437e-03
1.05922500000000e+00 3.17765744286285e-01 2.47464876292659e-03
1.08357500000000e+00 3.12328512553100e-01 2.46010959584017e-03
1.10792500000000e+00 3.06984316301089e-01 2.44503790894591e-03
1.13227500000000e+00 3.01731563617091e-01 2.42947126781923e-03
1.15662500000000e+00 2.96568689826880e-01 2.41344516277537e-03
1.18097500000000e+00 2.91494157029087e-01 2.39699314315783e-03
1.20532500000000e+00 2.86506453637092e-01 2.38014694053572e-03
1.22967500000000e+00 2.81604093928758e-01 2.36293658195321e-03
1.25402500000000e+00 2.76785617603868e-01 2.34539049423336e-03
1.27837500000000e+00 2.72049589349139e-01 2.32753560021856e-03
1.30272500000000e+00 2.67394598410668e-01 2.30939740772535e-03
1.32707500000000e+00 2.62819258173708e-01 2.29100009190251e-03
1.35142500000000e+00 2.58322205749621e-01 2.27236657160265e-03
1.37577500000000e+00 2.53902101569912e-01 2.25351858031089e-03
1.40012500000000e+00 2.49557628987196e-01 2.23447673211386e-03
1.42447500000000e+00 2.45287493883000e-01 2.21526058314185e-03
1.44882500000000e+00 2.41090424282280e-01 2.19588868887114e-03
1.47317500000000e+00 2.36965169974523e-01 2.17637865763336e-03
1.49752500000000e+00 2.32910502141340e-01 2.15674720064501e-03
1.52187500000000e+00 2.28925212990430e-01 2.13701017883775e-03
1.54622500000000e+00 2.25008115395806e-01 2.11718264674370e-03
1.57057500000000e+00 2.21158042544177e-01 2.09727889366545e-03
1.59492500000000e+00 2.17373847587382e-01 2.07731248233873e-03
1.61927500000000e+00 2.13654403300770e-01 2.05729628527673e-03
1.64362500000000e+00 2.09998601747425e-01 2.03724251896742e-03
1.66797500000000e+00 2.06405353948138e-01 2.01716277608069e-03
1.69232500000000e+00 2.02873589557024e-01 1.99706805582768e-03
1.71667500000000e+00 1.99402256542692e-01 1.97696879260218e-03
1.74102500000000e+00 1.95990320874869e-01 1.95687488302394e-03
1.76537500000000e+00 1.92636766216385e-01 1.93679571149249e-03
1.78972500000000e+00 1.89340593620429e-01 1.91674017435173e-03
1.81407500000000e+00 1.86100821232989e-01 1.89671670275765e-03
1.83842500000000e+00 1.82916484000376e-01 1.87673328433336e-03
1.86277500000000e+00 1.79786633381759e-01 1.85679748368975e-03
1.88712500000000e+00 1.76710337066619e-01 1.83691646188341e-03
1.91147500000000e+00 1.73686678697028e-01 1.81709699487857e-03
1.93582500000000e+00 1.70714757594695e-01 1.79734549107400e-03
1.96017500000000e+00 1.67793688492669e-01 1.77766800795205e-03
1.98452500000000e+00 1.64922601271641e-01 1.75807026790251e-03
2.00887500000000e+00 1.62100640700757e-01 1.73855767326986e-03
2.03322500000000e+00 1.59326966182859e-01 1.71913532066928e-03
2.05757500000000e+00 1.56600751504095e-01 1.69980801461413e-03
2.08192500000000e+00 1.53921184587808e-01 1.68058028049341e-03
2.10627500000000e+00 1.51287467252637e-01 1.66145637693612e-03
2.13062500000000e+00 1.48698814974756e-01 1.64244030759675e-03
2.15497500000000e+00 1.46154456654183e-01 1.62353583239335e-03
2.17932500000000e+00 1.43653634385089e-01 1.60474647822806e-03
2.20367500000000e+00 1.41195603230030e-01 1.58607554921796e-03
2.22802500000000e+00 1.38779630998055e-01 1.56752613646214e-03
2.25237500000000e+00 1.36404998026597e-01 1.54910112736924e-03
2.27672500000000e+00 1.34070996967102e-01 1.53080321456843e-03
2.30107500000000e+00 1.31776932574332e-01 1.51263490442522e-03
2.32542500000000e+00 1.29522121499260e-01 1.49459852518205e-03
2.34977500000000e+00 1.27305892085523e-01 1.47669623474266e-03
2.37412500000000e+00 1.25127584169346e-01 1.45893002811794e-03
2.39847500000000e+00 1.22986548882894e-01 1.44130174455003e-03
2.42282500000000e+00 1.20882148460996e-01 1.42381307433027e-03
2.44717500000000e+00 1.18813756051159e-01 1.40646556532584e-03
2.47152500000000e+00 1.16780755526854e-01 1.38926062922918e-03
2.49587500000000e+00 1.14782541303977e-01 1.37219954754322e-03
2.52022500000000e+00 1.12818518160464e-01 1.35528347731495e-03
2.54457500000000e+00 1.10888101058990e-01 1.33851345662895e-03
2.56892500000000e+00 1.08990714972693e-01 1.32189040987217e-03
2.59327500000000e+00 1.07125794713893e-01 1.30541515278040e-03
2.61762500000000e+00 1.05292784765733e-01 1.28908839727624e-03
2.64197500000000e+00 1.03491139116705e-01 1.27291075610823e-03
2.66632500000000e+00 1.01720321098001e-01 1.25688274729979e-03
2.69067500000000e+00 9.99798032236590e-02 1.24100479841655e-03
2.71502500000000e+00 9.82690670334309e-02 1.22527725066028e-03
2.73937500000000e+00 9.65876029383479e-02 1.20970036279657e-03
2.76372500000000e+00 9.49349100689252e-02 1.19427431492391e-03
2.78807500000000e+00 9.33104961259646e-02 1.17899921209098e-03
2.81242500000000e+00 9.17138772339095e-02 1.16387508776823e-03
2.83677500000000e+00 9.01445777967101e-02 1.14890190718060e-03
2.86112500000000e+00 8.86021303561535e-02 1.13407957050684e-03
2.88547500000000e+00 8.70860754526195e-02 1.11940791595110e-03
2.90982500000000e+00 8.55959614882173e-02 1.10488672269225e-03
2.93417500000000e+00 8.41313445922656e-02 1.09051571371597e-03
2.95852500000000e+00 8.26917884890735e-02 1.07629455853448e-03
2.98287500000000e+00 8.12768643679837e-02 1.06222287579841e-03
3.00722500000000e+00 7.98861507556399e-02 1.04830023580528e-03
3.03157500000000e+00 7.85192333904397e-02 1.03452616290895e-03
3.05592500000000e+00 7.71757050991355e-02 1.02090013783382e-03
3.08027500000000e+00 7.58551656755468e-02 1.00742159989773e-03
3.10462500000000e+00 7.45572217613482e-02 9.94089949147209e-04
3.12897500000000e+00 7.32814867288968e-02 9.80904548408529e-04
3.15332500000000e+00 7.20275805660649e-02 9.67864725257944e-04
3.17767500000000e+00 7.07951297630432e-02 9.54969773914314e-04
3.20202500000000e+00 6.95837672010804e-02 9.42218957057102e-04
3.22637500000000e+00 6.83931320431274e-02 9.29611507572671e-04
3.25072500000000e+00 6.72228696263520e-02 9.17146630231838e-04
3.27507500000000e+00 6.60726313564932e-02 9.04823503301107e-04
3.29942500000000e+00 6.49420746040228e-02 8.92641280090319e-04
3.32377500000000e+00 6.38308626020841e-02 8.80599090439145e-04
3.34812500000000e+00 6.27386643461764e-02 8.68696042144673e-04
3.37247500000000e+00 6.16651544955569e-02 8.56931222332430e-04
3.39682500000000e+00 6.06100132763291e-02 8.45303698773044e-04
3.42117500000000e+00 5.95729263861891e-02 8.33812521146531e-04
3.44552500000000e+00 5.85535849008025e-02 8.22456722256157e-04
3.46987500000000e+00 5.75516851817830e-02 8.11235319193879e-04
3.49422500000000e+00 5.65669287862452e-02 8.00147314459155e-04
3.51857500000000e+00 5.55990223779057e-02 7.89191697032861e-04
3.54292500000000e+00 5.46476776397047e-02 7.78367443407942e-04
3.56727500000000e+00 5.37126111879231e-02 7.67673518578616e-04
3.59162500000000e+00 5.27935444877688e-02 7.57108876989415e-04
3.61597500000000e+00 5.18902037704079e-02 7.46672463445707e-04
3.64032500000000e+00 5.10023199514152e-02 7.36363213987148e-04
3.66467500000000e+00 5.01296285506199e-02 7.26180056725383e-04
3.68902500000000e+00 4.92718696133232e-02 7.16121912647313e-04
3.71337500000000e+00 4.84287876328639e-02 7.06187696385210e-04
3.73772500000000e+00 4.76001314745087e-02 6.96376316954974e-04
3.76207500000000e+00 4.67856543006448e-02 6.86686678463550e-04
3.78642500000000e+00 4.59851134972529e-02 6.77117680786829e-04
3.81077500000000e+00 4.51982706016380e-02 6.67668220218970e-04
3.83512500000000e+00 4.44248912313967e-02 6.58337190094201e-04
3.85947500000000e+00 4.36647450146003e-02 6.49123481382259e-04
3.88382500000000e+00 4.29176055211721e-02 6.40025983258263e-04
3.90817500000000e+00 4.21832501954392e-02 6.31043583647984e-04
3.93252500000000e+00 4.14614602898383e-02 6.22175169749505e-04
3.95687500000000e+00 4.07520207997558e-02 6.13419628532048e-04
3.98122500000000e+00 4.00547203994827e-02 6.04775847212814e-04
4.00557500000000e+00 3.93693513792658e-02 5.96242713712707e-04
4.02992500000000e+00 3.86957095834357e-02 5.87819117091586e-04
4.05427500000000e+00 3.80335943495933e-02 5.79503947963918e-04
4.07862500000000e+00 3.73828084488374e-02 5.71296098895504e-04
4.10297500000000e+00 3.67431580270143e-02 5.63194464781891e-04
4.12732500000000e+00 3.61144525469738e-02 5.55197943209276e-04
4.15167500000000e+00 3.54965047318117e-02 5.47305434798462e-04
4.17602500000000e+00 3.48891305090852e-02 5.39515843532475e-04
4.20037500000000e+00 3.42921489559812e-02 5.31828077068477e-04
4.22472500000000e+00 3.37053822454241e-02 5.24241047034551e-04
4.24907500000000e+00 3.31286555931048e-02 5.16753669311849e-04
4.27342500000000e+00 3.25617972054167e-02 5.09364864302738e-04
4.29777500000000e+00 3.20046382282824e-02 5.02073557185409e-04
4.32212500000000e+00 3.14570126968558e-02 4.94878678155384e-04
4.34647500000000e+00 3.09187574860849e-02 4.87779162654535e-04
4.37082500000000e+00 3.03897122621209e-02 4.80773951587981e-04
4.39517500000000e+00 2.98697194345582e-02 4.73861991529314e-04
4.41952500000000e+00 2.93586241094918e-02 4.67042234914649e-04
4.44387500000000e+00 2.88562740433783e-02 4.60313640225827e-04
4.46822500000000e+00 2.83625195976857e-02 4.53675172163268e-04
4.49257500000000e+00 2.78772136943196e-02 4.47125801808783e-04
4.51692500000000e+00 2.74002117718122e-02 4.40664506778709e-04
4.54127500000000e+00 2.69313717422604e-02 4.34290271367839e-04
4.56562500000000e+00 2.64705539490016e-02 4.28002086684384e-04
4.58997500000000e+00 2.60176211250127e-02 4.21798950776346e-04
4.61432500000000e+00 2.55724383520217e-02 4.15679868749607e-04
4.63867500000000e+00 2.51348730203185e-02 4.09643852878062e-04
4.66302500000000e+00 2.47047947892535e-02 4.03689922706161e-04
4.68737500000000e+00 2.42820755484125e-02 3.97817105143991e-04
4.71172500000000e+00 2.38665893794550e-02 3.92024434555343e-04
4.73607500000000e+00 2.34582125186063e-02 3.86310952838955e-04
4.76042500000000e+00 2.30568233197911e-02 3.80675709503193e-04
4.78477500000000e+00 2.26623022183980e-02 3.75117761734487e-04
4.80912500000000e+00 2.22745316956638e-02 3.69636174459653e-04
4.83347500000000e+00 2.18933962436675e-02 3.64230020402452e-04
4.85782500000000e+00 2.15187823309230e-02 3.58898380134564e-04
4.88217500000000e+00 2.11505783685607e-02 3.53640342121175e-04
4.90652500000000e+00 2.07886746770881e-02 3.48455002761428e-04
4.93087500000000e+00 2.04329634537181e-02 3.43341466423944e-04
4.95522500000000e+00 2.00833387402579e-02 3.38298845477566e-04
4.97957500000000e+00 1.97396963915456e-02 3.33326260317595e-04
5.00392500000000e+00 1.94019340444285e-02 3.28422839387624e-04
5.02827500000000e+00 1.90699510872709e-02 3.23587719197174e-04
5.05262500000000e+00 1.87436486299847e-02 3.18820044335333e-04
5.07697500000000e+00 1.84229294745719e-02 3.14118967480547e-04
5.10132500000000e+00 1.81076980861717e-02 3.09483649406709e-04
5.12567500000000e+00 1.77978605646031e-02 3.04913258985715e-04
5.15002500000000e+00 1.74933246163938e-02 3.00406973186626e-04
5.17437500000000e+00 1.71939995272883e-02 2.95963977071625e-04
5.19872500000000e+00 1.68997961352263e-02 2.91583463788828e-04
5.22307500000000e+00 1.66106268037831e-02 2.87264634562164e-04
5.24742500000000e+00 1.63264053960650e-02 2.83006698678402e-04
5.27177500000000e+00 1.60470472490510e-02 2.78808873471459e-04
5.29612500000000e+00 1.57724691483737e-02 2.74670384304154e-04
5.32047500000000e+00 1.55025893035312e-02 2.70590464547460e-04
5.34482500000000e+00 1.52373273235245e-02 2.66568355557404e-04
5.36917500000000e+00 1.49766041929099e-02 2.62603306649738e-04
5.39352500000000e+00 1.47203422482627e-02 2.58694575072430e-04
5.41787500000000e+00 1.44684651550431e-02 2.54841425976146e-04
5.44222500000000e+00 1.42208978848574e-02 2.51043132382785e-04
5.46657500000000e+00 1.39775666931092e-02 2.47298975152137e-04
5.49092500000000e+00 1.37383990970324e-02 2.43608242946819e-04
5.51527500000000e+00 1.35033238541004e-02 2.39970232195516e-04
5.53962500000000e+00 1.32722709408045e-02 2.36384247054649e-04
5.56397500000000e+00 1.30451715317953e-02 2.32849599368543e-04
5.58832500000000e+00 1.28219579793816e-02 2.29365608628154e-04
5.61267500000000e+00 1.26025637933794e-02 2.25931601928469e-04
5.63702500000000e+00 1.23869236213062e-02 2.22546913924630e-04
5.66137500000000e+00 1.21749732289139e-02 2.19210886786839e-04
5.68572500000000e+00 1.19666494810549e-02 2.15922870154142e-04
5.71007500000000e+00 1.17618903228755e-02 2.12682221087151e-04
5.73442500000000e+00 1.15606347613315e-02 2.09488304019752e-04
5.75877500000000e+00 1.13628228470194e-02 2.06340490709855e-04
5.78312500000000e+00 1.11683956563191e-02 2.03238160189285e-04
5.80747500000000e+00 1.09772952738417e-02 2.00180698712848e-04
5.83182500000000e+00 1.07894647751782e-02 1.97167499706587e-04
5.85617500000000e+00 1.06048482099425e-02 1.94197963715349e-04
5.88052500000000e+00 1.04233905851056e-02 1.91271498349686e-04
5.90487500000000e+00 1.02450378486141e-02 1.88387518232124e-04
5.92922500000000e+00 1.00697368732893e-02 1.85545444942855e-04
5.95357500000000e+00 9.89743544100231e-03 1.82744706964903e-04
5.97792500000000e+00 9.72808222711877e-03 1.79984739628829e-04
6.00227500000000e+00 9.56162678521098e-03 1.77264985056957e-04
6.02662500000000e+00 9.39801953203082e-03 1.74584892107229e-04
6.05097500000000e+00 9.23721173274009e-03 1.71943916316683e-04
6.07532500000000e+00 9.07915548639353e-03 1.69341519844599e-04
6.09967500000000e+00 8.92380371167022e-03 1.66777171415373e-04
6.12402500000000e+00 8.77111013284915e-03 1.64250346261134e-04
6.14837500000000e+00 8.62102926602471e-03 1.61760526064124e-04
6.17272500000000e+00 8.47351640555815e-03 1.59307198898903e-04
6.19707500000000e+00 8.32852761076073e-03 1.56889859174395e-04
6.22142500000000e+00 8.18601969280484e-03 1.54508007575795e-04
6.24577500000000e+00 8.04595020185900e-03 1.52161151006381e-04
6.27012500000000e+00 7.90827741444309e-03 1.49848802529256e-04
6.29447500000000e+00 7.77296032099984e-03 1.47570481309030e-04
6.31882500000000e+00 7.63995861367905e-03 1.45325712553497e-04
6.34317500000000e+00 7.50923267433079e-03 1.43114027455295e-04
6.36752500000000e+00 7.38074356270407e-03 1.40934963133603e-04
6.39187500000000e+00 7.25445300484743e-03 1.38788062575871e-04
6.41622500000000e+00 7.13032338170804e-03 1.36672874579630e-04
6.44057500000000e+00 7.00831771792581e-03 1.34588953694382e-04
6.46492500000000e+00 6.88839967081931e-03 1.32535860163596e-04
6.48927500000000e+00 6.77053351956008e-03 1.30513159866836e-04
6.51362500000000e+00 6.65468415453229e-03 1.28520424262022e-04
6.53797500000000e+00 6.54081706687430e-03 1.26557230327849e-04
6.56232500000000e+00 6.42889833819934e-03 1.24623160506395e-04
6.58667500000000e+00 6.31889463049196e-03 1.22717802645901e-04
6.61102500000000e+00 6.21077317617744e-03 1.20840749943777e-04
6.63537500000000e+00 6.10450176836103e-03 1.18991600889808e-04
6.65972500000000e+00 6.00004875123431e-03 1.17169959209605e-04
6.68407500000000e+00 5.89738301064560e-03 1.15375433808297e-04
6.70842500000000e+00 5.79647396483182e-03 1.13607638714470e-04
6.73277500000000e+00 5.69729155530887e-03 1.11866193024395e-04
6.75712500000000e+00 5.59980623791786e-03 1.10150720846522e-04
6.78147500000000e+00 5.50398897402465e-03 1.08460851246263e-04
6.80582500000000e+00 5.40981122186987e-03 1.06796218191078e-04
6.83017500000000e+00 5.31724492806699e-03 1.05156460495877e-04
6.85452500000000e+00 5.22626251924585e-03 1.03541221768725e-04
6.87887500000000e+00 5.13683689383922e-03 1.01950150356878e-04
6.90322500000000e+00 5.04894141400984e-03 1.00382899293156e-04
6.92757500000000e+00 4.96254989771563e-03 9.88391262426597e-05
6.95192500000000e+00 4.87763661091065e-03 9.73184934498187e-05
6.97627500000000e+00 4.79417625987955e-03 9.58206676858154e-05
7.00062500000000e+00 4.71214398370311e-03 9.43453201963574e-05
7.02497500000000e+00 4.63151534685279e-03 9.28921266498166e-05
7.04932500000000e+00 4.55226633191190e-03 9.14607670857383e-05
7.07367500000000e+00 4.47437333242142e-03 9.00509258637280e-05
7.09802500000000e+00 4.39781314584812e-03 8.86622916127242e-05
7.12237500000000e+00 4.32256296667310e-03 8.72945571806533e-05
7.14672500000000e+00 4.24860037959853e-03 8.59474195844683e-05
7.17107500000000e+00 4.17590335287067e-03 8.46205799605850e-05
7.19542500000000e+00 4.10445023171710e-03 8.33137435157146e-05
7.21977500000000e+00 4.03421973189624e-03 8.20266194780982e-05
7.24412500000000e+00 3.96519093335731e-03 8.07589210491357e-05
7.26847500000000e+00 3.89734327400871e-03 7.95103653554197e-05
7.29282500000000e+00 3.83065654359303e-03 7.82806734011885e-05
7.31717500000000e+00 3.76511087766690e-03 7.70695700211759e-05
7.34152500000000e+00 3.70068675168380e-03 7.58767838338709e-05
7.36587500000000e+00 3.63736497517820e-03 7.47020471951944e-05
7.39022500000000e+00 3.57512668604909e-03 7.35450961525880e-05
7.41457500000000e+00 3.51395334494146e-03 7.24056703995192e-05
7.43892500000000e+00 3.45382672972382e-03 7.12835132303972e-05
7.46327500000000e+00 3.39472893006024e-03 7.01783714959048e-05
7.48762500000000e+00 3.33664234207530e-03 6.90899955587517e-05
7.51197500000000e+00 3.27954966311026e-03 6.80181392498438e-05
7.53632500000000e+00 3.22343388656905e-03 6.69625598248646e-05
7.56067500000000e+00 3.16827829685234e-03 6.59230179212723e-05
7.58502500000000e+00 3.11406646437839e-03 6.48992775157241e-05
7.60937500000000e+00 3.06078224068903e-03 6.38911058819088e-05
7.63372500000000e+00 3.00840975363941e-03 6.28982735487945e-05
7.65807500000000e+00 2.95693340267007e-03 6.19205542592945e-05
7.68242500000000e+00 2.90633785415989e-03 6.09577249293486e-05
