Energy (eV)          EEDF (eV^-(3/2))     First Anisotropy
4.94827586206897e-02 4.68883935365168e-02 3.25919033294154e-05
1.48448275862069e-01 4.63327601981874e-02 5.36800799286382e-05
2.47413793103448e-01 4.57837111853902e-02 7.04980451465296e-05
3.46379310344828e-01 4.52411684705453e-02 8.30543831437985e-05
4.45344827586207e-01 4.47050549554688e-02 9.33457132222322e-05
5.44310344827586e-01 4.41752944529694e-02 1.02132616063558e-04
6.43275862068965e-01 4.36518116789605e-02 1.09811506883841e-04
7.42241379310345e-01 4.31345322408092e-02 1.16623433975440e-04
8.41206896551724e-01 4.26233826290232e-02 1.22729356883702e-04
9.40172413793103e-01 4.21182902043215e-02 1.28243804277179e-04
1.03913793103448e+00 4.16191831882428e-02 1.33252118479840e-04
1.13810344827586e+00 4.11259906524833e-02 1.37820171233656e-04
1.23706896551724e+00 4.06386425088882e-02 1.42000236799194e-04
1.33603448275862e+00 4.01570695046571e-02 1.45834742782476e-04
1.43500000000000e+00 3.96812031998605e-02 1.49358770570623e-04
1.53396551724138e+00 3.92109759694994e-02 1.52601783298877e-04
1.63293103448276e+00 3.87463209899298e-02 1.55588857548592e-04
1.73189655172414e+00 3.82871722321555e-02 1.58341583022737e-04
1.83086206896552e+00 3.78334644439709e-02 1.60878733457602e-04
1.92982758620690e+00 3.73851331492477e-02 1.63216776787758e-04
2.02879310344828e+00 3.69421146381683e-02 1.65370271755413e-04
2.12775862068966e+00 3.65043459513393e-02 1.67352177646143e-04
2.22672413793103e+00 3.60717648777434e-02 1.69174100833181e-04
2.32568965517241e+00 3.56443099435484e-02 1.70846494084695e-04
2.42465517241379e+00 3.52219204051948e-02 1.72378818729429e-04
2.52362068965517e+00 3.48045362353149e-02 1.73779677301620e-04
2.62258620689655e+00 3.43920981196957e-02 1.75056923442495e-04
2.72155172413793e+00 3.39845474470095e-02 1.76217754478558e-04
2.82051724137931e+00 3.35818263019439e-02 1.77268789349013e-04
2.91948275862069e+00 3.31838774525207e-02 1.78216134122426e-04
3.01844827586207e+00 3.27906443464541e-02 1.79065437708860e-04
3.11741379310345e+00 3.24020711028866e-02 1.79821941026774e-04
3.21637931034483e+00 3.20181025005959e-02 1.80490518196929e-04
3.31534482758621e+00 3.16386839740287e-02 1.81075712381667e-04
3.41431034482759e+00 3.12637616042354e-02 1.81581767614085e-04
3.51327586206897e+00 3.08932821122874e-02 1.82012656642180e-04
3.61224137931034e+00 3.05271928484504e-02 1.82372104950811e-04
3.71120689655172e+00 3.01654417879846e-02 1.82663611936738e-04
3.81017241379310e+00 2.98079775226550e-02 1.82890470207157e-04
3.90913793103448e+00 2.94547492543380e-02 1.83055782716197e-04
4.00810344827586e+00 2.91057067850139e-02 1.83162477629372e-04
4.10706896551724e+00 2.87608005124500e-02 1.83213321495814e-04
4.20603448275862e+00 2.84199814230289e-02 1.83210932090709e-04
4.30500000000000e+00 2.80832010822975e-02 1.83157789021945e-04
4.40396551724138e+00 2.77504116305891e-02 1.83056243393437e-04
4.50293103448276e+00 2.74215657753797e-02 1.82908526999966e-04
4.60189655172414e+00 2.70966167852824e-02 1.82716760646551e-04
4.70086206896552e+00 2.67755184812405e-02 1.82482961352412e-04
4.79982758620690e+00 2.64582252321490e-02 1.82209048806332e-04
4.89879310344828e+00 2.61446919482825e-02 1.81896852126712e-04
4.99775862068966e+00 2.58348740729368e-02 1.81548115230458e-04
5.09672413793103e+00 2.55287275780650e-02 1.81164501835370e-04
5.19568965517241e+00 2.52262089573554e-02 1.80747600437438e-04
5.29465517241379e+00 2.49272752206214e-02 1.80298928870909e-04
5.39362068965517e+00 2.46318838859681e-02 1.79819938201039e-04
5.49258620689655e+00 2.43399929754938e-02 1.79312016304393e-04
5.59155172413793e+00 2.40515610087405e-02 1.78776491532883e-04
5.69051724137931e+00 2.37665469973040e-02 1.78214636087859e-04
5.78948275862069e+00 2.34849104374785e-02 1.77627668860808e-04
5.88844827586207e+00 2.32066113060434e-02 1.77016757987028e-04
5.98741379310345e+00 2.29316100545215e-02 1.76383023906516e-04
6.08637931034483e+00 2.26598676021601e-02 1.75727541559964e-04
6.18534482758621e+00 2.23913453317866e-02 1.75051342501295e-04
6.28431034482759e+00 2.21260050838459e-02 1.74355417174418e-04
6.38327586206897e+00 2.18638091513918e-02 1.73640717023538e-04
6.48224137931035e+00 2.16047202734773e-02 1.72908156216243e-04
6.58120689655172e+00 2.13487016311209e-02 1.72158613247688e-04
6.68017241379310e+00 2.10957168416519e-02 1.71392932727438e-04
6.77913793103448e+00 2.08457299539092e-02 1.70611927039834e-04
6.87810344827586e+00 2.05987054420087e-02 1.69816377669177e-04
6.97706896551724e+00 2.03546082014290e-02 1.69007036378993e-04
7.07603448275862e+00 2.01134035439839e-02 1.68184626874976e-04
7.17500000000000e+00 1.98750571918580e-02 1.67349845839829e-04
7.27396551724138e+00 1.96395352737790e-02 1.66503363962643e-04
7.37293103448276e+00 1.94068043198530e-02 1.65645827156562e-04
7.47189655172414e+00 1.91768312571178e-02 1.64777857693581e-04
7.57086206896552e+00 1.89495834039072e-02 1.63900055071345e-04
7.66982758620690e+00 1.87250284661495e-02 1.63012996774361e-04
7.76879310344828e+00 1.85031345327479e-02 1.62117239478778e-04
7.86775862068965e+00 1.82838700701808e-02 1.61213319726212e-04
7.96672413793103e+00 1.80672039188928e-02 1.60301754610216e-04
8.06568965517241e+00 1.78531052885722e-02 1.59383042642841e-04
8.16465517241379e+00 1.76415437540363e-02 1.58457664563452e-04
8.26362068965517e+00 1.74324892501217e-02 1.57526083925628e-04
8.36258620689655e+00 1.72259120682039e-02 1.56588747648680e-04
8.46155172413793e+00 1.70217828517097e-02 1.55646086743336e-04
8.56051724137931e+00 1.68200725921810e-02 1.54698516989196e-04
8.65948275862069e+00 1.66207526244375e-02 1.53746439409837e-04
8.75844827586207e+00 1.64237946232238e-02 1.52790240677487e-04
8.85741379310345e+00 1.62291705991626e-02 1.51830293896354e-04
8.95637931034483e+00 1.60368528941119e-02 1.50866958964030e-04
9.05534482758621e+00 1.58468141779047e-02 1.49900582955670e-04
9.15431034482759e+00 1.56590274442398e-02 1.48931500667955e-04
9.25327586206897e+00 1.54734660070446e-02 1.47960035126813e-04
9.35224137931034e+00 1.52901034960757e-02 1.46986497922160e-04
9.45120689655172e+00 1.51089138537837e-02 1.46011189522958e-04
9.55017241379310e+00 1.49298713314045e-02 1.45034399744373e-04
9.64913793103448e+00 1.47529504854838e-02 1.44056408183558e-04
9.74810344827586e+00 1.45781261737053e-02 1.43077484495627e-04
9.84706896551724e+00 1.44053735518780e-02 1.42097888618570e-04
9.94603448275862e+00 1.42346680703899e-02 1.41117871317649e-04
1.00450000000000e+01 1.40659854701992e-02 1.40137674522931e-04
1.01439655172414e+01 1.38993017792514e-02 1.39157531076408e-04
1.02429310344828e+01 1.37345933112192e-02 1.38177665541714e-04
1.03418965517241e+01 1.35718366594515e-02 1.37198294724781e-04
1.04408620689655e+01 1.34110086946667e-02 1.36219627372965e-04
1.05398275862069e+01 1.32520865616698e-02 1.35241864645385e-04
1.06387931034483e+01 1.30950476761045e-02 1.34265200665297e-04
1.07377586206897e+01 1.29398697198061e-02 1.33289821833536e-04
1.08367241379310e+01 1.27865306419895e-02 1.32315907678281e-04
1.09356896551724e+01 1.26350086517037e-02 1.31343631708045e-04
1.10346551724138e+01 1.24852822162212e-02 1.30373160666986e-04
1.11336206896552e+01 1.23373300579824e-02 1.29404655061766e-04
1.12325862068966e+01 1.21911311515703e-02 1.28438269636641e-04
1.13315517241379e+01 1.20466647194559e-02 1.27474152727048e-04
1.14305172413793e+01 1.19039102328883e-02 1.26512447006292e-04
1.15294827586207e+01 1.17628474050891e-02 1.25553290236411e-04
1.16284482758621e+01 1.16234561896786e-02 1.24596814572728e-04
1.17274137931034e+01 1.14857167778323e-02 1.23643147276558e-04
1.18263793103448e+01 1.13496095943180e-02 1.22692410103631e-04
1.19253448275862e+01 1.12151152981883e-02 1.21744719977964e-04
1.20243103448276e+01 1.10822147765174e-02 1.20800189670533e-04
1.21232758620690e+01 1.09508891428702e-02 1.19858927144363e-04
1.22222413793103e+01 1.08211197346168e-02 1.18921035963066e-04
1.23212068965517e+01 1.06928881102843e-02 1.17986615658147e-04
1.24201724137931e+01 1.05661760459192e-02 1.17055761158849e-04
1.25191379310345e+01 1.04409655355752e-02 1.16128563390140e-04
1.26181034482759e+01 1.03172387856421e-02 1.15205109875762e-04
1.27170689655172e+01 1.01949782133655e-02 1.14285484130786e-04
1.28160344827586e+01 1.00741664443489e-02 1.13369766020549e-04
1.29150000000000e+01 9.95478631008598e-03 1.12458032083000e-04
1.30139655172414e+01 9.83682084461858e-03 1.11550354998896e-04
1.31129310344828e+01 9.72025328485845e-03 1.10646804124626e-04
1.32118965517241e+01 9.60506706544170e-03 1.09747446030193e-04
1.33108620689655e+01 9.49124581730533e-03 1.08852343936996e-04
1.34098275862069e+01 9.37877336536234e-03 1.07961558034790e-04
1.35087931034483e+01 9.26763372620344e-03 1.07075145765977e-04
1.36077586206897e+01 9.15781110502322e-03 1.06193161334421e-04
1.37067241379310e+01 9.04928989580690e-03 1.05315656181879e-04
1.38056896551724e+01 8.94205467665435e-03 1.04442679469527e-04
1.39046551724138e+01 8.83609020841590e-03 1.03574277558413e-04
1.40036206896552e+01 8.73138143252882e-03 1.02710494290508e-04
1.41025862068966e+01 8.62791346887666e-03 1.01851371240515e-04
1.42015517241379e+01 8.52567161295958e-03 1.00996947261238e-04
1.43005172413793e+01 8.42464133597225e-03 1.00147258910854e-04
1.43994827586207e+01 8.32480828054791e-03 9.93023408851235e-05
1.44984482758621e+01 8.22615825945532e-03 9.84622255377982e-05
1.45974137931034e+01 8.12867725358510e-03 9.76269432926380e-05
1.46963793103448e+01 8.03235140930461e-03 9.67965222176567e-05
1.47953448275862e+01 7.93716703846500e-03 9.59709884163137e-05
1.48943103448276e+01 7.84311061445877e-03 9.51503664235687e-05
1.49932758620690e+01 7.75016877097031e-03 9.43346787574132e-05
1.50922413793103e+01 7.65832830007605e-03 9.35239461460950e-05
1.51912068965517e+01 7.56757615036898e-03 9.27181877312626e-05
1.52901724137931e+01 7.47789942452016e-03 9.19174206746401e-05
1.53891379310345e+01 7.38928537921297e-03 9.11216605103871e-05
1.54881034482759e+01 7.30172142154611e-03 9.03309215020844e-05
1.55870689655172e+01 7.21519510784553e-03 8.95452162292491e-05
1.56860344827586e+01 7.12969414189621e-03 8.87645557906301e-05
1.57850000000000e+01 7.04520637319546e-03 8.79889499857716e-05
1.58839655172414e+01 6.96171979470364e-03 8.72184069518927e-05
1.59829310344828e+01 6.87922254272045e-03 8.64529334818872e-05
1.60818965517241e+01 6.79770289359955e-03 8.56925353467016e-05
1.61808620689655e+01 6.71714926262087e-03 8.49372169142410e-05
1.62798275862069e+01 6.63755020234503e-03 8.41869813316790e-05
1.63787931034483e+01 6.55889440098663e-03 8.34418306881458e-05
1.64777586206897e+01 6.48117068033811e-03 8.27017656796180e-05
1.65767241379310e+01 6.40436799560086e-03 8.19667858964135e-05
1.66756896551724e+01 6.32847543238103e-03 8.12368901148102e-05
1.67746551724138e+01 6.25348220562124e-03 8.05120759458581e-05
1.68736206896552e+01 6.17937765806893e-03 7.97923399992218e-05
1.69725862068966e+01 6.10615125876153e-03 7.90776780292632e-05
1.70715517241379e+01 6.03379260110906e-03 7.83680846258831e-05
1.71705172413793e+01 5.96229140269041e-03 7.76635534748232e-05
1.72694827586207e+01 5.89163750250367e-03 7.69640776218344e-05
1.73684482758621e+01 5.82182085995554e-03 7.62696491491036e-05
1.74674137931034e+01 5.75283155343569e-03 7.55802594275521e-05
1.75663793103448e+01 5.68465977852060e-03 7.48958988278501e-05
1.76653448275862e+01 5.61729584774892e-03 7.42165569604154e-05
1.77643103448276e+01 5.55073018806401e-03 7.35422229191030e-05
1.78632758620690e+01 5.48495333985106e-03 7.28728849789459e-05
1.79622413793103e+01 5.41995595559269e-03 7.22085307313489e-05
1.80612068965517e+01 5.35572879854124e-03 7.15491472044030e-05
1.81601724137931e+01 5.29226274105860e-03 7.08947205963541e-05
1.82591379310345e+01 5.22954876437110e-03 7.02452364934100e-05
1.83581034482759e+01 5.16757795622499e-03 6.96006800910029e-05
1.84570689655172e+01 5.10634150997774e-03 6.89610359152945e-05
1.85560344827586e+01 5.04583072334659e-03 6.83262879452399e-05
1.86550000000000e+01 4.98603699717228e-03 6.76964197211449e-05
1.87539655172414e+01 4.92695183388388e-03 6.70714140988565e-05
1.88529310344828e+01 4.86856683723920e-03 6.64512534476394e-05
1.89518965517241e+01 4.81087371017392e-03 6.58359198512845e-05
1.90508620689655e+01 4.75386425394479e-03 6.52253948515050e-05
1.91498275862069e+01 4.69753036696484e-03 6.46196595582948e-05
1.92487931034483e+01 4.64186404365213e-03 6.40186947480015e-05
1.93477586206897e+01 4.58685737300971e-03 6.34224806366198e-05
1.94467241379310e+01 4.53250253835653e-03 6.28309970597515e-05
1.95456896551724e+01 4.47879181535278e-03 6.22442236555742e-05
1.96446551724138e+01 4.42571757119281e-03 6.16621396283755e-05
1.97436206896552e+01 4.37327226352096e-03 6.10847238484479e-05
1.98425862068966e+01 4.32144843935953e-03 6.05119549408023e-05
1.99415517241379e+01 4.27023873379476e-03 5.99438110760670e-05
2.00405172413793e+01 4.21963586970231e-03 5.93802701343047e-05
2.01394827586207e+01 4.16963265593321e-03 5.88213098716175e-05
2.02384482758621e+01 4.12022198655426e-03 5.82669077022140e-05
2.03374137931034e+01 4.07139683983880e-03 5.77170408576769e-05
2.04363793103448e+01 4.02315027703405e-03 5.71716861915020e-05
2.05353448275862e+01 3.97547544208555e-03 5.66308203307385e-05
2.06343103448276e+01 3.92836555994520e-03 5.60944198302770e-05
2.07332758620690e+01 3.88181393585006e-03 5.55624609692020e-05
2.08322413793103e+01 3.83581395437084e-03 5.50349198341692e-05
2.09312068965517e+01 3.79035907847218e-03 5.45117723933224e-05
2.10301724137931e+01 3.74544284837137e-03 5.39929943159917e-05
2.11291379310345e+01 3.70105888126285e-03 5.34785611109247e-05
2.12281034482759e+01 3.65720086976227e-03 5.29684482669723e-05
2.13270689655172e+01 3.61386258122847e-03 5.24626310653601e-05
2.14260344827586e+01 3.57103785687790e-03 5.19610846553678e-05
2.15250000000000e+01 3.52872061090951e-03 5.14637841213798e-05
2.16239655172414e+01 3.48690482944785e-03 5.09707043165467e-05
2.17229310344828e+01 3.44558457026995e-03 5.04818199888778e-05
2.18218965517241e+01 3.40475396137357e-03 4.99971059096169e-05
2.19208620689655e+01 3.36440720034032e-03 4.95165367001565e-05
2.20198275862069e+01 3.32453855351129e-03 4.90400869007842e-05
2.21187931034483e+01 3.28514235517225e-03 4.85677310315604e-05
2.22177586206897e+01 3.24621300657454e-03 4.80994434388370e-05
2.23167241379310e+01 3.20774497566618e-03 4.76351984103529e-05
2.24156896551724e+01 3.16973279577378e-03 4.71749702924550e-05
2.25146551724138e+01 3.13217106500457e-03 4.67187333304781e-05
2.26136206896552e+01 3.09505444547904e-03 4.62664617312472e-05
2.27125862068965e+01 3.05837766257228e-03 4.58181297183849e-05
2.28115517241379e+01 3.02213550400674e-03 4.53737113906813e-05
2.29105172413793e+01 2.98632281958903e-03 4.49331808272175e-05
2.30094827586207e+01 2.95093451999578e-03 4.44965121944491e-05
2.31084482758621e+01 2.91596557621264e-03 4.40636795989883e-05
2.32074137931034e+01 2.88141101881987e-03 4.36346571900190e-05
2.33063793103448e+01 2.84726593714055e-03 4.32094190268377e-05
2.34053448275862e+01 2.81352547898334e-03 4.27879391764095e-05
2.35043103448276e+01 2.78018484950799e-03 4.23701918127860e-05
2.36032758620690e+01 2.74723931069370e-03 4.19561510794451e-05
2.37022413793103e+01 2.71468418066575e-03 4.15457911418290e-05
2.38012068965517e+01 2.68251483303036e-03 4.11390862337658e-05
2.39001724137931e+01 2.65072669608506e-03 4.07360105351916e-05
2.39991379310345e+01 2.61931525256899e-03 4.03365382613507e-05
2.40981034482759e+01 2.58827603861708e-03 3.99406437537016e-05
2.41970689655172e+01 2.55760464326159e-03 3.95483013529094e-05
2.42960344827586e+01 2.52729670780529e-03 3.91594854467027e-05
2.43950000000000e+01 2.49734792520216e-03 3.87741705121169e-05
2.44939655172414e+01 2.46775403932532e-03 3.83923310026199e-05
2.45929310344828e+01 2.43851084472539e-03 3.80139414296900e-05
2.46918965517241e+01 2.40961418566615e-03 3.76389764459881e-05
2.47908620689655e+01 2.38105995565729e-03 3.72674107281620e-05
2.48898275862069e+01 2.35284409687100e-03 3.68992190204513e-05
2.49887931034483e+01 2.32496259956528e-03 3.65343761731616e-05
2.50877586206897e+01 2.29741150140513e-03 3.61728570384418e-05
2.51867241379310e+01 2.27018688722951e-03 3.58146365449379e-05
2.52856896551724e+01 2.24328488816167e-03 3.54596897739149e-05
2.53846551724138e+01 2.21670168117152e-03 3.51079918510962e-05
2.54836206896552e+01 2.19043348853241e-03 3.47595179864190e-05
2.55825862068966e+01 2.16447657728425e-03 3.44142435090857e-05
2.56815517241379e+01 2.13882725860395e-03 3.40721437713241e-05
2.57805172413793e+01 2.11348188758124e-03 3.37331942167264e-05
2.58794827586207e+01 2.08843686239776e-03 3.33973704499522e-05
2.59784482758621e+01 2.06368862391706e-03 3.30646481368846e-05
2.60774137931034e+01 2.03923365517903e-03 3.27350030713099e-05
2.61763793103448e+01 2.01506848080832e-03 3.24084110848478e-05
2.62753448275862e+01 1.99118966679804e-03 3.20848481104884e-05
2.63743103448276e+01 1.96759381974156e-03 3.17642902474150e-05
2.64732758620690e+01 1.94427758644451e-03 3.14467136675778e-05
2.65722413793103e+01 1.92123765344827e-03 3.11320946492709e-05
2.66712068965517e+01 1.89847074655920e-03 3.08204096066934e-05
2.67701724137931e+01 1.87597363029985e-03 3.05116350067516e-05
2.68691379310345e+01 1.85374310770181e-03 3.02057474272649e-05
2.69681034482759e+01 1.83177601959633e-03 2.99027236163603e-05
2.70670689655172e+01 1.81006924425121e-03 2.96025404062045e-05
2.71660344827586e+01 1.78861969692714e-03 2.93051747436570e-05
2.72650000000000e+01 1.76742432943943e-03 2.90106037172390e-05
2.73639655172414e+01 1.74648012964882e-03 2.87188044802675e-05
2.74629310344828e+01 1.72578412126342e-03 2.84297543041977e-05
2.75618965517241e+01 1.70533336318357e-03 2.81434306330646e-05
2.76608620689655e+01 1.68512494916200e-03 2.78598110038125e-05
2.77598275862069e+01 1.66515600739082e-03 2.75788730742878e-05
2.78587931034483e+01 1.64542370009349e-03 2.73005946478488e-05
2.79577586206897e+01 1.62592522305229e-03 2.70249536023465e-05
2.80567241379310e+01 1.60665780541934e-03 2.67519279390223e-05
2.81556896551724e+01 1.58761870911135e-03 2.64814958324258e-05
2.82546551724138e+01 1.56880522849158e-03 2.62136355568261e-05
2.83536206896552e+01 1.55021468998550e-03 2.59483255117819e-05
2.84525862068966e+01 1.53184445170080e-03 2.56855442446111e-05
2.85515517241379e+01 1.51369190298885e-03 2.54252703847611e-05
2.86505172413793e+01 1.49575446426470e-03 2.51674826886454e-05
2.87494827586207e+01 1.47802958644770e-03 2.49121600854294e-05
2.88484482758621e+01 1.46051475066409e-03 2.46592816090470e-05
2.89474137931034e+01 1.44320746788915e-03 2.44088264420007e-05
2.90463793103448e+01 1.42610527853496e-03 2.41607738539090e-05
2.91453448275862e+01 1.40920575227788e-03 2.39151032432445e-05
2.92443103448276e+01 1.39250648753449e-03 2.36717941799646e-05
2.93432758620690e+01 1.37600511118046e-03 2.34308263418633e-05
2.94422413793103e+01 1.35969927821325e-03 2.31921795362373e-05
2.95412068965517e+01 1.34358667141892e-03 2.29558337188959e-05
2.96401724137931e+01 1.32766500098955e-03 2.27217689373567e-05
2.97391379310345e+01 1.31193200435916e-03 2.24899653691399e-05
2.98381034482759e+01 1.29638544571932e-03 2.22604033608883e-05
2.99370689655172e+01 1.28102311575618e-03 2.20330633695507e-05
3.00360344827586e+01 1.26584283133656e-03 2.18079259821930e-05
3.01350000000000e+01 1.25084243519769e-03 2.15849719333692e-05
3.02339655172414e+01 1.23601979559200e-03 2.13641820526067e-05
3.03329310344828e+01 1.22137280613149e-03 2.11455372995495e-05
3.04318965517241e+01 1.20689938533965e-03 2.09290187998666e-05
3.05308620689655e+01 1.19259747640576e-03 2.07146077908919e-05
3.06298275862069e+01 1.17846504689255e-03 2.05022856397462e-05
3.07287931034483e+01 1.16450008844740e-03 2.02920338592115e-05
3.08277586206897e+01 1.15070061647255e-03 2.00838340591765e-05
3.09267241379310e+01 1.13706466997746e-03 1.98776679788980e-05
3.10256896551724e+01 1.12359031116449e-03 1.96735175199676e-05
3.11246551724138e+01 1.11027562519910e-03 1.94713646960660e-05
3.12236206896552e+01 1.09711871993782e-03 1.92711916495392e-05
