Energy (eV)          EEDF (eV^-(3/2))     First Anisotropy
9.37500000000000e-02 6.66743895664659e-02 7.13131262601031e-05
2.81250000000000e-01 6.47864208053959e-02 1.16482596500229e-04
4.68750000000000e-01 6.29519122419567e-02 1.50427446277232e-04
6.56250000000000e-01 6.11693500837607e-02 1.74266811259973e-04
8.43750000000000e-01 5.94372634033493e-02 1.92596604170185e-04
1.03125000000000e+00 5.77542229244157e-02 2.07214824732482e-04
1.21875000000000e+00 5.61188398424002e-02 2.19081818467624e-04
1.40625000000000e+00 5.45297646784819e-02 2.28794947848916e-04
1.59375000000000e+00 5.29856861660210e-02 2.36761554755012e-04
1.78125000000000e+00 5.14853301685334e-02 2.43277103757230e-04
1.96875000000000e+00 5.00274586283037e-02 2.48565635008289e-04
2.15625000000000e+00 4.86108685447696e-02 2.52802793015449e-04
2.34375000000000e+00 4.72343909818350e-02 2.56129894755015e-04
2.53125000000000e+00 4.58968901032919e-02 2.58663007128040e-04
2.71875000000000e+00 4.45972622355555e-02 2.60499066492823e-04
2.90625000000000e+00 4.33344349569396e-02 2.61720155125206e-04
3.09375000000000e+00 4.21073662127196e-02 2.62396580954460e-04
3.28125000000000e+00 4.09150434552545e-02 2.62589152902887e-04
3.46875000000000e+00 3.97564828084563e-02 2.62350899352540e-04
3.65625000000000e+00 3.86307282559197e-02 2.61728391148027e-04
3.84375000000000e+00 3.75368508520400e-02 2.60762777441934e-04
4.03125000000000e+00 3.64739479554693e-02 2.59490608897615e-04
4.21875000000000e+00 3.54411424842792e-02 2.57944500659645e-04
4.40625000000000e+00 3.44375821922131e-02 2.56153672686447e-04
4.59375000000000e+00 3.34624389654338e-02 2.54144394890911e-04
4.78125000000000e+00 3.25149081391832e-02 2.51940357446434e-04
4.96875000000000e+00 3.15942078337929e-02 2.49562981577002e-04
5.15625000000000e+00 3.06995783094952e-02 2.47031682510541e-04
5.34375000000000e+00 2.98302813395048e-02 2.44364093607494e-04
5.53125000000000e+00 2.89855996008513e-02 2.41576258695630e-04
5.71875000000000e+00 2.81648360824618e-02 2.38682798152694e-04
5.90625000000000e+00 2.73673135100039e-02 2.35697053145935e-04
6.09375000000000e+00 2.65923737870154e-02 2.32631211567267e-04
6.28125000000000e+00 2.58393774518587e-02 2.29496418527530e-04
6.46875000000000e+00 2.51077031500527e-02 2.26302873744605e-04
6.65625000000000e+00 2.43967471215457e-02 2.23059917742592e-04
6.84375000000000e+00 2.37059227025072e-02 2.19776108446943e-04
7.03125000000000e+00 2.30346598412274e-02 2.16459289494022e-04
7.21875000000000e+00 2.23824046277235e-02 2.13116651358286e-04
7.40625000000000e+00 2.17486188366672e-02 2.09754786225496e-04
7.59375000000000e+00 2.11327794832535e-02 2.06379737397207e-04
7.78125000000000e+00 2.05343783916468e-02 2.02997043894162e-04
7.96875000000000e+00 1.99529217756458e-02 1.99611780828835e-04
8.15625000000000e+00 1.93879298312236e-02 1.96228596036325e-04
8.34375000000000e+00 1.88389363406043e-02 1.92851743385189e-04
8.53125000000000e+00 1.83054882875519e-02 1.89485113132871e-04
8.71875000000000e+00 1.77871454835518e-02 1.86132259642473e-04
8.90625000000000e+00 1.72834802045780e-02 1.82796426736911e-04
9.09375000000000e+00 1.67940768381454e-02 1.79480570931934e-04
9.28125000000000e+00 1.63185315403564e-02 1.76187382759933e-04
9.46875000000000e+00 1.58564519026586e-02 1.72919306371111e-04
9.65625000000000e+00 1.54074566280390e-02 1.69678557576791e-04
9.84375000000000e+00 1.49711752163862e-02 1.66467140480773e-04
1.00312500000000e+01 1.45472476587632e-02 1.63286862828359e-04
1.02187500000000e+01 1.41353241403365e-02 1.60139350188468e-04
1.04062500000000e+01 1.37350647517173e-02 1.57026059071877e-04
1.05937500000000e+01 1.33461392084763e-02 1.53948289077794e-04
1.07812500000000e+01 1.29682265786012e-02 1.50907194151511e-04
1.09687500000000e+01 1.26010150176710e-02 1.47903793027500e-04
1.11562500000000e+01 1.22442015115299e-02 1.44938978924973e-04
1.13437500000000e+01 1.18974916262468e-02 1.42013528556413e-04
1.15312500000000e+01 1.15605992651558e-02 1.39128110503811e-04
1.17187500000000e+01 1.12332464327762e-02 1.36283293012238e-04
1.19062500000000e+01 1.09151630054169e-02 1.33479551245788e-04
1.20937500000000e+01 1.06060865082774e-02 1.30717274046875e-04
1.22812500000000e+01 1.03057618988592e-02 1.27996770236241e-04
1.24687500000000e+01 1.00139413565116e-02 1.25318274487732e-04
1.26562500000000e+01 9.73038407793536e-03 1.22681952809013e-04
1.28437500000000e+01 9.45485607847825e-03 1.20087907656720e-04
1.30312500000000e+01 9.18712999905602e-03 1.17536182712194e-04
1.32187500000000e+01 8.92698491854143e-03 1.15026767341793e-04
1.34062500000000e+01 8.67420617146535e-03 1.12559600763850e-04
1.35937500000000e+01 8.42858517087999e-03 1.10134575942553e-04
1.37812500000000e+01 8.18991923623795e-03 1.07751543227469e-04
1.39687500000000e+01 7.95801142614514e-03 1.05410313755979e-04
1.41562500000000e+01 7.73267037584943e-03 1.03110662634535e-04
1.43437500000000e+01 7.51371013933109e-03 1.00852331913497e-04
1.45312500000000e+01 7.30095003586458e-03 9.86350333691772e-05
1.47187500000000e+01 7.09421450092515e-03 9.64584511057367e-05
1.49062500000000e+01 6.89333294131726e-03 9.43222439886447e-05
1.50937500000000e+01 6.69813959440511e-03 9.22260479205789e-05
1.52812500000000e+01 6.50847339132935e-03 9.01694779698672e-05
1.54687500000000e+01 6.32417782409689e-03 8.81521303608727e-05
1.56562500000000e+01 6.14510081643431e-03 8.61735843350586e-05
1.58437500000000e+01 5.97109459829810e-03 8.42334038908696e-05
1.60312500000000e+01 5.80201558393845e-03 8.23311394100259e-05
1.62187500000000e+01 5.63772425341570e-03 8.04663291773037e-05
1.64062500000000e+01 5.47808503747182e-03 7.86385008003929e-05
1.65937500000000e+01 5.32296620566198e-03 7.68471725360163e-05
1.67812500000000e+01 5.17223975765368e-03 7.50918545280626e-05
1.69687500000000e+01 5.02578131760400e-03 7.33720499631210e-05
1.71562500000000e+01 4.88347003152760e-03 7.16872561484630e-05
1.73437500000000e+01 4.74518846757099e-03 7.00369655171867e-05
1.75312500000000e+01 4.61082251911050e-03 6.84206665649372e-05
1.77187500000000e+01 4.48026131059428e-03 6.68378447223556e-05
1.79062500000000e+01 4.35339710605047e-03 6.52879831671341e-05
1.80937500000000e+01 4.23012522018604e-03 6.37705635793090e-05
1.82812500000000e+01 4.11034393200301e-03 6.22850668432182e-05
1.84687500000000e+01 3.99395440086072e-03 6.08309736993307e-05
1.86562500000000e+01 3.88086058491491e-03 5.94077653489518e-05
1.88437500000000e+01 3.77096916186635e-03 5.80149240146400e-05
1.90312500000000e+01 3.66418945195341e-03 5.66519334589944e-05
1.92187500000000e+01 3.56043334312541e-03 5.53182794643037e-05
1.94062500000000e+01 3.45961521833462e-03 5.40134502754191e-05
1.95937500000000e+01 3.36165188488712e-03 5.27369370080572e-05
1.97812500000000e+01 3.26646250579423e-03 5.14882340246099e-05
1.99687500000000e+01 3.17396853306771e-03 5.02668392794260e-05
2.01562500000000e+01 3.08409364290393e-03 4.90722546354035e-05
2.03437500000000e+01 2.99676367270322e-03 4.79039861536330e-05
2.05312500000000e+01 2.91190655987271e-03 4.67615443577235e-05
2.07187500000000e+01 2.82945228236202e-03 4.56444444743524e-05
2.09062500000000e+01 2.74933280088274e-03 4.45522066514958e-05
2.10937500000000e+01 2.67148200276402e-03 4.34843561556971e-05
2.12812500000000e+01 2.59583564739802e-03 4.24404235496739e-05
2.14687500000000e+01 2.52233131323008e-03 4.14199448514751e-05
2.16562500000000e+01 2.45090834624997e-03 4.04224616763309e-05
2.18437500000000e+01 2.38150780994162e-03 3.94475213622820e-05
2.20312500000000e+01 2.31407243665019e-03 3.84946770806023e-05
2.22187500000000e+01 2.24854658032610e-03 3.75634879319815e-05
2.24062500000000e+01 2.18487617060731e-03 3.66535190293709e-05
2.25937500000000e+01 2.12300866820173e-03 3.57643415683493e-05
2.27812500000000e+01 2.06289302153305e-03 3.48955328858137e-05
2.29687500000000e+01 2.00447962461424e-03 3.40466765077585e-05
2.31562500000000e+01 1.94772027611382e-03 3.32173621868609e-05
2.33437500000000e+01 1.89256813958135e-03 3.24071859305460e-05
2.35312500000000e+01 1.83897770479908e-03 3.16157500201777e-05
2.37187500000000e+01 1.78690475022800e-03 3.08426630219727e-05
2.39062500000000e+01 1.73630630651732e-03 3.00875397902081e-05
2.40937500000000e+01 1.68714062104718e-03 2.93500014632586e-05
2.42812500000000e+01 1.63936712347539e-03 2.86296754529690e-05
2.44687500000000e+01 1.59294639225974e-03 2.79261954278398e-05
2.46562500000000e+01 1.54784012212833e-03 2.72392012904770e-05
2.48437500000000e+01 1.50401109247096e-03 2.65683391497280e-05
2.50312500000000e+01 1.46142313662557e-03 2.59132612879032e-05
2.52187500000000e+01 1.42004111203439e-03 2.52736261234645e-05
2.54062500000000e+01 1.37983087124515e-03 2.46490981695318e-05
2.55937500000000e+01 1.34075923373339e-03 2.40393479885452e-05
2.57812500000000e+01 1.30279395852274e-03 2.34440521433964e-05
2.59687500000000e+01 1.26590371758040e-03 2.28628931453264e-05
2.61562500000000e+01 1.23005806996602e-03 2.22955593988723e-05
2.63437500000000e+01 1.19522743671257e-03 2.17417451441243e-05
2.65312500000000e+01 1.16138307641847e-03 2.12011503965402e-05
2.67187500000000e+01 1.12849706153088e-03 2.06734808845530e-05
2.69062500000000e+01 1.09654225530059e-03 2.01584479851896e-05
2.70937500000000e+01 1.06549228938935e-03 1.96557686579066e-05
2.72812500000000e+01 1.03532154211144e-03 1.91651653768389e-05
2.74687500000000e+01 1.00600511729121e-03 1.86863660616409e-05
2.76562500000000e+01 9.77518823719367e-04 1.82191040070939e-05
2.78437500000000e+01 9.49839155190991e-04 1.77631178116387e-05
2.80312500000000e+01 9.22943271108756e-04 1.73181513049844e-05
2.82187500000000e+01 8.96808977635427e-04 1.68839534749343e-05
2.84062500000000e+01 8.71414709380040e-04 1.64602783935623e-05
2.85937500000000e+01 8.46739511602656e-04 1.60468851428629e-05
2.87812500000000e+01 8.22763022923018e-04 1.56435377399914e-05
2.89687500000000e+01 7.99465458518825e-04 1.52500050622020e-05
2.91562500000000e+01 7.76827593799771e-04 1.48660607715855e-05
2.93437500000000e+01 7.54830748543881e-04 1.44914832397022e-05
2.95312500000000e+01 7.33456771483037e-04 1.41260554721967e-05
2.97187500000000e+01 7.12688025324986e-04 1.37695650334782e-05
2.99062500000000e+01 6.92507372199474e-04 1.34218039715418e-05
3.00937500000000e+01 6.72898159516485e-04 1.30825687430029e-05
3.02812500000000e+01 6.53844206224923e-04 1.27516601384102e-05
3.04687500000000e+01 6.35329789460402e-04 1.24288832078994e-05
3.06562500000000e+01 6.17339631571109e-04 1.21140471872437e-05
3.08437500000000e+01 5.99858887511060e-04 1.18069654243534e-05
3.10312500000000e+01 5.82873132590321e-04 1.15074553062743e-05
3.12187500000000e+01 5.66368350572099e-04 1.12153381867286e-05
3.14062500000000e+01 5.50330922106886e-04 1.09304393142394e-05
3.15937500000000e+01 5.34747613494092e-04 1.06525877608770e-05
3.17812500000000e+01 5.19605565761919e-04 1.03816163516602e-05
3.19687500000000e+01 5.04892284056443e-04 1.01173615946467e-05
3.21562500000000e+01 4.90595627331162e-04 9.85966361173743e-06
3.23437500000000e+01 4.76703798328495e-04 9.60836607022436e-06
3.25312500000000e+01 4.63205333844973e-04 9.36331611510272e-06
3.27187500000000e+01 4.50089095272072e-04 9.12436430216971e-06
3.29062500000000e+01 4.37344259404907e-04 8.89136453192776e-06
3.30937500000000e+01 4.24960309511180e-04 8.66417398430981e-06
3.32812500000000e+01 4.12927026653026e-04 8.44265305424068e-06
3.34687500000000e+01 4.01234481254590e-04 8.22666528804746e-06
3.36562500000000e+01 3.89873024908385e-04 8.01607732072958e-06
3.38437500000000e+01 3.78833282413648e-04 7.81075881409870e-06
3.40312500000000e+01 3.68106144040161e-04 7.61058239579562e-06
3.42187500000000e+01 3.57682758011110e-04 7.41542359919042e-06
3.44062500000000e+01 3.47554523198821e-04 7.22516080417202e-06
3.45937500000000e+01 3.37713082027307e-04 7.03967517882944e-06
3.47812500000000e+01 3.28150313575806e-04 6.85885062202787e-06
3.49687500000000e+01 3.18858326877585e-04 6.68257370688146e-06
3.51562500000000e+01 3.09829454408508e-04 6.51073362512246e-06
3.53437500000000e+01 3.01056245759978e-04 6.34322213236706e-06
3.55312500000000e+01 2.92531461491040e-04 6.17993349427529e-06
3.57187500000000e+01 2.84248067154566e-04 6.02076443360342e-06
3.59062500000000e+01 2.76199227492601e-04 5.86561407814611e-06
3.60937500000000e+01 2.68378300796069e-04 5.71438390956313e-06
3.62812500000000e+01 2.60778833424199e-04 5.56697771308719e-06
3.64687500000000e+01 2.53394554479131e-04 5.42330152810828e-06
3.66562500000000e+01 2.46219370631325e-04 5.28326359962706e-06
3.68437500000000e+01 2.39247361091489e-04 5.14677433057239e-06
3.70312500000000e+01 2.32472772724889e-04 5.01374623497602e-06
3.72187500000000e+01 2.25890015304000e-04 4.88409389199688e-06
3.74062500000000e+01 2.19493656895581e-04 4.75773390078781e-06
3.75937500000000e+01 2.13278419378380e-04 4.63458483619622e-06
3.77812500000000e+01 2.07239174087749e-04 4.51456720529097e-06
3.79687500000000e+01 2.01370937583599e-04 4.39760340470631e-06
3.81562500000000e+01 1.95668867538181e-04 4.28361767879389e-06
3.83437500000000e+01 1.90128258740315e-04 4.17253607857439e-06
3.85312500000000e+01 1.84744539212761e-04 4.06428642147836e-06
3.87187500000000e+01 1.79513266439537e-04 3.95879825186722e-06
3.89062500000000e+01 1.74430123700058e-04 3.85600280232467e-06
3.90937500000000e+01 1.69490916507085e-04 3.75583295570826e-06
3.92812500000000e+01 1.64691569145531e-04 3.65822320795103e-06
3.94687500000000e+01 1.60028121309283e-04 3.56310963160327e-06
3.96562500000000e+01 1.55496724833248e-04 3.47042984010373e-06
3.98437500000000e+01 1.51093640517945e-04 3.38012295277013e-06
4.00312500000000e+01 1.46815235044003e-04 3.29212956049840e-06
4.02187500000000e+01 1.42657977974036e-04 3.20639169216011e-06
4.04062500000000e+01 1.38618438839408e-04 3.12285278168751e-06
4.05937500000000e+01 1.34693284309496e-04 3.04145763583576e-06
4.07812500000000e+01 1.30879275441105e-04 2.96215240261160e-06
4.09687500000000e+01 1.27173265005767e-04 2.88488454035769e-06
4.11562500000000e+01 1.23572194892725e-04 2.80960278748234e-06
4.13437500000000e+01 1.20073093585459e-04 2.73625713282423e-06
4.15312500000000e+01 1.16673073709651e-04 2.66479878664088e-06
4.17187500000000e+01 1.13369329650603e-04 2.59518015221123e-06
4.19062500000000e+01 1.10159135238108e-04 2.52735479804121e-06
4.20937500000000e+01 1.07039841496877e-04 2.46127743066221e-06
4.22812500000000e+01 1.04008874460672e-04 2.39690386801227e-06
4.24687500000000e+01 1.01063733048329e-04 2.33419101338947e-06
4.26562500000000e+01 9.82019869999261e-05 2.27309682996741e-06
4.28437500000000e+01 9.54212748713930e-05 2.21358031586273e-06
4.30312500000000e+01 9.27193020859017e-05 2.15560147974466e-06
4.32187500000000e+01 9.00938390404382e-05 2.09912131697668e-06
4.34062500000000e+01 8.75427192659876e-05 2.04410178628045e-06
4.35937500000000e+01 8.50638376398155e-05 1.99050578691226e-06
4.37812500000000e+01 8.26551486483719e-05 1.93829713634245e-06
4.39687500000000e+01 8.03146646993821e-05 1.88744054842819e-06
4.41562500000000e+01 7.80404544817333e-05 1.83790161207025e-06
4.43437500000000e+01 7.58306413718035e-05 1.78964677034459e-06
4.45312500000000e+01 7.36834018849164e-05 1.74264330009935e-06
4.47187500000000e+01 7.15969641706457e-05 1.69685929200832e-06
4.49062500000000e+01 6.95696065507270e-05 1.65226363107198e-06
4.50937500000000e+01 6.75996560983698e-05 1.60882597755721e-06
4.52812500000000e+01 6.56854872577989e-05 1.56651674836686e-06
4.54687500000000e+01 6.38255205028849e-05 1.52530709883091e-06
4.56562500000000e+01 6.20182210337566e-05 1.48516890491038e-06
4.58437500000000e+01 6.02620975103218e-05 1.44607474580582e-06
4.60312500000000e+01 5.85557008216487e-05 1.40799788696229e-06
4.62187500000000e+01 5.68976228901946e-05 1.37091226346255e-06
4.64062500000000e+01 5.52864955098945e-05 1.33479246380043e-06
4.65937500000000e+01 5.37209892171494e-05 1.29961371402684e-06
4.67812500000000e+01 5.21998121937860e-05 1.26535186226042e-06
4.69687500000000e+01 5.07217092010786e-05 1.23198336355529e-06
4.71562500000000e+01 4.92854605439565e-05 1.19948526511853e-06
4.73437500000000e+01 4.78898810645410e-05 1.16783519186998e-06
4.75312500000000e+01 4.65338191641817e-05 1.13701133233713e-06
4.77187500000000e+01 4.52161558531848e-05 1.10699242487794e-06
4.79062500000000e+01 4.39358038274494e-05 1.07775774422477e-06
4.80937500000000e+01 4.26917065712510e-05 1.04928708834238e-06
4.82812500000000e+01 4.14828374854295e-05 1.02156076559339e-06
4.84687500000000e+01 4.03081990402645e-05 9.94559582204537e-07
4.86562500000000e+01 3.91668219523378e-05 9.68264830027187e-07
4.88437500000000e+01 3.80577643847038e-05 9.42658274585812e-07
4.90312500000000e+01 3.69801111697085e-05 9.17722143408088e-07
4.92187500000000e+01 3.59329730538149e-05 8.93439114630501e-07
4.94062500000000e+01 3.49154859638126e-05 8.69792305873385e-07
4.95937500000000e+01 3.39268102938053e-05 8.46765263379506e-07
4.97812500000000e+01 3.29661302123881e-05 8.24341951410409e-07
4.99687500000000e+01 3.20326529894429e-05 8.02506741894741e-07
5.01562500000000e+01 3.11256083419970e-05 7.81244404323001e-07
5.03437500000000e+01 3.02442477986037e-05 7.60540095883281e-07
5.05312500000000e+01 2.93878440817216e-05 7.40379351832516e-07
5.07187500000000e+01 2.85556905075832e-05 7.20748076098072e-07
5.09062500000000e+01 2.77471004030558e-05 7.01632532104453e-07
5.10937500000000e+01 2.69614065390155e-05 6.83019333820042e-07
5.12812500000000e+01 2.61979605797662e-05 6.64895437018954e-07
5.14687500000000e+01 2.54561325480478e-05 6.47248130753111e-07
5.16562500000000e+01 2.47353103051949e-05 6.30065029029780e-07
5.18437500000000e+01 2.40348990460141e-05 6.13334062689884e-07
5.20312500000000e+01 2.33543208079651e-05 5.97043471482511e-07
5.22187500000000e+01 2.26930139942404e-05 5.81181796331182e-07
5.24062500000000e+01 2.20504329103485e-05 5.65737871787444e-07
5.25937500000000e+01 2.14260473138202e-05 5.50700818667462e-07
5.27812500000000e+01 2.08193419766654e-05 5.36060036867471e-07
5.29687500000000e+01 2.02298162602191e-05 5.21805198353920e-07
5.31562500000000e+01 1.96569837020263e-05 5.07926240324279e-07
5.33437500000000e+01 1.91003716144252e-05 4.94413358534525e-07
5.35312500000000e+01 1.85595206944967e-05 4.81257000789516e-07
5.37187500000000e+01 1.80339846450583e-05 4.68447860592430e-07
5.39062500000000e+01 1.75233298063906e-05 4.55976870949483e-07
5.40937500000000e+01 1.70271347983919e-05 4.43835198326433e-07
5.42812500000000e+01 1.65449901728653e-05 4.32014236753266e-07
5.44687500000000e+01 1.60764980756516e-05 4.20505602073540e-07
5.46562500000000e+01 1.56212719183302e-05 4.09301126335055e-07
5.48437500000000e+01 1.51789360592152e-05 3.98392852318532e-07
5.50312500000000e+01 1.47491254933850e-05 3.87773028201002e-07
5.52187500000000e+01 1.43314855514892e-05 3.77434102350743e-07
5.54062500000000e+01 1.39256716070834e-05 3.67368718250661e-07
5.55937500000000e+01 1.35313487922527e-05 3.57569709547096e-07
5.57812500000000e+01 1.31481917212857e-05 3.48030095221042e-07
5.59687500000000e+01 1.27758842221749e-05 3.38743074878868e-07
5.61562500000000e+01 1.24141190757185e-05 3.29702024159724e-07
5.63437500000000e+01 1.20625977620110e-05 3.20900490256864e-07
5.65312500000000e+01 1.17210302141114e-05 3.12332187550103e-07
5.67187500000000e+01 1.13891345786870e-05 3.03990993346813e-07
5.69062500000000e+01 1.10666369834349e-05 2.95870943728841e-07
5.70937500000000e+01 1.07532713110893e-05 2.87966229502804e-07
5.72812500000000e+01 1.04487789798275e-05 2.80271192251256e-07
5.74687500000000e+01 1.01529087298947e-05 2.72780320482342e-07
5.76562500000000e+01 9.86541641627046e-06 2.65488245875572e-07
5.78437500000000e+01 9.58606480720606e-06 2.58389739621339e-07
5.80312500000000e+01 9.31462338846654e-06 2.51479708851958e-07
5.82187500000000e+01 9.05086817311591e-06 2.44753193162044e-07
5.84062500000000e+01 8.79458151668852e-06 2.38205361215995e-07
5.85937500000000e+01 8.54555193759410e-06 2.31831507440509e-07
5.87812500000000e+01 8.30357394260817e-06 2.25627048800087e-07
5.89687500000000e+01 8.06844785730403e-06 2.19587521653454e-07
5.91562500000000e+01 7.83997966128619e-06 2.13708578688987e-07
