Energy (eV)          EEDF (eV^-(3/2))     First Anisotropy
1.86041666666667e-04 2.69493673450446e+02 0.00000000000000e+00
5.58125000000000e-04 2.65642610446960e+02 0.00000000000000e+00
9.30208333333333e-04 2.61846579111104e+02 0.00000000000000e+00
1.30229166666667e-03 2.58104793040646e+02 0.00000000000000e+00
1.67437500000000e-03 2.54416477071060e+02 0.00000000000000e+00
2.04645833333333e-03 2.50780867114918e+02 0.00000000000000e+00
2.41854166666667e-03 2.47197210003599e+02 0.00000000000000e+00
2.79062500000000e-03 2.43664763331254e+02 0.00000000000000e+00
3.16270833333333e-03 2.40182795301015e+02 0.00000000000000e+00
3.53479166666667e-03 2.36750584573383e+02 0.00000000000000e+00
3.90687500000000e-03 2.33367420116796e+02 0.00000000000000e+00
4.27895833333333e-03 2.30032601060332e+02 0.00000000000000e+00
4.65104166666667e-03 2.26745436548508e+02 0.00000000000000e+00
5.02312500000000e-03 2.23505245598161e+02 0.00000000000000e+00
5.39520833333333e-03 2.20311356957376e+02 0.00000000000000e+00
5.76729166666667e-03 2.17163108966422e+02 0.00000000000000e+00
6.13937500000000e-03 2.14059849420682e+02 0.00000000000000e+00
6.51145833333333e-03 2.11000935435540e+02 0.00000000000000e+00
6.88354166666667e-03 2.07985733313196e+02 0.00000000000000e+00
7.25562500000000e-03 2.05013618411389e+02 0.00000000000000e+00
7.62770833333333e-03 2.02083975013991e+02 0.00000000000000e+00
7.99979166666667e-03 1.99196196203456e+02 0.00000000000000e+00
8.37187500000000e-03 1.96349683735084e+02 0.00000000000000e+00
8.74395833333333e-03 1.93543847913089e+02 0.00000000000000e+00
9.11604166666667e-03 1.90778107468434e+02 0.00000000000000e+00
9.48812500000000e-03 1.88051889438413e+02 0.00000000000000e+00
9.86020833333333e-03 1.85364629047956e+02 0.00000000000000e+00
1.02322916666667e-02 1.82715769592621e+02 0.00000000000000e+00
1.06043750000000e-02 1.80104762323274e+02 0.00000000000000e+00
1.09764583333333e-02 1.77531066332399e+02 0.00000000000000e+00
1.13485416666667e-02 1.74994148442047e+02 0.00000000000000e+00
1.17206250000000e-02 1.72493483093379e+02 0.00000000000000e+00
1.20927083333333e-02 1.70028552237788e+02 0.00000000000000e+00
1.24647916666667e-02 1.67598845229579e+02 0.00000000000000e+00
1.28368750000000e-02 1.65203858720181e+02 0.00000000000000e+00
1.32089583333333e-02 1.62843096553870e+02 0.00000000000000e+00
1.35810416666667e-02 1.60516069664986e+02 0.00000000000000e+00
1.39531250000000e-02 1.58222295976613e+02 0.00000000000000e+00
1.43252083333333e-02 1.55961300300713e+02 0.00000000000000e+00
1.46972916666667e-02 1.53732614239679e+02 0.00000000000000e+00
1.50693750000000e-02 1.51535776089308e+02 0.00000000000000e+00
1.54414583333333e-02 1.49370330743142e+02 0.00000000000000e+00
1.58135416666667e-02 1.47235829598196e+02 0.00000000000000e+00
1.61856250000000e-02 1.45131830462017e+02 0.00000000000000e+00
1.65577083333333e-02 1.43057897461078e+02 0.00000000000000e+00
1.69297916666667e-02 1.41013600950486e+02 0.00000000000000e+00
1.73018750000000e-02 1.38998517424967e+02 0.00000000000000e+00
1.76739583333333e-02 1.37012229431138e+02 0.00000000000000e+00
1.80460416666667e-02 1.35054325481020e+02 0.00000000000000e+00
1.84181250000000e-02 1.33124399966797e+02 0.00000000000000e+00
1.87902083333333e-02 1.31222053076784e+02 0.00000000000000e+00
1.91622916666667e-02 1.29346890712604e+02 0.00000000000000e+00
1.95343750000000e-02 1.27498524407545e+02 0.00000000000000e+00
1.99064583333333e-02 1.25676571246078e+02 0.00000000000000e+00
2.02785416666667e-02 1.23880653784537e+02 0.00000000000000e+00
2.06506250000000e-02 1.22110399972926e+02 0.00000000000000e+00
2.10227083333333e-02 1.20365443077836e+02 0.00000000000000e+00
2.13947916666667e-02 1.18645421606481e+02 0.00000000000000e+00
2.17668750000000e-02 1.16949979231803e+02 0.00000000000000e+00
2.21389583333333e-02 1.15278764718655e+02 0.00000000000000e+00
2.25110416666667e-02 1.13631431851038e+02 0.00000000000000e+00
2.28831250000000e-02 1.12007639360379e+02 0.00000000000000e+00
2.32552083333333e-02 1.10407050854831e+02 0.00000000000000e+00
2.36272916666667e-02 1.08829334749583e+02 0.00000000000000e+00
2.39993750000000e-02 1.07274164198169e+02 0.00000000000000e+00
2.43714583333333e-02 1.05741217024758e+02 0.00000000000000e+00
2.47435416666667e-02 1.04230175657410e+02 0.00000000000000e+00
2.51156250000000e-02 1.02740727062286e+02 0.00000000000000e+00
2.54877083333333e-02 1.01272562678797e+02 0.00000000000000e+00
2.58597916666667e-02 9.98253783556850e+01 0.00000000000000e+00
2.62318750000000e-02 9.83988742880112e+01 0.00000000000000e+00
2.66039583333333e-02 9.69927549550473e+01 0.00000000000000e+00
2.69760416666667e-02 9.56067290590545e+01 0.00000000000000e+00
2.73481250000000e-02 9.42405094649370e+01 0.00000000000000e+00
2.77202083333333e-02 9.28938131407580e+01 0.00000000000000e+00
2.80922916666667e-02 9.15663610991051e+01 0.00000000000000e+00
2.84643750000000e-02 9.02578783392948e+01 0.00000000000000e+00
2.88364583333333e-02 8.89680937904012e+01 0.00000000000000e+00
2.92085416666667e-02 8.76967402551009e+01 0.00000000000000e+00
2.95806250000000e-02 8.64435543543183e+01 0.00000000000000e+00
2.99527083333333e-02 8.52082764726634e+01 0.00000000000000e+00
3.03247916666667e-02 8.39906507046484e+01 0.00000000000000e+00
3.06968750000000e-02 8.27904248016736e+01 0.00000000000000e+00
3.10689583333333e-02 8.16073501197703e+01 0.00000000000000e+00
3.14410416666667e-02 8.04411815680906e+01 0.00000000000000e+00
3.18131250000000e-02 7.92916775581333e+01 0.00000000000000e+00
3.21852083333333e-02 7.81585999536956e+01 0.00000000000000e+00
3.25572916666667e-02 7.70417140215394e+01 0.00000000000000e+00
3.29293750000000e-02 7.59407883827635e+01 0.00000000000000e+00
3.33014583333333e-02 7.48555949648696e+01 0.00000000000000e+00
3.36735416666667e-02 7.37859089545140e+01 0.00000000000000e+00
3.40456250000000e-02 7.27315087509347e+01 0.00000000000000e+00
3.44177083333333e-02 7.16921759200429e+01 0.00000000000000e+00
3.47897916666667e-02 7.06676951491719e+01 0.00000000000000e+00
3.51618750000000e-02 6.96578542024716e+01 0.00000000000000e+00
3.55339583333333e-02 6.86624438769409e+01 0.00000000000000e+00
3.59060416666667e-02 6.76812579590886e+01 0.00000000000000e+00
3.62781250000000e-02 6.67140931822128e+01 0.00000000000000e+00
3.66502083333333e-02 6.57607491842917e+01 0.00000000000000e+00
3.70222916666667e-02 6.48210284664756e+01 0.00000000000000e+00
3.73943750000000e-02 6.38947363521721e+01 0.00000000000000e+00
3.77664583333333e-02 6.29816809467164e+01 0.00000000000000e+00
3.81385416666667e-02 6.20816730976171e+01 0.00000000000000e+00
3.85106250000000e-02 6.11945263553708e+01 0.00000000000000e+00
3.88827083333333e-02 6.03200569348365e+01 0.00000000000000e+00
3.92547916666667e-02 5.94580836771618e+01 0.00000000000000e+00
3.96268750000000e-02 5.86084280122531e+01 0.00000000000000e+00
3.99989583333333e-02 5.77709139217825e+01 0.00000000000000e+00
4.03710416666667e-02 5.69453679027228e+01 0.00000000000000e+00
4.07431250000000e-02 5.61316189314043e+01 0.00000000000000e+00
4.11152083333333e-02 5.53294984280844e+01 0.00000000000000e+00
4.14872916666667e-02 5.45388402220239e+01 0.00000000000000e+00
4.18593750000000e-02 5.37594805170626e+01 0.00000000000000e+00
4.22314583333333e-02 5.29912578576866e+01 0.00000000000000e+00
4.26035416666667e-02 5.22340130955801e+01 0.00000000000000e+00
4.29756250000000e-02 5.14875893566559e+01 0.00000000000000e+00
4.33477083333333e-02 5.07518320085566e+01 0.00000000000000e+00
4.37197916666667e-02 5.00265886286202e+01 0.00000000000000e+00
4.40918750000000e-02 4.93117089723037e+01 0.00000000000000e+00
4.44639583333333e-02 4.86070449420578e+01 0.00000000000000e+00
4.48360416666667e-02 4.79124505566462e+01 0.00000000000000e+00
4.52081250000000e-02 4.72277819209036e+01 0.00000000000000e+00
4.55802083333333e-02 4.65528971959258e+01 0.00000000000000e+00
4.59522916666667e-02 4.58876565696857e+01 0.00000000000000e+00
4.63243750000000e-02 4.52319222280692e+01 0.00000000000000e+00
4.66964583333333e-02 4.45855583263253e+01 0.00000000000000e+00
4.70685416666667e-02 4.39484309609233e+01 0.00000000000000e+00
4.74406250000000e-02 4.33204081418135e+01 0.00000000000000e+00
4.78127083333333e-02 4.27013597650831e+01 0.00000000000000e+00
4.81847916666667e-02 4.20911575860034e+01 0.00000000000000e+00
4.85568750000000e-02 4.14896751924623e+01 0.00000000000000e+00
4.89289583333333e-02 4.08967879787757e+01 0.00000000000000e+00
4.93010416666667e-02 4.03123731198743e+01 0.00000000000000e+00
4.96731250000000e-02 3.97363095458582e+01 0.00000000000000e+00
5.00452083333333e-02 3.91684779169157e+01 0.00000000000000e+00
5.04172916666667e-02 3.86087605986003e+01 0.00000000000000e+00
5.07893750000000e-02 3.80570416374609e+01 0.00000000000000e+00
5.11614583333333e-02 3.75132067370207e+01 0.00000000000000e+00
5.15335416666667e-02 3.69771432340988e+01 0.00000000000000e+00
5.19056250000000e-02 3.64487400754707e+01 0.00000000000000e+00
5.22777083333333e-02 3.59278877948614e+01 0.00000000000000e+00
5.26497916666667e-02 3.54144784902687e+01 0.00000000000000e+00
5.30218750000000e-02 3.49084058016091e+01 0.00000000000000e+00
5.33939583333333e-02 3.44095648886844e+01 0.00000000000000e+00
5.37660416666667e-02 3.39178524094620e+01 0.00000000000000e+00
5.41381250000000e-02 3.34331664986662e+01 0.00000000000000e+00
5.45102083333333e-02 3.29554067466758e+01 0.00000000000000e+00
5.48822916666667e-02 3.24844741787222e+01 0.00000000000000e+00
5.52543750000000e-02 3.20202712343860e+01 0.00000000000000e+00
5.56264583333333e-02 3.15627017473852e+01 0.00000000000000e+00
5.59985416666667e-02 3.11116709256537e+01 0.00000000000000e+00
5.63706250000000e-02 3.06670853317034e+01 0.00000000000000e+00
5.67427083333333e-02 3.02288528632674e+01 0.00000000000000e+00
5.71147916666667e-02 2.97968827342194e+01 0.00000000000000e+00
5.74868750000000e-02 2.93710854557667e+01 0.00000000000000e+00
5.78589583333333e-02 2.89513728179106e+01 0.00000000000000e+00
5.82310416666667e-02 2.85376578711730e+01 0.00000000000000e+00
5.86031250000000e-02 2.81298549085830e+01 0.00000000000000e+00
5.89752083333333e-02 2.77278794479221e+01 0.00000000000000e+00
5.93472916666667e-02 2.73316482142222e+01 0.00000000000000e+00
5.97193750000000e-02 2.69410791225139e+01 0.00000000000000e+00
6.00914583333333e-02 2.65560912608215e+01 0.00000000000000e+00
6.04635416666667e-02 2.61766048734011e+01 0.00000000000000e+00
6.08356250000000e-02 2.58025413442177e+01 0.00000000000000e+00
6.12077083333333e-02 2.54338231806591e+01 0.00000000000000e+00
6.15797916666667e-02 2.50703739974821e+01 0.00000000000000e+00
6.19518750000000e-02 2.47121185009881e+01 0.00000000000000e+00
6.23239583333333e-02 2.43589824734251e+01 0.00000000000000e+00
6.26960416666667e-02 2.40108927576123e+01 0.00000000000000e+00
6.30681250000000e-02 2.36677772417845e+01 0.00000000000000e+00
6.34402083333333e-02 2.33295648446533e+01 0.00000000000000e+00
6.38122916666667e-02 2.29961855006815e+01 0.00000000000000e+00
6.41843750000000e-02 2.26675701455678e+01 0.00000000000000e+00
6.45564583333333e-02 2.23436507019398e+01 0.00000000000000e+00
6.49285416666667e-02 2.20243600652498e+01 0.00000000000000e+00
6.53006250000000e-02 2.17096320898741e+01 0.00000000000000e+00
6.56727083333333e-02 2.13994015754095e+01 0.00000000000000e+00
6.60447916666667e-02 2.10936042531661e+01 0.00000000000000e+00
6.64168750000000e-02 2.07921767728531e+01 0.00000000000000e+00
6.67889583333333e-02 2.04950566894552e+01 0.00000000000000e+00
6.71610416666667e-02 2.02021824502958e+01 0.00000000000000e+00
6.75331250000000e-02 1.99134933822860e+01 0.00000000000000e+00
6.79052083333333e-02 1.96289296793545e+01 0.00000000000000e+00
6.82772916666667e-02 1.93484323900589e+01 0.00000000000000e+00
6.86493750000000e-02 1.90719434053721e+01 0.00000000000000e+00
6.90214583333333e-02 1.87994054466451e+01 0.00000000000000e+00
6.93935416666667e-02 1.85307620537402e+01 0.00000000000000e+00
6.97656250000000e-02 1.82659575733348e+01 0.00000000000000e+00
7.01377083333333e-02 1.80049371473918e+01 0.00000000000000e+00
7.05097916666667e-02 1.77476467017954e+01 0.00000000000000e+00
7.08818750000000e-02 1.74940329351483e+01 0.00000000000000e+00
7.12539583333333e-02 1.72440433077302e+01 0.00000000000000e+00
7.16260416666667e-02 1.69976260306129e+01 0.00000000000000e+00
7.19981250000000e-02 1.67547300549315e+01 0.00000000000000e+00
7.23702083333333e-02 1.65153050613094e+01 0.00000000000000e+00
7.27422916666667e-02 1.62793014494334e+01 0.00000000000000e+00
7.31143750000000e-02 1.60466703277785e+01 0.00000000000000e+00
7.34864583333333e-02 1.58173635034794e+01 0.00000000000000e+00
7.38585416666667e-02 1.55913334723465e+01 0.00000000000000e+00
7.42306250000000e-02 1.53685334090248e+01 0.00000000000000e+00
7.46027083333333e-02 1.51489171572933e+01 0.00000000000000e+00
7.49747916666667e-02 1.49324392205032e+01 0.00000000000000e+00
7.53468750000000e-02 1.47190547521525e+01 0.00000000000000e+00
7.57189583333333e-02 1.45087195465954e+01 0.00000000000000e+00
7.60910416666667e-02 1.43013900298846e+01 0.00000000000000e+00
7.64631250000000e-02 1.40970232507442e+01 0.00000000000000e+00
7.68352083333333e-02 1.38955768716719e+01 0.00000000000000e+00
7.72072916666667e-02 1.36970091601678e+01 0.00000000000000e+00
7.75793750000000e-02 1.35012789800895e+01 0.00000000000000e+00
7.79514583333333e-02 1.33083457831296e+01 0.00000000000000e+00
7.83235416666667e-02 1.31181696004158e+01 0.00000000000000e+00
7.86956250000000e-02 1.29307110342308e+01 0.00000000000000e+00
7.90677083333333e-02 1.27459312498505e+01 0.00000000000000e+00
7.94397916666667e-02 1.25637919674987e+01 0.00000000000000e+00
7.98118750000000e-02 1.23842554544170e+01 0.00000000000000e+00
8.01839583333333e-02 1.22072845170478e+01 0.00000000000000e+00
8.05560416666667e-02 1.20328424933294e+01 0.00000000000000e+00
8.09281250000000e-02 1.18608932451007e+01 0.00000000000000e+00
8.13002083333333e-02 1.16914011506145e+01 0.00000000000000e+00
8.16722916666667e-02 1.15243310971584e+01 0.00000000000000e+00
8.20443750000000e-02 1.13596484737804e+01 0.00000000000000e+00
8.24164583333333e-02 1.11973191641188e+01 0.00000000000000e+00
8.27885416666667e-02 1.10373095393344e+01 0.00000000000000e+00
8.31606250000000e-02 1.08795864511439e+01 0.00000000000000e+00
8.35327083333333e-02 1.07241172249531e+01 0.00000000000000e+00
8.39047916666667e-02 1.05708696530872e+01 0.00000000000000e+00
8.42768750000000e-02 1.04198119881190e+01 0.00000000000000e+00
8.46489583333333e-02 1.02709129362918e+01 0.00000000000000e+00
8.50210416666667e-02 1.01241416510367e+01 0.00000000000000e+00
8.53931250000000e-02 9.97946772658186e+00 0.00000000000000e+00
8.57652083333333e-02 9.83686119165379e+00 0.00000000000000e+00
8.61372916666667e-02 9.69629250326838e+00 0.00000000000000e+00
8.65093750000000e-02 9.55773254061056e+00 0.00000000000000e+00
8.68814583333333e-02 9.42115259900153e+00 0.00000000000000e+00
8.72535416666667e-02 9.28652438395219e+00 0.00000000000000e+00
8.76256250000000e-02 9.15382000530153e+00 0.00000000000000e+00
8.79977083333333e-02 9.02301197143875e+00 0.00000000000000e+00
8.83697916666667e-02 8.89407318360802e+00 0.00000000000000e+00
8.87418750000000e-02 8.76697693029458e+00 0.00000000000000e+00
8.91139583333333e-02 8.64169688169104e+00 0.00000000000000e+00
8.94860416666667e-02 8.51820708424281e+00 0.00000000000000e+00
8.98581250000000e-02 8.39648195527146e+00 0.00000000000000e+00
9.02302083333333e-02 8.27649627767486e+00 0.00000000000000e+00
9.06022916666667e-02 8.15822519470313e+00 0.00000000000000e+00
9.09743750000000e-02 8.04164420480919e+00 0.00000000000000e+00
9.13464583333333e-02 7.92672915657294e+00 0.00000000000000e+00
9.17185416666667e-02 7.81345624369792e+00 0.00000000000000e+00
9.20906250000000e-02 7.70180200007951e+00 0.00000000000000e+00
9.24627083333333e-02 7.59174329494357e+00 0.00000000000000e+00
9.28347916666667e-02 7.48325732805462e+00 0.00000000000000e+00
9.32068750000000e-02 7.37632162499238e+00 0.00000000000000e+00
9.35789583333333e-02 7.27091403249591e+00 0.00000000000000e+00
9.39510416666667e-02 7.16701271387425e+00 0.00000000000000e+00
9.43231250000000e-02 7.06459614448262e+00 0.00000000000000e+00
9.46952083333333e-02 6.96364310726327e+00 0.00000000000000e+00
9.50672916666667e-02 6.86413268835010e+00 0.00000000000000e+00
9.54393750000000e-02 6.76604427273603e+00 0.00000000000000e+00
9.58114583333333e-02 6.66935754000231e+00 0.00000000000000e+00
9.61835416666667e-02 6.57405246010885e+00 0.00000000000000e+00
9.65556250000000e-02 6.48010928924470e+00 0.00000000000000e+00
9.69277083333333e-02 6.38750856573788e+00 0.00000000000000e+00
9.72997916666667e-02 6.29623110602358e+00 0.00000000000000e+00
9.76718750000000e-02 6.20625800067001e+00 0.00000000000000e+00
9.80439583333333e-02 6.11757061046103e+00 0.00000000000000e+00
9.84160416666667e-02 6.03015056253484e+00 0.00000000000000e+00
9.87881250000000e-02 5.94397974657768e+00 0.00000000000000e+00
9.91602083333333e-02 5.85904031107209e+00 0.00000000000000e+00
9.95322916666667e-02 5.77531465959868e+00 0.00000000000000e+00
9.99043750000000e-02 5.69278544719080e+00 0.00000000000000e+00
1.00276458333333e-01 5.61143557674125e+00 0.00000000000000e+00
1.00648541666667e-01 5.53124819546042e+00 0.00000000000000e+00
1.01020625000000e-01 5.45220669138493e+00 0.00000000000000e+00
1.01392708333333e-01 5.37429468993629e+00 0.00000000000000e+00
1.01764791666667e-01 5.29749605052863e+00 0.00000000000000e+00
1.02136875000000e-01 5.22179486322494e+00 0.00000000000000e+00
1.02508958333333e-01 5.14717544544115e+00 0.00000000000000e+00
1.02881041666667e-01 5.07362233869718e+00 0.00000000000000e+00
1.03253125000000e-01 5.00112030541458e+00 0.00000000000000e+00
1.03625208333333e-01 4.92965432575978e+00 0.00000000000000e+00
1.03997291666667e-01 4.85920959453255e+00 0.00000000000000e+00
1.04369375000000e-01 4.78977151809890e+00 0.00000000000000e+00
1.04741458333333e-01 4.72132571136776e+00 0.00000000000000e+00
1.05113541666667e-01 4.65385799481093e+00 0.00000000000000e+00
1.05485625000000e-01 4.58735439152561e+00 0.00000000000000e+00
1.05857708333333e-01 4.52180112433882e+00 0.00000000000000e+00
1.06229791666667e-01 4.45718461295332e+00 0.00000000000000e+00
1.06601875000000e-01 4.39349147113425e+00 0.00000000000000e+00
1.06973958333333e-01 4.33070850393595e+00 0.00000000000000e+00
1.07346041666667e-01 4.26882270496845e+00 0.00000000000000e+00
1.07718125000000e-01 4.20782125370304e+00 0.00000000000000e+00
1.08090208333333e-01 4.14769151281627e+00 0.00000000000000e+00
1.08462291666667e-01 4.08842102557197e+00 0.00000000000000e+00
1.08834375000000e-01 4.02999751324065e+00 0.00000000000000e+00
1.09206458333333e-01 3.97240887255582e+00 0.00000000000000e+00
1.09578541666667e-01 3.91564317320657e+00 0.00000000000000e+00
1.09950625000000e-01 3.85968865536607e+00 0.00000000000000e+00
1.10322708333333e-01 3.80453372725534e+00 0.00000000000000e+00
1.10694791666667e-01 3.75016696274187e+00 0.00000000000000e+00
1.11066875000000e-01 3.69657709897250e+00 0.00000000000000e+00
1.11438958333333e-01 3.64375303404018e+00 0.00000000000000e+00
1.11811041666667e-01 3.59168382468405e+00 0.00000000000000e+00
1.12183125000000e-01 3.54035868402238e+00 0.00000000000000e+00
1.12555208333333e-01 3.48976697931792e+00 0.00000000000000e+00
1.12927291666667e-01 3.43989822977516e+00 0.00000000000000e+00
1.13299375000000e-01 3.39074210436912e+00 0.00000000000000e+00
1.13671458333333e-01 3.34228841970507e+00 0.00000000000000e+00
1.14043541666667e-01 3.29452713790897e+00 0.00000000000000e+00
1.14415625000000e-01 3.24744836454791e+00 0.00000000000000e+00
1.14787708333333e-01 3.20104234658039e+00 0.00000000000000e+00
1.15159791666667e-01 3.15529947033581e+00 0.00000000000000e+00
1.15531875000000e-01 3.11021025952284e+00 0.00000000000000e+00
1.15903958333333e-01 3.06576537326635e+00 0.00000000000000e+00
1.16276041666667e-01 3.02195560417220e+00 0.00000000000000e+00
1.16648125000000e-01 2.97877187641991e+00 0.00000000000000e+00
1.17020208333333e-01 2.93620524388239e+00 0.00000000000000e+00
1.17392291666667e-01 2.89424688827267e+00 0.00000000000000e+00
