Energy (eV)          EEDF (eV^-(3/2))     First Anisotropy
2.00000000000000e-02 4.87674867078261e-01 4.65938531638353e-04
6.00000000000000e-02 4.76564768150016e-01 7.63198559563638e-04
1.00000000000000e-01 4.65707776992064e-01 9.91220329546180e-04
1.40000000000000e-01 4.55098127360155e-01 1.15484692196391e-03
1.80000000000000e-01 4.44730184375369e-01 1.28358602715499e-03
2.20000000000000e-01 4.34598441531332e-01 1.38887703500336e-03
2.60000000000000e-01 4.24697517769664e-01 1.47678043475506e-03
3.00000000000000e-01 4.15022154622041e-01 1.55103872810167e-03
3.40000000000000e-01 4.05567213417382e-01 1.61418762510223e-03
3.80000000000000e-01 3.96327672552653e-01 1.66805622745293e-03
4.20000000000000e-01 3.87298624825847e-01 1.71402500635106e-03
4.60000000000000e-01 3.78475274829730e-01 1.75317211489005e-03
5.00000000000000e-01 3.69852936404953e-01 1.78636243029706e-03
5.40000000000000e-01 3.61427030151194e-01 1.81430478621551e-03
5.80000000000000e-01 3.53193080994998e-01 1.83759040324088e-03
6.20000000000000e-01 3.45146715813023e-01 1.85671963674790e-03
6.60000000000000e-01 3.37283661109440e-01 1.87212116049006e-03
7.00000000000000e-01 3.29599740746237e-01 1.88416608046087e-03
7.40000000000000e-01 3.22090873725238e-01 1.89317854938516e-03
7.80000000000000e-01 3.14753072020648e-01 1.89944390361651e-03
8.20000000000000e-01 3.07582438460977e-01 1.90321500652933e-03
8.60000000000000e-01 3.00575164659217e-01 1.90471726799067e-03
9.00000000000000e-01 2.93727528990175e-01 1.90415266943644e-03
9.40000000000000e-01 2.87035894613886e-01 1.90170303036848e-03
9.80000000000000e-01 2.80496707544050e-01 1.89753268801848e-03
1.02000000000000e+00 2.74106494760485e-01 1.89179071725798e-03
1.06000000000000e+00 2.67861862364572e-01 1.88461278614072e-03
1.10000000000000e+00 2.61759493776725e-01 1.87612271961735e-03
1.14000000000000e+00 2.55796147974925e-01 1.86643382725116e-03
1.18000000000000e+00 2.49968657773390e-01 1.85565003837525e-03
1.22000000000000e+00 2.44273928140447e-01 1.84386687883786e-03
1.26000000000000e+00 2.38708934554740e-01 1.83117231642808e-03
1.30000000000000e+00 2.33270721398875e-01 1.81764749666580e-03
1.34000000000000e+00 2.27956400389670e-01 1.80336738645129e-03
1.38000000000000e+00 2.22763149044156e-01 1.78840133979765e-03
1.42000000000000e+00 2.17688209180537e-01 1.77281359729103e-03
1.46000000000000e+00 2.12728885453295e-01 1.75666372887599e-03
1.50000000000000e+00 2.07882543921662e-01 1.74000702792497e-03
1.54000000000000e+00 2.03146610650718e-01 1.72289486323150e-03
1.58000000000000e+00 1.98518570344348e-01 1.70537499449587e-03
1.62000000000000e+00 1.93995965009345e-01 1.68749185599928e-03
1.66000000000000e+00 1.89576392649952e-01 1.66928681244542e-03
1.70000000000000e+00 1.85257505992134e-01 1.65079839035720e-03
1.74000000000000e+00 1.81037011236929e-01 1.63206248792527e-03
1.78000000000000e+00 1.76912666842181e-01 1.61311256579630e-03
1.82000000000000e+00 1.72882282332046e-01 1.59397982094587e-03
1.86000000000000e+00 1.68943717133606e-01 1.57469334549269e-03
1.90000000000000e+00 1.65094879439993e-01 1.55528027206684e-03
1.94000000000000e+00 1.61333725099410e-01 1.53576590713818e-03
1.98000000000000e+00 1.57658256529468e-01 1.51617385353476e-03
2.02000000000000e+00 1.54066521656249e-01 1.49652612323036e-03
2.06000000000000e+00 1.50556612877543e-01 1.47684324135080e-03
2.10000000000000e+00 1.47126666049704e-01 1.45714434223779e-03
2.14000000000000e+00 1.43774859497585e-01 1.43744725831249e-03
2.18000000000000e+00 1.40499413047033e-01 1.41776860239745e-03
2.22000000000000e+00 1.37298587079422e-01 1.39812384408349e-03
2.26000000000000e+00 1.34170681607724e-01 1.37852738066457e-03
2.30000000000000e+00 1.31114035373634e-01 1.35899260310852e-03
2.34000000000000e+00 1.28127024965258e-01 1.33953195748297e-03
2.38000000000000e+00 1.25208063954906e-01 1.32015700221336e-03
2.42000000000000e+00 1.22355602056528e-01 1.30087846151196e-03
2.46000000000000e+00 1.19568124302339e-01 1.28170627528424e-03
2.50000000000000e+00 1.16844150238210e-01 1.26264964578911e-03
2.54000000000000e+00 1.14182233137384e-01 1.24371708130350e-03
2.58000000000000e+00 1.11580959232107e-01 1.22491643701868e-03
2.62000000000000e+00 1.09038946962763e-01 1.20625495337507e-03
2.66000000000000e+00 1.06554846244118e-01 1.18773929202365e-03
2.70000000000000e+00 1.04127337748273e-01 1.16937556958553e-03
2.74000000000000e+00 1.01755132203960e-01 1.15116938936678e-03
2.78000000000000e+00 9.94369697117994e-02 1.13312587117165e-03
2.82000000000000e+00 9.71716190751562e-02 1.11524967934594e-03
2.86000000000000e+00 9.49578771462383e-02 1.09754504917104e-03
2.90000000000000e+00 9.27945681870958e-02 1.08001581171969e-03
2.94000000000000e+00 9.06805432451761e-02 1.06266541727520e-03
2.98000000000000e+00 8.86146795431045e-02 1.04549695740856e-03
3.02000000000000e+00 8.65958798823674e-02 1.02851318580000e-03
3.06000000000000e+00 8.46230720605808e-02 1.01171653788510e-03
3.10000000000000e+00 8.26952083020337e-02 9.95109149399775e-04
3.14000000000000e+00 8.08112647012049e-02 9.78692873892461e-04
3.18000000000000e+00 7.89702406789585e-02 9.62469299267519e-04
3.22000000000000e+00 7.71711584511269e-02 9.46439763418668e-04
3.26000000000000e+00 7.54130625092008e-02 9.30605369007252e-04
3.30000000000000e+00 7.36950191128507e-02 9.14966997436509e-04
3.34000000000000e+00 7.20161157940089e-02 8.99525322069244e-04
3.38000000000000e+00 7.03754608722493e-02 8.84280820733124e-04
3.42000000000000e+00 6.87721829812088e-02 8.69233787554883e-04
3.46000000000000e+00 6.72054306057960e-02 8.54384344161895e-04
3.50000000000000e+00 6.56743716299446e-02 8.39732450287109e-04
3.54000000000000e+00 6.41781928946691e-02 8.25277913810979e-04
3.58000000000000e+00 6.27160997661887e-02 8.11020400271845e-04
3.62000000000000e+00 6.12873157138902e-02 7.96959441874231e-04
3.66000000000000e+00 5.98910818979060e-02 7.83094446022640e-04
3.70000000000000e+00 5.85266567660874e-02 7.69424703406819e-04
3.74000000000000e+00 5.71933156601595e-02 7.55949395662711e-04
3.78000000000000e+00 5.58903504308491e-02 7.42667602632007e-04
3.82000000000000e+00 5.46170690617799e-02 7.29578309241686e-04
3.86000000000000e+00 5.33727953019370e-02 7.16680412023675e-04
3.90000000000000e+00 5.21568683065036e-02 7.03972725293744e-04
3.94000000000000e+00 5.09686422858807e-02 6.91453987007382e-04
3.98000000000000e+00 4.98074861627023e-02 6.79122864309529e-04
4.02000000000000e+00 4.86727832366649e-02 6.66977958794047e-04
4.06000000000000e+00 4.75639308569922e-02 6.55017811487877e-04
4.10000000000000e+00 4.64803401023621e-02 6.43240907574002e-04
4.14000000000000e+00 4.54214354681255e-02 6.31645680866582e-04
4.18000000000000e+00 4.43866545606502e-02 6.20230518050787e-04
4.22000000000000e+00 4.33754477986294e-02 6.08993762699283e-04
4.26000000000000e+00 4.23872781211936e-02 5.97933719076616e-04
4.30000000000000e+00 4.14216207026728e-02 5.87048655742112e-04
4.34000000000000e+00 4.04779626738576e-02 5.76336808961410e-04
4.38000000000000e+00 3.95558028496091e-02 5.65796385936113e-04
4.42000000000000e+00 3.86546514626752e-02 5.55425567860558e-04
4.46000000000000e+00 3.77740299035711e-02 5.45222512814350e-04
4.50000000000000e+00 3.69134704663854e-02 5.35185358498722e-04
4.54000000000000e+00 3.60725161003775e-02 5.25312224824387e-04
4.58000000000000e+00 3.52507201672335e-02 5.15601216358198e-04
4.62000000000000e+00 3.44476462038533e-02 5.06050424635525e-04
4.66000000000000e+00 3.36628676905405e-02 4.96657930344916e-04
4.70000000000000e+00 3.28959678244744e-02 4.87421805391246e-04
4.74000000000000e+00 3.21465392983422e-02 4.78340114843328e-04
4.78000000000000e+00 3.14141840840146e-02 4.69410918771580e-04
4.82000000000000e+00 3.06985132211493e-02 4.60632273981080e-04
4.86000000000000e+00 2.99991466106111e-02 4.52002235645085e-04
4.90000000000000e+00 2.93157128125975e-02 4.43518858843863e-04
4.94000000000000e+00 2.86478488493639e-02 4.35180200013429e-04
4.98000000000000e+00 2.79952000124428e-02 4.26984318308514e-04
5.02000000000000e+00 2.73574196742552e-02 4.18929276883966e-04
5.06000000000000e+00 2.67341691040134e-02 4.11013144098537e-04
5.10000000000000e+00 2.61251172878184e-02 4.03233994644746e-04
5.14000000000000e+00 2.55299407528549e-02 3.95589910608497e-04
5.18000000000000e+00 2.49483233955926e-02 3.88078982461814e-04
5.22000000000000e+00 2.43799563139006e-02 3.80699309991932e-04
5.26000000000000e+00 2.38245376429867e-02 3.73449003169867e-04
5.30000000000000e+00 2.32817723950744e-02 3.66326182961400e-04
5.34000000000000e+00 2.27513723027323e-02 3.59328982083276e-04
5.38000000000000e+00 2.22330556657724e-02 3.52455545707297e-04
5.42000000000000e+00 2.17265472016372e-02 3.45704032114860e-04
5.46000000000000e+00 2.12315778991942e-02 3.39072613304402e-04
5.50000000000000e+00 2.07478848758622e-02 3.32559475554024e-04
5.54000000000000e+00 2.02752112379913e-02 3.26162819941523e-04
5.58000000000000e+00 1.98133059444251e-02 3.19880862823949e-04
5.62000000000000e+00 1.93619236731703e-02 3.13711836278705e-04
5.66000000000000e+00 1.89208246911038e-02 3.07653988508054e-04
5.70000000000000e+00 1.84897747266486e-02 3.01705584208922e-04
5.74000000000000e+00 1.80685448453499e-02 2.95864904909744e-04
5.78000000000000e+00 1.76569113282862e-02 2.90130249275944e-04
5.82000000000000e+00 1.72546555532498e-02 2.84499933385734e-04
5.86000000000000e+00 1.68615638786352e-02 2.78972290977660e-04
5.90000000000000e+00 1.64774275299716e-02 2.73545673671399e-04
5.94000000000000e+00 1.61020424890411e-02 2.68218451163180e-04
5.98000000000000e+00 1.57352093855231e-02 2.62989011397102e-04
6.02000000000000e+00 1.53767333911066e-02 2.57855760713655e-04
6.06000000000000e+00 1.50264241160151e-02 2.52817123976622e-04
6.10000000000000e+00 1.46840955078893e-02 2.47871544679495e-04
6.14000000000000e+00 1.43495657529728e-02 2.43017485032523e-04
6.18000000000000e+00 1.40226571795493e-02 2.38253426031424e-04
6.22000000000000e+00 1.37031961635792e-02 2.33577867508735e-04
6.26000000000000e+00 1.33910130364869e-02 2.28989328168753e-04
6.30000000000000e+00 1.30859419950480e-02 2.24486345607025e-04
6.34000000000000e+00 1.27878210133299e-02 2.20067476315182e-04
6.38000000000000e+00 1.24964917566381e-02 2.15731295671965e-04
6.42000000000000e+00 1.22117994974235e-02 2.11476397921244e-04
6.46000000000000e+00 1.19335930331052e-02 2.07301396137780e-04
6.50000000000000e+00 1.16617246057654e-02 2.03204922181410e-04
6.54000000000000e+00 1.13960498236739e-02 1.99185626640390e-04
6.58000000000000e+00 1.11364275846002e-02 1.95242178764506e-04
6.62000000000000e+00 1.08827200008733e-02 1.91373266388595e-04
6.66000000000000e+00 1.06347923261480e-02 1.87577595847079e-04
6.70000000000000e+00 1.03925128838396e-02 1.83853891880032e-04
6.74000000000000e+00 1.01557529971902e-02 1.80200897531371e-04
6.78000000000000e+00 9.92438692092648e-03 1.76617374039670e-04
6.82000000000000e+00 9.69829177447569e-03 1.73102100722067e-04
6.86000000000000e+00 9.47734747670260e-03 1.69653874851739e-04
6.90000000000000e+00 9.26143668213333e-03 1.66271511529409e-04
6.94000000000000e+00 9.05044471863215e-03 1.62953843549299e-04
6.98000000000000e+00 8.84425952649809e-03 1.59699721259915e-04
7.02000000000000e+00 8.64277159894904e-03 1.56508012420074e-04
7.06000000000000e+00 8.44587392396170e-03 1.53377602050522e-04
7.10000000000000e+00 8.25346192743660e-03 1.50307392281507e-04
7.14000000000000e+00 8.06543341765782e-03 1.47296302196627e-04
7.18000000000000e+00 7.88168853101809e-03 1.44343267673265e-04
7.22000000000000e+00 7.70212967898033e-03 1.41447241219936e-04
7.26000000000000e+00 7.52666149624754e-03 1.38607191810804e-04
7.30000000000000e+00 7.35519079011340e-03 1.35822104717655e-04
7.34000000000000e+00 7.18762649096686e-03 1.33090981339590e-04
7.38000000000000e+00 7.02387960392418e-03 1.30412839030664e-04
7.42000000000000e+00 6.86386316156306e-03 1.27786710925721e-04
7.46000000000000e+00 6.70749217773337e-03 1.25211645764650e-04
7.50000000000000e+00 6.55468360242033e-03 1.22686707715253e-04
7.54000000000000e+00 6.40535627763588e-03 1.20210976194944e-04
7.58000000000000e+00 6.25943089431494e-03 1.17783545691464e-04
7.62000000000000e+00 6.11682995019369e-03 1.15403525582775e-04
7.66000000000000e+00 5.97747770864742e-03 1.13070039956333e-04
7.70000000000000e+00 5.84130015846613e-03 1.10782227427870e-04
7.74000000000000e+00 5.70822497454655e-03 1.08539240959868e-04
7.78000000000000e+00 5.57818147947959e-03 1.06340247679842e-04
7.82000000000000e+00 5.45110060601297e-03 1.04184428698585e-04
7.86000000000000e+00 5.32691486036901e-03 1.02070978928496e-04
7.90000000000000e+00 5.20555828639804e-03 9.99991069021255e-05
7.94000000000000e+00 5.08696643054854e-03 9.79680345910372e-05
7.98000000000000e+00 4.97107630763526e-03 9.59769972250992e-05
8.02000000000000e+00 4.85782636738728e-03 9.40252431123213e-05
8.06000000000000e+00 4.74715646175806e-03 9.21120334593089e-05
8.10000000000000e+00 4.63900781298029e-03 9.02366421924425e-05
8.14000000000000e+00 4.53332298234854e-03 8.83983557798718e-05
8.18000000000000e+00 4.43004583971301e-03 8.65964730543808e-05
8.22000000000000e+00 4.32912153366831e-03 8.48303050372261e-05
8.26000000000000e+00 4.23049646242144e-03 8.30991747629997e-05
8.30000000000000e+00 4.13411824532334e-03 8.14024171055871e-05
8.34000000000000e+00 4.03993569504910e-03 7.97393786052859e-05
8.38000000000000e+00 3.94789879041191e-03 7.81094172971350e-05
8.42000000000000e+00 3.85795864979639e-03 7.65119025405175e-05
8.46000000000000e+00 3.77006750519707e-03 7.49462148500756e-05
8.50000000000000e+00 3.68417867684844e-03 7.34117457279862e-05
8.54000000000000e+00 3.60024654843289e-03 7.19078974976481e-05
8.58000000000000e+00 3.51822654285346e-03 7.04340831388087e-05
8.62000000000000e+00 3.43807509855858e-03 6.89897261241659e-05
8.66000000000000e+00 3.35974964640614e-03 6.75742602574927e-05
8.70000000000000e+00 3.28320858705461e-03 6.61871295132995e-05
8.74000000000000e+00 3.20841126886931e-03 6.48277878780629e-05
8.78000000000000e+00 3.13531796633193e-03 6.34956991930581e-05
8.82000000000000e+00 3.06388985894195e-03 6.21903369988031e-05
8.86000000000000e+00 2.99408901059878e-03 6.09111843811395e-05
8.90000000000000e+00 2.92587834945350e-03 5.96577338189733e-05
8.94000000000000e+00 2.85922164821969e-03 5.84294870336834e-05
8.98000000000000e+00 2.79408350493284e-03 5.72259548402172e-05
9.02000000000000e+00 2.73042932414798e-03 5.60466569998806e-05
9.06000000000000e+00 2.66822529856580e-03 5.48911220748385e-05
9.10000000000000e+00 2.60743839107725e-03 5.37588872843308e-05
9.14000000000000e+00 2.54803631721726e-03 5.26494983626033e-05
9.18000000000000e+00 2.48998752801816e-03 5.15625094185755e-05
9.22000000000000e+00 2.43326119325376e-03 5.04974827972353e-05
9.26000000000000e+00 2.37782718506514e-03 4.94539889427632e-05
9.30000000000000e+00 2.32365606195945e-03 4.84316062633982e-05
9.34000000000000e+00 2.27071905317333e-03 4.74299209980330e-05
9.38000000000000e+00 2.21898804339243e-03 4.64485270845433e-05
9.42000000000000e+00 2.16843555781920e-03 4.54870260298501e-05
9.46000000000000e+00 2.11903474758069e-03 4.45450267817036e-05
9.50000000000000e+00 2.07075937546896e-03 4.36221456021928e-05
9.54000000000000e+00 2.02358380200620e-03 4.27180059429721e-05
9.58000000000000e+00 1.97748297182744e-03 4.18322383221974e-05
9.62000000000000e+00 1.93243240037334e-03 4.09644802031664e-05
9.66000000000000e+00 1.88840816088633e-03 4.01143758746539e-05
9.70000000000000e+00 1.84538687170280e-03 3.92815763329332e-05
9.74000000000000e+00 1.80334568383494e-03 3.84657391654764e-05
9.78000000000000e+00 1.76226226883544e-03 3.76665284363227e-05
9.82000000000000e+00 1.72211480693863e-03 3.68836145731008e-05
9.86000000000000e+00 1.68288197547185e-03 3.61166742556990e-05
9.90000000000000e+00 1.64454293753073e-03 3.53653903065698e-05
9.94000000000000e+00 1.60707733091259e-03 3.46294515826549e-05
9.98000000000000e+00 1.57046525730185e-03 3.39085528689204e-05
1.00200000000000e+01 1.53468727170187e-03 3.32023947734895e-05
1.00600000000000e+01 1.49972437210754e-03 3.25106836243566e-05
1.01000000000000e+01 1.46555798941316e-03 3.18331313676688e-05
1.01400000000000e+01 1.43216997755020e-03 3.11694554675676e-05
1.01800000000000e+01 1.39954260384978e-03 3.05193788075657e-05
1.02200000000000e+01 1.36765853962468e-03 2.98826295934516e-05
1.02600000000000e+01 1.33650085096593e-03 2.92589412577077e-05
1.03000000000000e+01 1.30605298974907e-03 2.86480523654208e-05
1.03400000000000e+01 1.27629878484527e-03 2.80497065216751e-05
1.03800000000000e+01 1.24722243353272e-03 2.74636522804077e-05
1.04200000000000e+01 1.21880849310364e-03 2.68896430547173e-05
1.04600000000000e+01 1.19104187266257e-03 2.63274370286026e-05
1.05000000000000e+01 1.16390782511139e-03 2.57767970701187e-05
1.05400000000000e+01 1.13739193931709e-03 2.52374906459360e-05
1.05800000000000e+01 1.11148013245780e-03 2.47092897372837e-05
1.06200000000000e+01 1.08615864254337e-03 2.41919707572604e-05
1.06600000000000e+01 1.06141402110617e-03 2.36853144695001e-05
1.07000000000000e+01 1.03723312605854e-03 2.31891059081712e-05
1.07400000000000e+01 1.01360311471292e-03 2.27031342992969e-05
1.07800000000000e+01 9.90511436960940e-04 2.22271929833792e-05
1.08200000000000e+01 9.67945828607978e-04 2.17610793393073e-05
1.08600000000000e+01 9.45894304859533e-04 2.13045947095382e-05
1.09000000000000e+01 9.24345153955990e-04 2.08575443265317e-05
1.09400000000000e+01 9.03286930952401e-04 2.04197372404211e-05
1.09800000000000e+01 8.82708451639977e-04 1.99909862479051e-05
1.10200000000000e+01 8.62598786606052e-04 1.95711078223470e-05
1.10600000000000e+01 8.42947255429376e-04 1.91599220450591e-05
1.11000000000000e+01 8.23743421007651e-04 1.87572525377603e-05
1.11400000000000e+01 8.04977084014290e-04 1.83629263961917e-05
1.11800000000000e+01 7.86638277481467e-04 1.79767741248703e-05
1.12200000000000e+01 7.68717261506570e-04 1.75986295729667e-05
1.12600000000000e+01 7.51204518079255e-04 1.72283298712923e-05
1.13000000000000e+01 7.34090746026343e-04 1.68657153703776e-05
1.13400000000000e+01 7.17366856071888e-04 1.65106295796274e-05
1.13800000000000e+01 7.01023966009780e-04 1.61629191075377e-05
1.14200000000000e+01 6.85053395986326e-04 1.58224336029568e-05
1.14600000000000e+01 6.69446663890306e-04 1.54890256973778e-05
1.15000000000000e+01 6.54195480848043e-04 1.51625509482448e-05
1.15400000000000e+01 6.39291746821117e-04 1.48428677832599e-05
1.15800000000000e+01 6.24727546304355e-04 1.45298374456748e-05
1.16200000000000e+01 6.10495144121839e-04 1.42233239405507e-05
1.16600000000000e+01 5.96586981318686e-04 1.39231939819749e-05
1.17000000000000e+01 5.82995671146421e-04 1.36293169412170e-05
1.17400000000000e+01 5.69713995139806e-04 1.33415647958115e-05
1.17800000000000e+01 5.56734899283054e-04 1.30598120795513e-05
1.18200000000000e+01 5.44051490263375e-04 1.27839358333799e-05
1.18600000000000e+01 5.31657031809876e-04 1.25138155571656e-05
1.19000000000000e+01 5.19544941115873e-04 1.22493331623451e-05
1.19400000000000e+01 5.07708785342696e-04 1.19903729254236e-05
1.19800000000000e+01 4.96142278203161e-04 1.17368214423176e-05
1.20200000000000e+01 4.84839276622858e-04 1.14885675835238e-05
1.20600000000000e+01 4.73793777477516e-04 1.12455024501057e-05
1.21000000000000e+01 4.62999914404687e-04 1.10075193304814e-05
1.21400000000000e+01 4.52451954688073e-04 1.07745136580002e-05
1.21800000000000e+01 4.42144296212823e-04 1.05463829692959e-05
1.22200000000000e+01 4.32071464490207e-04 1.03230268634041e-05
1.22600000000000e+01 4.22228109750064e-04 1.01043469616294e-05
1.23000000000000e+01 4.12609004099489e-04 9.89024686815260e-06
1.23400000000000e+01 4.03209038746256e-04 9.68063213136273e-06
1.23800000000000e+01 3.94023221285493e-04 9.47541020590515e-06
1.24200000000000e+01 3.85046673048170e-04 9.27449041543087e-06
1.24600000000000e+01 3.76274626509996e-04 9.07778391603673e-06
1.25000000000000e+01 3.67702422759343e-04 8.88520366038495e-06
1.25400000000000e+01 3.59325509022860e-04 8.69666436249028e-06
1.25800000000000e+01 3.51139436247451e-04 8.51208246316326e-06
1.26200000000000e+01 3.43139856737344e-04 8.33137609609845e-06
