Energy (eV)          EEDF (eV^-(3/2))     First Anisotropy
4.76666666666667e-02 1.32684505633559e-01 1.27370248175178e-04
1.43000000000000e-01 1.29659557101676e-01 2.08628355591181e-04
2.38333333333333e-01 1.26703571500923e-01 2.70955991400263e-04
3.33666666666667e-01 1.23814976628108e-01 3.15679037517120e-04
4.29000000000000e-01 1.20992236099411e-01 3.50864208748448e-04
5.24333333333333e-01 1.18233848557602e-01 3.79638850603287e-04
6.19666666666667e-01 1.15538346886330e-01 4.03659843762834e-04
7.15000000000000e-01 1.12904297409050e-01 4.23950376089016e-04
8.10333333333333e-01 1.10330299131762e-01 4.41203716014563e-04
9.05666666666667e-01 1.07814983007575e-01 4.55919952739023e-04
1.00100000000000e+00 1.05357011197153e-01 4.68476523406971e-04
1.09633333333333e+00 1.02955076352106e-01 4.79168210500922e-04
1.19166666666667e+00 1.00607900955562e-01 4.88231486796006e-04
1.28700000000000e+00 9.83142365963305e-02 4.95860163844295e-04
1.38233333333333e+00 9.60728633096147e-02 5.02215893663880e-04
1.47766666666667e+00 9.38825889780733e-02 5.07435484480992e-04
1.57300000000000e+00 9.17422486435414e-02 5.11636148036670e-04
1.66833333333333e+00 8.96507038948529e-02 5.14919353075959e-04
1.76366666666667e+00 8.76068423008385e-02 5.17373730150143e-04
1.85900000000000e+00 8.56095767774123e-02 5.19077298485895e-04
1.95433333333333e+00 8.36578450144060e-02 5.20099195859236e-04
2.04966666666667e+00 8.17506089411288e-02 5.20501053308427e-04
2.14500000000000e+00 7.98868541417720e-02 5.20338097550898e-04
2.24033333333333e+00 7.80655893194612e-02 5.19660040243673e-04
2.33566666666667e+00 7.62858457938411e-02 5.18511812655092e-04
2.43100000000000e+00 7.45466769596533e-02 5.16934174305276e-04
2.52633333333333e+00 7.28471577859362e-02 5.14964216953392e-04
2.62166666666667e+00 7.11863843445318e-02 5.12635793894899e-04
2.71700000000000e+00 6.95634733077671e-02 5.09979884469624e-04
2.81233333333333e+00 6.79775614806872e-02 5.07024901491027e-04
2.90766666666667e+00 6.64278053591058e-02 5.03796959841447e-04
3.00300000000000e+00 6.49133806630043e-02 5.00320108947374e-04
3.09833333333333e+00 6.34334818997308e-02 4.96616531353390e-04
3.19366666666667e+00 6.19873219500942e-02 4.92706720062331e-04
3.28900000000000e+00 6.05741316345675e-02 4.88609634393408e-04
3.38433333333333e+00 5.91931593054707e-02 4.84342834226183e-04
3.47966666666667e+00 5.78436704595747e-02 4.79922602267155e-04
3.57500000000000e+00 5.65249473345424e-02 4.75364052847237e-04
3.67033333333333e+00 5.52362885282179e-02 4.70681226091563e-04
3.76566666666667e+00 5.39770086362147e-02 4.65887175248383e-04
3.86100000000000e+00 5.27464378763049e-02 4.60994045193521e-04
3.95633333333333e+00 5.15439217330419e-02 4.56013140523857e-04
4.05166666666667e+00 5.03688206188487e-02 4.50954989780993e-04
4.14700000000000e+00 4.92205095242859e-02 4.45829403675143e-04
4.24233333333333e+00 4.80983776863430e-02 4.40645525578049e-04
4.33766666666667e+00 4.70018282715965e-02 4.35411879919690e-04
4.43300000000000e+00 4.59302780504754e-02 4.30136416374569e-04
4.52833333333333e+00 4.48831570876597e-02 4.24826548099674e-04
4.62366666666667e+00 4.38599084459405e-02 4.19489188959042e-04
4.71900000000000e+00 4.28599878827635e-02 4.14130787712015e-04
4.81433333333333e+00 4.18828635612708e-02 4.08757357487665e-04
4.90966666666667e+00 4.09280157735654e-02 4.03374504916074e-04
5.00500000000000e+00 3.99949366579520e-02 3.97987457017733e-04
5.10033333333333e+00 3.90831299292525e-02 3.92601084265069e-04
5.19566666666667e+00 3.81921106202467e-02 3.87219923717586e-04
5.29100000000000e+00 3.73214048181536e-02 3.81848200467228e-04
5.38633333333333e+00 3.64705494129424e-02 3.76489845912282e-04
5.48166666666667e+00 3.56390918557865e-02 3.71148516362168e-04
5.57700000000000e+00 3.48265899134433e-02 3.65827610345446e-04
5.67233333333333e+00 3.40326114333630e-02 3.60530283246434e-04
5.76766666666667e+00 3.32567341180633e-02 3.55259462427791e-04
5.86300000000000e+00 3.24985452961643e-02 3.50017861342110e-04
5.95833333333333e+00 3.17576417031783e-02 3.44807991362565e-04
6.05366666666667e+00 3.10336292707747e-02 3.39632174188293e-04
6.14900000000000e+00 3.03261229133214e-02 3.34492553450536e-04
6.24433333333333e+00 2.96347463233089e-02 3.29391104349334e-04
6.33966666666667e+00 2.89591317745418e-02 3.24329643910253e-04
6.43500000000000e+00 2.82989199231167e-02 3.19309840601487e-04
6.53033333333333e+00 2.76537596165079e-02 3.14333222234697e-04
6.62566666666667e+00 2.70233077097769e-02 3.09401184502630e-04
6.72100000000000e+00 2.64072288799976e-02 3.04514998999269e-04
6.81633333333333e+00 2.58051954480920e-02 2.99675819732868e-04
6.91166666666667e+00 2.52168872072079e-02 2.94884690273782e-04
7.00700000000000e+00 2.46419912496720e-02 2.90142550479620e-04
7.10233333333333e+00 2.40802018007242e-02 2.85450241888504e-04
7.19766666666667e+00 2.35312200582680e-02 2.80808513732959e-04
7.29300000000000e+00 2.29947540314950e-02 2.76218028605639e-04
7.38833333333333e+00 2.24705183857261e-02 2.71679366941674e-04
7.48366666666667e+00 2.19582342927864e-02 2.67193032099842e-04
7.57900000000000e+00 2.14576292805077e-02 2.62759455154782e-04
7.67433333333333e+00 2.09684370879346e-02 2.58378998633014e-04
7.76966666666667e+00 2.04903975256262e-02 2.54051960821356e-04
7.86500000000000e+00 2.00232563352965e-02 2.49778579833879e-04
7.96033333333333e+00 1.95667650546936e-02 2.45559036732592e-04
8.05566666666667e+00 1.91206808871749e-02 2.41393459191516e-04
8.15100000000000e+00 1.86847665707978e-02 2.37281924957768e-04
8.24633333333333e+00 1.82587902522252e-02 2.33224464462118e-04
8.34166666666667e+00 1.78425253649639e-02 2.29221063942708e-04
8.43700000000000e+00 1.74357505072635e-02 2.25271668397258e-04
8.53233333333333e+00 1.70382493244476e-02 2.21376183768641e-04
8.62766666666667e+00 1.66498103952415e-02 2.17534479613168e-04
8.72300000000000e+00 1.62702271178851e-02 2.13746391623324e-04
8.81833333333333e+00 1.58992976003248e-02 2.10011723457771e-04
8.91366666666667e+00 1.55368245540983e-02 2.06330249024120e-04
9.00900000000000e+00 1.51826151881039e-02 2.02701714637636e-04
9.10433333333333e+00 1.48364811061297e-02 1.99125840552656e-04
9.19966666666667e+00 1.44982382077950e-02 1.95602322917730e-04
9.29500000000000e+00 1.41677065894585e-02 1.92130835624593e-04
9.39033333333333e+00 1.38447104485955e-02 1.88711031588111e-04
9.48566666666667e+00 1.35290779913275e-02 1.85342544421991e-04
9.58100000000000e+00 1.32206413399889e-02 1.82024990023357e-04
9.67633333333333e+00 1.29192364438935e-02 1.78757967640319e-04
9.77166666666667e+00 1.26247029930169e-02 1.75541061308664e-04
9.86700000000000e+00 1.23368843317715e-02 1.72373841210086e-04
9.96233333333333e+00 1.20556273757361e-02 1.69255864559983e-04
1.00576666666667e+01 1.17807825310830e-02 1.66186676723461e-04
1.01530000000000e+01 1.15122036149210e-02 1.63165812958833e-04
1.02483333333333e+01 1.12497477736966e-02 1.60192798112958e-04
1.03436666666667e+01 1.09932754157776e-02 1.57267148126489e-04
1.04390000000000e+01 1.07426501293240e-02 1.54388372197957e-04
1.05343333333333e+01 1.04977386101457e-02 1.51555971330434e-04
1.06296666666667e+01 1.02584105977918e-02 1.48769440259633e-04
1.07250000000000e+01 1.00245387991144e-02 1.46028269258911e-04
1.08203333333333e+01 9.79599882093474e-03 1.43331942739783e-04
1.09156666666667e+01 9.57266911023214e-03 1.40679940967394e-04
1.10110000000000e+01 9.35443088299525e-03 1.38071741666011e-04
1.11063333333333e+01 9.14116806137782e-03 1.35506818676173e-04
1.12016666666667e+01 8.93276721773250e-03 1.32984643482198e-04
1.12970000000000e+01 8.72911750837608e-03 1.30504686641262e-04
1.13923333333333e+01 8.53011061493592e-03 1.28066416498719e-04
1.14876666666667e+01 8.33564069198904e-03 1.25669300549152e-04
1.15830000000000e+01 8.14560430539494e-03 1.23312806709209e-04
1.16783333333333e+01 7.95990037755373e-03 1.20996402091666e-04
1.17736666666667e+01 7.77843013842491e-03 1.18719554218827e-04
1.18690000000000e+01 7.60109706810653e-03 1.16481732156788e-04
1.19643333333333e+01 7.42780684574473e-03 1.14282405348031e-04
1.20596666666667e+01 7.25846730371968e-03 1.12121044693714e-04
1.21550000000000e+01 7.09298837417336e-03 1.09997123564848e-04
1.22503333333333e+01 6.93128204132735e-03 1.07910116692672e-04
1.23456666666667e+01 6.77326229863611e-03 1.05859501134333e-04
1.24410000000000e+01 6.61884509898715e-03 1.03844757174629e-04
1.25363333333333e+01 6.46794831020012e-03 1.01865367272960e-04
1.26316666666667e+01 6.32049167495947e-03 9.99208169252152e-05
1.27270000000000e+01 6.17639676443078e-03 9.80105954680868e-05
1.28223333333333e+01 6.03558693672920e-03 9.61341950810878e-05
1.29176666666667e+01 5.89798729945489e-03 9.42911115559478e-05
1.30130000000000e+01 5.76352466648771e-03 9.24808450141263e-05
1.31083333333333e+01 5.63212751922710e-03 9.07028989621391e-05
1.32036666666667e+01 5.50372597156448e-03 8.89567809784636e-05
1.32990000000000e+01 5.37825172963543e-03 8.72420033536579e-05
1.33943333333333e+01 5.25563805564628e-03 8.55580821970843e-05
1.34896666666667e+01 5.13581973512783e-03 8.39045380501888e-05
1.35850000000000e+01 5.01873303943982e-03 8.22808964575439e-05
1.36803333333333e+01 4.90431569201191e-03 8.06866871229656e-05
1.37756666666667e+01 4.79250683773249e-03 7.91214444570333e-05
1.38710000000000e+01 4.68324700801494e-03 7.75847080864515e-05
1.39663333333333e+01 4.57647808929201e-03 7.60760220574765e-05
1.40616666666667e+01 4.47214329440267e-03 7.45949353246663e-05
1.41570000000000e+01 4.37018713004312e-03 7.31410022051406e-05
1.42523333333333e+01 4.27055536736422e-03 7.17137816272133e-05
1.43476666666667e+01 4.17319501522792e-03 7.03128375665897e-05
1.44430000000000e+01 4.07805428987841e-03 6.89377394513758e-05
1.45383333333333e+01 3.98508258750232e-03 6.75880614538096e-05
1.46336666666667e+01 3.89423045923430e-03 6.62633828794510e-05
1.47290000000000e+01 3.80544958289518e-03 6.49632885281513e-05
1.48243333333333e+01 3.71869273738417e-03 6.36873680267962e-05
1.49196666666667e+01 3.63391377932049e-03 6.24352161764352e-05
1.50150000000000e+01 3.55106761670639e-03 6.12064332738537e-05
1.51103333333333e+01 3.47011018502908e-03 6.00006244832885e-05
1.52056666666667e+01 3.39099842543265e-03 5.88174001459040e-05
1.53010000000000e+01 3.31369026017357e-03 5.76563760661156e-05
1.53963333333333e+01 3.23814457031830e-03 5.65171729202788e-05
1.54916666666667e+01 3.16432117534637e-03 5.53994165324551e-05
1.55870000000000e+01 3.09218081027532e-03 5.43027381291954e-05
1.56823333333333e+01 3.02168510484748e-03 5.32267737832623e-05
1.57776666666667e+01 2.95279656447141e-03 5.21711646592093e-05
1.58730000000000e+01 2.88547854890169e-03 5.11355572399346e-05
1.59683333333333e+01 2.81969525281563e-03 5.01196028035674e-05
1.60636666666667e+01 2.75541168800597e-03 4.91229576420108e-05
1.61590000000000e+01 2.69259366350921e-03 4.81452832622306e-05
1.62543333333333e+01 2.63120776747924e-03 4.71862458945003e-05
1.63496666666667e+01 2.57122135055013e-03 4.62455166867325e-05
1.64450000000000e+01 2.51260250731367e-03 4.53227718831556e-05
1.65403333333333e+01 2.45532005940353e-03 4.44176923621826e-05
1.66356666666667e+01 2.39934353995182e-03 4.35299638090605e-05
1.67310000000000e+01 2.34464317632365e-03 4.26592768743113e-05
1.68263333333333e+01 2.29118987433094e-03 4.18053267395675e-05
1.69216666666667e+01 2.23895520371159e-03 4.09678132708049e-05
1.70170000000000e+01 2.18791138203498e-03 4.01464411586754e-05
1.71123333333333e+01 2.13803125997022e-03 3.93409195107261e-05
1.72076666666667e+01 2.08928830772100e-03 3.85509619872460e-05
1.73030000000000e+01 2.04165660002227e-03 3.77762869253988e-05
1.73983333333333e+01 1.99511080239245e-03 3.70166169563185e-05
1.74936666666667e+01 1.94962615846153e-03 3.62716791253908e-05
1.75890000000000e+01 1.90517847598454e-03 3.55412050018954e-05
1.76843333333333e+01 1.86174411401193e-03 3.48249303195401e-05
1.77796666666667e+01 1.81929997105267e-03 3.41225950828126e-05
1.78750000000000e+01 1.77782347203505e-03 3.34339436636676e-05
1.79703333333333e+01 1.73729255633407e-03 3.27587244641353e-05
1.80656666666667e+01 1.69768566671474e-03 3.20966900102103e-05
1.81610000000000e+01 1.65898173717584e-03 3.14475970369564e-05
1.82563333333333e+01 1.62116018177696e-03 3.08112061718963e-05
1.83516666666667e+01 1.58420088431103e-03 3.01872820177544e-05
1.84470000000000e+01 1.54808418697082e-03 2.95755932272143e-05
1.85423333333333e+01 1.51279087992232e-03 2.89759122058637e-05
1.86376666666667e+01 1.47830219165864e-03 2.83880151849690e-05
1.87330000000000e+01 1.44459977843333e-03 2.78116822869966e-05
1.88283333333333e+01 1.41166571453024e-03 2.72466972469485e-05
1.89236666666667e+01 1.37948248325411e-03 2.66928474762334e-05
1.90190000000000e+01 1.34803296707856e-03 2.61499241199430e-05
1.91143333333333e+01 1.31730043856591e-03 2.56177217954805e-05
1.92096666666667e+01 1.28726855195272e-03 2.50960386484815e-05
1.93050000000000e+01 1.25792133396380e-03 2.45846764027348e-05
1.94003333333333e+01 1.22924317533872e-03 2.40834401150675e-05
1.94956666666667e+01 1.20121882297305e-03 2.35921382241695e-05
1.95910000000000e+01 1.17383337135336e-03 2.31105825939617e-05
1.96863333333333e+01 1.14707225464968e-03 2.26385882837571e-05
1.97816666666667e+01 1.12092123937613e-03 2.21759735907541e-05
1.98770000000000e+01 1.09536641640460e-03 2.17225600875720e-05
1.99723333333333e+01 1.07039419358545e-03 2.12781724067615e-05
2.00676666666667e+01 1.04599128889335e-03 2.08426382776575e-05
2.01630000000000e+01 1.02214472298036e-03 2.04157885587259e-05
2.02583333333333e+01 9.98841812289641e-04 1.99974570355499e-05
2.03536666666667e+01 9.76070162654528e-04 1.95874804526654e-05
2.04490000000000e+01 9.53817662354452e-04 1.91856985412916e-05
2.05443333333333e+01 9.32072475688755e-04 1.87919538299744e-05
2.06396666666667e+01 9.10823036999096e-04 1.84060916719556e-05
2.07350000000000e+01 8.90058044194210e-04 1.80279602688102e-05
2.08303333333333e+01 8.69766452753028e-04 1.76574104929696e-05
2.09256666666667e+01 8.49937470142592e-04 1.72942959111240e-05
2.10210000000000e+01 8.30560549779839e-04 1.69384728042297e-05
2.11163333333333e+01 8.11625385435371e-04 1.65898000011849e-05
2.12116666666667e+01 7.93121906020816e-04 1.62481388987107e-05
2.13070000000000e+01 7.75040269958032e-04 1.59133534781449e-05
2.14023333333333e+01 7.57370859956776e-04 1.55853101495831e-05
2.14976666666667e+01 7.40104278147144e-04 1.52638777686403e-05
2.15930000000000e+01 7.23231340828620e-04 1.49489276504052e-05
2.16883333333333e+01 7.06743073596660e-04 1.46403334233994e-05
2.17836666666667e+01 6.90630706797462e-04 1.43379710435784e-05
2.18790000000000e+01 6.74885670631146e-04 1.40417188057805e-05
2.19743333333333e+01 6.59499590603949e-04 1.37514572068971e-05
2.20696666666667e+01 6.44464283284055e-04 1.34670689574366e-05
2.21650000000000e+01 6.29771751734951e-04 1.31884389907655e-05
2.22603333333333e+01 6.15414181271479e-04 1.29154543349187e-05
2.23556666666667e+01 6.01383935496855e-04 1.26480041220141e-05
2.24510000000000e+01 5.87673552043870e-04 1.23859795955533e-05
2.25463333333333e+01 5.74275738614504e-04 1.21292739903365e-05
2.26416666666667e+01 5.61183369279566e-04 1.18777825399841e-05
2.27370000000000e+01 5.48389480506921e-04 1.16314024825388e-05
2.28323333333333e+01 5.35887267465734e-04 1.13900329479778e-05
2.29276666666667e+01 5.23670080571370e-04 1.11535749640747e-05
2.30230000000000e+01 5.11731421781263e-04 1.09219314605145e-05
2.31183333333333e+01 5.00064941146095e-04 1.06950071635312e-05
2.32136666666667e+01 4.88664433583762e-04 1.04727086003147e-05
2.33090000000000e+01 4.77523835424796e-04 1.02549441018303e-05
2.34043333333333e+01 4.66637221193985e-04 1.00416237041362e-05
2.34996666666667e+01 4.55998800598261e-04 9.83265915152059e-06
2.35950000000000e+01 4.45602915304818e-04 9.62796389819602e-06
2.36903333333333e+01 4.35444035937781e-04 9.42745301587778e-06
2.37856666666667e+01 4.25516759265868e-04 9.23104319581642e-06
2.38810000000000e+01 4.15815805197490e-04 9.03865274951803e-06
2.39763333333333e+01 4.06336013978107e-04 8.85020152219184e-06
2.40716666666667e+01 3.97072343564443e-04 8.66561089382498e-06
2.41670000000000e+01 3.88019866821929e-04 8.48480377906357e-06
2.42623333333333e+01 3.79173768909325e-04 8.30770454616092e-06
2.43576666666667e+01 3.70529344827162e-04 8.13423901722531e-06
2.44530000000000e+01 3.62081996803853e-04 7.96433446738292e-06
2.45483333333333e+01 3.53827231855086e-04 7.79791954888038e-06
2.46436666666667e+01 3.45760659494948e-04 7.63492429062161e-06
2.47390000000000e+01 3.37877989297989e-04 7.47528009671941e-06
2.48343333333333e+01 3.30175028621695e-04 7.31891967542830e-06
2.49296666666667e+01 3.22647680469538e-04 7.16577703807418e-06
2.50250000000000e+01 3.15291941217106e-04 7.01578749708871e-06
2.51203333333333e+01 3.08103898486780e-04 6.86888759946844e-06
2.52156666666667e+01 3.01079729152628e-04 6.72501512518914e-06
2.53110000000000e+01 2.94215697219564e-04 6.58410908480698e-06
2.54063333333333e+01 2.87508151840028e-04 6.44610965715783e-06
2.55016666666667e+01 2.80953525451359e-04 6.31095818733817e-06
2.55970000000000e+01 2.74548331797636e-04 6.17859718394722e-06
2.56923333333333e+01 2.68289164078901e-04 6.04897026075915e-06
2.57876666666667e+01 2.62172693212211e-04 5.92202213434217e-06
2.58830000000000e+01 2.56195665986558e-04 5.79769862100680e-06
2.59783333333333e+01 2.50354903335769e-04 5.67594658220028e-06
2.60736666666667e+01 2.44647298715047e-04 5.55671392182756e-06
2.61690000000000e+01 2.39069816380002e-04 5.43994958296370e-06
2.62643333333333e+01 2.33619489774956e-04 5.32560349673425e-06
2.63596666666667e+01 2.28293420017329e-04 5.21362657939485e-06
2.64550000000000e+01 2.23088774292407e-04 5.10397072885844e-06
2.65503333333333e+01 2.18002784349353e-04 4.99658877684084e-06
2.66456666666667e+01 2.13032745086276e-04 4.89143448574838e-06
2.67410000000000e+01 2.08176013052947e-04 4.78846254506428e-06
2.68363333333333e+01 2.03430005047315e-04 4.68762852655264e-06
2.69316666666667e+01 1.98792196794588e-04 4.58888888099749e-06
2.70270000000000e+01 1.94260121550617e-04 4.49220093448713e-06
2.71223333333333e+01 1.89831368792211e-04 4.39752284648265e-06
2.72176666666667e+01 1.85503582983985e-04 4.30481360644626e-06
2.73130000000000e+01 1.81274462275646e-04 4.21403303005765e-06
2.74083333333333e+01 1.77141757279821e-04 4.12514171996505e-06
2.75036666666667e+01 1.73103269920869e-04 4.03810106233622e-06
2.75990000000000e+01 1.69156852219731e-04 3.95287322303614e-06
2.76943333333333e+01 1.65300405153432e-04 3.86942111089014e-06
2.77896666666667e+01 1.61531877580414e-04 3.78770837418656e-06
2.78850000000000e+01 1.57849265107059e-04 3.70769939684103e-06
2.79803333333333e+01 1.54250609023406e-04 3.62935926401229e-06
2.80756666666667e+01 1.50733995299925e-04 3.55265375858134e-06
2.81710000000000e+01 1.47297553530216e-04 3.47754935732432e-06
2.82663333333333e+01 1.43939455937853e-04 3.40401319873108e-06
2.83616666666667e+01 1.40657916439850e-04 3.33201307948263e-06
2.84570000000000e+01 1.37451189660413e-04 3.26151745065145e-06
2.85523333333333e+01 1.34317570004157e-04 3.19249538758259e-06
2.86476666666667e+01 1.31255390781840e-04 3.12491658638789e-06
2.87430000000000e+01 1.28263023290385e-04 3.05875136018975e-06
2.88383333333333e+01 1.25338875948030e-04 2.99397061093325e-06
2.89336666666667e+01 1.22481393478204e-04 2.93054582591320e-06
2.90290000000000e+01 1.19689056051351e-04 2.86844907407448e-06
2.91243333333333e+01 1.16960378477884e-04 2.80765297963232e-06
2.92196666666667e+01 1.14293909446333e-04 2.74813071864564e-06
2.93150000000000e+01 1.11688230722824e-04 2.68985601538528e-06
2.94103333333333e+01 1.09141956397964e-04 2.63280311764698e-06
2.95056666666667e+01 1.06653732175664e-04 2.57694679338234e-06
2.96010000000000e+01 1.04222234626388e-04 2.52226232714430e-06
2.96963333333333e+01 1.01846170484372e-04 2.46872549698476e-06
2.97916666666667e+01 9.95242759837481e-05 2.41631257115242e-06
2.98870000000000e+01 9.72553161619583e-05 2.36500030462336e-06
2.99823333333333e+01 9.50380842039326e-05 2.31476591748201e-06
3.00776666666667e+01 9.28714008223835e-05 2.26558709169374e-06
