Energy (eV)          EEDF (eV^-(3/2))     First Anisotropy
3.91250000000000e-01 3.95244251660150e-02 7.12791506277085e-05
1.17375000000000e+00 3.62560179795949e-02 1.13216155788307e-04
1.95625000000000e+00 3.32578863377617e-02 1.38026999207696e-04
2.73875000000000e+00 3.05076802498825e-02 1.50952826678911e-04
3.52125000000000e+00 2.79848979209575e-02 1.57494282631089e-04
4.30375000000000e+00 2.56707329181290e-02 1.59965597258373e-04
5.08625000000000e+00 2.35479339755035e-02 1.59662052508137e-04
5.86875000000000e+00 2.16006763921833e-02 1.57409668045969e-04
6.65125000000000e+00 1.98144440648258e-02 1.53775007826405e-04
7.43375000000000e+00 1.81759212753257e-02 1.49164478217336e-04
8.21625000000000e+00 1.66728934269366e-02 1.43878156351261e-04
8.99875000000000e+00 1.52941559888554e-02 1.38141843689074e-04
9.78125000000000e+00 1.40294309704838e-02 1.32127510744330e-04
1.05637500000000e+01 1.28692903027139e-02 1.25967034705058e-04
1.13462500000000e+01 1.18050855550712e-02 1.19761811658475e-04
1.21287500000000e+01 1.08288834647829e-02 1.13589701062190e-04
1.29112500000000e+01 9.93340679716422e-03 1.07510173139025e-04
1.36937500000000e+01 9.11198009645644e-03 1.01568204099733e-04
1.44762500000000e+01 8.35847992271101e-03 9.57972738759807e-05
1.52587500000000e+01 7.66728920375195e-03 9.02217050914776e-05
1.60412500000000e+01 7.03325536192758e-03 8.48585086535757e-05
1.68237500000000e+01 6.45165190350153e-03 7.97188534380096e-05
1.76062500000000e+01 5.91814318434575e-03 7.48092453488738e-05
1.83887500000000e+01 5.42875208927641e-03 7.01324788606209e-05
1.91712500000000e+01 4.97983038409387e-03 6.56884085299965e-05
1.99537500000000e+01 4.56803151931181e-03 6.14745767445672e-05
2.07362500000000e+01 4.19028568283719e-03 5.74867257679896e-05
2.15187500000000e+01 3.84377691562767e-03 5.37192160437142e-05
2.23012500000000e+01 3.52592211973206e-03 5.01653681211298e-05
2.30837500000000e+01 3.23435180222619e-03 4.68177420565591e-05
2.38662500000000e+01 2.96689241149738e-03 4.36683654277736e-05
2.46487500000000e+01 2.72155013420064e-03 4.07089189811887e-05
2.54312500000000e+01 2.49649603209888e-03 3.79308872595474e-05
2.62137500000000e+01 2.29005240798772e-03 3.53256802285186e-05
2.69962500000000e+01 2.10068029906752e-03 3.28847308549325e-05
2.77787500000000e+01 1.92696800453051e-03 3.05995727290337e-05
2.85612500000000e+01 1.76762056184017e-03 2.84619011241409e-05
2.93437500000000e+01 1.62145009325228e-03 2.64636203159444e-05
3.01262500000000e+01 1.48736695061458e-03 2.45968795145785e-05
3.09087500000000e+01 1.36437159243254e-03 2.28540993755557e-05
3.16912500000000e+01 1.25154713264788e-03 2.12279907349769e-05
3.24737500000000e+01 1.14805250558351e-03 1.97115669477782e-05
3.32562500000000e+01 1.05311619610205e-03 1.82981509853346e-05
3.40387500000000e+01 9.66030488238663e-04 1.69813782626281e-05
3.48212500000000e+01 8.86146189433590e-04 1.57551960091084e-05
3.56037500000000e+01 8.12867791035669e-04 1.46138598661762e-05
3.63862500000000e+01 7.45649029000003e-04 1.35519282837541e-05
3.71687500000000e+01 6.83988811686413e-04 1.25642551952418e-05
3.79512500000000e+01 6.27427484401901e-04 1.16459813714881e-05
3.87337500000000e+01 5.75543402840601e-04 1.07925247879289e-05
3.95162500000000e+01 5.27949789877479e-04 9.99957028280441e-06
4.02987500000000e+01 4.84291852284282e-04 9.26305873680214e-06
4.10812500000000e+01 4.44244135873926e-04 8.57917596420922e-06
4.18637500000000e+01 4.07508099356839e-04 7.94434147160601e-06
4.26462500000000e+01 3.73809888823274e-04 7.35519721133144e-06
4.34287500000000e+01 3.42898296261122e-04 6.80859643261810e-06
4.42112500000000e+01 3.14542886890743e-04 6.30159271275682e-06
4.49937500000000e+01 2.88532281356746e-04 5.83142923334298e-06
4.57762500000000e+01 2.64672579971092e-04 5.39552835209757e-06
4.65587500000000e+01 2.42785917260819e-04 4.99148150853869e-06
4.73412500000000e+01 2.22709136045053e-04 4.61703949155555e-06
4.81237500000000e+01 2.04292571157043e-04 4.27010308841190e-06
4.89062500000000e+01 1.87398933744293e-04 3.94871412762730e-06
4.96887500000000e+01 1.71902287829653e-04 3.65104692233578e-06
5.04712500000000e+01 1.57687111504010e-04 3.37540011592043e-06
5.12537500000000e+01 1.44647435752096e-04 3.12018892780975e-06
5.20362500000000e+01 1.32686054491680e-04 2.88393779416376e-06
5.28187500000000e+01 1.21713799937265e-04 2.66527339565891e-06
5.36012500000000e+01 1.11648877886392e-04 2.46291806260240e-06
5.43837500000000e+01 1.02416257973340e-04 2.27568354608346e-06
5.51662500000000e+01 9.39471143448016e-05 2.10246514273031e-06
5.59487500000000e+01 8.61783125879563e-05 1.94223615982276e-06
5.67312500000000e+01 7.90519390861785e-05 1.79404270696123e-06
5.75137500000000e+01 7.25148692939043e-05 1.65699880016593e-06
5.82962500000000e+01 6.65183717122938e-05 1.53028176413780e-06
5.90787500000000e+01 6.10177446134737e-05 1.41312791842126e-06
5.98612500000000e+01 5.59719828052706e-05 1.30482853334090e-06
6.06437500000000e+01 5.13434719522839e-05 1.20472604181523e-06
6.14262500000000e+01 4.70977081745749e-05 1.11221049345993e-06
6.22087500000000e+01 4.32030408336799e-05 1.02671623776463e-06
6.29912500000000e+01 3.96304365885095e-05 9.47718823545210e-07
6.37737500000000e+01 3.63532629622565e-05 8.74732102326336e-07
6.45562500000000e+01 3.33470898068820e-05 8.07305523786239e-07
6.53387500000000e+01 3.05895071851682e-05 7.45021611888610e-07
6.61212500000000e+01 2.80599583127146e-05 6.87493610828040e-07
6.69037500000000e+01 2.57395863145204e-05 6.34363290419689e-07
6.76862500000000e+01 2.36110936537793e-05 5.85298901065926e-07
6.84687500000000e+01 2.16586131849774e-05 5.39993268928735e-07
6.92512500000000e+01 1.98675898700437e-05 4.98162022423437e-07
7.00337500000000e+01 1.82246722757874e-05 4.59541941624264e-07
7.08162500000000e+01 1.67176130437770e-05 4.23889422633654e-07
7.15987500000000e+01 1.53351775906977e-05 3.90979049413263e-07
7.23812500000000e+01 1.40670603585824e-05 3.60602266004569e-07
7.31637500000000e+01 1.29038079905925e-05 3.32566142479843e-07
7.39462500000000e+01 1.18367488596501e-05 3.06692228359713e-07
7.47287500000000e+01 1.08579284245840e-05 2.82815487611289e-07
7.55112500000000e+01 9.96004993189268e-06 2.60783309700926e-07
7.62937500000000e+01 9.13642002107748e-06 2.40454591518089e-07
7.70762500000000e+01 8.38089882805266e-06 2.21698885311982e-07
7.78587500000000e+01 7.68785421467203e-06 2.04395608090693e-07
7.86412500000000e+01 7.05211978316930e-06 1.88433308224203e-07
7.94237500000000e+01 6.46895636252506e-06 1.73708985268139e-07
8.02062500000000e+01 5.93401667965527e-06 1.60127459285132e-07
8.09887500000000e+01 5.44331295205742e-06 1.47600786185755e-07
8.17712500000000e+01 4.99318716032955e-06 1.36047715841693e-07
8.25537500000000e+01 4.58028377895419e-06 1.25393189940850e-07
8.33362500000000e+01 4.20152476206525e-06 1.15567876757973e-07
8.41187500000000e+01 3.85408659772564e-06 1.06507740205795e-07
8.49012500000000e+01 3.53537925966357e-06 9.81536407112474e-08
8.56837500000000e+01 3.24302689956036e-06 9.04509656295502e-08
8.64662500000000e+01 2.97485013595766e-06 8.33492870666093e-08
8.72487500000000e+01 2.72884980775431e-06 7.68020451276330e-08
8.80312500000000e+01 2.50319207118093e-06 7.07662547478323e-08
8.88137500000000e+01 2.29619472915573e-06 6.52022343900229e-08
8.95962500000000e+01 2.10631469111163e-06 6.00733550144099e-08
9.03787500000000e+01 1.93213646981236e-06 5.53458078383021e-08
9.11612500000000e+01 1.77236162940531e-06 5.09883895084629e-08
9.19437500000000e+01 1.62579910605037e-06 4.69723034067039e-08
9.27262500000000e+01 1.49135632896830e-06 4.32709759006000e-08
9.35087500000000e+01 1.36803107571945e-06 3.98598864362524e-08
9.42912500000000e+01 1.25490400099673e-06 3.67164104492615e-08
9.50737500000000e+01 1.15113178323776e-06 3.38196741438391e-08
9.58562500000000e+01 1.05594083796661e-06 3.11504202586572e-08
9.66387500000000e+01 9.68621551000418e-07 2.86908840019185e-08
9.74212500000000e+01 8.88522988531408e-07 2.64246783975574e-08
9.82037500000000e+01 8.15048044650045e-07 2.43366883397354e-08
9.89862500000000e+01 7.47648990135701e-07 2.24129727041502e-08
9.97687500000000e+01 6.85823389332761e-07 2.06406739124080e-08
1.00551250000000e+02 6.29110354673930e-07 1.90079343900360e-08
1.01333750000000e+02 5.77087110929554e-07 1.75038193998904e-08
1.02116250000000e+02 5.29365843570687e-07 1.61182457709422e-08
1.02898750000000e+02 4.85590807751576e-07 1.48419160779066e-08
1.03681250000000e+02 4.45435676360070e-07 1.36662578601093e-08
1.04463750000000e+02 4.08601107366635e-07 1.25833674985389e-08
1.05246250000000e+02 3.74812512337431e-07 1.15859583983657e-08
1.06028750000000e+02 3.43818009476517e-07 1.06673131504894e-08
1.06811250000000e+02 3.15386545937860e-07 9.82123937004640e-09
1.07593750000000e+02 2.89306175409662e-07 9.04202893238501e-09
1.08376250000000e+02 2.65382478131002e-07 8.32442034795873e-09
1.09158750000000e+02 2.43437111562602e-07 7.66356403697615e-09
1.09941250000000e+02 2.23306480907489e-07 7.05499028262020e-09
1.10723750000000e+02 2.04840519570753e-07 6.49457965829238e-09
1.11506250000000e+02 1.87901570467178e-07 5.97853573975327e-09
1.12288750000000e+02 1.72363359837293e-07 5.50335992730485e-09
1.13071250000000e+02 1.58110055922016e-07 5.06582821637486e-09
1.13853750000000e+02 1.45035405478644e-07 4.66296976709669e-09
1.14636250000000e+02 1.33041941701227e-07 4.29204713480078e-09
1.15418750000000e+02 1.22040257640669e-07 3.95053803381057e-09
1.16201250000000e+02 1.11948339708151e-07 3.63611851663087e-09
1.16983750000000e+02 1.02690956293386e-07 3.34664745958578e-09
1.17766250000000e+02 9.41990969400889e-08 3.08015225425914e-09
1.18548750000000e+02 8.64094578978985e-08 2.83481561176482e-09
1.19331250000000e+02 7.92639702157387e-08 2.60896339396988e-09
1.20113750000000e+02 7.27093668587211e-08 2.40105339235581e-09
1.20896250000000e+02 6.66967856216009e-08 2.20966498126995e-09
1.21678750000000e+02 6.11814048786511e-08 2.03348957792765e-09
1.22461250000000e+02 5.61221094545993e-08 1.87132184671036e-09
1.23243750000000e+02 5.14811841258174e-08 1.72205159009614e-09
1.24026250000000e+02 4.72240324669250e-08 1.58465627298801e-09
1.24808750000000e+02 4.33189189469091e-08 1.45819413129682e-09
1.25591250000000e+02 3.97367323521805e-08 1.34179781941705e-09
1.26373750000000e+02 3.64507687729703e-08 1.23466855472640e-09
1.27156250000000e+02 3.34365325353090e-08 1.13607072046768e-09
1.27938750000000e+02 3.06715535946067e-08 1.04532689135153e-09
1.28721250000000e+02 2.81352200295711e-08 9.61813248972276e-10
1.29503750000000e+02 2.58086243877641e-08 8.84955356671424e-10
1.30286250000000e+02 2.36744227373595e-08 8.14224265831580e-10
1.31068750000000e+02 2.17167053743836e-08 7.49132927751498e-10
1.31851250000000e+02 1.99208782216070e-08 6.89232887255021e-10
1.32633750000000e+02 1.82735540349596e-08 6.34111236034738e-10
1.33416250000000e+02 1.67624526064519e-08 5.83387805437491e-10
1.34198750000000e+02 1.53763092196514e-08 5.36712579973754e-10
1.34981250000000e+02 1.41047906752818e-08 4.93763314286688e-10
1.35763750000000e+02 1.29384182609477e-08 4.54243337658464e-10
1.36546250000000e+02 1.18684970907504e-08 4.17879531369668e-10
1.37328750000000e+02 1.08870512880477e-08 3.84420465370417e-10
1.38111250000000e+02 9.98676452816888e-09 3.53634681776222e-10
1.38893750000000e+02 9.16092549785137e-09 3.25309113674647e-10
1.39676250000000e+02 8.40337786481995e-09 2.99247628626506e-10
1.40458750000000e+02 7.70847438454865e-09 2.75269687073557e-10
1.41241250000000e+02 7.07103480208858e-09 2.53209106628694e-10
1.42023750000000e+02 6.48630723513463e-09 2.32912923929448e-10
1.42806250000000e+02 5.94993275045584e-09 2.14240346385747e-10
1.43588750000000e+02 5.45791286961944e-09 1.97061786752557e-10
1.44371250000000e+02 5.00657976177551e-09 1.81257974011044e-10
1.45153750000000e+02 4.59256890130016e-09 1.66719134552036e-10
1.45936250000000e+02 4.21279398646981e-09 1.53344238125901e-10
1.46718750000000e+02 3.86442393219443e-09 1.41040303456763e-10
1.47501250000000e+02 3.54486176529868e-09 1.29721758818948e-10
1.48283750000000e+02 3.25172526502309e-09 1.19309853242375e-10
1.49066250000000e+02 2.98282920442698e-09 1.09732114353649e-10
1.49848750000000e+02 2.73616906030937e-09 1.00921849173135e-10
1.50631250000000e+02 2.50990607021112e-09 9.28176844773095e-11
1.51413750000000e+02 2.30235352510358e-09 8.53631436021713e-11
1.52196250000000e+02 2.11196419558083e-09 7.85062568090793e-11
1.52978750000000e+02 1.93731879782221e-09 7.21992025608432e-11
1.53761250000000e+02 1.77711541334302e-09 6.63979772645600e-11
1.54543750000000e+02 1.63015978366157e-09 6.10620912300676e-11
1.55326250000000e+02 1.49535640753265e-09 5.61542887701651e-11
1.56108750000000e+02 1.37170037438071e-09 5.16402905321553e-11
1.56891250000000e+02 1.25826987305373e-09 4.74885563008437e-11
1.57673750000000e+02 1.15421932005336e-09 4.36700666518986e-11
1.58456250000000e+02 1.05877305601480e-09 4.01581219623569e-11
1.59238750000000e+02 9.71219563445781e-10 3.69281574028969e-11
1.60021250000000e+02 8.90906162620208e-10 3.39575726450787e-11
1.60803750000000e+02 8.17234146086034e-10 3.12255751167944e-11
1.61586250000000e+02 7.49654315517045e-10 2.87130357313558e-11
1.62368750000000e+02 6.87662887637306e-10 2.64023561005667e-11
1.63151250000000e+02 6.30797738698438e-10 2.42773463203744e-11
1.63933750000000e+02 5.78634959513665e-10 2.23231124897745e-11
1.64716250000000e+02 5.30785695367633e-10 2.05259531900502e-11
1.65498750000000e+02 4.86893247244679e-10 1.88732642125983e-11
1.66281250000000e+02 4.46630412766252e-10 1.73534508799410e-11
1.67063750000000e+02 4.09697047015130e-10 1.59558473564329e-11
1.67846250000000e+02 3.75817825063257e-10 1.46706423929786e-11
1.68628750000000e+02 3.44740189523653e-10 1.34888109941158e-11
1.69411250000000e+02 3.16232467826135e-10 1.24020515363779e-11
1.70193750000000e+02 2.90082145181817e-10 1.14027279042065e-11
1.70976250000000e+02 2.66094280361968e-10 1.04838162440895e-11
1.71758750000000e+02 2.44090052481424e-10 9.63885596928423e-12
1.72541250000000e+02 2.23905427953347e-10 8.86190467666697e-12
1.73323750000000e+02 2.05389937677967e-10 8.14749666412016e-12
1.74106250000000e+02 1.88405555349685e-10 7.49060476161516e-12
1.74888750000000e+02 1.72825668520718e-10 6.88660521193521e-12
1.75671250000000e+02 1.58534134750942e-10 6.33124535796514e-12
1.76453750000000e+02 1.45424415807869e-10 5.82061391279599e-12
1.77236250000000e+02 1.33398783462527e-10 5.35111360668183e-12
1.78018750000000e+02 1.22367590960742e-10 4.91943602126628e-12
1.78801250000000e+02 1.12248604738902e-10 4.52253843657762e-12
1.79583750000000e+02 1.02966391402380e-10 4.15762253017619e-12
1.80366250000000e+02 9.44517553967763e-11 3.82211478062208e-12
1.81148750000000e+02 8.66412231799961e-11 3.51364843919976e-12
1.81931250000000e+02 7.94765700498787e-11 3.23004694467176e-12
1.82713750000000e+02 7.29043861000297e-11 2.96930866580808e-12
1.83496250000000e+02 6.68756780682222e-11 2.72959286562056e-12
1.84278750000000e+02 6.13455041092880e-11 2.50920678968429e-12
1.85061250000000e+02 5.62726387698624e-11 2.30659378870945e-12
1.85843750000000e+02 5.16192656674897e-11 2.12032239268954e-12
1.86626250000000e+02 4.73506955831245e-11 1.94907626054517e-12
1.87408750000000e+02 4.34351078655079e-11 1.79164493525139e-12
1.88191250000000e+02 3.98433132196834e-11 1.64691534002226e-12
1.88973750000000e+02 3.65485361113246e-11 1.51386395626806e-12
1.89756250000000e+02 3.35262151647793e-11 1.39154962877254e-12
1.90538750000000e+02 3.07538200668672e-11 1.27910694789316e-12
1.91321250000000e+02 2.82106836115173e-11 1.17574016259557e-12
1.92103750000000e+02 2.58778476331966e-11 1.08071758182336e-12
1.92886250000000e+02 2.37379216806197e-11 9.93366425098616e-13
1.93668750000000e+02 2.17749533772036e-11 9.13068086374394e-13
1.94451250000000e+02 1.99743095018507e-11 8.39253778035057e-13
1.95233750000000e+02 1.83225669035605e-11 7.71400524587305e-13
1.96016250000000e+02 1.68074124366775e-11 7.09027478019676e-13
1.96798750000000e+02 1.54175511708289e-11 6.51692529049425e-13
1.97581250000000e+02 1.41426221912906e-11 5.98989190537860e-13
1.98363750000000e+02 1.29731213621023e-11 5.50543731252811e-13
1.99146250000000e+02 1.19003304761601e-11 5.06012539903040e-13
1.99928750000000e+02 1.09162522641256e-11 4.65079700976167e-13
2.00711250000000e+02 1.00135507776654e-11 4.27454765389991e-13
2.01493750000000e+02 9.18549670260063e-12 3.92870700327496e-13
2.02276250000000e+02 8.42591719429603e-12 3.61082003877385e-13
2.03058750000000e+02 7.72914986132790e-12 3.31862971253635e-13
2.03841250000000e+02 7.09000055439735e-12 3.05006100427120e-13
2.04623750000000e+02 6.50370464581967e-12 2.80320625977184e-13
2.05406250000000e+02 5.96589151094244e-12 2.57631170867980e-13
2.06188750000000e+02 5.47255194671427e-12 2.36776506679553e-13
2.06971250000000e+02 5.02000828452127e-12 2.17608413582804e-13
2.07753750000000e+02 4.60488697449324e-12 1.99990632045909e-13
2.08536250000000e+02 4.22409343690549e-12 1.83797898902313e-13
2.09318750000000e+02 3.87478899320253e-12 1.68915061001494e-13
2.10101250000000e+02 3.55436970467265e-12 1.55236260207525e-13
2.10883750000000e+02 3.26044696102356e-12 1.42664184010675e-13
2.11666250000000e+02 2.99082967415366e-12 1.31109376477489e-13
2.12448750000000e+02 2.74350794438011e-12 1.20489604688121e-13
2.13231250000000e+02 2.51663807736116e-12 1.10729276199102e-13
2.14013750000000e+02 2.30852884001949e-12 1.01758903427909e-13
2.14796250000000e+02 2.11762885300925e-12 9.35146111852676e-14
2.15578750000000e+02 1.94251502574230e-12 8.59376838841399e-14
2.16361250000000e+02 1.78188194776080e-12 7.89741492331953e-14
2.17143750000000e+02 1.63453215737289e-12 7.25743954789750e-14
2.17926250000000e+02 1.49936721500741e-12 6.66928194968496e-14
2.18708750000000e+02 1.37537951474282e-12 6.12875032478108e-14
2.19491250000000e+02 1.26164477296835e-12 5.63199163176997e-14
2.20273750000000e+02 1.15731513818278e-12 5.17546424390084e-14
2.21056250000000e+02 1.06161287056720e-12 4.75591280642009e-14
2.21838750000000e+02 9.73824544214962e-13 4.37034512147658e-14
2.22621250000000e+02 8.93295728798771e-13 4.01601089730070e-14
2.23403750000000e+02 8.19426111028458e-13 3.69038221149150e-14
2.24186250000000e+02 7.51665019531824e-13 3.39113555032489e-14
2.24968750000000e+02 6.89507319798058e-13 3.11613529710422e-14
2.25751250000000e+02 6.32489648582048e-13 2.86341855279169e-14
2.26533750000000e+02 5.80186959698421e-13 2.63118118155410e-14
2.27316250000000e+02 5.32209355455453e-13 2.41776498249753e-14
2.28098750000000e+02 4.88199180108321e-13 2.22164589681184e-14
2.28881250000000e+02 4.47828353664456e-13 2.04142316685370e-14
2.29663750000000e+02 4.10795926165462e-13 1.87580937041705e-14
2.30446250000000e+02 3.76825834213663e-13 1.72362125962017e-14
2.31228750000000e+02 3.45664843018985e-13 1.58377133952150e-14
2.32011250000000e+02 3.17080658624884e-13 1.45526012680258e-14
2.32793750000000e+02 2.90860196240635e-13 1.33716903366225e-14
2.33576250000000e+02 2.66807991771029e-13 1.22865382648564e-14
2.34358750000000e+02 2.44744744702006e-13 1.12893861291487e-14
2.35141250000000e+02 2.24505981479953e-13 1.03731031468551e-14
2.35923750000000e+02 2.05940829420652e-13 9.53113587028624e-15
2.36706250000000e+02 1.88910892007808e-13 8.75746148597869e-15
2.37488750000000e+02 1.73289217196902e-13 8.04654488786266e-15
2.38271250000000e+02 1.58959351033470e-13 7.39329921968581e-15
2.39053750000000e+02 1.45814469530847e-13 6.79304960661536e-15
2.39836250000000e+02 1.33756582335854e-13 6.24149981852490e-15
2.40618750000000e+02 1.22695802246041e-13 5.73470162823830e-15
2.41401250000000e+02 1.12549675132991e-13 5.26902664709641e-15
2.42183750000000e+02 1.03242565276520e-13 4.84114043776739e-15
2.42966250000000e+02 9.47050915276430e-14 4.44797872036259e-15
2.43748750000000e+02 8.68736100971241e-14 4.08672550276014e-15
2.44531250000000e+02 7.96897401139651e-14 3.75479297968320e-15
2.45313750000000e+02 7.30999284170593e-14 3.44980305762447e-15
2.46096250000000e+02 6.70550503356801e-14 3.16957037424264e-15
2.46878750000000e+02 6.15100434827686e-14 2.91208669146020e-15
