Energy (eV)          EEDF (eV^-(3/2))     First Anisotropy
2.89285714285714e-02 1.10715602849243e-01 7.82497908527921e-05
8.67857142857143e-02 1.09355608710683e-01 1.28852218742345e-04
1.44642857142857e-01 1.08012320290078e-01 1.69147364407236e-04
2.02500000000000e-01 1.06685532384729e-01 1.99186605340493e-04
2.60357142857143e-01 1.05375042313048e-01 2.23769743765706e-04
3.18214285714286e-01 1.04080649870479e-01 2.44726419355171e-04
3.76071428571429e-01 1.02802157319314e-01 2.63010849645735e-04
4.33928571428571e-01 1.01539369350680e-01 2.79203624275390e-04
4.91785714285714e-01 1.00292093054681e-01 2.93692663784766e-04
5.49642857142857e-01 9.90601378911316e-02 3.06754149290257e-04
6.07500000000000e-01 9.78433156603423e-02 3.18593997138291e-04
6.65357142857143e-01 9.66414404762800e-02 3.29371232112766e-04
7.23214285714286e-01 9.54543287323198e-02 3.39212120365155e-04
7.81071428571429e-01 9.42817990792558e-02 3.48219194629956e-04
8.38928571428571e-01 9.31236723955065e-02 3.56477275381869e-04
8.96785714285714e-01 9.19797717597349e-02 3.64057633275796e-04
9.54642857142857e-01 9.08499224238660e-02 3.71020954339702e-04
1.01250000000000e+00 8.97339517863667e-02 3.77419506332536e-04
1.07035714285714e+00 8.86316893679394e-02 3.83298756959299e-04
1.12821428571429e+00 8.75429667819825e-02 3.88698606259833e-04
1.18607142857143e+00 8.64676177002718e-02 3.93654336785762e-04
1.24392857142857e+00 8.54054778565598e-02 3.98197363932813e-04
1.30178571428571e+00 8.43563849924251e-02 4.02355834200857e-04
1.35964285714286e+00 8.33201788351396e-02 4.06155100195354e-04
1.41750000000000e+00 8.22967010966216e-02 4.09618113746946e-04
1.47535714285714e+00 8.12857954248482e-02 4.12765748532223e-04
1.53321428571429e+00 8.02873073884191e-02 4.15617064678591e-04
1.59107142857143e+00 7.93010844468345e-02 4.18189530320150e-04
1.64892857142857e+00 7.83269759460945e-02 4.20499210560754e-04
1.70678571428571e+00 7.73648330761277e-02 4.22560928509212e-04
1.76464285714286e+00 7.64145088495158e-02 4.24388397292717e-04
1.82250000000000e+00 7.54758580955007e-02 4.25994338691282e-04
1.88035714285714e+00 7.45487374208021e-02 4.27390585109218e-04
1.93821428571429e+00 7.36330051935564e-02 4.28588165675799e-04
1.99607142857143e+00 7.27285215172019e-02 4.29597381586322e-04
2.05392857142857e+00 7.18351482228726e-02 4.30427874051771e-04
2.11178571428571e+00 7.09527488341254e-02 4.31088684681938e-04
2.16964285714286e+00 7.00811885470007e-02 4.31588304299505e-04
2.22750000000000e+00 6.92203342216593e-02 4.31934720624732e-04
2.28535714285714e+00 6.83700543494694e-02 4.32135460297682e-04
2.34321428571429e+00 6.75302190372189e-02 4.32197624394371e-04
2.40107142857143e+00 6.67006999838589e-02 4.32127920440394e-04
2.45892857142857e+00 6.58813704713711e-02 4.31932692817856e-04
2.51678571428571e+00 6.50721053346758e-02 4.31617950653066e-04
2.57464285714286e+00 6.42727809431241e-02 4.31189389193993e-04
2.63250000000000e+00 6.34832751910383e-02 4.30652412904484e-04
2.69035714285714e+00 6.27034674693976e-02 4.30012156076810e-04
2.74821428571429e+00 6.19332386507097e-02 4.29273499898403e-04
2.80607142857143e+00 6.11724710681329e-02 4.28441088188335e-04
2.86392857142857e+00 6.04210485057002e-02 4.27519343192213e-04
2.92178571428571e+00 5.96788561721782e-02 4.26512480462655e-04
2.97964285714286e+00 5.89457806839681e-02 4.25424519258480e-04
3.03750000000000e+00 5.82217100552386e-02 4.24259295303502e-04
3.09535714285714e+00 5.75065336731968e-02 4.23020472227609e-04
3.15321428571429e+00 5.68001422837853e-02 4.21711550675833e-04
3.21107142857143e+00 5.61024279728448e-02 4.20335876870169e-04
3.26892857142857e+00 5.54132841561906e-02 4.18896651752207e-04
3.32678571428571e+00 5.47326055566308e-02 4.17396939809820e-04
3.38464285714286e+00 5.40602881882058e-02 4.15839674466558e-04
3.44250000000000e+00 5.33962293463124e-02 4.14227665853035e-04
3.50035714285714e+00 5.27403275858809e-02 4.12563607769099e-04
3.55821428571429e+00 5.20924827079618e-02 4.10850082925265e-04
3.61607142857143e+00 5.14525957426715e-02 4.09089567956762e-04
3.67392857142857e+00 5.08205689394103e-02 4.07284439165962e-04
3.73178571428571e+00 5.01963057464877e-02 4.05436978195634e-04
3.78964285714286e+00 4.95797107966179e-02 4.03549374908987e-04
3.84750000000000e+00 4.89706898972673e-02 4.01623732488767e-04
3.90535714285714e+00 4.83691500112544e-02 3.99662071983313e-04
3.96321428571429e+00 4.77749992442375e-02 3.97666335493240e-04
4.02107142857143e+00 4.71881468292350e-02 3.95638389272870e-04
4.07892857142857e+00 4.66085031171575e-02 3.93580027572152e-04
4.13678571428571e+00 4.60359795586335e-02 3.91492976516347e-04
4.19464285714286e+00 4.54704886906731e-02 3.89378895641880e-04
4.25250000000000e+00 4.49119441273759e-02 3.87239381440680e-04
4.31035714285714e+00 4.43602605425910e-02 3.85075970496436e-04
4.36821428571429e+00 4.38153536582874e-02 3.82890141502404e-04
4.42607142857143e+00 4.32771402304777e-02 3.80683317260430e-04
4.48392857142857e+00 4.27455380401635e-02 3.78456867381991e-04
4.54178571428571e+00 4.22204658770489e-02 3.76212111073240e-04
4.59964285714286e+00 4.17018435272865e-02 3.73950317915359e-04
4.65750000000000e+00 4.11895917646236e-02 3.71672710442057e-04
4.71535714285714e+00 4.06836323348398e-02 3.69380466399368e-04
4.77321428571429e+00 4.01838879449650e-02 3.67074720061793e-04
4.83107142857143e+00 3.96902822504621e-02 3.64756563561354e-04
4.88892857142857e+00 3.92027398466395e-02 3.62427048862810e-04
4.94678571428571e+00 3.87211862540051e-02 3.60087189840830e-04
5.00464285714286e+00 3.82455479070106e-02 3.57737962621686e-04
5.06250000000000e+00 3.77757521456777e-02 3.55380307525640e-04
5.12035714285714e+00 3.73117272015862e-02 3.53015130752712e-04
5.17821428571429e+00 3.68534021878963e-02 3.50643305259198e-04
5.23607142857143e+00 3.64007070876657e-02 3.48265671661847e-04
5.29392857142857e+00 3.59535727457537e-02 3.45883039728525e-04
5.35178571428571e+00 3.55119308556145e-02 3.43496189975171e-04
5.40964285714286e+00 3.50757139489617e-02 3.41105873747988e-04
5.46750000000000e+00 3.46448553878905e-02 3.38712814729303e-04
5.52535714285714e+00 3.42192893522295e-02 3.36317710230525e-04
5.58321428571429e+00 3.37989508303217e-02 3.33921231783629e-04
5.64107142857143e+00 3.33837756083651e-02 3.31524025766494e-04
5.69892857142857e+00 3.29737002628166e-02 3.29126714556758e-04
5.75678571428571e+00 3.25686621484553e-02 3.26729897789734e-04
5.81464285714286e+00 3.21685993888947e-02 3.24334152286352e-04
5.87250000000000e+00 3.17734508692013e-02 3.21940033247318e-04
5.93035714285714e+00 3.13831562244548e-02 3.19548075267409e-04
5.98821428571429e+00 3.09976558312387e-02 3.17158792736913e-04
6.04607142857143e+00 3.06168907979087e-02 3.14772680278701e-04
6.10392857142857e+00 3.02408029574900e-02 3.12390213659969e-04
6.16178571428571e+00 2.98693348568693e-02 3.10011850802598e-04
6.21964285714286e+00 2.95024297480863e-02 3.07638031620580e-04
6.27750000000000e+00 2.91400315814394e-02 3.05269178984429e-04
6.33535714285714e+00 2.87820849951221e-02 3.02905699531600e-04
6.39321428571429e+00 2.84285353073744e-02 3.00547983938371e-04
6.45107142857143e+00 2.80793285075944e-02 2.98196407226835e-04
6.50892857142857e+00 2.77344112497142e-02 2.95851329497578e-04
6.56678571428571e+00 2.73937308424004e-02 2.93513096754075e-04
6.62464285714286e+00 2.70572352410608e-02 2.91182040689105e-04
6.68250000000000e+00 2.67248730414222e-02 2.88858479475250e-04
6.74035714285714e+00 2.63965934701276e-02 2.86542718422122e-04
6.79821428571429e+00 2.60723463775032e-02 2.84235050158404e-04
6.85607142857143e+00 2.57520822294364e-02 2.81935754847333e-04
6.91392857142857e+00 2.54357521012113e-02 2.79645100783594e-04
6.97178571428571e+00 2.51233076686121e-02 2.77363345074722e-04
7.02964285714286e+00 2.48147012005882e-02 2.75090733401359e-04
7.08750000000000e+00 2.45098855532828e-02 2.72827500672985e-04
7.14535714285714e+00 2.42088141614922e-02 2.70573871567615e-04
7.20321428571429e+00 2.39114410320047e-02 2.68330060650669e-04
7.26107142857143e+00 2.36177207361745e-02 2.66096272524995e-04
7.31892857142857e+00 2.33276084041971e-02 2.63872702322805e-04
7.37678571428571e+00 2.30410597170222e-02 2.61659536274846e-04
7.43464285714286e+00 2.27580308996247e-02 2.59456951460174e-04
7.49250000000000e+00 2.24784787154612e-02 2.57265116355596e-04
7.55035714285714e+00 2.22023604587048e-02 2.55084191283352e-04
7.60821428571429e+00 2.19296339481133e-02 2.52914328485139e-04
7.66607142857143e+00 2.16602575202380e-02 2.50755672224875e-04
7.72392857142857e+00 2.13941900241141e-02 2.48608359197952e-04
7.78178571428571e+00 2.11313908139045e-02 2.46472519010809e-04
7.83964285714286e+00 2.08718197427256e-02 2.44348273930238e-04
7.89750000000000e+00 2.06154371575088e-02 2.42235739347571e-04
7.95535714285714e+00 2.03622038919346e-02 2.40135024153206e-04
8.01321428571429e+00 2.01120812607898e-02 2.38046230778603e-04
8.07107142857143e+00 1.98650310537556e-02 2.35969455264574e-04
8.12892857142857e+00 1.96210155304886e-02 2.33904787604432e-04
8.18678571428571e+00 1.93799974139251e-02 2.31852312151090e-04
8.24464285714286e+00 1.91419398846151e-02 2.29812107372108e-04
8.30250000000000e+00 1.89068065759658e-02 2.27784246244530e-04
8.36035714285714e+00 1.86745615678066e-02 2.25768796570512e-04
8.41821428571428e+00 1.84451693811984e-02 2.23765820996357e-04
8.47607142857143e+00 1.82185949727501e-02 2.21775377055505e-04
8.53392857142857e+00 1.79948037300667e-02 2.19797517458215e-04
8.59178571428571e+00 1.77737614656496e-02 2.17832290439202e-04
8.64964285714286e+00 1.75554344116990e-02 2.15879739522294e-04
8.70750000000000e+00 1.73397892157133e-02 2.13939903858230e-04
8.76535714285714e+00 1.71267929346262e-02 2.12012818492229e-04
8.82321428571429e+00 1.69164130300332e-02 2.10098514366642e-04
8.88107142857143e+00 1.67086173629902e-02 2.08197018345319e-04
8.93892857142857e+00 1.65033741898049e-02 2.06308353459518e-04
8.99678571428571e+00 1.63006521564772e-02 2.04432539206322e-04
9.05464285714286e+00 1.61004202939311e-02 2.02569591325105e-04
9.11250000000000e+00 1.59026480139470e-02 2.00719522087963e-04
9.17035714285714e+00 1.57073051038173e-02 1.98882340527688e-04
9.22821428571429e+00 1.55143617219574e-02 1.97058052428773e-04
9.28607142857143e+00 1.53237883931439e-02 1.95246660338097e-04
9.34392857142857e+00 1.51355560046283e-02 1.93448163774673e-04
9.40178571428571e+00 1.49496358010654e-02 1.91662559486926e-04
9.45964285714286e+00 1.47659993801395e-02 1.89889841242140e-04
9.51750000000000e+00 1.45846186888084e-02 1.88130000077179e-04
9.57535714285714e+00 1.44054660184278e-02 1.86383024493603e-04
9.63321428571428e+00 1.42285140007171e-02 1.84648900440496e-04
9.69107142857143e+00 1.40537356034008e-02 1.82927611315092e-04
9.74892857142857e+00 1.38811041266193e-02 1.81219138142439e-04
9.80678571428571e+00 1.37105931983031e-02 1.79523459798051e-04
9.86464285714286e+00 1.35421767701597e-02 1.77840552810750e-04
9.92250000000000e+00 1.33758291142071e-02 1.76170391579884e-04
9.98035714285714e+00 1.32115248183246e-02 1.74512948501030e-04
1.00382142857143e+01 1.30492387827052e-02 1.72868194278021e-04
1.00960714285714e+01 1.28889462145921e-02 1.71236097037713e-04
1.01539285714286e+01 1.27306226284672e-02 1.69616623155934e-04
1.02117857142857e+01 1.25742438379722e-02 1.68009738363168e-04
1.02696428571429e+01 1.24197859523664e-02 1.66415405445550e-04
1.03275000000000e+01 1.22672253773764e-02 1.64833585937583e-04
1.03853571428571e+01 1.21165388056016e-02 1.63264239839551e-04
1.04432142857143e+01 1.19677032188441e-02 1.61707325594112e-04
1.05010714285714e+01 1.18206958787997e-02 1.60162800228069e-04
1.05589285714286e+01 1.16754943292809e-02 1.58630618965895e-04
1.06167857142857e+01 1.15320763885236e-02 1.57110736818825e-04
1.06746428571429e+01 1.13904201459317e-02 1.55603106391763e-04
1.07325000000000e+01 1.12505039626992e-02 1.54107679400333e-04
1.07903571428571e+01 1.11123064632199e-02 1.52624406411517e-04
1.08482142857143e+01 1.09758065370197e-02 1.51153236817776e-04
1.09060714285714e+01 1.08409833304196e-02 1.49694118959601e-04
1.09639285714286e+01 1.07078162483776e-02 1.48246999773100e-04
1.10217857142857e+01 1.05762849475810e-02 1.46811826215437e-04
1.10796428571429e+01 1.04463693334533e-02 1.45388543286669e-04
1.11375000000000e+01 1.03180495605927e-02 1.43977095390701e-04
1.11953571428571e+01 1.01913060250703e-02 1.42577426097543e-04
1.12532142857143e+01 1.00661193660293e-02 1.41189478116015e-04
1.13110714285714e+01 9.94247045820837e-03 1.39813193399873e-04
1.13689285714286e+01 9.82034041346490e-03 1.38448512826651e-04
1.14267857142857e+01 9.69971057456383e-03 1.37095377477456e-04
1.14846428571429e+01 9.58056251242824e-03 1.35753726851725e-04
1.15425000000000e+01 9.46287802642753e-03 1.34423500089310e-04
1.16003571428571e+01 9.34663913746542e-03 1.33104635752702e-04
1.16582142857143e+01 9.23182808929815e-03 1.31797071799089e-04
1.17160714285714e+01 9.11842734182286e-03 1.30500745672480e-04
1.17739285714286e+01 9.00641957233257e-03 1.29215594011061e-04
1.18317857142857e+01 8.89578766992582e-03 1.27941553797241e-04
1.18896428571429e+01 8.78651473298109e-03 1.26678560745714e-04
1.19475000000000e+01 8.67858406932405e-03 1.25426550401693e-04
1.20053571428571e+01 8.57197919001763e-03 1.24185457941611e-04
1.20632142857143e+01 8.46668381044435e-03 1.22955218145111e-04
1.21210714285714e+01 8.36268184427505e-03 1.21735765475123e-04
1.21789285714286e+01 8.25995740449826e-03 1.20527033811282e-04
1.22367857142857e+01 8.15849479838411e-03 1.19328957484146e-04
1.22946428571429e+01 8.05827852516455e-03 1.18141469819054e-04
1.23525000000000e+01 7.95929327610365e-03 1.16964504123829e-04
1.24103571428571e+01 7.86152392891295e-03 1.15797993506478e-04
1.24682142857143e+01 7.76495554863565e-03 1.14641870847503e-04
1.25260714285714e+01 7.66957338222160e-03 1.13496068869633e-04
1.25839285714286e+01 7.57536285936701e-03 1.12360519895015e-04
1.26417857142857e+01 7.48230958797385e-03 1.11235156775909e-04
1.26996428571429e+01 7.39039935201925e-03 1.10119911578704e-04
1.27575000000000e+01 7.29961811154863e-03 1.09014716472823e-04
1.28153571428571e+01 7.20995199764901e-03 1.07919503564023e-04
1.28732142857143e+01 7.12138731316664e-03 1.06834204867379e-04
1.29310714285714e+01 7.03391052782304e-03 1.05758752368046e-04
1.29889285714286e+01 6.94750827889552e-03 1.04693077800122e-04
1.30467857142857e+01 6.86216736711992e-03 1.03637113484741e-04
1.31046428571429e+01 6.77787475473407e-03 1.02590791140225e-04
1.31625000000000e+01 6.69461756541008e-03 1.01554042682595e-04
1.32203571428571e+01 6.61238307972599e-03 1.00526800073196e-04
1.32782142857143e+01 6.53115873574382e-03 9.95089952925327e-05
1.33360714285714e+01 6.45093212460898e-03 9.85005603933001e-05
1.33939285714286e+01 6.37169099109722e-03 9.75014272989726e-05
1.34517857142857e+01 6.29342322991479e-03 9.65115285589553e-05
1.35096428571429e+01 6.21611688390174e-03 9.55307962723568e-05
1.35675000000000e+01 6.13976014391703e-03 9.45591628093101e-05
1.36253571428571e+01 6.06434134475589e-03 9.35965606717252e-05
1.36832142857143e+01 5.98984896561084e-03 9.26429224681391e-05
1.37410714285714e+01 5.91627162610366e-03 9.16981809600213e-05
1.37989285714286e+01 5.84359808672049e-03 9.07622688783377e-05
1.38567857142857e+01 5.77181724546835e-03 8.98351196043489e-05
1.39146428571429e+01 5.70091813622561e-03 8.89166661957613e-05
1.39725000000000e+01 5.63088992859080e-03 8.80068420370584e-05
1.40303571428571e+01 5.56172192419929e-03 8.71055807122718e-05
1.40882142857143e+01 5.49340355708638e-03 8.62128159809288e-05
1.41460714285714e+01 5.42592439010667e-03 8.53284818185284e-05
1.42039285714286e+01 5.35927411527569e-03 8.44525122494606e-05
1.42617857142857e+01 5.29344255074650e-03 8.35848419610887e-05
1.43196428571429e+01 5.22841963929528e-03 8.27254054222197e-05
1.43775000000000e+01 5.16419544814320e-03 8.18741374697269e-05
1.44353571428571e+01 5.10076016563098e-03 8.10309731923121e-05
1.44932142857143e+01 5.03810410150020e-03 8.01958479076182e-05
1.45510714285714e+01 4.97621768366019e-03 7.93686971976248e-05
1.46089285714286e+01 4.91509145845155e-03 7.85494567564543e-05
1.46667857142857e+01 4.85471608791057e-03 7.77380629445408e-05
1.47246428571429e+01 4.79508234837904e-03 7.69344519903833e-05
1.47825000000000e+01 4.73618113030652e-03 7.61385605199659e-05
1.48403571428571e+01 4.67800343524623e-03 7.53503254505656e-05
1.48982142857143e+01 4.62054037606820e-03 7.45696839690459e-05
1.49560714285714e+01 4.56378317403816e-03 7.37965735628285e-05
1.50139285714286e+01 4.50772315901597e-03 7.30309318812498e-05
1.50717857142857e+01 4.45235176697914e-03 7.22726972358941e-05
1.51296428571429e+01 4.39766053874664e-03 7.15218078775125e-05
1.51875000000000e+01 4.34364111976786e-03 7.07782024740222e-05
1.52453571428571e+01 4.29028525740709e-03 7.00418200135042e-05
1.53032142857143e+01 4.23758480110010e-03 6.93125997836842e-05
1.53610714285714e+01 4.18553169971328e-03 6.85904813990474e-05
1.54189285714286e+01 4.13411800168824e-03 6.78754046745164e-05
1.54767857142857e+01 4.08333585279852e-03 6.71673100773725e-05
1.55346428571429e+01 4.03317749497824e-03 6.64661380720544e-05
1.55925000000000e+01 3.98363526610271e-03 6.57718295519091e-05
1.56503571428571e+01 3.93470159753233e-03 6.50843257505903e-05
1.57082142857143e+01 3.88636901422246e-03 6.44035682227126e-05
1.57660714285714e+01 3.83863013233462e-03 6.37294988675884e-05
1.58239285714286e+01 3.79147765933646e-03 6.30620598141321e-05
1.58817857142857e+01 3.74490439196885e-03 6.24011938292042e-05
1.59396428571429e+01 3.69890321517073e-03 6.17468437237419e-05
1.59975000000000e+01 3.65346710185536e-03 6.10989527428982e-05
1.60553571428571e+01 3.60858911068785e-03 6.04574644850910e-05
1.61132142857143e+01 3.56426238615638e-03 5.98223228838210e-05
1.61710714285714e+01 3.52048015641039e-03 5.91934722284583e-05
1.62289285714286e+01 3.47723573332378e-03 5.85708570593508e-05
1.62867857142857e+01 3.43452251065181e-03 5.79544225369426e-05
1.63446428571429e+01 3.39233396304431e-03 5.73441139033267e-05
1.64025000000000e+01 3.35066364582082e-03 5.67398768349132e-05
1.64603571428571e+01 3.30950519295846e-03 5.61416573684856e-05
1.65182142857143e+01 3.26885231713163e-03 5.55494018841320e-05
1.65760714285714e+01 3.22869880775448e-03 5.49630571234425e-05
1.66339285714286e+01 3.18903853101424e-03 5.43825700939145e-05
1.66917857142857e+01 3.14986542819930e-03 5.38078884027350e-05
1.67496428571429e+01 3.11117351479362e-03 5.32389597684376e-05
1.68075000000000e+01 3.07295688025337e-03 5.26757323398154e-05
1.68653571428571e+01 3.03520968618438e-03 5.21181546283764e-05
1.69232142857143e+01 2.99792616635613e-03 5.15661754923398e-05
1.69810714285714e+01 2.96110062492848e-03 5.10197441525734e-05
1.70389285714286e+01 2.92472743646064e-03 5.04788101054623e-05
1.70967857142857e+01 2.88880104439395e-03 4.99433234248312e-05
1.71546428571429e+01 2.85331596022082e-03 4.94132343189326e-05
1.72125000000000e+01 2.81826676326494e-03 4.88884934189283e-05
1.72703571428571e+01 2.78364809902968e-03 4.83690517171812e-05
1.73282142857143e+01 2.74945467919135e-03 4.78548605522781e-05
1.73860714285714e+01 2.71568127999216e-03 4.73458716229917e-05
1.74439285714286e+01 2.68232274222949e-03 4.68420369088447e-05
1.75017857142857e+01 2.64937396987863e-03 4.63433089433013e-05
1.75596428571429e+01 2.61682992933008e-03 4.58496404117792e-05
1.76175000000000e+01 2.58468564917491e-03 4.53609844126795e-05
1.76753571428571e+01 2.55293621870743e-03 4.48772944010136e-05
1.77332142857143e+01 2.52157678790193e-03 4.43985241744076e-05
1.77910714285714e+01 2.49060256595567e-03 4.39246278853213e-05
1.78489285714286e+01 2.46000882126245e-03 4.34555599686258e-05
1.79067857142857e+01 2.42979088016192e-03 4.29912753888734e-05
1.79646428571429e+01 2.39994412623965e-03 4.25317292754406e-05
1.80225000000000e+01 2.37046400011883e-03 4.20768771587942e-05
1.80803571428571e+01 2.34134599810232e-03 4.16266749189810e-05
1.81382142857143e+01 2.31258567213629e-03 4.11810787725707e-05
1.81960714285714e+01 2.28417862848871e-03 4.07400452833460e-05
1.82539285714286e+01 2.25612052771064e-03 4.03035312962618e-05
