Energy (eV)          EEDF (eV^-(3/2))     First Anisotropy
5.20454545454545e-04 2.32442208474299e+01 1.18020090475107e-02
1.56136363636364e-03 2.30626351497542e+01 1.94778293300870e-02
2.60227272727273e-03 2.28824680139766e+01 2.56847647378249e-02
3.64318181818182e-03 2.27037083581684e+01 3.03831074805422e-02
4.68409090909091e-03 2.25263451869808e+01 3.42874452375920e-02
5.72500000000000e-03 2.23503675909631e+01 3.76683260190012e-02
6.76590909090909e-03 2.21757647456658e+01 4.06659414491459e-02
7.80681818181818e-03 2.20025259116900e+01 4.33650568751787e-02
8.84772727272727e-03 2.18306404332602e+01 4.58219607831853e-02
9.88863636363636e-03 2.16600977378482e+01 4.80764862417407e-02
1.09295454545455e-02 2.14908873356452e+01 5.01581562565124e-02
1.19704545454545e-02 2.13229988184211e+01 5.20896383516316e-02
1.30113636363636e-02 2.11564218595122e+01 5.38888283972023e-02
1.40522727272727e-02 2.09911462129393e+01 5.55701781426339e-02
1.50931818181818e-02 2.08271617127614e+01 5.71455785964346e-02
1.61340909090909e-02 2.06644582724517e+01 5.86249692804314e-02
1.71750000000000e-02 2.05030258842777e+01 6.00167711063568e-02
1.82159090909091e-02 2.03428546194173e+01 6.13282020695501e-02
1.92568181818182e-02 2.01839346251093e+01 6.25655121812692e-02
2.02977272727273e-02 2.00262561263379e+01 6.37341618063089e-02
2.13386363636364e-02 1.98698094244489e+01 6.48389595685895e-02
2.23795454545455e-02 1.97145848965539e+01 6.58841702083543e-02
2.34204545454545e-02 1.95605729949383e+01 6.68736002435972e-02
2.44613636363636e-02 1.94077642464712e+01 6.78106667769797e-02
2.55022727272727e-02 1.92561492520296e+01 6.86984533592070e-02
2.65431818181818e-02 1.91057186859167e+01 6.95397557858264e-02
2.75840909090909e-02 1.89564632952881e+01 7.03371199738265e-02
2.86250000000000e-02 1.88083738995829e+01 7.10928735063572e-02
2.96659090909091e-02 1.86614413903648e+01 7.18091522755518e-02
3.07068181818182e-02 1.85156567295265e+01 7.24879228451232e-02
3.17477272727273e-02 1.83710109499886e+01 7.31310014772471e-02
3.27886363636364e-02 1.82274951547230e+01 7.37400706032828e-02
3.38295454545455e-02 1.80851005162055e+01 7.43166928674066e-02
3.48704545454545e-02 1.79438182758730e+01 7.48623233139754e-02
3.59113636363636e-02 1.78036397435836e+01 7.53783199851614e-02
3.69522727272727e-02 1.76645562970845e+01 7.58659531783847e-02
3.79931818181818e-02 1.75265593814808e+01 7.63264135673583e-02
3.90340909090909e-02 1.73896405087086e+01 7.67608193540548e-02
4.00750000000000e-02 1.72537912570135e+01 7.71702225626311e-02
4.11159090909091e-02 1.71190032706992e+01 7.75556147361057e-02
4.21568181818182e-02 1.69852682588029e+01 7.79179318703396e-02
4.31977272727273e-02 1.68525779954066e+01 7.82580588146601e-02
4.42386363636364e-02 1.67209243188536e+01 7.85768333548449e-02
4.52795454545454e-02 1.65902991312466e+01 7.88750497707152e-02
4.63204545454545e-02 1.64606943979498e+01 7.91534620677272e-02
4.73613636363636e-02 1.63321021470937e+01 7.94127868951191e-02
4.84022727272727e-02 1.62045144690861e+01 7.96537061879517e-02
4.94431818181818e-02 1.60779235161256e+01 7.98768695648742e-02
5.04840909090909e-02 1.59523215017180e+01 8.00828965087568e-02
5.15250000000000e-02 1.58277007001978e+01 8.02723783311419e-02
5.25659090909091e-02 1.57040534464438e+01 8.04458800584313e-02
5.36068181818182e-02 1.55813721348290e+01 8.06039420459679e-02
5.46477272727273e-02 1.54596492193377e+01 8.07470814543395e-02
5.56886363636364e-02 1.53388772129042e+01 8.08757937214140e-02
5.67295454545454e-02 1.52190486869524e+01 8.09905538263382e-02
5.77704545454545e-02 1.51001562709387e+01 8.10918174771956e-02
5.88113636363636e-02 1.49821926518984e+01 8.11800222075200e-02
5.98522727272727e-02 1.48651505739965e+01 8.12555883904689e-02
6.08931818181818e-02 1.47490228380813e+01 8.13189201782897e-02
6.19340909090909e-02 1.46338023012414e+01 8.13704063736053e-02
6.29750000000000e-02 1.45194818763661e+01 8.14104212194640e-02
6.40159090909091e-02 1.44060545318535e+01 8.14393252106900e-02
6.50568181818182e-02 1.42935132907429e+01 8.14574657556947e-02
6.60977272727273e-02 1.41818512307248e+01 8.14651777908817e-02
6.71386363636364e-02 1.40710614835675e+01 8.14627844511726e-02
6.81795454545455e-02 1.39611372346942e+01 8.14505976206726e-02
6.92204545454545e-02 1.38520717227641e+01 8.14289184669568e-02
7.02613636363636e-02 1.37438582392564e+01 8.13980379415849e-02
7.13022727272727e-02 1.36364901280579e+01 8.13582372496523e-02
7.23431818181818e-02 1.35299607850536e+01 8.13097882907609e-02
7.33840909090909e-02 1.34242636577204e+01 8.12529540734078e-02
7.44250000000000e-02 1.33193922447236e+01 8.11879890886038e-02
7.54659090909091e-02 1.32153400956294e+01 8.11151397264140e-02
7.65068181818182e-02 1.31121008101698e+01 8.10346445889745e-02
7.75477272727273e-02 1.30096680381902e+01 8.09467347836709e-02
7.85886363636364e-02 1.29080354791435e+01 8.08516342821628e-02
7.96295454545455e-02 1.28071968817034e+01 8.07495601949094e-02
8.06704545454545e-02 1.27071460433790e+01 8.06407230469832e-02
8.17113636363636e-02 1.26078768101339e+01 8.05253270390992e-02
8.27522727272727e-02 1.25093830760076e+01 8.04035702949778e-02
8.37931818181818e-02 1.24116587827397e+01 8.02756450959648e-02
8.48340909090909e-02 1.23146979193976e+01 8.01417381035874e-02
8.58750000000000e-02 1.22184945220063e+01 8.00020305569820e-02
8.69159090909091e-02 1.21230426732709e+01 7.98566985158516e-02
8.79568181818182e-02 1.20283365019436e+01 7.97059130232093e-02
8.89977272727273e-02 1.19343701827335e+01 7.95498402585195e-02
9.00386363636364e-02 1.18411379358576e+01 7.93886417539676e-02
9.10795454545454e-02 1.17486340266849e+01 7.92224745448508e-02
9.21204545454545e-02 1.16568527653837e+01 7.90514913268293e-02
9.31613636363636e-02 1.15657885065716e+01 7.88758406058676e-02
9.42022727272727e-02 1.14754356489686e+01 7.86956668414130e-02
9.52431818181818e-02 1.13857886350523e+01 7.85111105831962e-02
9.62840909090909e-02 1.12968419507159e+01 7.83223086019038e-02
9.73250000000000e-02 1.12085901249295e+01 7.81293940021413e-02
9.83659090909091e-02 1.11210277294751e+01 7.79324963782778e-02
9.94068181818182e-02 1.10341493783953e+01 7.77317419045730e-02
1.00447727272727e-01 1.09479497278815e+01 7.75272534432968e-02
1.01488636363636e-01 1.08624234757344e+01 7.73191506054031e-02
1.02529545454545e-01 1.07775653615193e+01 7.71075499091132e-02
1.03570454545455e-01 1.06933701656871e+01 7.68925649241838e-02
1.04611363636364e-01 1.06098327094641e+01 7.66743062684078e-02
1.05652272727273e-01 1.05269478545340e+01 7.64528817329336e-02
1.06693181818182e-01 1.04447105027218e+01 7.62283963680587e-02
1.07734090909091e-01 1.03631155956799e+01 7.60009525651803e-02
1.08775000000000e-01 1.02821581145769e+01 7.57706502397053e-02
1.09815909090909e-01 1.02018330791998e+01 7.55375865924986e-02
1.10856818181818e-01 1.01221355494309e+01 7.53018563940027e-02
1.11897727272727e-01 1.00430606231445e+01 7.50635522686819e-02
1.12938636363636e-01 9.96460343651091e+00 7.48227644393468e-02
1.13979545454545e-01 9.88675916369724e+00 7.45795809010698e-02
1.15020454545455e-01 9.80952301657030e+00 7.43340874841555e-02
1.16061363636364e-01 9.73289024440164e+00 7.40863679144879e-02
1.17102272727273e-01 9.65685613357662e+00 7.38365038719566e-02
1.18143181818182e-01 9.58141600730377e+00 7.35845750470711e-02
1.19184090909091e-01 9.50656522532713e+00 7.33306591952432e-02
1.20225000000000e-01 9.43229918364084e+00 7.30748322800178e-02
1.21265909090909e-01 9.35861331371676e+00 7.28171682494245e-02
1.22306818181818e-01 9.28550308370340e+00 7.25577392689543e-02
1.23347727272727e-01 9.21296399665460e+00 7.22966159559230e-02
1.24388636363636e-01 9.14099159075474e+00 7.20338671430285e-02
1.25429545454545e-01 9.06958143904428e+00 7.17695600174260e-02
1.26470454545455e-01 8.99872914914751e+00 7.15037601636224e-02
1.27511363636364e-01 8.92843036300184e+00 7.12365316046869e-02
1.28552272727273e-01 8.85868075659079e+00 7.09679368423399e-02
1.29593181818182e-01 8.78947603967744e+00 7.06980368959388e-02
1.30634090909091e-01 8.72081195554062e+00 7.04268913399424e-02
1.31675000000000e-01 8.65268428071301e+00 7.01545584198505e-02
1.32715909090909e-01 8.58508882431147e+00 6.98810948469863e-02
1.33756818181818e-01 8.51802142901907e+00 6.96065559938041e-02
1.34797727272727e-01 8.45147796957930e+00 6.93309960910896e-02
1.35838636363636e-01 8.38545435296255e+00 6.90544680126860e-02
1.36879545454545e-01 8.31994651811429e+00 6.87770233897533e-02
1.37920454545455e-01 8.25495043570531e+00 6.84987126410548e-02
1.38961363636364e-01 8.19046210788349e+00 6.82195850021365e-02
1.40002272727273e-01 8.12647756802870e+00 6.79396885537994e-02
1.41043181818182e-01 8.06299288050834e+00 6.76590702498685e-02
1.42084090909091e-01 8.00000414043534e+00 6.73777759439462e-02
1.43125000000000e-01 7.93750747342797e+00 6.70958504854778e-02
1.44165909090909e-01 7.87549903502538e+00 6.68133375334993e-02
1.45206818181818e-01 7.81397501149768e+00 6.65302797229102e-02
1.46247727272727e-01 7.75293161855643e+00 6.62467188328499e-02
1.47288636363636e-01 7.69236510147642e+00 6.59626955922389e-02
1.48329545454545e-01 7.63227173486465e+00 6.56782497754933e-02
1.49370454545455e-01 7.57264782243121e+00 6.53934202245536e-02
1.50411363636364e-01 7.51348969676165e+00 6.51082448701354e-02
1.51452272727273e-01 7.45479371909197e+00 6.48227607525175e-02
1.52493181818182e-01 7.39655627908449e+00 6.45370040419013e-02
1.53534090909091e-01 7.33877379460583e+00 6.42510100580396e-02
1.54575000000000e-01 7.28144271150651e+00 6.39648133511768e-02
1.55615909090909e-01 7.22455950310835e+00 6.36784475339853e-02
1.56656818181818e-01 7.16812067087647e+00 6.33919454247235e-02
1.57697727272727e-01 7.11212274330818e+00 6.31053391925203e-02
1.58738636363636e-01 7.05656227602050e+00 6.28186601824290e-02
1.59779545454545e-01 7.00143585153823e+00 6.25319389967526e-02
1.60820454545455e-01 6.94674007908381e+00 6.22452055114587e-02
1.61861363636364e-01 6.89247159436846e+00 6.19584888920212e-02
1.62902272727273e-01 6.83862705938577e+00 6.16718176089554e-02
1.63943181818182e-01 6.78520316220612e+00 6.13852194530747e-02
1.64984090909091e-01 6.73219661677294e+00 6.10987215502097e-02
1.66025000000000e-01 6.67960416270065e+00 6.08123504303073e-02
1.67065909090909e-01 6.62742256482285e+00 6.05261318762005e-02
1.68106818181818e-01 6.57564861375265e+00 6.02400910478885e-02
1.69147727272727e-01 6.52427912492018e+00 5.99542526089044e-02
1.70188636363636e-01 6.47331093863372e+00 5.96686405692375e-02
1.71229545454545e-01 6.42274091988529e+00 5.93832783551794e-02
1.72270454545455e-01 6.37256595815789e+00 5.90981888217857e-02
1.73311363636364e-01 6.32278296723393e+00 5.88133942649144e-02
1.74352272727273e-01 6.27338888500582e+00 5.85289164330648e-02
1.75393181818182e-01 6.22438067328741e+00 5.82447765390179e-02
1.76434090909091e-01 6.17575531762710e+00 5.79609952710756e-02
1.77475000000000e-01 6.12750982712246e+00 5.76775928526125e-02
1.78515909090909e-01 6.07964123402061e+00 5.73945889062065e-02
1.79556818181818e-01 6.03214659418733e+00 5.71120025622184e-02
1.80597727272727e-01 5.98502298626947e+00 5.68298525693676e-02
1.81638636363636e-01 5.93826751173573e+00 5.65481571538137e-02
1.82679545454545e-01 5.89187729469838e+00 5.62669340796412e-02
1.83720454545455e-01 5.84584948173636e+00 5.59862006584787e-02
1.84761363636364e-01 5.80018124171962e+00 5.57059737587889e-02
1.85802272727273e-01 5.75486976563531e+00 5.54262698150206e-02
1.86843181818182e-01 5.70991226641480e+00 5.51471048366352e-02
1.87884090909091e-01 5.66530597876227e+00 5.48684944168178e-02
1.88925000000000e-01 5.62104815898466e+00 5.45904537841828e-02
1.89965909090909e-01 5.57713608463697e+00 5.43129976807765e-02
1.91006818181818e-01 5.53356705491650e+00 5.40361404574199e-02
1.92047727272727e-01 5.49033838993093e+00 5.37598961709151e-02
1.93088636363636e-01 5.44744743072350e+00 5.34842784576594e-02
1.94129545454545e-01 5.40489153910942e+00 5.32093005863634e-02
1.95170454545455e-01 5.36266809751365e+00 5.29349754655577e-02
1.96211363636364e-01 5.32077450880971e+00 5.26613156508644e-02
1.97252272727273e-01 5.27920819616024e+00 5.23883333521737e-02
1.98293181818182e-01 5.23796660285832e+00 5.21160404407167e-02
1.99334090909091e-01 5.19704719217026e+00 5.18444484559049e-02
2.00375000000000e-01 5.15644744717954e+00 5.15735686504930e-02
2.01415909090909e-01 5.11616487047122e+00 5.13034118810351e-02
2.02456818181818e-01 5.07619698446411e+00 5.10339886919405e-02
2.03497727272727e-01 5.03654133076909e+00 5.07653094012767e-02
2.04538636363636e-01 4.99719547020218e+00 5.04973839873757e-02
2.05579545454545e-01 4.95815698263452e+00 5.02302221350090e-02
2.06620454545455e-01 4.91942346684347e+00 4.99638332413356e-02
2.07661363636364e-01 4.88099254036487e+00 4.96982264216416e-02
2.08702272727273e-01 4.84286183934665e+00 4.94334105150189e-02
2.09743181818182e-01 4.80502901840334e+00 4.91693940899781e-02
2.10784090909091e-01 4.76749175047186e+00 4.89061854498647e-02
2.11825000000000e-01 4.73024772666827e+00 4.86437926724906e-02
2.12865909090909e-01 4.69329465600635e+00 4.83822235117648e-02
2.13906818181818e-01 4.65663026567815e+00 4.81214854720354e-02
2.14947727272727e-01 4.62025230048965e+00 4.78615858840515e-02
2.15988636363636e-01 4.58415852286463e+00 4.76025318032029e-02
2.17029545454545e-01 4.54834671270695e+00 4.73443300501304e-02
2.18070454545455e-01 4.51281466726410e+00 4.70869872154703e-02
2.19111363636364e-01 4.47756020099152e+00 4.68305096644389e-02
2.20152272727273e-01 4.44258114541843e+00 4.65749035413573e-02
2.21193181818182e-01 4.40787534901428e+00 4.63201747741393e-02
2.22234090909091e-01 4.37344067705650e+00 4.60663290786192e-02
2.23275000000000e-01 4.33927501149913e+00 4.58133719934723e-02
2.24315909090909e-01 4.30537625072107e+00 4.55613087918332e-02
2.25356818181818e-01 4.27174230976381e+00 4.53101445472279e-02
2.26397727272727e-01 4.23837111983360e+00 4.50598842010092e-02
2.27438636363636e-01 4.20526062829829e+00 4.48105324709686e-02
2.28479545454545e-01 4.17240879856107e+00 4.45620938871998e-02
2.29520454545455e-01 4.13981360993518e+00 4.43145727958992e-02
2.30561363636364e-01 4.10747305751956e+00 4.40679733630393e-02
2.31602272727273e-01 4.07538515207568e+00 4.38222995780198e-02
2.32643181818182e-01 4.04354791990511e+00 4.35775552572774e-02
2.33684090909091e-01 4.01195940272811e+00 4.33337440477660e-02
2.34725000000000e-01 3.98061765756316e+00 4.30908694578117e-02
2.35765909090909e-01 3.94952075650152e+00 4.28489347776775e-02
2.36806818181818e-01 3.91866678690873e+00 4.26079431381750e-02
2.37847727272727e-01 3.88805385098464e+00 4.23678975706530e-02
2.38888636363636e-01 3.85768006575487e+00 4.21288009248893e-02
2.39929545454545e-01 3.82754356295499e+00 4.18906559008313e-02
2.40970454545455e-01 3.79764248891561e+00 4.16534650516734e-02
2.42011363636364e-01 3.76797500444828e+00 4.14172307868248e-02
2.43052272727273e-01 3.73853928473251e+00 4.11819553748524e-02
2.44093181818182e-01 3.70933351920347e+00 4.09476409464048e-02
2.45134090909091e-01 3.68035591144059e+00 4.07142894970295e-02
2.46175000000000e-01 3.65160467905709e+00 4.04819029145184e-02
2.47215909090909e-01 3.62307805349764e+00 4.02504829074611e-02
2.48256818181818e-01 3.59477428020958e+00 4.00200310574524e-02
2.49297727272727e-01 3.56669161825308e+00 3.97905488725653e-02
2.50338636363636e-01 3.53882834028868e+00 3.95620377135274e-02
2.51379545454545e-01 3.51118273247101e+00 3.93344988218892e-02
2.52420454545455e-01 3.48375309434343e+00 3.91079333225165e-02
2.53461363636364e-01 3.45653773873333e+00 3.88823422260012e-02
2.54502272727273e-01 3.42953499164851e+00 3.86577264310544e-02
2.55543181818182e-01 3.40274319217410e+00 3.84340867268790e-02
2.56584090909091e-01 3.37616069237047e+00 3.82114237954587e-02
2.57625000000000e-01 3.34978585717179e+00 3.79897382358441e-02
2.58665909090909e-01 3.32361706420424e+00 3.77690304998632e-02
2.59706818181818e-01 3.29765270393168e+00 3.75493009386995e-02
2.60747727272727e-01 3.27189117930949e+00 3.73305498506301e-02
2.61788636363636e-01 3.24633090576930e+00 3.71127774146197e-02
2.62829545454545e-01 3.22097031112152e+00 3.68959837153655e-02
2.63870454545455e-01 3.19580783545863e+00 3.66801687453246e-02
2.64911363636364e-01 3.17084193105919e+00 3.64653324066794e-02
2.65952272727273e-01 3.14607106229274e+00 3.62514745132863e-02
2.66993181818182e-01 3.12149370552527e+00 3.60385947926077e-02
2.68034090909091e-01 3.09710834902553e+00 3.58266928875783e-02
2.69075000000000e-01 3.07291349287206e+00 3.56157683782216e-02
2.70115909090909e-01 3.04890764878948e+00 3.54058207237558e-02
2.71156818181818e-01 3.02508934027261e+00 3.51968493042213e-02
2.72197727272727e-01 3.00145710227858e+00 3.49888534631660e-02
2.73238636363636e-01 2.97800948120955e+00 3.47818324478587e-02
2.74279545454545e-01 2.95474503482329e+00 3.45757854316038e-02
2.75320454545455e-01 2.93166233214452e+00 3.43707115153983e-02
2.76361363636364e-01 2.90875995337679e+00 3.41666097295341e-02
2.77402272727273e-01 2.88603648981525e+00 3.39634790351880e-02
2.78443181818182e-01 2.86349054375997e+00 3.37613183260002e-02
2.79484090909091e-01 2.84112072842999e+00 3.35601264295999e-02
2.80525000000000e-01 2.81892566787797e+00 3.33599021268718e-02
2.81565909090909e-01 2.79690399684274e+00 3.31606440998026e-02
2.82606818181818e-01 2.77505436085512e+00 3.29623509687276e-02
2.83647727272727e-01 2.75337541596351e+00 3.27650213305452e-02
2.84688636363636e-01 2.73186582871540e+00 3.25686537048585e-02
2.85729545454545e-01 2.71052427607532e+00 3.23732465538871e-02
2.86770454545455e-01 2.68934944534344e+00 3.21787982838325e-02
2.87811363636364e-01 2.66834003407483e+00 3.19853072461745e-02
2.88852272727273e-01 2.64749474999940e+00 3.17927717389754e-02
2.89893181818182e-01 2.62681231094237e+00 3.16011900081731e-02
2.90934090909091e-01 2.60629144474543e+00 3.14105602488233e-02
2.91975000000000e-01 2.58593088918844e+00 3.12208806223110e-02
2.93015909090909e-01 2.56572939185648e+00 3.10321492093267e-02
2.94056818181818e-01 2.54568571023000e+00 3.08443640432375e-02
2.95097727272727e-01 2.52579861144006e+00 3.06575231443393e-02
2.96138636363636e-01 2.50606687224901e+00 3.04716244713121e-02
2.97179545454545e-01 2.48648927897523e+00 3.02866659390168e-02
2.98220454545455e-01 2.46706462741845e+00 3.01026454196036e-02
2.99261363636364e-01 2.44779172278573e+00 2.99195607435780e-02
3.00302272727273e-01 2.42866937961794e+00 2.97374097008644e-02
3.01343181818182e-01 2.40969642171686e+00 2.95561900418704e-02
3.02384090909091e-01 2.39087168207285e+00 2.93758994784998e-02
3.03425000000000e-01 2.37219400279300e+00 2.91965356995315e-02
3.04465909090909e-01 2.35366223498110e+00 2.90180963282183e-02
3.05506818181818e-01 2.33527523881456e+00 2.88405789522063e-02
3.06547727272727e-01 2.31703188332567e+00 2.86639811542712e-02
3.07588636363636e-01 2.29893104638198e+00 2.84883004685396e-02
3.08629545454545e-01 2.28097161461720e+00 2.83135343964045e-02
3.09670454545454e-01 2.26315248336275e+00 2.81396804074404e-02
3.10711363636364e-01 2.24547255657980e+00 2.79667359402696e-02
3.11752272727273e-01 2.22793074679188e+00 2.77946984034343e-02
3.12793181818182e-01 2.21052597501798e+00 2.76235651762634e-02
3.13834090909091e-01 2.19325717070616e+00 2.74533336097023e-02
3.14875000000000e-01 2.17612327166774e+00 2.72840010400806e-02
3.15915909090909e-01 2.15912322396871e+00 2.71155647508445e-02
3.16956818181818e-01 2.14225598199541e+00 2.69480219994167e-02
3.17997727272727e-01 2.12552050825889e+00 2.67813700447966e-02
3.19038636363636e-01 2.10891577337514e+00 2.66156061080605e-02
3.20079545454545e-01 2.09244075600179e+00 2.64507273866168e-02
3.21120454545455e-01 2.07609444277526e+00 2.62867310549533e-02
3.22161363636364e-01 2.05987582824845e+00 2.61236142653437e-02
3.23202272727273e-01 2.04378391482890e+00 2.59613741485568e-02
3.24243181818182e-01 2.02781771271742e+00 2.58000078145702e-02
3.25284090909091e-01 2.01197623984723e+00 2.56395123532422e-02
3.26325000000000e-01 1.99625852182352e+00 2.54798848466527e-02
3.27365909090909e-01 1.98066359182526e+00 2.53211223345478e-02
3.28406818181818e-01 1.96519049066130e+00 2.51632218384738e-02
