Energy (eV)          EEDF (eV^-(3/2))     First Anisotropy
2.22222222222222e-03 6.14932425625631e-01 6.70757088545918e-08
6.66666666666667e-03 6.14932360031885e-01 2.11195030596985e-07
1.11111111111111e-02 6.14932186728024e-01 5.23962215879004e-07
1.55555555555556e-02 6.14931900214609e-01 9.12379682122982e-07
2.00000000000000e-02 6.14931508973575e-01 1.32825810747472e-06
2.44444444444444e-02 6.14931028679113e-01 1.75520865610463e-06
2.88888888888889e-02 6.14930465614676e-01 2.20126018657152e-06
3.33333333333333e-02 6.14929823121681e-01 2.66111049242096e-06
3.77777777777778e-02 6.14929106733526e-01 3.14096276905105e-06
4.22222222222222e-02 6.14928314186320e-01 3.66208866204381e-06
4.66666666666667e-02 6.14927439948136e-01 4.22939489718949e-06
5.11111111111111e-02 6.14926480097154e-01 4.82268128685706e-06
5.55555555555556e-02 6.14925438291755e-01 5.43362565792764e-06
6.00000000000000e-02 6.14924313529816e-01 6.07848397040809e-06
6.44444444444444e-02 6.14923102387883e-01 6.76429491566170e-06
6.88888888888889e-02 6.14921801265567e-01 7.48429651002572e-06
7.33333333333333e-02 6.14920409543494e-01 8.21169470913097e-06
7.77777777777778e-02 6.14918933279492e-01 8.95132178500126e-06
8.22222222222222e-02 6.14917369472673e-01 9.72842791494298e-06
8.66666666666667e-02 6.14915715122953e-01 1.05438874710015e-05
9.11111111111111e-02 6.14913967160582e-01 1.13980998510424e-05
9.55555555555556e-02 6.14912122661027e-01 1.22911575039937e-05
1.00000000000000e-01 6.14910178708635e-01 1.32020929000506e-05
1.04444444444444e-01 6.14908139095761e-01 1.41048295998593e-05
1.08888888888889e-01 6.14906008671366e-01 1.50137898624373e-05
1.13333333333333e-01 6.14903786226996e-01 1.59483492327505e-05
1.17777777777778e-01 6.14901470528680e-01 1.69086760538931e-05
1.22222222222222e-01 6.14899060316995e-01 1.78949449411935e-05
1.26666666666667e-01 6.14896554309542e-01 1.89073277114924e-05
1.31111111111111e-01 6.14893951202944e-01 1.99459942456986e-05
1.35555555555556e-01 6.14891249674471e-01 2.10111131823007e-05
1.40000000000000e-01 6.14888448383359e-01 2.21028524703751e-05
1.44444444444444e-01 6.14885545971893e-01 2.32213798021723e-05
1.48888888888889e-01 6.14882541066284e-01 2.43668629496511e-05
1.53333333333333e-01 6.14879432277401e-01 2.55394700464680e-05
1.57777777777778e-01 6.14876218201354e-01 2.67393697992857e-05
1.62222222222222e-01 6.14872897419991e-01 2.79667316424664e-05
1.66666666666667e-01 6.14869468501289e-01 2.92217258672075e-05
1.71111111111111e-01 6.14865929999684e-01 3.05045227723375e-05
1.75555555555556e-01 6.14862280456564e-01 3.18152826212929e-05
1.80000000000000e-01 6.14858518402838e-01 3.31540970899755e-05
1.84444444444444e-01 6.14854642372765e-01 3.45208400042163e-05
1.88888888888889e-01 6.14850650939790e-01 3.59148394826923e-05
1.93333333333333e-01 6.14846542801829e-01 3.73348398052745e-05
1.97777777777778e-01 6.14842316819116e-01 3.87796423567669e-05
2.02222222222222e-01 6.14837971951248e-01 4.01549490845903e-05
2.06666666666667e-01 6.14833529037646e-01 4.14552544423486e-05
2.11111111111111e-01 6.14828987769666e-01 4.27694727161262e-05
2.15555555555556e-01 6.14824347995236e-01 4.40967323496661e-05
2.20000000000000e-01 6.14819609560399e-01 4.54368926649601e-05
2.24444444444444e-01 6.14814772308946e-01 4.67898212042575e-05
2.28888888888889e-01 6.14809836082085e-01 4.81553932506961e-05
2.33333333333333e-01 6.14804800718161e-01 4.95334913966145e-05
2.37777777777778e-01 6.14799666052393e-01 5.09240051558443e-05
2.42222222222222e-01 6.14794431916654e-01 5.23268305991833e-05
2.46666666666667e-01 6.14789098139262e-01 5.37418700183384e-05
2.51111111111111e-01 6.14783664544801e-01 5.51690316109841e-05
2.55555555555556e-01 6.14778130953964e-01 5.66082291846163e-05
2.60000000000000e-01 6.14772497183407e-01 5.80593818760851e-05
2.64444444444444e-01 6.14766763045622e-01 5.95224138931527e-05
2.68888888888889e-01 6.14760928348831e-01 6.09972541357491e-05
2.73333333333333e-01 6.14754992896909e-01 6.24838342475506e-05
2.77777777777778e-01 6.14748956489627e-01 6.39820774447037e-05
2.82222222222222e-01 6.14742818924694e-01 6.54918646627506e-05
2.86666666666667e-01 6.14736580004346e-01 6.70129545808664e-05
2.91111111111111e-01 6.14730239552174e-01 6.85449238178570e-05
2.95555555555556e-01 6.14723797430034e-01 7.00872730575938e-05
3.00000000000000e-01 6.14717253533817e-01 7.16448512609683e-05
3.04444444444444e-01 6.14710607406072e-01 7.32992957156889e-05
3.08888888888889e-01 6.14703844651724e-01 7.51948311275240e-05
3.13333333333333e-01 6.14696938332483e-01 7.73891077909038e-05
3.17777777777778e-01 6.14689863797783e-01 7.98626108487008e-05
3.22222222222222e-01 6.14682598524769e-01 8.25968567403467e-05
3.26666666666667e-01 6.14675121970543e-01 8.55743308778018e-05
3.31111111111111e-01 6.14667415435409e-01 8.87784309447261e-05
3.35555555555556e-01 6.14659461936203e-01 9.21934139910331e-05
3.40000000000000e-01 6.14651246088869e-01 9.58043470139850e-05
3.44444444444444e-01 6.14642753999556e-01 9.95970607374851e-05
3.48888888888889e-01 6.14633973163545e-01 1.03558106358631e-04
3.53333333333333e-01 6.14624892371388e-01 1.07674715010829e-04
3.57777777777778e-01 6.14615501621708e-01 1.11934759767730e-04
3.62222222222222e-01 6.14605792040121e-01 1.16326720003264e-04
3.66666666666667e-01 6.14595755803848e-01 1.20839647911823e-04
3.71111111111111e-01 6.14585386071546e-01 1.25463136897631e-04
3.75555555555556e-01 6.14574676918031e-01 1.30187290356895e-04
3.80000000000000e-01 6.14563623273729e-01 1.35002684165490e-04
3.84444444444444e-01 6.14552220869667e-01 1.39900315776185e-04
3.88888888888889e-01 6.14540466189043e-01 1.44871527436321e-04
3.93333333333333e-01 6.14528356428133e-01 1.49907982140967e-04
3.97777777777778e-01 6.14515889454384e-01 1.55001751870406e-04
4.02222222222222e-01 6.14503063755133e-01 1.60081022443240e-04
4.06666666666667e-01 6.14489891751528e-01 1.65314251406126e-04
4.11111111111111e-01 6.14476344800646e-01 1.70926637450263e-04
4.15555555555556e-01 6.14462396492533e-01 1.76894367159712e-04
4.20000000000000e-01 6.14448022710945e-01 1.83193603604344e-04
4.24444444444444e-01 6.14433201482872e-01 1.89801782362523e-04
4.28888888888889e-01 6.14417912837440e-01 1.96697548836777e-04
4.33333333333333e-01 6.14402138673533e-01 2.03860699043741e-04
4.37777777777778e-01 6.14385862635570e-01 2.11272123589274e-04
4.42222222222222e-01 6.14369069996904e-01 2.18913754609205e-04
4.46666666666667e-01 6.14351747550331e-01 2.26768515531717e-04
4.51111111111111e-01 6.14333883505261e-01 2.34820273461678e-04
4.55555555555556e-01 6.14315467391118e-01 2.43053794060326e-04
4.60000000000000e-01 6.14296489966569e-01 2.51454698772994e-04
4.64444444444444e-01 6.14276943134211e-01 2.60009424254260e-04
4.68888888888889e-01 6.14256819860370e-01 2.68705183846529e-04
4.73333333333333e-01 6.14236114099698e-01 2.77529930535727e-04
4.77777777777778e-01 6.14214820724338e-01 2.86472319050486e-04
4.82222222222222e-01 6.14192935457724e-01 2.95521662766518e-04
4.86666666666667e-01 6.14170454813465e-01 3.04667878398358e-04
4.91111111111111e-01 6.14147376040440e-01 3.13901442624619e-04
4.95555555555556e-01 6.14123697070756e-01 3.23213401529051e-04
5.00000000000000e-01 6.14099416465585e-01 3.32522256882522e-04
5.04444444444444e-01 6.14074545289968e-01 3.41761295191297e-04
5.08888888888889e-01 6.14049093004260e-01 3.51024882544970e-04
5.13333333333333e-01 6.14023055565145e-01 3.60390451733330e-04
5.17777777777778e-01 6.13996429891455e-01 3.69845360682810e-04
5.22222222222222e-01 6.13969213801661e-01 3.79377616686711e-04
5.26666666666667e-01 6.13941405954564e-01 3.88975850549054e-04
5.31111111111111e-01 6.13913005793143e-01 3.98629290889656e-04
5.35555555555556e-01 6.13884013491382e-01 4.08327739567314e-04
5.40000000000000e-01 6.13854429903928e-01 4.18061548166534e-04
5.44444444444444e-01 6.13824256518413e-01 4.27821595488611e-04
5.48888888888889e-01 6.13793495410300e-01 4.37599265982685e-04
5.53333333333333e-01 6.13762149200129e-01 4.47386429100048e-04
5.57777777777778e-01 6.13730221013016e-01 4.57175419500410e-04
5.62222222222222e-01 6.13697714440308e-01 4.66959018071446e-04
5.66666666666667e-01 6.13664633503260e-01 4.76730433749751e-04
5.71111111111111e-01 6.13630982618645e-01 4.86483286001730e-04
5.75555555555556e-01 6.13596766566197e-01 4.96211587340007e-04
5.80000000000000e-01 6.13561990457885e-01 5.05909723063584e-04
5.84444444444444e-01 6.13526659709333e-01 5.15572425434931e-04
5.88888888888889e-01 6.13490780013784e-01 5.25194740958479e-04
5.93333333333333e-01 6.13454357319021e-01 5.34772019470325e-04
5.97777777777778e-01 6.13417397803545e-01 5.44299948204931e-04
6.02222222222222e-01 6.13379907849308e-01 5.54031468040247e-04
6.06666666666667e-01 6.13341858990930e-01 5.64696302082796e-04
6.11111111111111e-01 6.13303158605256e-01 5.76959707817681e-04
6.15555555555556e-01 6.13263689196901e-01 5.90956787511543e-04
6.20000000000000e-01 6.13223341817483e-01 6.06579287504454e-04
6.24444444444444e-01 6.13182015597301e-01 6.23724086473598e-04
6.28888888888889e-01 6.13139617301859e-01 6.42292958340154e-04
6.33333333333333e-01 6.13096060911848e-01 6.62192346442449e-04
6.37777777777778e-01 6.13051267225337e-01 6.83333148199456e-04
6.42222222222222e-01 6.13005163480983e-01 7.05630509640194e-04
6.46666666666667e-01 6.12957683001143e-01 7.29003629326477e-04
6.51111111111111e-01 6.12908764853839e-01 7.53375571207777e-04
6.55555555555556e-01 6.12858353532583e-01 7.78673085969685e-04
6.60000000000000e-01 6.12806398653113e-01 8.04826440468134e-04
6.64444444444444e-01 6.12752854666164e-01 8.31769254900952e-04
6.68888888888889e-01 6.12697680585429e-01 8.59438347291571e-04
6.73333333333333e-01 6.12640839729922e-01 8.87773584691982e-04
6.77777777777778e-01 6.12582299480018e-01 9.16717739644995e-04
6.82222222222222e-01 6.12522031046642e-01 9.46216349435186e-04
6.86666666666667e-01 6.12460009253238e-01 9.76217573418128e-04
6.91111111111111e-01 6.12396212330649e-01 1.00667206696813e-03
6.95555555555556e-01 6.12330621721944e-01 1.03753288584067e-03
7.00000000000000e-01 6.12263221895586e-01 1.06919068783209e-03
7.04444444444444e-01 6.12193945579843e-01 1.10284933645962e-03
7.08888888888889e-01 6.12122625521287e-01 1.13961792593171e-03
7.13333333333333e-01 6.12049054316829e-01 1.17971185409564e-03
7.17777777777778e-01 6.11973039256820e-01 1.22292847680264e-03
7.22222222222222e-01 6.11894401642132e-01 1.26907314463600e-03
7.26666666666667e-01 6.11812976130895e-01 1.31795890653558e-03
7.31111111111111e-01 6.11728610113791e-01 1.36940622277610e-03
7.35555555555556e-01 6.11641163116655e-01 1.42324268813212e-03
7.40000000000000e-01 6.11550506229222e-01 1.47930276465096e-03
7.44444444444444e-01 6.11456521558923e-01 1.53742752364454e-03
7.48888888888889e-01 6.11359101708664e-01 1.59746439655778e-03
7.53333333333333e-01 6.11258149277583e-01 1.65926693440728e-03
7.57777777777778e-01 6.11153576383823e-01 1.72269457545387e-03
7.62222222222222e-01 6.11045304208401e-01 1.78761242080742e-03
7.66666666666667e-01 6.10933262559280e-01 1.85389101770185e-03
7.71111111111111e-01 6.10817389454814e-01 1.92140615006483e-03
7.75555555555556e-01 6.10697630725772e-01 1.99003863559325e-03
7.80000000000000e-01 6.10573939635226e-01 2.05967412678276e-03
7.84444444444444e-01 6.10446276515902e-01 2.13020291256682e-03
7.88888888888889e-01 6.10314608424765e-01 2.20151972304517e-03
7.93333333333333e-01 6.10178908814017e-01 2.27352356313162e-03
7.97777777777778e-01 6.10039157214906e-01 2.34611759343985e-03
8.02222222222222e-01 6.09895338931250e-01 2.41885219782590e-03
8.06666666666667e-01 6.09747487773084e-01 2.49088773512613e-03
8.11111111111111e-01 6.09595689730766e-01 2.56172351785434e-03
8.15555555555556e-01 6.09440037680566e-01 2.63130134830433e-03
8.20000000000000e-01 6.09280623156717e-01 2.69963153900491e-03
8.24444444444444e-01 6.09117536354522e-01 2.76672465541984e-03
8.28888888888889e-01 6.08950866132549e-01 2.83259152634532e-03
8.33333333333333e-01 6.08780700014067e-01 2.89724325246249e-03
8.37777777777778e-01 6.08607124187827e-01 2.96069121336390e-03
8.42222222222222e-01 6.08430223508286e-01 3.02294707316626e-03
8.46666666666667e-01 6.08250081495364e-01 3.08402278487128e-03
8.51111111111111e-01 6.08066780333816e-01 3.14393059360850e-03
8.55555555555556e-01 6.07880400872286e-01 3.20268303882891e-03
8.60000000000000e-01 6.07691022622114e-01 3.26029295555431e-03
8.64444444444444e-01 6.07498723755942e-01 3.31677347479634e-03
8.68888888888889e-01 6.07303581106187e-01 3.37213802320300e-03
8.73333333333333e-01 6.07105670163418e-01 3.42640032175932e-03
8.77777777777778e-01 6.06905065074711e-01 3.47957438246175e-03
8.82222222222222e-01 6.06701838642176e-01 3.53167450059560e-03
8.86666666666667e-01 6.06496062322031e-01 3.58271524402921e-03
8.91111111111111e-01 6.06287806224204e-01 3.63271145169150e-03
8.95555555555556e-01 6.06077139111231e-01 3.68167825875487e-03
9.00000000000000e-01 6.05864128394203e-01 3.72961153853736e-03
9.04444444444444e-01 6.05648842378281e-01 3.77687992530300e-03
9.08888888888889e-01 6.05431305309556e-01 3.82424607708902e-03
9.13333333333333e-01 6.05211497628791e-01 3.87207637859385e-03
9.17777777777778e-01 6.04989401670219e-01 3.92033950436665e-03
9.22222222222222e-01 6.04765001603705e-01 3.96900486671557e-03
9.26666666666667e-01 6.04538283377535e-01 4.01804261696048e-03
9.31111111111111e-01 6.04309234661853e-01 4.06742364618078e-03
9.35555555555556e-01 6.04077844792750e-01 4.11711958525076e-03
9.40000000000000e-01 6.03844104717049e-01 4.16710280409570e-03
9.44444444444444e-01 6.03608006937798e-01 4.21734641014395e-03
9.48888888888889e-01 6.03369545460525e-01 4.26782424603436e-03
9.53333333333333e-01 6.03128715740252e-01 4.31851088662599e-03
9.57777777777778e-01 6.02885514629313e-01 4.36938163527704e-03
9.62222222222222e-01 6.02639940325996e-01 4.42041251949406e-03
9.66666666666667e-01 6.02391992324013e-01 4.47158028598969e-03
9.71111111111111e-01 6.02141671362832e-01 4.52286239488592e-03
9.75555555555556e-01 6.01888979378919e-01 4.57423701170647e-03
9.80000000000000e-01 6.01633919458074e-01 4.62568299183289e-03
9.84444444444444e-01 6.01376495789581e-01 4.67717985205625e-03
9.88888888888889e-01 6.01116713623043e-01 4.72870773369791e-03
9.93333333333333e-01 6.00854579227885e-01 4.78024744184296e-03
9.97777777777778e-01 6.00590099845660e-01 4.83178053364559e-03
1.00222222222222e+00 6.00323283639131e-01 4.88578748052325e-03
1.00666666666667e+00 6.00053846159712e-01 4.94696666169807e-03
1.01111111111111e+00 5.99781281504662e-01 5.01893791446961e-03
1.01555555555556e+00 5.99504932448586e-01 5.10286809744537e-03
1.02000000000000e+00 5.99224171762928e-01 5.19827399130978e-03
1.02444444444444e+00 5.98938401539983e-01 5.30468056890997e-03
1.02888888888889e+00 5.98647052520072e-01 5.42162108367967e-03
1.03333333333333e+00 5.98349583421516e-01 5.54863716105981e-03
1.03777777777778e+00 5.98045480273214e-01 5.68527889100483e-03
1.04222222222222e+00 5.97734255749692e-01 5.83110492025412e-03
1.04666666666667e+00 5.97415448508563e-01 5.98568254370226e-03
1.05111111111111e+00 5.97088622530356e-01 6.14858779428726e-03
1.05555555555556e+00 5.96753366460713e-01 6.31940553092096e-03
1.06000000000000e+00 5.96409292954969e-01 6.49772952399568e-03
1.06444444444444e+00 5.96056038025167e-01 6.68316253805138e-03
1.06888888888889e+00 5.95693260389566e-01 6.87531641126480e-03
1.07333333333333e+00 5.95320640824733e-01 7.07381213138383e-03
1.07777777777778e+00 5.94937881520330e-01 7.27827990782978e-03
1.08222222222222e+00 5.94544705436693e-01 7.48835923963560e-03
1.08666666666667e+00 5.94140855665365e-01 7.70369897875903e-03
1.09111111111111e+00 5.93726094792742e-01 7.92395738756572e-03
1.09555555555556e+00 5.93300204267085e-01 8.14880218980611e-03
1.10000000000000e+00 5.92862983769155e-01 8.37963476113477e-03
1.10444444444444e+00 5.92414035158142e-01 8.61825478885426e-03
1.10888888888889e+00 5.91952933627294e-01 8.86335174642382e-03
1.11333333333333e+00 5.91479451580553e-01 9.11324855165258e-03
1.11777777777778e+00 5.90993376166745e-01 9.36768266104116e-03
1.12222222222222e+00 5.90494508877066e-01 9.62639747894876e-03
1.12666666666667e+00 5.89982665145848e-01 9.88914236272478e-03
1.13111111111111e+00 5.89457673954928e-01 1.01556726208552e-02
1.13555555555556e+00 5.88919377441881e-01 1.04257495050525e-02
1.14000000000000e+00 5.88367630512339e-01 1.06991401970696e-02
1.14444444444444e+00 5.87802300456582e-01 1.09756177906286e-02
1.14888888888889e+00 5.87223266570562e-01 1.12549612687295e-02
1.15333333333333e+00 5.86630419781542e-01 1.15369554766248e-02
1.15777777777778e+00 5.86023662278456e-01 1.18213910906826e-02
1.16222222222222e+00 5.85402907147162e-01 1.21080645834227e-02
1.16666666666667e+00 5.84768078010662e-01 1.23967781849592e-02
1.17111111111111e+00 5.84119108674427e-01 1.26873398410711e-02
1.17555555555556e+00 5.83455942776903e-01 1.29795631681612e-02
1.18000000000000e+00 5.82778533445273e-01 1.32732674052591e-02
1.18444444444444e+00 5.82086842956568e-01 1.35682773629661e-02
1.18888888888889e+00 5.81380842404193e-01 1.38644233687805e-02
1.19333333333333e+00 5.80660511370027e-01 1.41615412047192e-02
1.19777777777778e+00 5.79925837602592e-01 1.44594720399499e-02
1.20222222222222e+00 5.79176816701136e-01 1.47662920821991e-02
1.20666666666667e+00 5.78412433434188e-01 1.50823994314016e-02
1.21111111111111e+00 5.77632634257472e-01 1.53995837970437e-02
1.21555555555556e+00 5.76837417322208e-01 1.57173261576554e-02
1.22000000000000e+00 5.76026781768268e-01 1.60356000048349e-02
1.22444444444444e+00 5.75200727947353e-01 1.63543744789854e-02
1.22888888888889e+00 5.74359257637839e-01 1.66736145081538e-02
1.23333333333333e+00 5.73502374251695e-01 1.69932809417477e-02
1.23777777777778e+00 5.72630083033730e-01 1.73133306817012e-02
1.24222222222222e+00 5.71742391253303e-01 1.76337168115913e-02
1.24666666666667e+00 5.70839308388691e-01 1.79543887238319e-02
1.25111111111111e+00 5.69920846304242e-01 1.82752922449399e-02
1.25555555555556e+00 5.68987019420489e-01 1.85963697587919e-02
1.26000000000000e+00 5.68037844877372e-01 1.89175603278654e-02
1.26444444444444e+00 5.67073342690731e-01 1.92387998123779e-02
1.26888888888889e+00 5.66093535902225e-01 1.95600209872941e-02
1.27333333333333e+00 5.65098450722831e-01 1.98811536571424e-02
1.27777777777778e+00 5.64088116670100e-01 2.02021247685624e-02
1.28222222222222e+00 5.63062566699301e-01 2.05228585206160e-02
1.28666666666667e+00 5.62021837328643e-01 2.08432764728710e-02
1.29111111111111e+00 5.60965968758704e-01 2.11632976517762e-02
1.29555555555556e+00 5.59895004986170e-01 2.14828386547281e-02
1.30000000000000e+00 5.58808993912114e-01 2.18008705374089e-02
1.30444444444444e+00 5.57708125130287e-01 2.21174389391838e-02
1.30888888888889e+00 5.56592486578786e-01 2.24355994815067e-02
1.31333333333333e+00 5.55461920405400e-01 2.27573204388690e-02
1.31777777777778e+00 5.54316274541943e-01 2.30824885075637e-02
1.32222222222222e+00 5.53155402955738e-01 2.34109850712154e-02
1.32666666666667e+00 5.51979165876485e-01 2.37426866755262e-02
1.33111111111111e+00 5.50787429998771e-01 2.40774655015307e-02
1.33555555555556e+00 5.49580068660419e-01 2.44151898365560e-02
1.34000000000000e+00 5.48356961996996e-01 2.47557245412700e-02
1.34444444444444e+00 5.47117997072850e-01 2.50989315119873e-02
1.34888888888889e+00 5.45863067989055e-01 2.54446701376021e-02
1.35333333333333e+00 5.44592075968682e-01 2.57927977505230e-02
1.35777777777778e+00 5.43304929419847e-01 2.61431700710787e-02
1.36222222222222e+00 5.42001543976981e-01 2.64956416449047e-02
1.36666666666667e+00 5.40681842520803e-01 2.68500662728684e-02
1.37111111111111e+00 5.39345755177500e-01 2.72062974330923e-02
1.37555555555556e+00 5.37993219297611e-01 2.75641886947252e-02
1.38000000000000e+00 5.36624179415139e-01 2.79235941231584e-02
1.38444444444444e+00 5.35238587187425e-01 2.82843686764003e-02
1.38888888888889e+00 5.33836401316309e-01 2.86463685923776e-02
1.39333333333333e+00 5.32417587451133e-01 2.90094517668415e-02
1.39777777777778e+00 5.30982118074134e-01 2.93734781216222e-02
1.40222222222222e+00 5.29529972368791e-01 2.97384760628313e-02
