Energy (eV)          EEDF (eV^-(3/2))     First Anisotropy
2.07500000000000e-01 5.65795143451519e-02 8.44716794338614e-05
6.22500000000000e-01 5.34147555189517e-02 1.36043026504770e-04
1.03750000000000e+00 5.04270165654722e-02 1.70694455733493e-04
1.45250000000000e+00 4.76063959291581e-02 1.92125100290067e-04
1.86750000000000e+00 4.49435458951096e-02 2.06298057377305e-04
2.28250000000000e+00 4.24296416101656e-02 2.15647499186742e-04
2.69750000000000e+00 4.00563518367826e-02 2.21516984449683e-04
3.11250000000000e+00 3.78158113427877e-02 2.24762686381034e-04
3.52750000000000e+00 3.57005948355024e-02 2.25977946261707e-04
3.94250000000000e+00 3.37036923538540e-02 2.25596938287047e-04
4.35750000000000e+00 3.18184860369219e-02 2.23949522397253e-04
4.77250000000000e+00 3.00387281919283e-02 2.21293171415808e-04
5.18750000000000e+00 2.83585205889903e-02 2.17832916605180e-04
5.60250000000000e+00 2.67722949140131e-02 2.13734508995616e-04
6.01750000000000e+00 2.52747943149461e-02 2.09133491084218e-04
6.43250000000000e+00 2.38610559802426e-02 2.04141675640766e-04
6.84750000000000e+00 2.25263946917894e-02 1.98851910706863e-04
7.26250000000000e+00 2.12663872977980e-02 1.93341671534974e-04
7.67750000000000e+00 2.00768580542002e-02 1.87675825324176e-04
8.09250000000000e+00 1.89538647859686e-02 1.81908797475524e-04
8.50750000000000e+00 1.78936858224996e-02 1.76086295073897e-04
8.92250000000000e+00 1.68928076637623e-02 1.70246696322402e-04
9.33750000000000e+00 1.59479133363370e-02 1.64422183573233e-04
9.75250000000000e+00 1.50558714007562e-02 1.58639676521672e-04
1.01675000000000e+01 1.42137255737167e-02 1.52921607518874e-04
1.05825000000000e+01 1.34186849307692e-02 1.47286570627881e-04
1.09975000000000e+01 1.26681146570195e-02 1.41749868610416e-04
1.14125000000000e+01 1.19595273151847e-02 1.36323976590542e-04
1.18275000000000e+01 1.12905746020696e-02 1.31018937100340e-04
1.22425000000000e+01 1.06590395661411e-02 1.25842698170554e-04
1.26575000000000e+01 1.00628292604111e-02 1.20801403810061e-04
1.30725000000000e+01 9.49996780627828e-03 1.15899644429482e-04
1.34875000000000e+01 8.96858984534101e-03 1.11140673370072e-04
1.39025000000000e+01 8.46693435748236e-03 1.06526594601402e-04
1.43175000000000e+01 7.99333882473799e-03 1.02058525779206e-04
1.47325000000000e+01 7.54623372160671e-03 9.77367401557760e-05
1.51475000000000e+01 7.12413731354379e-03 9.35607902705878e-05
1.55625000000000e+01 6.72565074639920e-03 8.95296158892439e-05
1.59775000000000e+01 6.34945341052655e-03 8.56416382820886e-05
1.63925000000000e+01 5.99429856419938e-03 8.18948426230881e-05
1.68075000000000e+01 5.65900920183034e-03 7.82868500316124e-05
1.72225000000000e+01 5.34247415330033e-03 7.48149805644467e-05
1.76375000000000e+01 5.04364440147057e-03 7.14763082846541e-05
1.80525000000000e+01 4.76152960567359e-03 6.82677093815250e-05
1.84675000000000e+01 4.49519481966166e-03 6.51859041867173e-05
1.88825000000000e+01 4.24375739313597e-03 6.22274938217980e-05
1.92975000000000e+01 4.00638404658770e-03 5.93889921184928e-05
1.97125000000000e+01 3.78228810975722e-03 5.66668533724097e-05
2.01275000000000e+01 3.57072691455908e-03 5.40574964216604e-05
2.05425000000000e+01 3.37099933383315e-03 5.15573254819200e-05
2.09575000000000e+01 3.18244345776488e-03 4.91627481175760e-05
2.13725000000000e+01 3.00443440027443e-03 4.68701906835409e-05
2.17875000000000e+01 2.83638222810470e-03 4.46761115330158e-05
2.22025000000000e+01 2.67773000574528e-03 4.25770122521825e-05
2.26175000000000e+01 2.52795194971302e-03 4.05694471527673e-05
2.30325000000000e+01 2.38655168607232e-03 3.86500312270504e-05
2.34475000000000e+01 2.25306060542062e-03 3.68154467467251e-05
2.38625000000000e+01 2.12703630988719e-03 3.50624486665935e-05
2.42775000000000e+01 2.00806114699870e-03 3.33878689760643e-05
2.46925000000000e+01 1.89574082555252e-03 3.17886201254967e-05
2.51075000000000e+01 1.78970310891080e-03 3.02616976403339e-05
2.55225000000000e+01 1.68959658138471e-03 2.88041820234752e-05
2.59375000000000e+01 1.59508948362072e-03 2.74132400352399e-05
2.63525000000000e+01 1.50586861312906e-03 2.60861254304239e-05
2.67675000000000e+01 1.42163828631099e-03 2.48201792231764e-05
2.71825000000000e+01 1.34211935854462e-03 2.36128295426237e-05
2.75975000000000e+01 1.26704829908202e-03 2.24615911352031e-05
2.80125000000000e+01 1.19617631769170e-03 2.13640645634683e-05
2.84275000000000e+01 1.12926854015203e-03 2.03179351455887e-05
2.88425000000000e+01 1.06610322986329e-03 1.93209716748189e-05
2.92575000000000e+01 1.00647105299855e-03 1.83710249537982e-05
2.96725000000000e+01 9.50174384758125e-04 1.74660261745874e-05
3.00875000000000e+01 8.97026654428564e-04 1.66039851718205e-05
3.05025000000000e+01 8.46851727075482e-04 1.57829885731899e-05
3.09175000000000e+01 7.99483319821283e-04 1.50011978686586e-05
3.13325000000000e+01 7.54764450773197e-04 1.42568474172648e-05
3.17475000000000e+01 7.12546918775378e-04 1.35482424081216e-05
3.21625000000000e+01 6.72690812260916e-04 1.28737567901947e-05
3.25775000000000e+01 6.35064045576064e-04 1.22318311836278e-05
3.29925000000000e+01 5.99541921240046e-04 1.16209707837687e-05
3.34075000000000e+01 5.66006716689731e-04 1.10397432676040e-05
3.38225000000000e+01 5.34347294139622e-04 1.04867767110156e-05
3.42375000000000e+01 5.04458732264222e-04 9.96075752411842e-06
3.46525000000000e+01 4.76241978482129e-04 9.46042841090974e-06
3.50675000000000e+01 4.49603520689533e-04 8.98458635854024e-06
3.54825000000000e+01 4.24455077355195e-04 8.53208066069946e-06
3.58975000000000e+01 4.00713304949880e-04 8.10181097887894e-06
3.63125000000000e+01 3.78299521740637e-04 7.69272544462875e-06
3.67275000000000e+01 3.57139447034570e-04 7.30381880534816e-06
3.71425000000000e+01 3.37162955007926e-04 6.93413061564080e-06
3.75575000000000e+01 3.18303842304692e-04 6.58274347581358e-06
3.79725000000000e+01 3.00499608634491e-04 6.24878131870043e-06
3.83875000000000e+01 2.83691249642672e-04 5.93140774563993e-06
3.88025000000000e+01 2.67823061366156e-04 5.62982441212745e-06
3.92175000000000e+01 2.52842455626979e-04 5.34326946339162e-06
3.96325000000000e+01 2.38699785751756e-04 5.07101601990866e-06
4.00475000000000e+01 2.25348182039467e-04 4.81237071266195e-06
4.04625000000000e+01 2.12743396432308e-04 4.56667226777570e-06
4.08775000000000e+01 2.00843655874834e-04 4.33329013999841e-06
4.12925000000000e+01 1.89609523875415e-04 4.11162319437957e-06
4.17075000000000e+01 1.79003769811215e-04 3.90109843537098e-06
4.21225000000000e+01 1.68991245543553e-04 3.70116978248969e-06
4.25375000000000e+01 1.59538768934755e-04 3.51131689160056e-06
4.29525000000000e+01 1.50615013880452e-04 3.33104402081164e-06
4.33675000000000e+01 1.42190406492894e-04 3.15987893992303e-06
4.37825000000000e+01 1.34237027091218e-04 2.99737188232825e-06
4.41975000000000e+01 1.26728517673863e-04 2.84309453823560e-06
4.46125000000000e+01 1.19639994566486e-04 2.69663908805368e-06
4.50275000000000e+01 1.12947965955898e-04 2.55761727477008e-06
4.54425000000000e+01 1.06630254036706e-04 2.42565951414284e-06
4.58575000000000e+01 1.00665921512674e-04 2.30041404152223e-06
4.62725000000000e+01 9.50352022091911e-05 2.18154609412170e-06
4.66875000000000e+01 8.97194355669287e-05 2.06873712756406e-06
4.71025000000000e+01 8.47010047995644e-05 1.96168406553940e-06
4.75175000000000e+01 7.99632785106410e-05 1.86009858142508e-06
4.79325000000000e+01 7.54905555760682e-05 1.76370641073473e-06
4.83475000000000e+01 7.12680131096061e-05 1.67224669328262e-06
4.87625000000000e+01 6.72816573388838e-05 1.58547134397064e-06
4.91775000000000e+01 6.35182772291545e-05 1.50314445112825e-06
4.95925000000000e+01 5.99654007010920e-05 1.42504170135980e-06
5.00075000000000e+01 5.66112532975319e-05 1.35094982987928e-06
5.04225000000000e+01 5.34447191621778e-05 1.28066609533850e-06
5.08375000000000e+01 5.04553042009508e-05 1.21399777818185e-06
5.12525000000000e+01 4.76331013038997e-05 1.15076170158802e-06
5.16675000000000e+01 4.49687575124127e-05 1.09078377408686e-06
5.20825000000000e+01 4.24534430229218e-05 1.03389855296723e-06
5.24975000000000e+01 4.00788219243768e-05 9.79948827619751e-07
5.29125000000000e+01 3.78370245725091e-05 9.28785221985925e-07
5.33275000000000e+01 3.57206215093339e-05 8.80265815312762e-07
5.37425000000000e+01 3.37225988414574e-05 8.34255780439380e-07
5.41575000000000e+01 3.18363349955908e-05 7.90627038868929e-07
5.45725000000000e+01 3.00555787742389e-05 7.49257931905757e-07
5.49875000000000e+01 2.83744286388364e-05 7.10032907163770e-07
5.54025000000000e+01 2.67873131516765e-05 6.72842219777556e-07
5.58175000000000e+01 2.52889725118146e-05 6.37581647672856e-07
5.62325000000000e+01 2.38744411237561e-05 6.04152220277348e-07
5.66475000000000e+01 2.25390311411586e-05 5.72459960076593e-07
5.70625000000000e+01 2.12783169310141e-05 5.42415636443195e-07
5.74775000000000e+01 2.00881204068209e-05 5.13934531189852e-07
5.78925000000000e+01 1.89644971821418e-05 4.86936215318811e-07
5.83075000000000e+01 1.79037234986576e-05 4.61344336461665e-07
5.87225000000000e+01 1.69022838853976e-05 4.37086416523975e-07
5.91375000000000e+01 1.59568595082466e-05 4.14093659069178e-07
5.95525000000000e+01 1.50643171711188e-05 3.92300765995664e-07
5.99675000000000e+01 1.42216989323484e-05 3.71645763079508e-07
6.03825000000000e+01 1.34262123018842e-05 3.52069833973434e-07
6.07975000000000e+01 1.26752209868009e-05 3.33517162269988e-07
6.12125000000000e+01 1.19662361544581e-05 3.15934781253743e-07
6.16275000000000e+01 1.12969081843520e-05 2.99272430983501e-07
6.20425000000000e+01 1.06650188813241e-05 2.83482422361089e-07
6.24575000000000e+01 1.00684741243229e-05 2.68519507858335e-07
6.28725000000000e+01 9.50529692635425e-06 2.54340758588285e-07
6.32875000000000e+01 8.97362088262162e-06 2.40905447420574e-07
6.37025000000000e+01 8.47168398514285e-06 2.28174937854243e-07
6.41175000000000e+01 7.99782278334435e-06 2.16112578374070e-07
6.45325000000000e+01 7.55046687128089e-06 2.04683602028848e-07
6.49475000000000e+01 7.12813368321113e-06 1.93855030981811e-07
6.53625000000000e+01 6.72942358028112e-06 1.83595585794746e-07
6.57775000000000e+01 6.35301521203278e-06 1.73875599218209e-07
6.61925000000000e+01 5.99766113736504e-06 1.64666934270670e-07
6.66075000000000e+01 5.66218369043521e-06 1.55942906399371e-07
6.70225000000000e+01 5.34547107780011e-06 1.47678209525280e-07
6.74375000000000e+01 5.04647369386231e-06 1.39848845783626e-07
6.78525000000000e+01 4.76420064241092e-06 1.32432058780297e-07
6.82675000000000e+01 4.49771645272900e-06 1.25406270192748e-07
6.86825000000000e+01 4.24613797938453e-06 1.18751019552082e-07
6.90975000000000e+01 4.00863147543065e-06 1.12446907050650e-07
6.95125000000000e+01 3.78440982931564e-06 1.06475539226820e-07
6.99275000000000e+01 3.57272995634557e-06 1.00819477385615e-07
7.03425000000000e+01 3.37289033605468e-06 9.54621886205644e-08
7.07575000000000e+01 3.18422868732221e-06 9.03879993085557e-08
7.11725000000000e+01 3.00611977353105e-06 8.55820509555557e-08
7.15875000000000e+01 2.83797333049400e-06 8.10302582769177e-08
7.20025000000000e+01 2.67923211028106e-06 7.67192694015558e-08
7.24175000000000e+01 2.52937003446456e-06 7.26364280945905e-08
7.28325000000000e+01 2.38789045066204e-06 6.87697378981363e-08
7.32475000000000e+01 2.25432448659889e-06 6.51078280947484e-08
7.36625000000000e+01 2.12822949623606e-06 6.16399214026653e-08
7.40775000000000e+01 2.00918759281307e-06 5.83558033163818e-08
7.44925000000000e+01 1.89680426394496e-06 5.52457930102941e-08
7.49075000000000e+01 1.79070706418328e-06 5.23007157271598e-08
7.53225000000000e+01 1.69054438070842e-06 4.95118765769358e-08
7.57375000000000e+01 1.59598426806244e-06 4.68710356751909e-08
7.61525000000000e+01 1.50671334806095e-06 4.43703845537655e-08
7.65675000000000e+01 1.42243577123796e-06 4.20025237796455e-08
7.69825000000000e+01 1.34287223638207e-06 3.97604417211695e-08
7.73975000000000e+01 1.26775906491464e-06 3.76374944036898e-08
7.78125000000000e+01 1.19684732704234e-06 3.56273863996554e-08
7.82275000000000e+01 1.12990201678806e-06 3.37241527008113e-08
7.86425000000000e+01 1.06670127316628e-06 3.19221415227948e-08
7.90575000000000e+01 1.00703564492177e-06 3.02159979948735e-08
7.94725000000000e+01 9.50707396394857e-07 2.86006486899169e-08
7.98875000000000e+01 8.97529852213032e-07 2.70712869519296e-08
8.03025000000000e+01 8.47326778636920e-07 2.56233589805942e-08
8.07175000000000e+01 7.99931799510562e-07 2.42525506342993e-08
8.11325000000000e+01 7.55187844880327e-07 2.29547749150493e-08
8.15475000000000e+01 7.12946630455167e-07 2.17261601004862e-08
8.19625000000000e+01 6.73068166183110e-07 2.05630384899914e-08
8.23775000000000e+01 6.35420292315390e-07 1.94619357334972e-08
8.27925000000000e+01 5.99878241420694e-07 1.84195607132083e-08
8.32075000000000e+01 5.66324224898016e-07 1.74327959499347e-08
8.36225000000000e+01 5.34647042617797e-07 1.64986885071626e-08
8.40375000000000e+01 5.04741714397670e-07 1.56144413673418e-08
8.44525000000000e+01 4.76509132091510e-07 1.47774052561581e-08
8.48675000000000e+01 4.49855731138779e-07 1.39850708917841e-08
8.52825000000000e+01 4.24693180485660e-07 1.32350616372630e-08
8.56975000000000e+01 4.00938089850374e-07 1.25251265352897e-08
8.61125000000000e+01 3.78511733362515e-07 1.18531337056999e-08
8.65275000000000e+01 3.57339788660547e-07 1.12170640869829e-08
8.69425000000000e+01 3.37352090582800e-07 1.06150055040782e-08
8.73575000000000e+01 3.18482398635703e-07 1.00451470456205e-08
8.77725000000000e+01 3.00668177468595e-07 9.50577373465385e-09
8.81875000000000e+01 2.83850389627629e-07 8.99526147765009e-09
8.86025000000000e+01 2.67973299901925e-07 8.51207227744135e-09
8.90175000000000e+01 2.52984290613556e-07 8.05474969640823e-09
8.94325000000000e+01 2.38833687239242e-07 7.62191455696620e-09
8.98475000000000e+01 2.25474593785847e-07 7.21226086705362e-09
9.02625000000000e+01 2.12862737374091e-07 6.82455195895481e-09
9.06775000000000e+01 2.00956321515438e-07 6.45761683038942e-09
9.10925000000000e+01 1.89715887595887e-07 6.11034667736695e-09
9.15075000000000e+01 1.79104184107641e-07 5.78169160884391e-09
9.19225000000000e+01 1.69086043195253e-07 5.47065753373302e-09
9.23375000000000e+01 1.59628264107132e-07 5.17630321130002e-09
9.27525000000000e+01 1.50699503166158e-07 4.89773745644394e-09
9.31675000000000e+01 1.42270169894758e-07 4.63411649179557e-09
9.35825000000000e+01 1.34312328950191e-07 4.38464143898387e-09
9.39975000000000e+01 1.26799607545059e-07 4.14855594181440e-09
9.44125000000000e+01 1.19707108046228e-07 3.92514391447899e-09
9.48275000000000e+01 1.13011325462495e-07 3.71372740827039e-09
9.52425000000000e+01 1.06690069547566e-07 3.51366459061332e-09
9.56575000000000e+01 1.00722391260175e-07 3.32434783054344e-09
9.60725000000000e+01 9.50885133376425e-08 3.14520188506921e-09
9.64875000000000e+01 8.97697647527768e-08 2.97568218114017e-09
9.69025000000000e+01 8.47485188369092e-08 2.81527318821800e-09
9.73175000000000e+01 8.00081348640026e-08 2.66348687670661e-09
9.77325000000000e+01 7.55329029022341e-08 2.51986125774390e-09
9.81475000000000e+01 7.13079917502893e-08 2.38395900009055e-09
9.85625000000000e+01 6.73193997858241e-08 2.25536612007355e-09
9.89775000000000e+01 6.35539085632043e-08 2.13369074075164e-09
9.93925000000000e+01 5.99990390067422e-08 2.01856191666986e-09
9.98075000000000e+01 5.66430100542517e-08 1.90962852075901e-09
1.00222500000000e+02 5.34746996138642e-08 1.80655819011530e-09
1.00637500000000e+02 5.04836077047138e-08 1.70903632756569e-09
1.01052500000000e+02 4.76598216593381e-08 1.61676515608564e-09
1.01467500000000e+02 4.49939832724716e-08 1.52946282328913e-09
1.01882500000000e+02 4.24772577873631e-08 1.44686255335572e-09
1.02297500000000e+02 4.01013046168336e-08 1.36871184389725e-09
1.02712500000000e+02 3.78582497020439e-08 1.29477170539721e-09
1.03127500000000e+02 3.57406594173662e-08 1.22481594097945e-09
1.03542500000000e+02 3.37415159348797e-08 1.15863046438031e-09
1.03957500000000e+02 3.18541939668453e-08 1.09601265410969e-09
1.04372500000000e+02 3.00724388090841e-08 1.03677074189154e-09
1.04787500000000e+02 2.83903456124923e-08 9.80723233574942e-10
1.05202500000000e+02 2.68023398139989e-08 9.27698360801219e-10
1.05617500000000e+02 2.53031586621114e-08 8.77533561802737e-10
1.06032500000000e+02 2.38878337758251e-08 8.30074989794089e-10
1.06447500000000e+02 2.25516746790945e-08 7.85177047497212e-10
1.06862500000000e+02 2.12902532563000e-08 7.42701946418602e-10
1.07277500000000e+02 2.00993890771926e-08 7.02519289569328e-10
1.07692500000000e+02 1.89751355426843e-08 6.64505676387386e-10
1.08107500000000e+02 1.79137668055696e-08 6.28544328687159e-10
1.08522500000000e+02 1.69117654228325e-08 5.94524736522515e-10
1.08937500000000e+02 1.59658106986180e-08 5.62342322908765e-10
1.09352500000000e+02 1.50727676792369e-08 5.31898126404152e-10
1.09767500000000e+02 1.42296767637308e-08 5.03098500604230e-10
1.10182500000000e+02 1.34337438955678e-08 4.75854829652330e-10
1.10597500000000e+02 1.26823313029627e-08 4.50083258916608e-10
1.11012500000000e+02 1.19729487571350e-08 4.25704440028963e-10
1.11427500000000e+02 1.13032453195330e-08 4.02643289523566e-10
1.11842500000000e+02 1.06710015506755e-08 3.80828760352961e-10
1.12257500000000e+02 1.00741221547886e-08 3.60193625597819e-10
1.12672500000000e+02 9.51062903586385e-09 3.40674273722567e-10
1.13087500000000e+02 8.97865474212276e-09 3.22210514763319e-10
1.13502500000000e+02 8.47643627716379e-09 3.04745396866969e-10
1.13917500000000e+02 8.00230925728093e-09 2.88225032631044e-10
1.14332500000000e+02 7.55470239559104e-09 2.72598434723024e-10
1.14747500000000e+02 7.13213229468986e-09 2.57817360285404e-10
1.15162500000000e+02 6.73319853057937e-09 2.43836163658938e-10
1.15577500000000e+02 6.35657901157422e-09 2.30611656981226e-10
1.15992500000000e+02 6.00102559680637e-09 2.18102978241287e-10
1.16407500000000e+02 5.66535995980750e-09 2.06271466392974e-10
1.16822500000000e+02 5.34846968346062e-09 1.95080543151126e-10
1.17237500000000e+02 5.04930457337954e-09 1.84495601114319e-10
1.17652500000000e+02 4.76687317749835e-09 1.74483897876936e-10
1.18067500000000e+02 4.50023950033667e-09 1.65014455811192e-10
1.18482500000000e+02 4.24851990105153e-09 1.56057967216708e-10
1.18897500000000e+02 4.01088016499578e-09 1.47586704551238e-10
1.19312500000000e+02 3.78653273907813e-09 1.39574435471425e-10
1.19727500000000e+02 3.57473412176242e-09 1.31996342426804e-10
1.20142500000000e+02 3.37478239905663e-09 1.24828946563978e-10
1.20557500000000e+02 3.18601491832554e-09 1.18050035710737e-10
1.20972500000000e+02 3.00780609221808e-09 1.11638596222220e-10
1.21387500000000e+02 2.83956532543135e-09 1.05574748482726e-10
1.21802500000000e+02 2.68073505744048e-09 9.98396858678196e-11
1.22217500000000e+02 2.53078891470784e-09 9.44156169817468e-11
1.22632500000000e+02 2.38922996624790e-09 8.92857109950245e-11
1.23047500000000e+02 2.25558907676657e-09 8.44340459164025e-11
1.23462500000000e+02 2.12942335191722e-09 7.98455596422211e-11
1.23877500000000e+02 2.01031467052084e-09 7.55060036345509e-11
1.24292500000000e+02 1.89786829888601e-09 7.14018990874223e-11
1.24707500000000e+02 1.79171158263662e-09 6.75204954479548e-11
1.25122500000000e+02 1.69149271171161e-09 6.38497311662920e-11
1.25537500000000e+02 1.59687955444433e-09 6.03781965549797e-11
1.25952500000000e+02 1.50755855685713e-09 5.70950986447872e-11
1.26367500000000e+02 1.42323370352375e-09 5.39902279300048e-11
1.26782500000000e+02 1.34362553655546e-09 5.10539269019598e-11
1.27197500000000e+02 1.26847022945997e-09 4.82770602748969e-11
1.27612500000000e+02 1.19751871280382e-09 4.56509868134920e-11
1.28027500000000e+02 1.13053584878049e-09 4.31675326761112e-11
1.28442500000000e+02 1.06729965194892e-09 4.08189661925155e-11
1.28857500000000e+02 1.00760055355967e-09 3.85979739990618e-11
1.29272500000000e+02 9.51240707030934e-10 3.64976384585573e-11
1.29687500000000e+02 8.98033332272405e-10 3.45114162958232e-11
1.30102500000000e+02 8.47802096684297e-10 3.26331183837096e-11
1.30517500000000e+02 8.00380530779967e-10 3.08568906177951e-11
1.30932500000000e+02 7.55611476495523e-10 2.91771958213082e-11
