Energy (eV)          EEDF (eV^-(3/2))     First Anisotropy
2.00000000000000e-02 9.93328914716214e-01 1.20828143717230e-01
6.00000000000000e-02 9.90936514722439e-01 1.54631765067690e-01
1.00000000000000e-01 9.81906478403984e-01 2.30178097943645e-01
1.40000000000000e-01 9.69349475561663e-01 2.55028764493188e-01
1.80000000000000e-01 9.54447271262275e-01 2.62943567770992e-01
2.20000000000000e-01 9.37755340937320e-01 2.65172636738634e-01
2.60000000000000e-01 9.19996320690308e-01 2.65369538036715e-01
3.00000000000000e-01 9.01410716182861e-01 2.63330170930881e-01
3.40000000000000e-01 8.82253902305873e-01 2.60759848031465e-01
3.80000000000000e-01 8.62726618722826e-01 2.57535001809540e-01
4.20000000000000e-01 8.42927348063343e-01 2.54884801277130e-01
4.60000000000000e-01 8.23070652424160e-01 2.53047387173124e-01
5.00000000000000e-01 8.03200980429328e-01 2.50955144639806e-01
5.40000000000000e-01 7.83387637159587e-01 2.48902194439273e-01
5.80000000000000e-01 7.63695248126498e-01 2.46669337704242e-01
6.20000000000000e-01 7.44157351836106e-01 2.44146241961652e-01
6.60000000000000e-01 7.24788102836709e-01 2.41595226470783e-01
7.00000000000000e-01 7.05579431673286e-01 2.39312895050974e-01
7.40000000000000e-01 6.86517182475455e-01 2.37455214786953e-01
7.80000000000000e-01 6.67586597272133e-01 2.35869785707024e-01
8.20000000000000e-01 6.48778010344088e-01 2.34225756165874e-01
8.60000000000000e-01 6.30110468691876e-01 2.32208682988205e-01
9.00000000000000e-01 6.11624616212690e-01 2.29694028531285e-01
9.40000000000000e-01 5.93359415647271e-01 2.26781584525450e-01
9.80000000000000e-01 5.75339553510029e-01 2.23626323347765e-01
1.02000000000000e+00 5.57579193394612e-01 2.20228756075798e-01
1.06000000000000e+00 5.40032472242787e-01 2.17157263139851e-01
1.10000000000000e+00 5.22625556371407e-01 2.14768096978501e-01
1.14000000000000e+00 5.05257217028578e-01 2.12611424155548e-01
1.18000000000000e+00 4.87859332361325e-01 2.10623729109910e-01
1.22000000000000e+00 4.70411622135758e-01 2.08066950043121e-01
1.26000000000000e+00 4.52837498122663e-01 2.04762907950032e-01
1.30000000000000e+00 4.35159636362793e-01 2.01462454723379e-01
1.34000000000000e+00 4.17412336597974e-01 1.98302427752780e-01
1.38000000000000e+00 3.99623840295638e-01 1.95135924289336e-01
1.42000000000000e+00 3.81819544714114e-01 1.91807046504943e-01
1.46000000000000e+00 3.64024456111052e-01 1.88323491857194e-01
1.50000000000000e+00 3.46264077484390e-01 1.84289544125872e-01
1.54000000000000e+00 3.28581904902352e-01 1.79373954344421e-01
1.58000000000000e+00 3.11020708844068e-01 1.74031631064879e-01
1.62000000000000e+00 2.93608547482397e-01 1.68168446466212e-01
1.66000000000000e+00 2.76256996810457e-01 1.62401743100291e-01
1.70000000000000e+00 2.58893665401991e-01 1.57423834367516e-01
1.74000000000000e+00 2.41397199523483e-01 1.52300522865103e-01
1.78000000000000e+00 2.23803743704693e-01 1.46224793064634e-01
1.82000000000000e+00 2.06303331415401e-01 1.35598180147632e-01
1.86000000000000e+00 1.88743522141673e-01 1.21965842148309e-01
1.90000000000000e+00 1.71411351173453e-01 1.08980358077817e-01
1.94000000000000e+00 1.54637010538378e-01 9.64459883588239e-02
1.98000000000000e+00 1.38758563113591e-01 8.42051795499195e-02
2.02000000000000e+00 1.24026701594533e-01 7.28902897396585e-02
2.06000000000000e+00 1.10535394051062e-01 6.29437005718662e-02
2.10000000000000e+00 9.82449063081725e-02 5.45286815489509e-02
2.14000000000000e+00 8.71534377915797e-02 4.76604173664297e-02
2.18000000000000e+00 7.71980112002378e-02 4.18727449784716e-02
2.22000000000000e+00 6.82604048027050e-02 3.68541321521550e-02
2.26000000000000e+00 6.02981336897920e-02 3.23111981827059e-02
2.30000000000000e+00 5.32783053330784e-02 2.81259033550303e-02
2.34000000000000e+00 4.71261713072761e-02 2.44475126471776e-02
2.38000000000000e+00 4.17390438766395e-02 2.12691577745225e-02
2.42000000000000e+00 3.70190355985628e-02 1.85118490469476e-02
2.46000000000000e+00 3.29007178380497e-02 1.60571750149556e-02
2.50000000000000e+00 2.93321187760882e-02 1.38574918161279e-02
2.54000000000000e+00 2.62535333785148e-02 1.19491613446870e-02
2.58000000000000e+00 2.35965023049851e-02 1.03283466840293e-02
2.62000000000000e+00 2.12959114455473e-02 8.96698130586085e-03
2.66000000000000e+00 1.93009470754449e-02 7.81707136964720e-03
2.70000000000000e+00 1.75662204543842e-02 6.86106125905730e-03
2.74000000000000e+00 1.60559316546425e-02 6.08447113801345e-03
2.78000000000000e+00 1.47410724090078e-02 5.42889569624370e-03
2.82000000000000e+00 1.35942479379414e-02 4.90334419899424e-03
2.86000000000000e+00 1.25914421765763e-02 4.51216658033680e-03
2.90000000000000e+00 1.17027446360215e-02 4.21145985380799e-03
2.94000000000000e+00 1.09088773334530e-02 3.96193464540791e-03
2.98000000000000e+00 1.02016446074433e-02 3.72332001156303e-03
3.02000000000000e+00 9.57682011766416e-03 3.44399564218019e-03
3.06000000000000e+00 9.02021427518370e-03 3.14686363047019e-03
3.10000000000000e+00 8.52350017471719e-03 2.88944114757145e-03
3.14000000000000e+00 8.07987308170619e-03 2.67534220096628e-03
3.18000000000000e+00 7.68279943663984e-03 2.49757900932179e-03
3.22000000000000e+00 7.32540344185353e-03 2.33881431486149e-03
3.26000000000000e+00 7.00023908620969e-03 2.19655226277472e-03
3.30000000000000e+00 6.70263632179171e-03 2.07423113747437e-03
3.34000000000000e+00 6.42808268110170e-03 1.96661169391077e-03
3.38000000000000e+00 6.17275209235172e-03 1.87477894467367e-03
3.42000000000000e+00 5.93374069168452e-03 1.79776957594692e-03
3.46000000000000e+00 5.70907113324017e-03 1.72912745053286e-03
3.50000000000000e+00 5.49772368774186e-03 1.66358248512022e-03
3.54000000000000e+00 5.29863184223822e-03 1.59977636189012e-03
3.58000000000000e+00 5.11070558106694e-03 1.53940790016926e-03
3.62000000000000e+00 4.93311463334772e-03 1.48179284552881e-03
3.66000000000000e+00 4.76550691633724e-03 1.42326846402677e-03
3.70000000000000e+00 4.60792602900188e-03 1.36190497326962e-03
3.74000000000000e+00 4.46000415998635e-03 1.29997817755649e-03
3.78000000000000e+00 4.32089063392960e-03 1.24235413094290e-03
3.82000000000000e+00 4.18966771664630e-03 1.19124702553780e-03
3.86000000000000e+00 4.06548711401990e-03 1.14632056693864e-03
3.90000000000000e+00 3.94756468021014e-03 1.10674021539201e-03
3.94000000000000e+00 3.83510795958183e-03 1.07156607544233e-03
3.98000000000000e+00 3.72742205258284e-03 1.04071039932560e-03
4.02000000000000e+00 3.62396855765401e-03 1.01267319167467e-03
4.06000000000000e+00 3.52423923719172e-03 9.85760430427388e-04
4.10000000000000e+00 3.42807818087537e-03 9.59871957742168e-04
4.14000000000000e+00 3.33533637367682e-03 9.34971057543459e-04
4.18000000000000e+00 3.24587096090317e-03 9.11022547292368e-04
4.22000000000000e+00 3.15954540433243e-03 8.87640869320444e-04
4.26000000000000e+00 3.07615396976003e-03 8.64795843997376e-04
4.30000000000000e+00 2.99558005711536e-03 8.42770532907964e-04
4.34000000000000e+00 2.91771305579525e-03 8.21519756122054e-04
4.38000000000000e+00 2.84244872223171e-03 8.01000773819727e-04
4.42000000000000e+00 2.76968806162617e-03 7.80887472589210e-04
4.46000000000000e+00 2.69926514538589e-03 7.61181278154937e-04
4.50000000000000e+00 2.63109212604506e-03 7.41867549050809e-04
4.54000000000000e+00 2.56501674648459e-03 7.22673515868661e-04
4.58000000000000e+00 2.50089521954878e-03 7.03874051213323e-04
4.62000000000000e+00 2.43865723212419e-03 6.85806408857352e-04
4.66000000000000e+00 2.37826201723371e-03 6.68424158240663e-04
4.70000000000000e+00 2.31964560526301e-03 6.51574308939477e-04
4.74000000000000e+00 2.26274045720941e-03 6.35210119115209e-04
4.78000000000000e+00 2.20748270292357e-03 6.19329002779728e-04
4.82000000000000e+00 2.15381778733154e-03 6.03662841486353e-04
4.86000000000000e+00 2.10162434844397e-03 5.88217237612751e-04
4.90000000000000e+00 2.05085620442808e-03 5.72929837647626e-04
4.94000000000000e+00 2.00138967663481e-03 5.57518018056514e-04
4.98000000000000e+00 1.95310993015811e-03 5.43425556210545e-04
5.02000000000000e+00 1.90628314773920e-03 5.31218375160282e-04
5.06000000000000e+00 1.86096392670184e-03 5.18234591300246e-04
5.10000000000000e+00 1.81668964041482e-03 5.04468759821822e-04
5.14000000000000e+00 1.77350289439133e-03 4.91608841333635e-04
5.18000000000000e+00 1.73144072916351e-03 4.79369155679333e-04
5.22000000000000e+00 1.69046848154598e-03 4.67462634550392e-04
5.26000000000000e+00 1.65054351041896e-03 4.55879571823572e-04
5.30000000000000e+00 1.61163413400265e-03 4.44702421970973e-04
5.34000000000000e+00 1.57372738802030e-03 4.33974930957352e-04
5.38000000000000e+00 1.53680990757673e-03 4.23620572295503e-04
5.42000000000000e+00 1.50085108910154e-03 4.13512496116185e-04
5.46000000000000e+00 1.46580484531998e-03 4.03645221738337e-04
5.50000000000000e+00 1.43164368953920e-03 3.94036747843080e-04
5.54000000000000e+00 1.39833314058668e-03 3.84653314505912e-04
5.58000000000000e+00 1.36584027348861e-03 3.75514067270549e-04
5.62000000000000e+00 1.33414125973276e-03 3.66785805989426e-04
5.66000000000000e+00 1.30325780807963e-03 3.58447588470396e-04
5.70000000000000e+00 1.27316501960318e-03 3.50347537014240e-04
5.74000000000000e+00 1.24383886195353e-03 3.42483761649657e-04
5.78000000000000e+00 1.21525512162223e-03 3.34860197374329e-04
5.82000000000000e+00 1.18738946580595e-03 3.27386349692901e-04
5.86000000000000e+00 1.16019135334966e-03 3.20060669013520e-04
5.90000000000000e+00 1.13363975411358e-03 3.13000684722938e-04
5.94000000000000e+00 1.10772742755652e-03 3.06235980087659e-04
5.98000000000000e+00 1.08244689492438e-03 2.99716212668846e-04
6.02000000000000e+00 1.05777791969551e-03 2.93428184893964e-04
6.06000000000000e+00 1.03371433935688e-03 2.87350956812522e-04
6.10000000000000e+00 1.01023857483974e-03 2.81390187225548e-04
6.14000000000000e+00 9.87318722784589e-04 2.75499019019497e-04
6.18000000000000e+00 9.64924493745645e-04 2.69719796135641e-04
6.22000000000000e+00 9.43041518660667e-04 2.64090541150777e-04
6.26000000000000e+00 9.21655897147414e-04 2.58606512318344e-04
6.30000000000000e+00 9.00754179483260e-04 2.53238793547806e-04
6.34000000000000e+00 8.80315168346988e-04 2.47961241060017e-04
6.38000000000000e+00 8.60318641800419e-04 2.42794996259414e-04
6.42000000000000e+00 8.40753178345327e-04 2.37773817898774e-04
6.46000000000000e+00 8.21612866544884e-04 2.32892404954045e-04
6.50000000000000e+00 8.02886734403753e-04 2.28132520142436e-04
6.54000000000000e+00 7.84564143284855e-04 2.23490515458176e-04
6.58000000000000e+00 7.66634782928804e-04 2.18962869838781e-04
6.62000000000000e+00 7.49088653065960e-04 2.14506147076035e-04
6.66000000000000e+00 7.31901945738622e-04 2.10120553519730e-04
6.70000000000000e+00 7.15065931226989e-04 2.05841273314364e-04
6.74000000000000e+00 6.98572124992210e-04 2.01665326583754e-04
6.78000000000000e+00 6.82412279816056e-04 1.97589828620302e-04
6.82000000000000e+00 6.66578378251550e-04 1.93635665719090e-04
6.86000000000000e+00 6.51071183854190e-04 1.89798200025169e-04
6.90000000000000e+00 6.35882693345057e-04 1.86040982017410e-04
6.94000000000000e+00 6.21001006273554e-04 1.82351258912462e-04
6.98000000000000e+00 6.06414728366469e-04 1.78738108151354e-04
7.02000000000000e+00 5.92116926494094e-04 1.75224110068961e-04
7.06000000000000e+00 5.78106887826797e-04 1.71803452000875e-04
7.10000000000000e+00 5.64378127956975e-04 1.68458989861939e-04
7.14000000000000e+00 5.50924427380265e-04 1.65190520193078e-04
7.18000000000000e+00 5.37739582597348e-04 1.61996905774200e-04
7.22000000000000e+00 5.24817315747674e-04 1.58875110719929e-04
7.26000000000000e+00 5.12151392370892e-04 1.55822268140730e-04
7.30000000000000e+00 4.99736035048078e-04 1.52836921912510e-04
7.34000000000000e+00 4.87565646498111e-04 1.49917929958651e-04
7.38000000000000e+00 4.75634726094578e-04 1.47063883921645e-04
7.42000000000000e+00 4.63937837005087e-04 1.44255570271722e-04
7.46000000000000e+00 4.52467552714197e-04 1.41475848603554e-04
7.50000000000000e+00 4.41221486696935e-04 1.38725085022521e-04
7.54000000000000e+00 4.30197203568048e-04 1.36003883261855e-04
7.58000000000000e+00 4.19392222605463e-04 1.33312804132359e-04
7.62000000000000e+00 4.08804021189932e-04 1.30658619018653e-04
7.66000000000000e+00 3.98430828677188e-04 1.28047301186969e-04
7.70000000000000e+00 3.88269060170294e-04 1.25477466569715e-04
7.74000000000000e+00 3.78315018082421e-04 1.22946660637604e-04
7.78000000000000e+00 3.68565218232869e-04 1.20453677058572e-04
7.82000000000000e+00 3.59016514917778e-04 1.18001766034987e-04
7.86000000000000e+00 3.49666216865785e-04 1.15593757636696e-04
7.90000000000000e+00 3.40510671060003e-04 1.13224030234986e-04
7.94000000000000e+00 3.31545584978474e-04 1.10882570725765e-04
7.98000000000000e+00 3.22767532227032e-04 1.08565067724862e-04
8.02000000000000e+00 3.14174544534069e-04 1.06267942948682e-04
8.06000000000000e+00 3.05760781457000e-04 1.03999158910612e-04
8.10000000000000e+00 2.97523289444653e-04 1.01769452824602e-04
8.14000000000000e+00 2.89459167802754e-04 9.95789924564967e-05
8.18000000000000e+00 2.81565495245454e-04 9.74276615966309e-05
8.22000000000000e+00 2.73839300875753e-04 9.53106614202989e-05
8.26000000000000e+00 2.66277004239274e-04 9.32238039491092e-05
8.30000000000000e+00 2.58876387684357e-04 9.11680532837529e-05
8.34000000000000e+00 2.51635329271993e-04 8.91450720759230e-05
8.38000000000000e+00 2.44551558954256e-04 8.71555937209337e-05
8.42000000000000e+00 2.37622560310954e-04 8.51950226954739e-05
8.46000000000000e+00 2.30845145318026e-04 8.32594041414871e-05
8.50000000000000e+00 2.24217522115231e-04 8.13494997034138e-05
8.54000000000000e+00 2.17737900885490e-04 7.94663305024011e-05
8.58000000000000e+00 2.11404402041460e-04 7.76105320817197e-05
8.62000000000000e+00 2.05215019988803e-04 7.57838510565688e-05
8.66000000000000e+00 1.99167944501029e-04 7.39877681044895e-05
8.70000000000000e+00 1.93260888192417e-04 7.22194454985236e-05
8.74000000000000e+00 1.87491106289379e-04 7.04736700516072e-05
8.78000000000000e+00 1.81856317893500e-04 6.87484587048520e-05
8.82000000000000e+00 1.76355095695898e-04 6.70474755290393e-05
8.86000000000000e+00 1.70986421472704e-04 6.53738567777299e-05
8.90000000000000e+00 1.65748276598480e-04 6.37245818620543e-05
8.94000000000000e+00 1.60638095214833e-04 6.20939734897235e-05
8.98000000000000e+00 1.55653825689901e-04 6.04800048831780e-05
9.02000000000000e+00 1.50794384668961e-04 5.88909423072764e-05
9.06000000000000e+00 1.46059808668937e-04 5.73337039123517e-05
9.10000000000000e+00 1.41447681663904e-04 5.58071851416645e-05
9.14000000000000e+00 1.36955441323147e-04 5.43094632068310e-05
9.18000000000000e+00 1.32580695486289e-04 5.28396760065882e-05
9.22000000000000e+00 1.28321358844817e-04 5.13980805936345e-05
9.26000000000000e+00 1.24175384112888e-04 4.99848650954269e-05
9.30000000000000e+00 1.20140636895834e-04 4.85993332888462e-05
9.34000000000000e+00 1.16214878923260e-04 4.72402836049399e-05
9.38000000000000e+00 1.12395978234100e-04 4.59071919978180e-05
9.42000000000000e+00 1.08682001260880e-04 4.46003802821806e-05
9.46000000000000e+00 1.05071060591534e-04 4.33200862335521e-05
9.50000000000000e+00 1.01561163160131e-04 4.20660379201611e-05
9.54000000000000e+00 9.81502829229454e-05 4.08377860216634e-05
9.58000000000000e+00 9.48364304042778e-05 3.96350812773678e-05
9.62000000000000e+00 9.16176840492881e-05 3.84589984640371e-05
9.66000000000000e+00 8.84923356608915e-05 3.73103552244361e-05
9.70000000000000e+00 8.54582806457335e-05 3.61881906150126e-05
9.74000000000000e+00 8.25133166609200e-05 3.50910261794483e-05
9.78000000000000e+00 7.96553739283230e-05 3.40181187655162e-05
9.82000000000000e+00 7.68826167353001e-05 3.29700748243549e-05
9.86000000000000e+00 7.41933591511283e-05 3.19473263137265e-05
9.90000000000000e+00 7.15856574059102e-05 3.09485380601718e-05
9.94000000000000e+00 6.90573964701973e-05 2.99715814642633e-05
9.98000000000000e+00 6.66066588830592e-05 2.90154946793803e-05
1.00200000000000e+01 6.42318876249735e-05 2.80827247272494e-05
1.00600000000000e+01 6.19318857229717e-05 2.71754899317647e-05
1.01000000000000e+01 5.97046383163246e-05 2.62935806451661e-05
1.01400000000000e+01 5.75481677906903e-05 2.54364506660492e-05
1.01800000000000e+01 5.54605373825832e-05 2.46035698632835e-05
1.02200000000000e+01 5.34398526335482e-05 2.37941672109702e-05
1.02600000000000e+01 5.14842079849749e-05 2.30075321378643e-05
1.03000000000000e+01 4.95918278286677e-05 2.22431947275309e-05
1.03400000000000e+01 4.77609706560334e-05 2.15006897199078e-05
1.03800000000000e+01 4.59899293263770e-05 2.07795557847207e-05
1.04200000000000e+01 4.42770311038058e-05 2.00792513930001e-05
1.04600000000000e+01 4.26206204399287e-05 1.93992573438294e-05
1.05000000000000e+01 4.10191063576955e-05 1.87391426601057e-05
1.05400000000000e+01 3.94709315229538e-05 1.80984854114482e-05
1.05800000000000e+01 3.79745696472713e-05 1.74768596543445e-05
1.06200000000000e+01 3.65285242196066e-05 1.68737835678956e-05
1.06600000000000e+01 3.51313197873357e-05 1.62887917043269e-05
1.07000000000000e+01 3.37815326382941e-05 1.57214718652032e-05
1.07400000000000e+01 3.24777696285089e-05 1.51714161381611e-05
1.07800000000000e+01 3.12186682072088e-05 1.46382216110664e-05
1.08200000000000e+01 3.00028962790967e-05 1.41214553996029e-05
1.08600000000000e+01 2.88291444113151e-05 1.36206975058760e-05
1.09000000000000e+01 2.76961460374263e-05 1.31355640055285e-05
1.09400000000000e+01 2.66026632278441e-05 1.26656754936530e-05
1.09800000000000e+01 2.55474867439453e-05 1.22106583682035e-05
1.10200000000000e+01 2.45294358866733e-05 1.17700667205882e-05
1.10600000000000e+01 2.35473412707112e-05 1.13434785689602e-05
1.11000000000000e+01 2.26000909751096e-05 1.09305475181449e-05
1.11400000000000e+01 2.16865989143498e-05 1.05309322443693e-05
1.11800000000000e+01 2.08058049142949e-05 1.01442970467482e-05
1.12200000000000e+01 1.99566745771996e-05 9.77025129409489e-06
1.12600000000000e+01 1.91381854912246e-05 9.40842420656858e-06
1.13000000000000e+01 1.83493635669146e-05 9.05850862948024e-06
1.13400000000000e+01 1.75892590617496e-05 8.72020539174947e-06
1.13800000000000e+01 1.68569448156877e-05 8.39321550710891e-06
1.14200000000000e+01 1.61515152840825e-05 8.07721966448193e-06
1.14600000000000e+01 1.54720828673723e-05 7.77190881550267e-06
1.15000000000000e+01 1.48177909623409e-05 7.47699777394290e-06
1.15400000000000e+01 1.41878045925381e-05 7.19220597322074e-06
1.15800000000000e+01 1.35813103342916e-05 6.91725831418824e-06
1.16200000000000e+01 1.29975161004419e-05 6.65173720247690e-06
1.16600000000000e+01 1.24356168583625e-05 6.39526910721859e-06
1.17000000000000e+01 1.18948873552080e-05 6.14762102959095e-06
1.17400000000000e+01 1.13746205796161e-05 5.90856695603326e-06
1.17800000000000e+01 1.08741265659625e-05 5.67788122441406e-06
1.18200000000000e+01 1.03927317296140e-05 5.45464792364480e-06
1.18600000000000e+01 9.92961795919322e-06 5.23814576476406e-06
1.19000000000000e+01 9.48426629404332e-06 5.02827427322043e-06
1.19400000000000e+01 9.05616266687103e-06 4.82493472265195e-06
1.19800000000000e+01 8.64479919715986e-06 4.62802498727210e-06
1.20200000000000e+01 8.24967503986400e-06 4.43794057975015e-06
1.20600000000000e+01 7.87063364548855e-06 4.25434888336763e-06
1.21000000000000e+01 7.50717391080173e-06 4.07663069485573e-06
1.21400000000000e+01 7.15880303124576e-06 3.90468493266570e-06
1.21800000000000e+01 6.82503644345498e-06 3.73840497089765e-06
1.22200000000000e+01 6.50539797808810e-06 3.57804628183591e-06
1.22600000000000e+01 6.19951034271574e-06 3.42374966664195e-06
1.23000000000000e+01 5.90685133003947e-06 3.27533007090478e-06
1.23400000000000e+01 5.62691444200187e-06 3.13260065781689e-06
1.23800000000000e+01 5.35920945768724e-06 2.99538045392795e-06
1.24200000000000e+01 5.10326252586163e-06 2.86415695562652e-06
1.24600000000000e+01 4.85878094478352e-06 2.73921483729580e-06
1.25000000000000e+01 4.62520421315286e-06 2.62026761888989e-06
1.25400000000000e+01 4.40199890275293e-06 2.50703691282068e-06
1.25800000000000e+01 4.18865688117445e-06 2.39925702254261e-06
1.26200000000000e+01 3.98469383060580e-06 2.29612071766682e-06
