Energy (eV)          EEDF (eV^-(3/2))     First Anisotropy
1.66666666666667e-03 1.00519129046311e+00 -4.26876540538820e-04
5.00000000000000e-03 1.00570012082691e+00 -4.60881145474795e-04
8.33333333333333e-03 1.00582626411124e+00 -9.71728697044057e-05
1.16666666666667e-02 1.00580391080741e+00 1.51543417386746e-04
1.50000000000000e-02 1.00568935339680e+00 3.76852200356471e-04
1.83333333333333e-02 1.00550339685506e+00 5.98407006220092e-04
2.16666666666667e-02 1.00525735813950e+00 8.20350088784442e-04
2.50000000000000e-02 1.00495818539218e+00 1.04626828201557e-03
2.83333333333333e-02 1.00460947546676e+00 1.27891801973641e-03
3.16666666666667e-02 1.00421364492849e+00 1.51248825421434e-03
3.50000000000000e-02 1.00377589316935e+00 1.74565093906160e-03
3.83333333333333e-02 1.00329777495549e+00 1.98379138696913e-03
4.16666666666667e-02 1.00278053921594e+00 2.22891127876526e-03
4.50000000000000e-02 1.00222418088296e+00 2.48103773037174e-03
4.83333333333333e-02 1.00162959618314e+00 2.73777867415925e-03
5.16666666666667e-02 1.00099760546210e+00 2.99055821445193e-03
5.50000000000000e-02 1.00033258070677e+00 3.23818569556149e-03
5.83333333333333e-02 9.99635277948338e-01 3.48821353260097e-03
6.16666666666667e-02 9.98906403286954e-01 3.74031026951185e-03
6.50000000000000e-02 9.98146658778671e-01 3.99422024577195e-03
6.83333333333333e-02 9.97356682716521e-01 4.24977879313737e-03
7.16666666666667e-02 9.96537089542146e-01 4.49662181173132e-03
7.50000000000000e-02 9.95692322909439e-01 4.73396162773980e-03
7.83333333333333e-02 9.94822935557939e-01 4.97163052478448e-03
8.16666666666667e-02 9.93929454497938e-01 5.20948287968799e-03
8.50000000000000e-02 9.93012398299116e-01 5.44740750588680e-03
8.83333333333333e-02 9.92072253597686e-01 5.68533237607892e-03
9.16666666666667e-02 9.91109490867961e-01 5.92312646318312e-03
9.50000000000000e-02 9.90124574620799e-01 6.16069169982428e-03
9.83333333333333e-02 9.89117945958109e-01 6.39796541851389e-03
1.01666666666667e-01 9.88090032268255e-01 6.62489909873735e-03
1.05000000000000e-01 9.87044497893710e-01 6.84111430846710e-03
1.08333333333333e-01 9.85981708799628e-01 7.05651102700040e-03
1.11666666666667e-01 9.84902018240483e-01 7.27105943450205e-03
1.15000000000000e-01 9.83805767322637e-01 7.48473173448461e-03
1.18333333333333e-01 9.82693286000172e-01 7.69750045005974e-03
1.21666666666667e-01 9.81564893945161e-01 7.90933854877706e-03
1.25000000000000e-01 9.80420901311856e-01 8.12021954124369e-03
1.28333333333333e-01 9.79261609410605e-01 8.33011755888015e-03
1.31666666666667e-01 9.78087311304638e-01 8.53900741435389e-03
1.35000000000000e-01 9.76898292340666e-01 8.74686464772693e-03
1.38333333333333e-01 9.75694830622450e-01 8.95366556088104e-03
1.41666666666667e-01 9.74477197435028e-01 9.15938724223356e-03
1.45000000000000e-01 9.73245657626088e-01 9.36400758342605e-03
1.48333333333333e-01 9.72000469950001e-01 9.56750528944809e-03
1.51666666666667e-01 9.70741887379178e-01 9.76985988328979e-03
1.55000000000000e-01 9.69470157386776e-01 9.97105170605684e-03
1.58333333333333e-01 9.68185522204163e-01 1.01710619133868e-02
1.61666666666667e-01 9.66888219056124e-01 1.03698724688498e-02
1.65000000000000e-01 9.65578480376319e-01 1.05674661348153e-02
1.68333333333333e-01 9.64256534005244e-01 1.07638264589149e-02
1.71666666666667e-01 9.62922603373218e-01 1.09589377376843e-02
1.75000000000000e-01 9.61576907675026e-01 1.11527849290819e-02
1.78333333333333e-01 9.60219662045501e-01 1.13453533914169e-02
1.81666666666667e-01 9.58851077773612e-01 1.15366283985202e-02
1.85000000000000e-01 9.57471362575202e-01 1.17265946466518e-02
1.88333333333333e-01 9.56080720903875e-01 1.19152361732246e-02
1.91666666666667e-01 9.54679354212374e-01 1.21025384090371e-02
1.95000000000000e-01 9.53267460712536e-01 1.22884909352498e-02
1.98333333333333e-01 9.51845234929796e-01 1.24730876641240e-02
2.01666666666667e-01 9.50412867427311e-01 1.26461341328087e-02
2.05000000000000e-01 9.48973098824226e-01 1.28076119912829e-02
2.08333333333333e-01 9.47526073322290e-01 1.29678256974869e-02
2.11666666666667e-01 9.46071932169060e-01 1.31267808004721e-02
2.15000000000000e-01 9.44610813605056e-01 1.32844834794193e-02
2.18333333333333e-01 9.43142852979682e-01 1.34409397800049e-02
2.21666666666667e-01 9.41668182860376e-01 1.35961556247056e-02
2.25000000000000e-01 9.40186933135602e-01 1.37501368221481e-02
2.28333333333333e-01 9.38699231112048e-01 1.39028890762018e-02
2.31666666666667e-01 9.37205201606430e-01 1.40544179944239e-02
2.35000000000000e-01 9.35704967032287e-01 1.42047290958557e-02
2.38333333333333e-01 9.34198647482118e-01 1.43538278182744e-02
2.41666666666667e-01 9.32686360805169e-01 1.45017195247498e-02
2.45000000000000e-01 9.31168222681201e-01 1.46484095096690e-02
2.48333333333333e-01 9.29644346690498e-01 1.47939030044044e-02
2.51666666666667e-01 9.28114844380330e-01 1.49382051824063e-02
2.55000000000000e-01 9.26579825328174e-01 1.50813211638768e-02
2.58333333333333e-01 9.25039397201841e-01 1.52232560201475e-02
2.61666666666667e-01 9.23493665816742e-01 1.53640147776730e-02
2.65000000000000e-01 9.21942735190447e-01 1.55036024217145e-02
2.68333333333333e-01 9.20386707594732e-01 1.56420238991681e-02
2.71666666666667e-01 9.18825683605366e-01 1.57792841166709e-02
2.75000000000000e-01 9.17259762150692e-01 1.59153879273532e-02
2.78333333333333e-01 9.15689040560711e-01 1.60503400787747e-02
2.81666666666667e-01 9.14113614623805e-01 1.61841451079375e-02
2.85000000000000e-01 9.12533578655827e-01 1.63168072246004e-02
2.88333333333333e-01 9.10949025579108e-01 1.64483302919195e-02
2.91666666666667e-01 9.09360046991444e-01 1.65787182976740e-02
2.95000000000000e-01 9.07766733136093e-01 1.67079759974443e-02
2.98333333333333e-01 9.06169172826305e-01 1.68361090057492e-02
3.01666666666667e-01 9.04567453395673e-01 1.69583358017330e-02
3.05000000000000e-01 9.02962724418069e-01 1.70747243556858e-02
3.08333333333333e-01 9.01355048759592e-01 1.71901651744922e-02
3.11666666666667e-01 8.99744488569164e-01 1.73046617741833e-02
3.15000000000000e-01 8.98131105285811e-01 1.74182177016357e-02
3.18333333333333e-01 8.96514959646456e-01 1.75308365300575e-02
3.21666666666667e-01 8.94896111693813e-01 1.76425218563448e-02
3.25000000000000e-01 8.93274620784415e-01 1.77532772986732e-02
3.28333333333333e-01 8.91650545596693e-01 1.78631064944828e-02
3.31666666666667e-01 8.90023944139094e-01 1.79720130986383e-02
3.35000000000000e-01 8.88394873758203e-01 1.80800007817695e-02
3.38333333333333e-01 8.86763391146869e-01 1.81870732286609e-02
3.41666666666667e-01 8.85129552352317e-01 1.82932341368646e-02
3.45000000000000e-01 8.83493412784212e-01 1.83984872153259e-02
3.48333333333333e-01 8.81855027222708e-01 1.85028361830622e-02
3.51666666666667e-01 8.80214449826437e-01 1.86062847680308e-02
3.55000000000000e-01 8.78571734140438e-01 1.87088367059760e-02
3.58333333333333e-01 8.76926933104040e-01 1.88104957393926e-02
3.61666666666667e-01 8.75280099058659e-01 1.89112656165341e-02
3.65000000000000e-01 8.73631283755536e-01 1.90111500905111e-02
3.68333333333333e-01 8.71980538363383e-01 1.91101529182720e-02
3.71666666666667e-01 8.70327913475996e-01 1.92082778579376e-02
3.75000000000000e-01 8.68673459120118e-01 1.93055286621874e-02
3.78333333333333e-01 8.67017224764094e-01 1.94019090566879e-02
3.81666666666667e-01 8.65359259329872e-01 1.94974227006975e-02
3.85000000000000e-01 8.63699611209468e-01 1.95920731458523e-02
3.88333333333333e-01 8.62038328285021e-01 1.96858638160112e-02
3.91666666666667e-01 8.60375457948699e-01 1.97787981805837e-02
3.95000000000000e-01 8.58711047086219e-01 1.98708800145280e-02
3.98333333333333e-01 8.57045142042985e-01 1.99621134123201e-02
4.01666666666667e-01 8.55377788605267e-01 2.00475737529979e-02
4.05000000000000e-01 8.53710057016890e-01 2.01273539527062e-02
4.08333333333333e-01 8.52041970813553e-01 2.02065016974801e-02
4.11666666666667e-01 8.50373553396920e-01 2.02850185622033e-02
4.15000000000000e-01 8.48704828227514e-01 2.03629049847509e-02
4.18333333333333e-01 8.47035818810162e-01 2.04401615130434e-02
4.21666666666667e-01 8.45366548680282e-01 2.05167887996074e-02
4.25000000000000e-01 8.43697041391024e-01 2.05927875964506e-02
4.28333333333333e-01 8.42027320501155e-01 2.06681587505054e-02
4.31666666666667e-01 8.40357409563653e-01 2.07429031993322e-02
4.35000000000000e-01 8.38687332114951e-01 2.08170219669135e-02
4.38333333333333e-01 8.37017111664828e-01 2.08905161597899e-02
4.41666666666667e-01 8.35346771686874e-01 2.09633869634078e-02
4.45000000000000e-01 8.33676335609512e-01 2.10356356384825e-02
4.48333333333333e-01 8.32005826807553e-01 2.11072635176525e-02
4.51666666666667e-01 8.30335268594244e-01 2.11782720021852e-02
4.55000000000000e-01 8.28664684213801e-01 2.12486625589065e-02
4.58333333333333e-01 8.26994096834365e-01 2.13184367172527e-02
4.61666666666667e-01 8.25323529541403e-01 2.13875960663387e-02
4.65000000000000e-01 8.23653005331502e-01 2.14561422523422e-02
4.68333333333333e-01 8.21982547106530e-01 2.15240769757876e-02
4.71666666666667e-01 8.20312177668194e-01 2.15914019881358e-02
4.75000000000000e-01 8.18641919713075e-01 2.16581190867574e-02
4.78333333333333e-01 8.16971795828370e-01 2.17242301032755e-02
4.81666666666667e-01 8.15301828489390e-01 2.17897368819244e-02
4.85000000000000e-01 8.13632040059685e-01 2.18546412540791e-02
4.88333333333333e-01 8.11962452793622e-01 2.19189450323027e-02
4.91666666666667e-01 8.10293088837587e-01 2.19826500910460e-02
4.95000000000000e-01 8.08623970216721e-01 2.20457584720450e-02
4.98333333333333e-01 8.06955118815801e-01 2.21082724170458e-02
5.01666666666667e-01 8.05286556360003e-01 2.21683645594778e-02
5.05000000000000e-01 8.03618663590730e-01 2.22260083900587e-02
5.08333333333333e-01 8.01951464466310e-01 2.22830249960925e-02
5.11666666666667e-01 8.00284981282228e-01 2.23394273227765e-02
5.15000000000000e-01 7.98619236089204e-01 2.23952188948034e-02
5.18333333333333e-01 7.96954250694917e-01 2.24504032268805e-02
5.21666666666667e-01 7.95290046665743e-01 2.25049838232411e-02
5.25000000000000e-01 7.93626645328551e-01 2.25589641771812e-02
5.28333333333333e-01 7.91964067772502e-01 2.26123477707606e-02
5.31666666666667e-01 7.90302334850881e-01 2.26651380745013e-02
5.35000000000000e-01 7.88641467182929e-01 2.27173385471103e-02
5.38333333333333e-01 7.86981485155703e-01 2.27689526352846e-02
5.41666666666667e-01 7.85322408925925e-01 2.28199837734850e-02
5.45000000000000e-01 7.83664258421859e-01 2.28704353837174e-02
5.48333333333333e-01 7.82007053345174e-01 2.29203108753948e-02
5.51666666666667e-01 7.80350813172826e-01 2.29696136451253e-02
5.55000000000000e-01 7.78695557158934e-01 2.30183470764945e-02
5.58333333333333e-01 7.77041304336672e-01 2.30665145399714e-02
5.61666666666667e-01 7.75388073520137e-01 2.31141193928244e-02
5.65000000000000e-01 7.73735883306236e-01 2.31611649789016e-02
5.68333333333333e-01 7.72084752076562e-01 2.32076546285064e-02
5.71666666666667e-01 7.70434697999277e-01 2.32535916577710e-02
5.75000000000000e-01 7.68785739031083e-01 2.32989793670070e-02
5.78333333333333e-01 7.67137892919381e-01 2.33438210349124e-02
5.81666666666667e-01 7.65491177205295e-01 2.33881199072319e-02
5.85000000000000e-01 7.63845609227912e-01 2.34318791866507e-02
5.88333333333333e-01 7.62201206129130e-01 2.34751020321277e-02
5.91666666666667e-01 7.60557984857859e-01 2.35177915862745e-02
5.95000000000000e-01 7.58915962169677e-01 2.35599510628338e-02
5.98333333333333e-01 7.57275154614684e-01 2.36015837685795e-02
6.01666666666667e-01 7.55635578533216e-01 2.36427001609649e-02
6.05000000000000e-01 7.53997249095493e-01 2.36834364941138e-02
6.08333333333333e-01 7.52360163854531e-01 2.37240347016815e-02
6.11666666666667e-01 7.50724304773476e-01 2.37646035119272e-02
6.15000000000000e-01 7.49089654877070e-01 2.38051316286962e-02
6.18333333333333e-01 7.47456198214682e-01 2.38456081004249e-02
6.21666666666667e-01 7.45823919824568e-01 2.38860223105989e-02
6.25000000000000e-01 7.44192805699331e-01 2.39263639684094e-02
6.28333333333333e-01 7.42562842752543e-01 2.39666230999040e-02
6.31666666666667e-01 7.40934018786454e-01 2.40067900392357e-02
6.35000000000000e-01 7.39306322460797e-01 2.40468554202629e-02
6.38333333333333e-01 7.37679743262598e-01 2.40868101684167e-02
6.41666666666667e-01 7.36054271477006e-01 2.41266454927571e-02
6.45000000000000e-01 7.34429898159055e-01 2.41663528782490e-02
6.48333333333333e-01 7.32806615106387e-01 2.42059240783257e-02
6.51666666666667e-01 7.31184414832834e-01 2.42453511076750e-02
6.55000000000000e-01 7.29563290542888e-01 2.42846262351850e-02
6.58333333333333e-01 7.27943236106984e-01 2.43237419771000e-02
6.61666666666667e-01 7.26324246037607e-01 2.43626910904075e-02
6.65000000000000e-01 7.24706315466157e-01 2.44014665663736e-02
6.68333333333333e-01 7.23089440120579e-01 2.44400616242690e-02
6.71666666666667e-01 7.21473616303709e-01 2.44784697050565e-02
6.75000000000000e-01 7.19858840872375e-01 2.45166844645206e-02
6.78333333333333e-01 7.18245111217286e-01 2.45546997644176e-02
6.81666666666667e-01 7.16632425244014e-01 2.45925096610523e-02
6.85000000000000e-01 7.15020781355228e-01 2.46301083912239e-02
6.88333333333333e-01 7.13410178434451e-01 2.46674903587565e-02
6.91666666666667e-01 7.11800615830897e-01 2.47046501801071e-02
6.95000000000000e-01 7.10192093335156e-01 2.47415826982511e-02
6.98333333333333e-01 7.08584611161884e-01 2.47782829666489e-02
7.01666666666667e-01 7.06978169928710e-01 2.48141857196437e-02
7.05000000000000e-01 7.05372870778376e-01 2.48493386701244e-02
7.08333333333333e-01 7.03768707995264e-01 2.48844623558275e-02
7.11666666666667e-01 7.02165662058919e-01 2.49196583174632e-02
7.15000000000000e-01 7.00563714533030e-01 2.49549131469910e-02
7.18333333333333e-01 6.98962848032959e-01 2.49902137716421e-02
7.21666666666667e-01 6.97363046194177e-01 2.50255474464701e-02
7.25000000000000e-01 6.95764293641578e-01 2.50609017470833e-02
7.28333333333333e-01 6.94166575959649e-01 2.50962645626601e-02
7.31666666666667e-01 6.92569879663454e-01 2.51316240890612e-02
7.35000000000000e-01 6.90974192170427e-01 2.51669688221633e-02
7.38333333333333e-01 6.89379501772933e-01 2.52022875514769e-02
7.41666666666667e-01 6.87785797611572e-01 2.52375693536644e-02
7.45000000000000e-01 6.86193069649230e-01 2.52728035863394e-02
7.48333333333333e-01 6.84601308645833e-01 2.53079798821200e-02
7.51666666666667e-01 6.83010506133771e-01 2.53430881426979e-02
7.55000000000000e-01 6.81420654394013e-01 2.53781185330575e-02
7.58333333333333e-01 6.79831746432855e-01 2.54130614758512e-02
7.61666666666667e-01 6.78243775959302e-01 2.54479076458917e-02
7.65000000000000e-01 6.76656737363063e-01 2.54826479648258e-02
7.68333333333333e-01 6.75070625693133e-01 2.55172735958680e-02
7.71666666666667e-01 6.73485436636965e-01 2.55517759385097e-02
7.75000000000000e-01 6.71901166500214e-01 2.55861466228051e-02
7.78333333333333e-01 6.70317812187137e-01 2.56203775021092e-02
7.81666666666667e-01 6.68735371181828e-01 2.56544606431005e-02
7.85000000000000e-01 6.67153841530565e-01 2.56883883157116e-02
7.88333333333333e-01 6.65573221824975e-01 2.57221529880649e-02
7.91666666666667e-01 6.63993511185410e-01 2.57557473338839e-02
7.95000000000000e-01 6.62414709242980e-01 2.57891642677197e-02
7.98333333333333e-01 6.60836816116967e-01 2.58223969601338e-02
8.01666666666667e-01 6.59259832394440e-01 2.58554326510864e-02
8.05000000000000e-01 6.57683759875742e-01 2.58881433970174e-02
8.08333333333333e-01 6.56108614827856e-01 2.59203019393656e-02
8.11666666666667e-01 6.54534426672011e-01 2.59518024316387e-02
8.15000000000000e-01 6.52961224378773e-01 2.59826505838410e-02
8.18333333333333e-01 6.51389036475731e-01 2.60128520377511e-02
8.21666666666667e-01 6.49817891054980e-01 2.60424123688982e-02
8.25000000000000e-01 6.48247815780393e-01 2.60713370883972e-02
8.28333333333333e-01 6.46678837894708e-01 2.60996316448147e-02
8.31666666666667e-01 6.45110984226415e-01 2.61273014259179e-02
8.35000000000000e-01 6.43544281196464e-01 2.61543517603997e-02
8.38333333333333e-01 6.41978754824794e-01 2.61807879195429e-02
8.41666666666667e-01 6.40414430736688e-01 2.62066151187974e-02
8.45000000000000e-01 6.38851334168966e-01 2.62318385194080e-02
8.48333333333333e-01 6.37289489976005e-01 2.62564632298523e-02
8.51666666666667e-01 6.35728922635618e-01 2.62804943073858e-02
8.55000000000000e-01 6.34169656254763e-01 2.63039367594585e-02
8.58333333333333e-01 6.32611714575118e-01 2.63267955450671e-02
8.61666666666667e-01 6.31055120978503e-01 2.63490755761586e-02
8.65000000000000e-01 6.29499898492170e-01 2.63707817189777e-02
8.68333333333333e-01 6.27946069793945e-01 2.63919187952709e-02
8.71666666666667e-01 6.26393657217259e-01 2.64124915833284e-02
8.75000000000000e-01 6.24842682756066e-01 2.64325048189179e-02
8.78333333333333e-01 6.23293168069675e-01 2.64519631948925e-02
8.81666666666667e-01 6.21745134487683e-01 2.64708713589681e-02
8.85000000000000e-01 6.20198603015140e-01 2.64892339119259e-02
8.88333333333333e-01 6.18653594337729e-01 2.65070554132788e-02
8.91666666666667e-01 6.17110128825897e-01 2.65243403841119e-02
8.95000000000000e-01 6.15568226539528e-01 2.65410933345390e-02
8.98333333333333e-01 6.14027907227371e-01 2.65573187568797e-02
9.01666666666667e-01 6.12489190332901e-01 2.65730723673310e-02
9.05000000000000e-01 6.10952089070961e-01 2.65884490350624e-02
9.08333333333333e-01 6.09416611861810e-01 2.66034798304797e-02
9.11666666666667e-01 6.07882768322462e-01 2.66181552340411e-02
9.15000000000000e-01 6.06350567981302e-01 2.66324768271927e-02
9.18333333333333e-01 6.04820020279254e-01 2.66464461775987e-02
9.21666666666667e-01 6.03291134570899e-01 2.66600648397172e-02
9.25000000000000e-01 6.01763920125565e-01 2.66733343554033e-02
9.28333333333333e-01 6.00238386128357e-01 2.66862562544895e-02
9.31666666666667e-01 5.98714541681161e-01 2.66988320553459e-02
9.35000000000000e-01 5.97192395803598e-01 2.67110632654976e-02
9.38333333333333e-01 5.95671957433940e-01 2.67229513821100e-02
9.41666666666667e-01 5.94153235429996e-01 2.67344978924209e-02
9.45000000000000e-01 5.92636238569966e-01 2.67457042743403e-02
9.48333333333333e-01 5.91120975553242e-01 2.67565719969530e-02
9.51666666666667e-01 5.89607455001196e-01 2.67671025209412e-02
9.55000000000000e-01 5.88095685457923e-01 2.67772972990041e-02
9.58333333333333e-01 5.86585675390965e-01 2.67871577763079e-02
9.61666666666667e-01 5.85077433191996e-01 2.67966853910090e-02
9.65000000000000e-01 5.83570967177477e-01 2.68058815745902e-02
9.68333333333333e-01 5.82066285589292e-01 2.68147477521621e-02
9.71666666666667e-01 5.80563396595361e-01 2.68232853426950e-02
9.75000000000000e-01 5.79062308290261e-01 2.68314957583009e-02
9.78333333333333e-01 5.77563028695957e-01 2.68393804010824e-02
9.81666666666667e-01 5.76065565762953e-01 2.68469406571471e-02
9.85000000000000e-01 5.74569927372022e-01 2.68541778887487e-02
9.88333333333333e-01 5.73076121336630e-01 2.68610934266592e-02
9.91666666666667e-01 5.71584155405870e-01 2.68676886099079e-02
9.95000000000000e-01 5.70094037260260e-01 2.68739648221680e-02
9.98333333333333e-01 5.68605774508755e-01 2.68799235029930e-02
1.00166666666667e+00 5.67119374682766e-01 2.68870368914986e-02
1.00500000000000e+00 5.65634622960763e-01 2.68960727241104e-02
1.00833333333333e+00 5.64151442825041e-01 2.69062898580383e-02
1.01166666666667e+00 5.62669761922254e-01 2.69176386016385e-02
1.01500000000000e+00 5.61189509908665e-01 2.69300888309068e-02
1.01833333333333e+00 5.59710618416667e-01 2.69436107956443e-02
1.02166666666667e+00 5.58233021021679e-01 2.69581751183241e-02
1.02500000000000e+00 5.56756653209410e-01 2.69737527929614e-02
1.02833333333333e+00 5.55281452343482e-01 2.69903151840721e-02
1.03166666666667e+00 5.53807357633402e-01 2.70078340255232e-02
1.03500000000000e+00 5.52334310102900e-01 2.70262814193767e-02
1.03833333333333e+00 5.50862252558602e-01 2.70456298346934e-02
1.04166666666667e+00 5.49391129559060e-01 2.70658521063985e-02
1.04500000000000e+00 5.47920887384110e-01 2.70869214341367e-02
1.04833333333333e+00 5.46451474004568e-01 2.71088113809841e-02
1.05166666666667e+00 5.44982839052268e-01 2.71314958722909e-02
