Energy (eV)          EEDF (eV^-(3/2))     First Anisotropy
4.68750000000000e-02 4.38654739774866e-02 2.90370827924504e-05
1.40625000000000e-01 4.33943714799397e-02 4.78518691296099e-05
2.34375000000000e-01 4.29283284868831e-02 6.29144758797987e-05
3.28125000000000e-01 4.24672906607138e-02 7.42034027989058e-05
4.21875000000000e-01 4.20112042473897e-02 8.34917183064787e-05
5.15625000000000e-01 4.15600160701705e-02 9.14536900231866e-05
6.09375000000000e-01 4.11136735234178e-02 9.84401766416825e-05
7.03125000000000e-01 4.06721245664630e-02 1.04664189410074e-04
7.96875000000000e-01 4.02353177175387e-02 1.10267747724514e-04
8.90625000000000e-01 3.98032020477769e-02 1.15351751800534e-04
9.84375000000000e-01 3.93757271752708e-02 1.19991278334934e-04
1.07812500000000e+00 3.89528432592009e-02 1.24244192796894e-04
1.17187500000000e+00 3.85345009940235e-02 1.28156352657388e-04
1.26562500000000e+00 3.81206516037222e-02 1.31764927314273e-04
1.35937500000000e+00 3.77112468361209e-02 1.35100610846787e-04
1.45312500000000e+00 3.73062389572579e-02 1.38189150517732e-04
1.54687500000000e+00 3.69055807458205e-02 1.41052434636780e-04
1.64062500000000e+00 3.65092254876390e-02 1.43709286705011e-04
1.73437500000000e+00 3.61171269702408e-02 1.46176057936178e-04
1.82812500000000e+00 3.57292394774614e-02 1.48467077820633e-04
1.92187500000000e+00 3.53455177841150e-02 1.50595002506916e-04
2.01562500000000e+00 3.49659171507211e-02 1.52571088186076e-04
2.10937500000000e+00 3.45903933182884e-02 1.54405408472387e-04
2.20312500000000e+00 3.42189025031541e-02 1.56107029313123e-04
2.29687500000000e+00 3.38514013918794e-02 1.57684151239771e-04
2.39062500000000e+00 3.34878471361994e-02 1.59144226188522e-04
2.48437500000000e+00 3.31281973480270e-02 1.60494054290870e-04
2.57812500000000e+00 3.27724100945110e-02 1.61739864722767e-04
2.67187500000000e+00 3.24204438931469e-02 1.62887383744346e-04
2.76562500000000e+00 3.20722577069403e-02 1.63941892355880e-04
2.85937500000000e+00 3.17278109396220e-02 1.64908275467623e-04
2.95312500000000e+00 3.13870634309154e-02 1.65791064081877e-04
3.04687500000000e+00 3.10499754518532e-02 1.66594471680743e-04
3.14062500000000e+00 3.07165077001462e-02 1.67322425777665e-04
3.23437500000000e+00 3.03866212955999e-02 1.67978595407801e-04
3.32812500000000e+00 3.00602777755823e-02 1.68566415188574e-04
3.42187500000000e+00 2.97374390905387e-02 1.69089106468030e-04
3.51562500000000e+00 2.94180675995556e-02 1.69549695987966e-04
3.60937500000000e+00 2.91021260659720e-02 1.69951032416295e-04
3.70312500000000e+00 2.87895776530380e-02 1.70295801044170e-04
3.79687500000000e+00 2.84803859196197e-02 1.70586536895776e-04
3.89062500000000e+00 2.81745148159503e-02 1.70825636459727e-04
3.98437500000000e+00 2.78719286794272e-02 1.71015368218941e-04
4.07812500000000e+00 2.75725922304537e-02 1.71157882129324e-04
4.17187500000000e+00 2.72764705683260e-02 1.71255218175672e-04
4.26562500000000e+00 2.69835291671636e-02 1.71309314114904e-04
4.35937500000000e+00 2.66937338718839e-02 1.71322012501264e-04
4.45312500000000e+00 2.64070508942201e-02 1.71295067075306e-04
4.54687500000000e+00 2.61234468087816e-02 1.71230148587517e-04
4.64062500000000e+00 2.58428885491569e-02 1.71128850118189e-04
4.73437500000000e+00 2.55653434040579e-02 1.70992691947236e-04
4.82812500000000e+00 2.52907790135066e-02 1.70823126020967e-04
4.92187500000000e+00 2.50191633650616e-02 1.70621540057037e-04
5.01562500000000e+00 2.47504647900861e-02 1.70389261323812e-04
5.10937500000000e+00 2.44846519600549e-02 1.70127560126123e-04
5.20312500000000e+00 2.42216938829024e-02 1.69837653025710e-04
5.29687500000000e+00 2.39615598994088e-02 1.69520705821398e-04
5.39062500000000e+00 2.37042196796254e-02 1.69177836311259e-04
5.48437500000000e+00 2.34496432193382e-02 1.68810116856616e-04
5.57812500000000e+00 2.31978008365701e-02 1.68418576765542e-04
5.67187500000000e+00 2.29486631681196e-02 1.68004204511716e-04
5.76562500000000e+00 2.27022011661375e-02 1.67567949802799e-04
5.85937500000000e+00 2.24583860947404e-02 1.67110725511081e-04
5.95312500000000e+00 2.22171895266594e-02 1.66633409477796e-04
6.04687500000000e+00 2.19785833399269e-02 1.66136846201488e-04
6.14062500000000e+00 2.17425397145966e-02 1.65621848419746e-04
6.23437500000000e+00 2.15090311295005e-02 1.65089198592687e-04
6.32812500000000e+00 2.12780303590402e-02 1.64539650295878e-04
6.42187500000000e+00 2.10495104700120e-02 1.63973929529594e-04
6.51562500000000e+00 2.08234448184673e-02 1.63392735950724e-04
6.60937500000000e+00 2.05998070466056e-02 1.62796744033057e-04
6.70312500000000e+00 2.03785710797018e-02 1.62186604161158e-04
6.79687500000000e+00 2.01597111230654e-02 1.61562943662621e-04
6.89062500000000e+00 1.99432016590338e-02 1.60926367783049e-04
6.98437500000000e+00 1.97290174439966e-02 1.60277460607771e-04
7.07812500000000e+00 1.95171335054524e-02 1.59616785933941e-04
7.17187500000000e+00 1.93075251390972e-02 1.58944888096341e-04
7.26562500000000e+00 1.91001679059443e-02 1.58262292750033e-04
7.35937500000000e+00 1.88950376294743e-02 1.57569507612692e-04
7.45312500000000e+00 1.86921103928170e-02 1.56867023169197e-04
7.54687500000000e+00 1.84913625359622e-02 1.56155313340888e-04
7.64062500000000e+00 1.82927706530014e-02 1.55434836121775e-04
7.73437500000000e+00 1.80963115893990e-02 1.54706034183704e-04
7.82812500000000e+00 1.79019624392921e-02 1.53969335452388e-04
7.92187500000000e+00 1.77097005428203e-02 1.53225153656084e-04
8.01562500000000e+00 1.75195034834836e-02 1.52473888848541e-04
8.10937500000000e+00 1.73313490855286e-02 1.51715927907735e-04
8.20312500000000e+00 1.71452154113631e-02 1.50951645011806e-04
8.29687500000000e+00 1.69610807589983e-02 1.50181402093499e-04
8.39062500000000e+00 1.67789236595187e-02 1.49405549274329e-04
8.48437500000000e+00 1.65987228745783e-02 1.48624425279603e-04
8.57812500000000e+00 1.64204573939251e-02 1.47838357835375e-04
8.67187500000000e+00 1.62441064329511e-02 1.47047664048304e-04
8.76562500000000e+00 1.60696494302689e-02 1.46252650769341e-04
8.85937500000000e+00 1.58970660453144e-02 1.45453614942106e-04
8.95312500000000e+00 1.57263361559756e-02 1.44650843936786e-04
9.04687500000000e+00 1.55574398562456e-02 1.43844615870259e-04
9.14062500000000e+00 1.53903574539028e-02 1.43035199913208e-04
9.23437500000000e+00 1.52250694682141e-02 1.42222856584845e-04
9.32812500000000e+00 1.50615566276638e-02 1.41407838035888e-04
9.42187500000000e+00 1.48997998677068e-02 1.40590388320375e-04
9.51562500000000e+00 1.47397803285457e-02 1.39770743656853e-04
9.60937500000000e+00 1.45814793529318e-02 1.38949132679487e-04
9.70312500000000e+00 1.44248784839899e-02 1.38125776679544e-04
9.79687500000000e+00 1.42699594630662e-02 1.37300889837696e-04
9.89062500000000e+00 1.41167042275998e-02 1.36474679447633e-04
9.98437500000000e+00 1.39650949090163e-02 1.35647346131349e-04
1.00781250000000e+01 1.38151138306445e-02 1.34819084046468e-04
1.01718750000000e+01 1.36667435056558e-02 1.33990081086036e-04
1.02656250000000e+01 1.35199666350249e-02 1.33160519071061e-04
1.03593750000000e+01 1.33747661055132e-02 1.32330573936119e-04
1.04531250000000e+01 1.32311249876730e-02 1.31500415908411e-04
1.05468750000000e+01 1.30890265338744e-02 1.30670209680469e-04
1.06406250000000e+01 1.29484541763518e-02 1.29840114576832e-04
1.07343750000000e+01 1.28093915252729e-02 1.29010284714939e-04
1.08281250000000e+01 1.26718223668272e-02 1.28180869160503e-04
1.09218750000000e+01 1.25357306613362e-02 1.27352012077568e-04
1.10156250000000e+01 1.24011005413826e-02 1.26523852873481e-04
1.11093750000000e+01 1.22679163099605e-02 1.25696526339009e-04
1.12031250000000e+01 1.21361624386456e-02 1.24870162783784e-04
1.12968750000000e+01 1.20058235657843e-02 1.24044888167266e-04
1.13906250000000e+01 1.18768844947025e-02 1.23220824225398e-04
1.14843750000000e+01 1.17493301919342e-02 1.22398088593130e-04
1.15781250000000e+01 1.16231457854685e-02 1.21576794922989e-04
1.16718750000000e+01 1.14983165630153e-02 1.20757052999839e-04
1.17656250000000e+01 1.13748279702907e-02 1.19938968851957e-04
1.18593750000000e+01 1.12526656093191e-02 1.19122644858611e-04
1.19531250000000e+01 1.11318152367553e-02 1.18308179854239e-04
1.20468750000000e+01 1.10122627622236e-02 1.17495669229363e-04
1.21406250000000e+01 1.08939942466745e-02 1.16685205028377e-04
1.22343750000000e+01 1.07769959007601e-02 1.15876876044310e-04
1.23281250000000e+01 1.06612540832261e-02 1.15070767910683e-04
1.24218750000000e+01 1.05467552993212e-02 1.14266963190551e-04
1.25156250000000e+01 1.04334861992241e-02 1.13465541462859e-04
1.26093750000000e+01 1.03214335764864e-02 1.12666579406185e-04
1.27031250000000e+01 1.02105843664932e-02 1.11870150879976e-04
1.27968750000000e+01 1.01009256449399e-02 1.11076327003366e-04
1.28906250000000e+01 9.99244462632522e-03 1.10285176231644e-04
1.29843750000000e+01 9.88512866246028e-03 1.09496764430492e-04
1.30781250000000e+01 9.77896524099422e-03 1.08711154948015e-04
1.31718750000000e+01 9.67394198395517e-03 1.07928408684697e-04
1.32656250000000e+01 9.57004664630710e-03 1.07148584161308e-04
1.33593750000000e+01 9.46726711452214e-03 1.06371737584871e-04
1.34531250000000e+01 9.36559140516818e-03 1.05597922912704e-04
1.35468750000000e+01 9.26500766351171e-03 1.04827191914659e-04
1.36406250000000e+01 9.16550416213563e-03 1.04059594233575e-04
1.37343750000000e+01 9.06706929957193e-03 1.03295177444029e-04
1.38281250000000e+01 8.96969159894896e-03 1.02533987109413e-04
1.39218750000000e+01 8.87335970665339e-03 1.01776066837424e-04
1.40156250000000e+01 8.77806239100641e-03 1.01021458334003e-04
1.41093750000000e+01 8.68378854095416e-03 1.00270201455770e-04
1.42031250000000e+01 8.59052716477233e-03 9.95223342610020e-05
1.42968750000000e+01 8.49826738878449e-03 9.87778930592061e-05
1.43906250000000e+01 8.40699845609441e-03 9.80369124593363e-05
1.44843750000000e+01 8.31670972533176e-03 9.72994254166814e-05
1.45781250000000e+01 8.22739066941148e-03 9.65654632784774e-05
1.46718750000000e+01 8.13903087430635e-03 9.58350558282907e-05
1.47656250000000e+01 8.05162003783279e-03 9.51082313291824e-05
1.48593750000000e+01 7.96514796844969e-03 9.43850165657203e-05
1.49531250000000e+01 7.87960458407013e-03 9.36654368848603e-05
1.50468750000000e+01 7.79497991088592e-03 9.29495162357247e-05
1.51406250000000e+01 7.71126408220464e-03 9.22372772083287e-05
1.52343750000000e+01 7.62844733729931e-03 9.15287410712700e-05
1.53281250000000e+01 7.54652002027035e-03 9.08239278084203e-05
1.54218750000000e+01 7.46547257891973e-03 9.01228561546504e-05
1.55156250000000e+01 7.38529556363726e-03 8.94255436306094e-05
1.56093750000000e+01 7.30597962629884e-03 8.87320065765831e-05
1.57031250000000e+01 7.22751551917651e-03 8.80422601854814e-05
1.57968750000000e+01 7.14989409386024e-03 8.73563185349504e-05
1.58906250000000e+01 7.07310630019127e-03 8.66741946186461e-05
1.59843750000000e+01 6.99714318520693e-03 8.59959003767031e-05
1.60781250000000e+01 6.92199589209677e-03 8.53214467254105e-05
1.61718750000000e+01 6.84765565916994e-03 8.46508435861187e-05
1.62656250000000e+01 6.77411381883359e-03 8.39840999133985e-05
1.63593750000000e+01 6.70136179658232e-03 8.33212237224769e-05
1.64531250000000e+01 6.62939110999846e-03 8.26622221159684e-05
1.65468750000000e+01 6.55819336776300e-03 8.20071013099211e-05
1.66406250000000e+01 6.48776026867732e-03 8.13558666591930e-05
1.67343750000000e+01 6.41808360069524e-03 8.07085226821863e-05
1.68281250000000e+01 6.34915523996560e-03 8.00650730849461e-05
1.69218750000000e+01 6.28096714988502e-03 7.94255207846476e-05
1.70156250000000e+01 6.21351138016095e-03 7.87898679324917e-05
1.71093750000000e+01 6.14678006588466e-03 7.81581159360098e-05
1.72031250000000e+01 6.08076542661427e-03 7.75302654808100e-05
1.72968750000000e+01 6.01545976546760e-03 7.69063165517840e-05
1.73906250000000e+01 5.95085546822474e-03 7.62862684537559e-05
1.74843750000000e+01 5.88694500244031e-03 7.56701198316269e-05
1.75781250000000e+01 5.82372091656523e-03 7.50578686900229e-05
1.76718750000000e+01 5.76117583907788e-03 7.44495124124225e-05
1.77656250000000e+01 5.69930247762464e-03 7.38450477798180e-05
1.78593750000000e+01 5.63809361816968e-03 7.32444709889165e-05
1.79531250000000e+01 5.57754212415383e-03 7.26477776698746e-05
1.80468750000000e+01 5.51764093566248e-03 7.20549629035936e-05
1.81406250000000e+01 5.45838306860247e-03 7.14660212385788e-05
1.82343750000000e+01 5.39976161388778e-03 7.08809467073846e-05
1.83281250000000e+01 5.34176973663397e-03 7.02997328426418e-05
1.84218750000000e+01 5.28440067536130e-03 6.97223726926899e-05
1.85156250000000e+01 5.22764774120634e-03 6.91488588368229e-05
1.86093750000000e+01 5.17150431714213e-03 6.85791834001495e-05
1.87031250000000e+01 5.11596385720666e-03 6.80133380680830e-05
1.87968750000000e+01 5.06101988573967e-03 6.74513141004717e-05
1.88906250000000e+01 5.00666599662760e-03 6.68931023453891e-05
1.89843750000000e+01 4.95289585255670e-03 6.63386932525709e-05
1.90781250000000e+01 4.89970318427416e-03 6.57880768865105e-05
1.91718750000000e+01 4.84708178985710e-03 6.52412429392414e-05
1.92656250000000e+01 4.79502553398950e-03 6.46981807428045e-05
1.93593750000000e+01 4.74352834724689e-03 6.41588792813970e-05
1.94531250000000e+01 4.69258422538862e-03 6.36233272032237e-05
1.95468750000000e+01 4.64218722865788e-03 6.30915128320476e-05
1.96406250000000e+01 4.59233148108910e-03 6.25634241784605e-05
1.97343750000000e+01 4.54301116982293e-03 6.20390489508809e-05
1.98281250000000e+01 4.49422054442838e-03 6.15183745662613e-05
1.99218750000000e+01 4.44595391623248e-03 6.10013881605338e-05
2.00156250000000e+01 4.39820565765692e-03 6.04880765988051e-05
2.01093750000000e+01 4.35097020156200e-03 5.99784264852952e-05
2.02031250000000e+01 4.30424204059745e-03 5.94724241730201e-05
2.02968750000000e+01 4.25801572656036e-03 5.89700557732378e-05
2.03906250000000e+01 4.21228586975994e-03 5.84713071646650e-05
2.04843750000000e+01 4.16704713838914e-03 5.79761640024533e-05
2.05781250000000e+01 4.12229425790294e-03 5.74846117269487e-05
2.06718750000000e+01 4.07802201040343e-03 5.69966355722282e-05
2.07656250000000e+01 4.03422523403142e-03 5.65122205744235e-05
2.08593750000000e+01 3.99089882236457e-03 5.60313515798404e-05
2.09531250000000e+01 3.94803772382205e-03 5.55540132528686e-05
2.10468750000000e+01 3.90563694107556e-03 5.50801900836921e-05
2.11406250000000e+01 3.86369153046665e-03 5.46098663958101e-05
2.12343750000000e+01 3.82219660143032e-03 5.41430263533736e-05
2.13281250000000e+01 3.78114731592483e-03 5.36796539683230e-05
2.14218750000000e+01 3.74053888786762e-03 5.32197331073525e-05
2.15156250000000e+01 3.70036658257726e-03 5.27632474987021e-05
2.16093750000000e+01 3.66062571622143e-03 5.23101807387708e-05
2.17031250000000e+01 3.62131165527081e-03 5.18605162985673e-05
2.17968750000000e+01 3.58241981595884e-03 5.14142375299917e-05
2.18906250000000e+01 3.54394566374732e-03 5.09713276719616e-05
2.19843750000000e+01 3.50588471279764e-03 5.05317698563808e-05
2.20781250000000e+01 3.46823252544780e-03 5.00955471139491e-05
2.21718750000000e+01 3.43098471169504e-03 4.96626423798311e-05
2.22656250000000e+01 3.39413692868392e-03 4.92330384991770e-05
2.23593750000000e+01 3.35768488020004e-03 4.88067182324970e-05
2.24531250000000e+01 3.32162431616909e-03 4.83836642609027e-05
2.25468750000000e+01 3.28595103216131e-03 4.79638591912087e-05
2.26406250000000e+01 3.25066086890132e-03 4.75472855608997e-05
2.27343750000000e+01 3.21574971178315e-03 4.71339258429774e-05
2.28281250000000e+01 3.18121349039052e-03 4.67237624506725e-05
2.29218750000000e+01 3.14704817802221e-03 4.63167777420315e-05
2.30156250000000e+01 3.11324979122264e-03 4.59129540243889e-05
2.31093750000000e+01 3.07981438931736e-03 4.55122735587208e-05
2.32031250000000e+01 3.04673807395365e-03 4.51147185638803e-05
2.32968750000000e+01 3.01401698864596e-03 4.47202712207235e-05
2.33906250000000e+01 2.98164731832628e-03 4.43289136761208e-05
2.34843750000000e+01 2.94962528889932e-03 4.39406280468661e-05
2.35781250000000e+01 2.91794716680248e-03 4.35553964234805e-05
2.36718750000000e+01 2.88660925857055e-03 4.31732008739077e-05
2.37656250000000e+01 2.85560791040507e-03 4.27940234471162e-05
2.38593750000000e+01 2.82493950774831e-03 4.24178461766010e-05
2.39531250000000e+01 2.79460047486186e-03 4.20446510837908e-05
2.40468750000000e+01 2.76458727440967e-03 4.16744201813597e-05
2.41406250000000e+01 2.73489640704570e-03 4.13071354764503e-05
2.42343750000000e+01 2.70552441100585e-03 4.09427789738046e-05
2.43281250000000e+01 2.67646786170436e-03 4.05813326788084e-05
2.44218750000000e+01 2.64772337133454e-03 4.02227786004547e-05
2.45156250000000e+01 2.61928758847376e-03 3.98670987542228e-05
2.46093750000000e+01 2.59115719769270e-03 3.95142751648691e-05
2.47031250000000e+01 2.56332891916881e-03 3.91642898691485e-05
2.47968750000000e+01 2.53579950830384e-03 3.88171249184520e-05
2.48906250000000e+01 2.50856575534563e-03 3.84727623813703e-05
2.49843750000000e+01 2.48162448501381e-03 3.81311843461861e-05
2.50781250000000e+01 2.45497255612961e-03 3.77923729232886e-05
2.51718750000000e+01 2.42860686124960e-03 3.74563102475237e-05
2.52656250000000e+01 2.40252432630341e-03 3.71229784804692e-05
2.53593750000000e+01 2.37672191023527e-03 3.67923598126450e-05
2.54531250000000e+01 2.35119660464950e-03 3.64644364656609e-05
2.55468750000000e+01 2.32594543345969e-03 3.61391906942967e-05
2.56406250000000e+01 2.30096545254177e-03 3.58166047885158e-05
2.57343750000000e+01 2.27625374939067e-03 3.54966610754268e-05
2.58281250000000e+01 2.25180744278082e-03 3.51793419211780e-05
2.59218750000000e+01 2.22762368243016e-03 3.48646297327932e-05
2.60156250000000e+01 2.20369964866783e-03 3.45525069599553e-05
2.61093750000000e+01 2.18003255210543e-03 3.42429560967273e-05
2.62031250000000e+01 2.15661963331179e-03 3.39359596832244e-05
2.62968750000000e+01 2.13345816249120e-03 3.36315003072335e-05
2.63906250000000e+01 2.11054543916521e-03 3.33295606057722e-05
2.64843750000000e+01 2.08787879185769e-03 3.30301232666040e-05
2.65781250000000e+01 2.06545557778342e-03 3.27331710297062e-05
2.66718750000000e+01 2.04327318253991e-03 3.24386866886806e-05
2.67656250000000e+01 2.02132901980259e-03 3.21466530921222e-05
2.68593750000000e+01 1.99962053102329e-03 3.18570531449428e-05
2.69531250000000e+01 1.97814518513190e-03 3.15698698096452e-05
2.70468750000000e+01 1.95690047824126e-03 3.12850861075575e-05
2.71406250000000e+01 1.93588393335524e-03 3.10026851200205e-05
2.72343750000000e+01 1.91509310007993e-03 3.07226499895320e-05
2.73281250000000e+01 1.89452555433794e-03 3.04449639208571e-05
2.74218750000000e+01 1.87417889808578e-03 3.01696101820909e-05
2.75156250000000e+01 1.85405075903425e-03 2.98965721056869e-05
2.76093750000000e+01 1.83413879037183e-03 2.96258330894423e-05
2.77031250000000e+01 1.81444067049110e-03 2.93573765974477e-05
2.77968750000000e+01 1.79495410271803e-03 2.90911861610036e-05
2.78906250000000e+01 1.77567681504420e-03 2.88272453794974e-05
2.79843750000000e+01 1.75660655986189e-03 2.85655379212453e-05
2.80781250000000e+01 1.73774111370205e-03 2.83060475243042e-05
2.81718750000000e+01 1.71907827697505e-03 2.80487579972472e-05
2.82656250000000e+01 1.70061587371420e-03 2.77936532199060e-05
2.83593750000000e+01 1.68235175132208e-03 2.75407171440827e-05
2.84531250000000e+01 1.66428378031953e-03 2.72899337942308e-05
2.85468750000000e+01 1.64640985409739e-03 2.70412872681099e-05
2.86406250000000e+01 1.62872788867086e-03 2.67947617374028e-05
2.87343750000000e+01 1.61123582243654e-03 2.65503414483095e-05
2.88281250000000e+01 1.59393161593206e-03 2.63080107221128e-05
2.89218750000000e+01 1.57681325159828e-03 2.60677539557167e-05
2.90156250000000e+01 1.55987873354406e-03 2.58295556221563e-05
2.91093750000000e+01 1.54312608731355e-03 2.55934002710809e-05
2.92031250000000e+01 1.52655335965601e-03 2.53592725292153e-05
2.92968750000000e+01 1.51015861829800e-03 2.51271571007944e-05
2.93906250000000e+01 1.49393995171819e-03 2.48970387679738e-05
2.94843750000000e+01 1.47789546892440e-03 2.46689023912153e-05
2.95781250000000e+01 1.46202329923317e-03 2.44427329096534e-05
