Energy (eV)          EEDF (eV^-(3/2))     First Anisotropy
5.00000000000000e-03 6.15168800051335e-01 8.08036982275334e-05
1.50000000000000e-02 6.15168534035714e-01 9.57135284002173e-05
2.50000000000000e-02 6.15167834915430e-01 1.41175491827429e-04
3.50000000000000e-02 6.15166768997848e-01 1.70185011709185e-04
4.50000000000000e-02 6.15165366888121e-01 1.94720601697335e-04
5.50000000000000e-02 6.15163583023829e-01 2.18372149914571e-04
6.50000000000000e-02 6.15161416084676e-01 2.42334548910666e-04
7.50000000000000e-02 6.15158825533439e-01 2.66629953152226e-04
8.50000000000000e-02 6.15155825271112e-01 2.91611902523767e-04
9.50000000000000e-02 6.15152380286499e-01 3.17167312626625e-04
1.05000000000000e-01 6.15148455918895e-01 3.42770486474925e-04
1.15000000000000e-01 6.15144088564166e-01 3.68100361479197e-04
1.25000000000000e-01 6.15139264785078e-01 3.92960724251060e-04
1.35000000000000e-01 6.15133970457347e-01 4.17441935252557e-04
1.45000000000000e-01 6.15128190853681e-01 4.41617324203110e-04
1.55000000000000e-01 6.15121910741294e-01 4.65546307851641e-04
1.65000000000000e-01 6.15115114445112e-01 4.89278217987573e-04
1.75000000000000e-01 6.15107785889305e-01 5.12854710780817e-04
1.85000000000000e-01 6.15099908630880e-01 5.36301030497095e-04
1.95000000000000e-01 6.15091466240415e-01 5.59567198478275e-04
2.05000000000000e-01 6.15082444274551e-01 5.82315162749470e-04
2.15000000000000e-01 6.15072936695375e-01 6.04530928819327e-04
2.25000000000000e-01 6.15062941960328e-01 6.26245022840654e-04
2.35000000000000e-01 6.15052458427554e-01 6.47483421587301e-04
2.45000000000000e-01 6.15041484357007e-01 6.68270986301203e-04
2.55000000000000e-01 6.15030017901056e-01 6.88631774845814e-04
2.65000000000000e-01 6.15018057097417e-01 7.08588972970849e-04
2.75000000000000e-01 6.15005599863894e-01 7.28164828565214e-04
2.85000000000000e-01 6.14992643996256e-01 7.47378230922209e-04
2.95000000000000e-01 6.14979187264753e-01 7.66230218746804e-04
3.05000000000000e-01 6.14965227950456e-01 7.89188085686483e-04
3.15000000000000e-01 6.14950668845180e-01 8.24119398366789e-04
3.25000000000000e-01 6.14935223153485e-01 8.72722516713085e-04
3.35000000000000e-01 6.14918657172164e-01 9.32035982942211e-04
3.45000000000000e-01 6.14900782381277e-01 9.99576159875064e-04
3.55000000000000e-01 6.14881448787198e-01 1.07325902402548e-03
3.65000000000000e-01 6.14860539297002e-01 1.15133576909470e-03
3.75000000000000e-01 6.14837964950669e-01 1.23233942790083e-03
3.85000000000000e-01 6.14813660870894e-01 1.31503952750514e-03
3.95000000000000e-01 6.14787582859257e-01 1.39839933190027e-03
4.05000000000000e-01 6.14759704685296e-01 1.48579290067346e-03
4.15000000000000e-01 6.14729987250098e-01 1.58467839588312e-03
4.25000000000000e-01 6.14698136480401e-01 1.69679816183018e-03
4.35000000000000e-01 6.14663913692118e-01 1.81942623725059e-03
4.45000000000000e-01 6.14627127705338e-01 1.95023747564831e-03
4.55000000000000e-01 6.14587628010014e-01 2.08725323873668e-03
4.65000000000000e-01 6.14545298833928e-01 2.22879479235891e-03
4.75000000000000e-01 6.14500053987287e-01 2.37344322425295e-03
4.85000000000000e-01 6.14451832377755e-01 2.52000446149366e-03
4.95000000000000e-01 6.14400594130741e-01 2.66747667827643e-03
5.05000000000000e-01 6.14346317305513e-01 2.81562566677872e-03
5.15000000000000e-01 6.14289066848112e-01 2.96510139725479e-03
5.25000000000000e-01 6.14228810039834e-01 3.11552309606331e-03
5.35000000000000e-01 6.14165536100205e-01 3.26586368703559e-03
5.45000000000000e-01 6.14099252996337e-01 3.41524969957189e-03
5.55000000000000e-01 6.14029984619214e-01 3.56294340660045e-03
5.65000000000000e-01 6.13957768287027e-01 3.70832697661132e-03
5.75000000000000e-01 6.13882652537554e-01 3.85088846326781e-03
5.85000000000000e-01 6.13804695176855e-01 3.99020914669118e-03
5.95000000000000e-01 6.13723961572661e-01 4.12595096815090e-03
6.05000000000000e-01 6.13640523201964e-01 4.27678948615474e-03
6.15000000000000e-01 6.13553702211595e-01 4.47632537561278e-03
6.25000000000000e-01 6.13462230837578e-01 4.73417929162395e-03
6.35000000000000e-01 6.13365044878247e-01 5.04066366810891e-03
6.45000000000000e-01 6.13261259313147e-01 5.38726227004839e-03
6.55000000000000e-01 6.13150146733714e-01 5.76649457346296e-03
6.65000000000000e-01 6.13031118257995e-01 6.17179590902199e-03
6.75000000000000e-01 6.12903706643894e-01 6.59741139806157e-03
6.85000000000000e-01 6.12767551350178e-01 7.03830187950922e-03
6.95000000000000e-01 6.12622385337838e-01 7.49005971480304e-03
7.05000000000000e-01 6.12468023435786e-01 7.97901073795021e-03
7.15000000000000e-01 6.12303224493949e-01 8.55660013373678e-03
7.25000000000000e-01 6.12125759069117e-01 9.23686952135823e-03
7.35000000000000e-01 6.11933749393240e-01 1.00031336728433e-02
7.45000000000000e-01 6.11725633430065e-01 1.08404185165423e-02
7.55000000000000e-01 6.11500132371146e-01 1.17352970398516e-02
7.65000000000000e-01 6.11256221256745e-01 1.26757402505395e-02
7.75000000000000e-01 6.10993102433705e-01 1.36509818359647e-02
7.85000000000000e-01 6.10710181590825e-01 1.46513950842534e-02
7.95000000000000e-01 6.10407046153658e-01 1.56683804268427e-02
8.05000000000000e-01 6.10083445837060e-01 1.66800762129474e-02
8.15000000000000e-01 6.09739842592617e-01 1.76541839083537e-02
8.25000000000000e-01 6.09377278043129e-01 1.85770424222916e-02
8.35000000000000e-01 6.08996760515374e-01 1.94503161093014e-02
8.45000000000000e-01 6.08599265054434e-01 2.02756703981730e-02
8.55000000000000e-01 6.08185733366977e-01 2.10547747999666e-02
8.65000000000000e-01 6.07757073715202e-01 2.17893048655085e-02
8.75000000000000e-01 6.07314160781771e-01 2.24809432384725e-02
8.85000000000000e-01 6.06857835522250e-01 2.31313799436845e-02
8.95000000000000e-01 6.06388905030945e-01 2.37423118353004e-02
9.05000000000000e-01 6.05908142425622e-01 2.43273963422597e-02
9.15000000000000e-01 6.05415808564037e-01 2.49107738412675e-02
9.25000000000000e-01 6.04911710916951e-01 2.55026321723595e-02
9.35000000000000e-01 6.04395702756985e-01 2.61007630964775e-02
9.45000000000000e-01 6.03867679883548e-01 2.67031197724088e-02
9.55000000000000e-01 6.03327577441988e-01 2.73078118500810e-02
9.65000000000000e-01 6.02775366844810e-01 2.79131002037304e-02
9.75000000000000e-01 6.02211052801523e-01 2.85173913682275e-02
9.85000000000000e-01 6.01634670464340e-01 2.91192315771303e-02
9.95000000000000e-01 6.01046282734742e-01 2.97172997351736e-02
1.00500000000000e+00 6.00445977726681e-01 3.04091215614763e-02
1.01500000000000e+00 5.99829309071496e-01 3.13761253293895e-02
1.02500000000000e+00 5.99189049613981e-01 3.26830641201198e-02
1.03500000000000e+00 5.98518717734594e-01 3.42927387218257e-02
1.04500000000000e+00 5.97812538662481e-01 3.61700155052011e-02
1.05500000000000e+00 5.97065406117691e-01 3.82818002184496e-02
1.06500000000000e+00 5.96272844265383e-01 4.05970123206374e-02
1.07500000000000e+00 5.95430969983778e-01 4.30865589856857e-02
1.08500000000000e+00 5.94536455463521e-01 4.57233080814066e-02
1.09500000000000e+00 5.93586491168338e-01 4.84820595797513e-02
1.10500000000000e+00 5.92578749196891e-01 5.13491722037262e-02
1.11500000000000e+00 5.91508902934132e-01 5.43168075782048e-02
1.12500000000000e+00 5.90374572521133e-01 5.73750993999737e-02
1.13500000000000e+00 5.89173735847506e-01 6.05062751658988e-02
1.14500000000000e+00 5.87904705887765e-01 6.36938649520953e-02
1.15500000000000e+00 5.86566108567971e-01 6.69226552663201e-02
1.16500000000000e+00 5.85156861215472e-01 7.01786414074431e-02
1.17500000000000e+00 5.83676151633613e-01 7.34489788374654e-02
1.18500000000000e+00 5.82123417834609e-01 7.67219339896468e-02
1.19500000000000e+00 5.80498328455744e-01 7.99868348335072e-02
1.20500000000000e+00 5.78800763879238e-01 8.32339823428868e-02
1.21500000000000e+00 5.77025805849994e-01 8.64477992531485e-02
1.22500000000000e+00 5.75173413491187e-01 8.96262442443223e-02
1.23500000000000e+00 5.73243577714251e-01 9.27681359246106e-02
1.24500000000000e+00 5.71236333245054e-01 9.58717788871958e-02
1.25500000000000e+00 5.69151769670216e-01 9.89350227429408e-02
1.26500000000000e+00 5.66990041546412e-01 1.01955317146950e-01
1.27500000000000e+00 5.64751377617723e-01 1.04929762916518e-01
1.28500000000000e+00 5.62436089186369e-01 1.07855159371970e-01
1.29500000000000e+00 5.60044577682716e-01 1.10728048028115e-01
1.30500000000000e+00 5.57577341480634e-01 1.13574146709098e-01
1.31500000000000e+00 5.55035956877358e-01 1.16449775887971e-01
1.32500000000000e+00 5.52418615713606e-01 1.19377202523050e-01
1.33500000000000e+00 5.49723670881119e-01 1.22348265589299e-01
1.34500000000000e+00 5.46949647938142e-01 1.25354501477449e-01
1.35500000000000e+00 5.44095253608713e-01 1.28387286452166e-01
1.36500000000000e+00 5.41159381275899e-01 1.31437970132311e-01
1.37500000000000e+00 5.38141113594571e-01 1.34497999634615e-01
1.38500000000000e+00 5.35039722362784e-01 1.37559034150662e-01
1.39500000000000e+00 5.31854665800912e-01 1.40613049879576e-01
1.40500000000000e+00 5.28585583394566e-01 1.43656784144893e-01
1.41500000000000e+00 5.25232088216475e-01 1.46691722388693e-01
1.42500000000000e+00 5.21793757158221e-01 1.49715231307184e-01
1.43500000000000e+00 5.18270330788427e-01 1.52720487277891e-01
1.44500000000000e+00 5.14661711517664e-01 1.55700884631820e-01
1.45500000000000e+00 5.10967960670448e-01 1.58650074241712e-01
1.46500000000000e+00 5.07189294614708e-01 1.61561995025008e-01
1.47500000000000e+00 5.03326080087168e-01 1.64430899074869e-01
1.48500000000000e+00 4.99378828841059e-01 1.67251371095704e-01
1.49500000000000e+00 4.95348191731261e-01 1.70018342688591e-01
1.50500000000000e+00 4.91234952345148e-01 1.72714339322636e-01
1.51500000000000e+00 4.87033726139777e-01 1.75310547769015e-01
1.52500000000000e+00 4.82746419444849e-01 1.77802579364082e-01
1.53500000000000e+00 4.78374745454774e-01 1.80199431166675e-01
1.54500000000000e+00 4.73920257329438e-01 1.82508597025758e-01
1.55500000000000e+00 4.69384379065146e-01 1.84736199043312e-01
1.56500000000000e+00 4.64768434187153e-01 1.86887112495660e-01
1.57500000000000e+00 4.60073672317425e-01 1.88965084326033e-01
1.58500000000000e+00 4.55301293676205e-01 1.90972845264214e-01
1.59500000000000e+00 4.50452471580823e-01 1.92912215368536e-01
1.60500000000000e+00 4.45528373023178e-01 1.94887327759320e-01
1.61500000000000e+00 4.40509334695940e-01 1.97084864743658e-01
1.62500000000000e+00 4.35386404353427e-01 1.99576707470530e-01
1.63500000000000e+00 4.30151326019746e-01 2.02328567686631e-01
1.64500000000000e+00 4.24796553624088e-01 2.05306921456048e-01
1.65500000000000e+00 4.19315257369377e-01 2.08479249008316e-01
1.66500000000000e+00 4.13701322921540e-01 2.11814258578890e-01
1.67500000000000e+00 4.07949343557906e-01 2.15282093341121e-01
1.68500000000000e+00 4.02054605460058e-01 2.18854520812776e-01
1.69500000000000e+00 3.96013066375363e-01 2.22505104334820e-01
1.70500000000000e+00 3.89821327908602e-01 2.26064634332305e-01
1.71500000000000e+00 3.83466533633438e-01 2.29231601348046e-01
1.72500000000000e+00 3.76961487360548e-01 2.31887412496152e-01
1.73500000000000e+00 3.70318567228269e-01 2.34063161436906e-01
1.74500000000000e+00 3.63549715486737e-01 2.35788967225372e-01
1.75500000000000e+00 3.56666430517249e-01 2.37093950237915e-01
1.76500000000000e+00 3.49679760948517e-01 2.38006214360991e-01
1.77500000000000e+00 3.42600301724722e-01 2.38552835067380e-01
1.78500000000000e+00 3.35438191983096e-01 2.38759852856854e-01
1.79500000000000e+00 3.28203114602767e-01 2.38652269926358e-01
1.80500000000000e+00 3.20904297390071e-01 2.38206673918117e-01
1.81500000000000e+00 3.13420033460971e-01 2.37362818547322e-01
1.82500000000000e+00 3.05765318028145e-01 2.36104260312406e-01
1.83500000000000e+00 2.97955221743645e-01 2.34461780959556e-01
1.84500000000000e+00 2.90004810560566e-01 2.32465373308454e-01
1.85500000000000e+00 2.81929068479829e-01 2.30144254741736e-01
1.86500000000000e+00 2.73742823243472e-01 2.27526877720807e-01
1.87500000000000e+00 2.65460674989074e-01 2.24640938548001e-01
1.88500000000000e+00 2.57096927872120e-01 2.21513384892389e-01
1.89500000000000e+00 2.48665524652802e-01 2.18170422894055e-01
1.90500000000000e+00 2.40179984205793e-01 2.14527824475273e-01
1.91500000000000e+00 2.31679199775589e-01 2.10399952816247e-01
1.92500000000000e+00 2.23192278524883e-01 2.05730393891693e-01
1.93500000000000e+00 2.14747573206597e-01 2.00569022677667e-01
1.94500000000000e+00 2.06372543577629e-01 1.94965113678850e-01
1.95500000000000e+00 1.98093635055951e-01 1.88966987935174e-01
1.96500000000000e+00 1.89936175521394e-01 1.82621679166002e-01
1.97500000000000e+00 1.81924290969413e-01 1.75974620917545e-01
1.98500000000000e+00 1.74080840547312e-01 1.69069356129095e-01
1.99500000000000e+00 1.66427371426667e-01 1.61947269904253e-01
2.00500000000000e+00 1.58984093564883e-01 1.54744029671333e-01
2.01500000000000e+00 1.51773088988306e-01 1.47660349636295e-01
2.02500000000000e+00 1.44793910270633e-01 1.40794556161357e-01
2.03500000000000e+00 1.38045595334494e-01 1.34147429695932e-01
2.04500000000000e+00 1.31526704437115e-01 1.27718977703375e-01
2.05500000000000e+00 1.25235356344589e-01 1.21508504614307e-01
2.06500000000000e+00 1.19169263614221e-01 1.15514677454716e-01
2.07500000000000e+00 1.13325766923812e-01 1.09735587284492e-01
2.08500000000000e+00 1.07701868395542e-01 1.04168806674793e-01
2.09500000000000e+00 1.02294263870189e-01 9.88114438651641e-02
2.10500000000000e+00 9.70993740494081e-02 9.36914488594628e-02
2.11500000000000e+00 9.21474541249168e-02 8.88257368781323e-02
2.12500000000000e+00 8.74262265411730e-02 8.42327049380347e-02
2.13500000000000e+00 8.29239491892601e-02 7.98983907345447e-02
2.14500000000000e+00 7.86293909419781e-02 7.58095681095032e-02
2.15500000000000e+00 7.45318081366830e-02 7.19537106774573e-02
2.16500000000000e+00 7.06209219503512e-02 6.83189573861678e-02
2.17500000000000e+00 6.68868966368921e-02 6.48940797026140e-02
2.18500000000000e+00 6.33203185977977e-02 6.16684503471298e-02
2.19500000000000e+00 5.99121762580772e-02 5.86320136329386e-02
2.20500000000000e+00 5.66538407055512e-02 5.57525900043414e-02
2.21500000000000e+00 5.35474433082520e-02 5.29738349865254e-02
2.22500000000000e+00 5.05893794507624e-02 5.02743606491428e-02
2.23500000000000e+00 4.77759307228939e-02 4.76552639925246e-02
2.24500000000000e+00 4.51032901124191e-02 4.51172023936498e-02
2.25500000000000e+00 4.25675861583780e-02 4.26604177780386e-02
2.26500000000000e+00 4.01649060490706e-02 4.02847605224189e-02
2.27500000000000e+00 3.78913176654659e-02 3.79897128432215e-02
2.28500000000000e+00 3.57428905832533e-02 3.57744114728923e-02
2.29500000000000e+00 3.37157160585299e-02 3.36376694415631e-02
2.30500000000000e+00 3.18059260333019e-02 3.15943950542257e-02
2.31500000000000e+00 3.00096823956580e-02 2.96701906867875e-02
2.32500000000000e+00 2.83196680988303e-02 2.78727773068282e-02
2.33500000000000e+00 2.67290465357636e-02 2.61936389776452e-02
2.34500000000000e+00 2.52314286163825e-02 2.46248555833725e-02
2.35500000000000e+00 2.38208421364644e-02 2.31590604473760e-02
2.36500000000000e+00 2.24917032728416e-02 2.17894010496492e-02
2.37500000000000e+00 2.12387900538357e-02 2.05095025957778e-02
2.38500000000000e+00 2.00572176646784e-02 1.93134342281012e-02
2.39500000000000e+00 1.89424154577225e-02 1.81956777039796e-02
2.40500000000000e+00 1.78901055443535e-02 1.71472169021218e-02
2.41500000000000e+00 1.68977747465649e-02 1.61553372397699e-02
2.42500000000000e+00 1.59624444574328e-02 1.52134192842343e-02
2.43500000000000e+00 1.50812865437854e-02 1.43188928704390e-02
2.44500000000000e+00 1.42516174918339e-02 1.34692906747292e-02
2.45500000000000e+00 1.34708927882537e-02 1.26622439547985e-02
2.46500000000000e+00 1.27367015343544e-02 1.18954783438062e-02
2.47500000000000e+00 1.20467612912592e-02 1.11668096965247e-02
2.48500000000000e+00 1.13989131539573e-02 1.04741399878566e-02
2.49500000000000e+00 1.07911170520815e-02 9.81545326196832e-03
2.50500000000000e+00 1.02214472754562e-02 9.19275751101227e-03
2.51500000000000e+00 9.68798231375917e-03 8.61091905425580e-03
2.52500000000000e+00 9.18813344490197e-03 8.07060294011036e-03
2.53500000000000e+00 8.71950668583625e-03 7.56869297656625e-03
2.54500000000000e+00 8.27988725956594e-03 7.10232108494534e-03
2.55500000000000e+00 7.86722535435299e-03 6.66884669695495e-03
2.56500000000000e+00 7.47962306309997e-03 6.26583793121387e-03
2.57500000000000e+00 7.11532240138785e-03 5.89105438651911e-03
2.58500000000000e+00 6.77269431168032e-03 5.54243140816796e-03
2.59500000000000e+00 6.45022856941535e-03 5.21806570076598e-03
2.60500000000000e+00 6.14652451368385e-03 4.91593421413887e-03
2.61500000000000e+00 5.86060965006612e-03 4.63368936536315e-03
2.62500000000000e+00 5.59131422358194e-03 4.36976248134456e-03
2.63500000000000e+00 5.33754757897590e-03 4.12293444801611e-03
2.64500000000000e+00 5.09829233828727e-03 3.89207503454402e-03
2.65500000000000e+00 4.87259902004071e-03 3.67613623159258e-03
2.66500000000000e+00 4.65958106516391e-03 3.47414610926404e-03
2.67500000000000e+00 4.45841023777331e-03 3.28520315092469e-03
2.68500000000000e+00 4.26831237158594e-03 3.10847102421350e-03
2.69500000000000e+00 4.08856343510334e-03 2.94317376372175e-03
2.70500000000000e+00 3.91848588972502e-03 2.78843793007326e-03
2.71500000000000e+00 3.75824429280496e-03 2.64263274355860e-03
2.72500000000000e+00 3.60723587577629e-03 2.50509088207836e-03
2.73500000000000e+00 3.46489747283955e-03 2.37530094981343e-03
2.74500000000000e+00 3.33070270960167e-03 2.25278630816366e-03
2.75500000000000e+00 3.20415940061750e-03 2.13710261621852e-03
2.76500000000000e+00 3.08480713919859e-03 2.02783555852380e-03
2.77500000000000e+00 2.97221506466656e-03 1.92459874151672e-03
2.78500000000000e+00 2.86597979342529e-03 1.82703174548461e-03
2.79500000000000e+00 2.76572350131774e-03 1.73479832442049e-03
2.80500000000000e+00 2.67109214523866e-03 1.64822027199393e-03
2.81500000000000e+00 2.58211139154525e-03 1.56780408082558e-03
2.82500000000000e+00 2.49831979827394e-03 1.49376231770874e-03
2.83500000000000e+00 2.41929099286281e-03 1.42568465087801e-03
2.84500000000000e+00 2.34463071533767e-03 1.36319500480702e-03
2.85500000000000e+00 2.27397415379392e-03 1.30594824250333e-03
2.86500000000000e+00 2.20698354280874e-03 1.25362715102128e-03
2.87500000000000e+00 2.14334599866584e-03 1.20593969802636e-03
2.88500000000000e+00 2.08277156788785e-03 1.16261653329038e-03
2.89500000000000e+00 2.02499146789425e-03 1.12340871371144e-03
2.90500000000000e+00 1.96975650049089e-03 1.08727427634499e-03
2.91500000000000e+00 1.91698149932768e-03 1.05242745729668e-03
2.92500000000000e+00 1.86659742092950e-03 1.01803587806054e-03
2.93500000000000e+00 1.81853729156845e-03 9.84075591929644e-04
2.94500000000000e+00 1.77273615455928e-03 9.50522450252261e-04
2.95500000000000e+00 1.72913101552042e-03 9.17352129744774e-04
2.96500000000000e+00 1.68766078580362e-03 8.84540157988706e-04
2.97500000000000e+00 1.64826622427147e-03 8.52061937355389e-04
2.98500000000000e+00 1.61088987759464e-03 8.19892767463247e-04
2.99500000000000e+00 1.57547601934829e-03 7.88007862010534e-04
3.00500000000000e+00 1.54197058827018e-03 7.56594495453910e-04
3.01500000000000e+00 1.51000021540012e-03 7.26305165480334e-04
3.02500000000000e+00 1.47949370835900e-03 6.97272416080066e-04
3.03500000000000e+00 1.45038332060340e-03 6.69440488767993e-04
3.04500000000000e+00 1.42260455839753e-03 6.42756688728339e-04
3.05500000000000e+00 1.39609599910479e-03 6.17171216709637e-04
3.06500000000000e+00 1.37079912023615e-03 5.92637009219093e-04
3.07500000000000e+00 1.34665813860117e-03 5.69109587976880e-04
3.08500000000000e+00 1.32361985894968e-03 5.46546918054189e-04
3.09500000000000e+00 1.30163353153104e-03 5.24909274847048e-04
3.10500000000000e+00 1.28065071797808e-03 5.04213286677249e-04
3.11500000000000e+00 1.26068126497270e-03 4.84472465495300e-04
3.12500000000000e+00 1.24167000436614e-03 4.65706210925101e-04
3.13500000000000e+00 1.22356442501802e-03 4.47877290883658e-04
3.14500000000000e+00 1.20631451990934e-03 4.30950802312396e-04
3.15500000000000e+00 1.18987264375985e-03 4.14894023435213e-04
