Energy (eV)          EEDF (eV^-(3/2))     First Anisotropy
9.91525423728814e-03 1.81262669110797e-01 8.84906646103090e-05
2.97457627118644e-02 1.80201472998863e-01 1.46186953872111e-04
4.95762711864407e-02 1.79146489626880e-01 1.93152210592533e-04
6.94067796610170e-02 1.78097682618510e-01 2.28935062132275e-04
8.92372881355932e-02 1.77055015814648e-01 2.58863774251783e-04
1.09067796610169e-01 1.76018453267714e-01 2.84949896172898e-04
1.28898305084746e-01 1.74987959239676e-01 3.08232936405395e-04
1.48728813559322e-01 1.73963498207381e-01 3.29339759102703e-04
1.68559322033898e-01 1.72945034843683e-01 3.48685544419546e-04
1.88389830508475e-01 1.71932534041822e-01 3.66563335172872e-04
2.08220338983051e-01 1.70925960888560e-01 3.83189763582805e-04
2.28050847457627e-01 1.69925280685786e-01 3.98730729699754e-04
2.47881355932203e-01 1.68930458928821e-01 4.13316875242679e-04
2.67711864406780e-01 1.67941461323832e-01 4.27053430776151e-04
2.87542372881356e-01 1.66958253769638e-01 4.40026762236872e-04
3.07372881355932e-01 1.65980802372196e-01 4.52308881090428e-04
3.27203389830508e-01 1.65009073428936e-01 4.63960646198023e-04
3.47033898305085e-01 1.64043033441084e-01 4.75034094854846e-04
3.66864406779661e-01 1.63082649099912e-01 4.85574177645789e-04
3.86694915254237e-01 1.62127887297396e-01 4.95620073654612e-04
4.06525423728814e-01 1.61178715116346e-01 5.05206206342476e-04
4.26355932203390e-01 1.60235099830230e-01 5.14363035596382e-04
4.46186440677966e-01 1.59297008908584e-01 5.23117688596476e-04
4.66016949152542e-01 1.58364410007134e-01 5.31494464759686e-04
4.85847457627119e-01 1.57437270975027e-01 5.39515245401426e-04
5.05677966101695e-01 1.56515559845750e-01 5.47199829333470e-04
5.25508474576271e-01 1.55599244843656e-01 5.54566210012540e-04
5.45338983050847e-01 1.54688294375562e-01 5.61630806486870e-04
5.65169491525424e-01 1.53782677036665e-01 5.68408657078747e-04
5.85000000000000e-01 1.52882361602737e-01 5.74913583128507e-04
6.04830508474576e-01 1.51987317035508e-01 5.81158328121577e-04
6.24661016949153e-01 1.51097512475379e-01 5.87154676780678e-04
6.44491525423729e-01 1.50212917246349e-01 5.92913557392333e-04
6.64322033898305e-01 1.49333500849181e-01 5.98445130351099e-04
6.84152542372881e-01 1.48459232965924e-01 6.03758864978828e-04
7.03983050847458e-01 1.47590083453484e-01 6.08863606633593e-04
7.23813559322034e-01 1.46726022347791e-01 6.13767635426016e-04
7.43644067796610e-01 1.45867019857726e-01 6.18478717950029e-04
7.63474576271186e-01 1.45013046368978e-01 6.23004152881164e-04
7.83305084745763e-01 1.44164072438288e-01 6.27350811456580e-04
8.03135593220339e-01 1.43320068797024e-01 6.31525173199564e-04
8.22966101694915e-01 1.42481006346745e-01 6.35533358788112e-04
8.42796610169491e-01 1.41646856158414e-01 6.39381157564956e-04
8.62627118644068e-01 1.40817589474342e-01 6.43074054042024e-04
8.82457627118644e-01 1.39993177703268e-01 6.46617250882695e-04
9.02288135593220e-01 1.39173592423198e-01 6.50015689751196e-04
9.22118644067797e-01 1.38358805376705e-01 6.53274070222224e-04
9.41949152542373e-01 1.37548788473574e-01 6.56396866861181e-04
9.61779661016949e-01 1.36743513786309e-01 6.59388344794974e-04
9.81610169491525e-01 1.35942953552605e-01 6.62252573831001e-04
1.00144067796610e+00 1.35147080171040e-01 6.64993441073436e-04
1.02127118644068e+00 1.34355866204921e-01 6.67614663803545e-04
1.04110169491525e+00 1.33569284372783e-01 6.70119799509761e-04
1.06093220338983e+00 1.32787307555995e-01 6.72512254652139e-04
1.08076271186441e+00 1.32009908794694e-01 6.74795295553872e-04
1.10059322033898e+00 1.31237061286863e-01 6.76972054645040e-04
1.12042372881356e+00 1.30468738394248e-01 6.79045542695825e-04
1.14025423728814e+00 1.29704913620705e-01 6.81018652936289e-04
1.16008474576271e+00 1.28945560632197e-01 6.82894164623780e-04
1.17991525423729e+00 1.28190653248857e-01 6.84674753743892e-04
1.19974576271186e+00 1.27440165444061e-01 6.86362997138048e-04
1.21957627118644e+00 1.26694071343580e-01 6.87961377773896e-04
1.23940677966102e+00 1.25952345224663e-01 6.89472288306269e-04
1.25923728813559e+00 1.25214961521007e-01 6.90898039713076e-04
1.27906779661017e+00 1.24481894804165e-01 6.92240862819404e-04
1.29889830508475e+00 1.23753119800523e-01 6.93502909520933e-04
1.31872881355932e+00 1.23028611384420e-01 6.94686260642833e-04
1.33855932203390e+00 1.22308344577289e-01 6.95792928018714e-04
1.35838983050847e+00 1.21592294546809e-01 6.96824856504415e-04
1.37822033898305e+00 1.20880436611189e-01 6.97783930784455e-04
1.39805084745763e+00 1.20172746222745e-01 6.98671975719133e-04
1.41788135593220e+00 1.19469198982747e-01 6.99490756502122e-04
1.43771186440678e+00 1.18769770635302e-01 7.00241985010632e-04
1.45754237288136e+00 1.18074437066511e-01 7.00927320901338e-04
1.47737288135593e+00 1.17383174303659e-01 7.01548373853297e-04
1.49720338983051e+00 1.16695958514378e-01 7.02106704551093e-04
1.51703389830508e+00 1.16012766010321e-01 7.02603830114651e-04
1.53686440677966e+00 1.15333573232759e-01 7.03041223684258e-04
1.55669491525424e+00 1.14658356765458e-01 7.03420313885476e-04
1.57652542372881e+00 1.13987093329264e-01 7.03742490010031e-04
1.59635593220339e+00 1.13319759781308e-01 7.04009102438139e-04
1.61618644067797e+00 1.12656333114216e-01 7.04221463097165e-04
1.63601694915254e+00 1.11996790459324e-01 7.04380850087146e-04
1.65584745762712e+00 1.11341109073762e-01 7.04488506906417e-04
1.67567796610169e+00 1.10689266351883e-01 7.04545641593137e-04
1.69550847457627e+00 1.10041239820381e-01 7.04553431197320e-04
1.71533898305085e+00 1.09397007137513e-01 7.04513021859580e-04
1.73516949152542e+00 1.08756546092340e-01 7.04425529921787e-04
1.75500000000000e+00 1.08119834603956e-01 7.04292042014867e-04
1.77483050847458e+00 1.07486850724282e-01 7.04113619005396e-04
1.79466101694915e+00 1.06857572626573e-01 7.03891294988702e-04
1.81449152542373e+00 1.06231978615472e-01 7.03626076221687e-04
1.83432203389831e+00 1.05610047122637e-01 7.03318944987235e-04
1.85415254237288e+00 1.04991756705989e-01 7.02970859424824e-04
1.87398305084746e+00 1.04377086048990e-01 7.02582754329998e-04
1.89381355932203e+00 1.03766013959896e-01 7.02155541018838e-04
1.91364406779661e+00 1.03158519374194e-01 7.01690110774314e-04
1.93347457627119e+00 1.02554581344321e-01 7.01187333725365e-04
1.95330508474576e+00 1.01954179048556e-01 7.00648057681349e-04
1.97313559322034e+00 1.01357291787075e-01 7.00073111534587e-04
1.99296610169492e+00 1.00763898981243e-01 6.99463304947139e-04
2.01279661016949e+00 1.00173980172901e-01 6.98819428098784e-04
2.03262711864407e+00 9.95875150265368e-02 6.98142254793918e-04
2.05245762711864e+00 9.90044833199063e-02 6.97432541301446e-04
2.07228813559322e+00 9.84248649520677e-02 6.96691025158555e-04
2.09211864406780e+00 9.78486399397581e-02 6.95918428256512e-04
2.11194915254237e+00 9.72757884167008e-02 6.95115456451921e-04
2.13177966101695e+00 9.67062906329308e-02 6.94282800028904e-04
2.15161016949153e+00 9.61401269541081e-02 6.93421133362496e-04
2.17144067796610e+00 9.55772778634221e-02 6.92531117706546e-04
2.19127118644068e+00 9.50177239531266e-02 6.91613400024372e-04
2.21110169491525e+00 9.44614459317123e-02 6.90668611790355e-04
2.23093220338983e+00 9.39084246206081e-02 6.89697371772058e-04
2.25076271186441e+00 9.33586409535233e-02 6.88700285592075e-04
2.27059322033898e+00 9.28120759757926e-02 6.87677945348501e-04
2.29042372881356e+00 9.22687108460784e-02 6.86630932174704e-04
2.31025423728814e+00 9.17285268286015e-02 6.85559815084624e-04
2.33008474576271e+00 9.11915052996593e-02 6.84465149793419e-04
2.34991525423729e+00 9.06576277445807e-02 6.83347481280402e-04
2.36974576271186e+00 9.01268757570835e-02 6.82207343327789e-04
2.38957627118644e+00 8.95992310386488e-02 6.81045258807243e-04
2.40940677966102e+00 8.90746753978851e-02 6.79861739273493e-04
2.42923728813559e+00 8.85531907520377e-02 6.78657287298283e-04
2.44906779661017e+00 8.80347591199189e-02 6.77432395345932e-04
2.46889830508475e+00 8.75193626277730e-02 6.76187544627590e-04
2.48872881355932e+00 8.70069835064839e-02 6.74923207445025e-04
2.50855932203390e+00 8.64976040909634e-02 6.73639846719729e-04
2.52838983050847e+00 8.59912068195449e-02 6.72337915575046e-04
2.54822033898305e+00 8.54877742353389e-02 6.71017859503264e-04
2.56805084745763e+00 8.49872889797071e-02 6.69680115275624e-04
2.58788135593220e+00 8.44897337976230e-02 6.68325109833755e-04
2.60771186440678e+00 8.39950915350790e-02 6.66953262469289e-04
2.62754237288136e+00 8.35033451384920e-02 6.65564984353123e-04
2.64737288135593e+00 8.30144776541207e-02 6.64160678723073e-04
2.66720338983051e+00 8.25284722274793e-02 6.62740740463977e-04
2.68703389830508e+00 8.20453121045435e-02 6.61305558104179e-04
2.70686440677966e+00 8.15649806257785e-02 6.59855512769342e-04
2.72669491525424e+00 8.10874612309908e-02 6.58390977119587e-04
2.74652542372881e+00 8.06127374569368e-02 6.56912317361743e-04
2.76635593220339e+00 8.01407929367552e-02 6.55419892785392e-04
2.78618644067797e+00 7.96716113994060e-02 6.53914055346009e-04
2.80601694915254e+00 7.92051766707576e-02 6.52395151532016e-04
2.82584745762712e+00 7.87414726680494e-02 6.50863521359037e-04
2.84567796610169e+00 7.82804834043460e-02 6.49319497349541e-04
2.86550847457627e+00 7.78221929863071e-02 6.47763406415950e-04
2.88533898305085e+00 7.73665856136368e-02 6.46195569406875e-04
2.90516949152542e+00 7.69136455785434e-02 6.44616301235459e-04
2.92500000000000e+00 7.64633572651959e-02 6.43025910471692e-04
2.94483050847458e+00 7.60157051506961e-02 6.41424701074296e-04
2.96466101694915e+00 7.55706737999865e-02 6.39812971432068e-04
2.98449152542373e+00 7.51282478699007e-02 6.38191013391764e-04
3.00432203389831e+00 7.46884121070978e-02 6.36559114007618e-04
3.02415254237288e+00 7.42511513475356e-02 6.34917555101369e-04
3.04398305084746e+00 7.38164505159509e-02 6.33266613369308e-04
3.06381355932203e+00 7.33842946253381e-02 6.31606559985738e-04
3.08364406779661e+00 7.29546687778174e-02 6.29937662214665e-04
3.10347457627119e+00 7.25275581599430e-02 6.28260182497887e-04
3.12330508474576e+00 7.21029480463938e-02 6.26574377530736e-04
3.14313559322034e+00 7.16808237980564e-02 6.24880499891041e-04
3.16296610169492e+00 7.12611708615221e-02 6.23178797615793e-04
3.18279661016949e+00 7.08439747685851e-02 6.21469513816657e-04
3.20262711864407e+00 7.04292211370293e-02 6.19752888196955e-04
3.22245762711864e+00 7.00168956662529e-02 6.18029156179949e-04
3.24228813559322e+00 6.96069841406760e-02 6.16298548025464e-04
3.26211864406780e+00 6.91994724279433e-02 6.14561290364685e-04
3.28194915254237e+00 6.87943464784355e-02 6.12817605791221e-04
3.30177966101695e+00 6.83915923247877e-02 6.11067712938120e-04
3.32161016949153e+00 6.79911960814062e-02 6.09311826107952e-04
3.34144067796610e+00 6.75931439451739e-02 6.07550156689903e-04
3.36127118644068e+00 6.71974221914035e-02 6.05782912332513e-04
3.38110169491525e+00 6.68040171769548e-02 6.04010296105749e-04
3.40093220338983e+00 6.64129153385598e-02 6.02232507935409e-04
3.42076271186441e+00 6.60241031923563e-02 6.00449744211883e-04
3.44059322033898e+00 6.56375673334235e-02 5.98662197433226e-04
3.46042372881356e+00 6.52532944364215e-02 5.96870057543439e-04
3.48025423728814e+00 6.48712712518072e-02 5.95073511142451e-04
3.50008474576271e+00 6.44914846087200e-02 5.93272740686257e-04
3.51991525423729e+00 6.41139214134077e-02 5.91467925842263e-04
3.53974576271186e+00 6.37385686487736e-02 5.89659243112753e-04
3.55957627118644e+00 6.33654133739304e-02 5.87846865891968e-04
3.57940677966102e+00 6.29944427237526e-02 5.86030964124821e-04
3.59923728813559e+00 6.26256439094510e-02 5.84211705560486e-04
3.61906779661017e+00 6.22590042150621e-02 5.82389255003839e-04
3.63889830508475e+00 6.18945110000956e-02 5.80563773557212e-04
3.65872881355932e+00 6.15321516980639e-02 5.78735419890683e-04
3.67855932203390e+00 6.11719138160493e-02 5.76904349883383e-04
3.69838983050847e+00 6.08137849342739e-02 5.75070716294969e-04
3.71822033898305e+00 6.04577527066213e-02 5.73234669952463e-04
3.73805084745763e+00 6.01038048573452e-02 5.71396359035734e-04
3.75788135593220e+00 5.97519291835267e-02 5.69555928354129e-04
3.77771186440678e+00 5.94021135536884e-02 5.67713520549087e-04
3.79754237288136e+00 5.90543459073753e-02 5.65869275749999e-04
3.81737288135593e+00 5.87086142547407e-02 5.64023331617302e-04
3.83720338983051e+00 5.83649066761322e-02 5.62175823029460e-04
3.85703389830508e+00 5.80232113225599e-02 5.60326883197288e-04
3.87686440677966e+00 5.76835164126358e-02 5.58476642987000e-04
3.89669491525424e+00 5.73458102348338e-02 5.56625230234845e-04
3.91652542372881e+00 5.70100811461921e-02 5.54772770877002e-04
3.93635593220339e+00 5.66763175719119e-02 5.52919388622116e-04
3.95618644067797e+00 5.63445080049592e-02 5.51065204650453e-04
3.97601694915254e+00 5.60146410064906e-02 5.49210338670921e-04
3.99584745762712e+00 5.56867052029769e-02 5.47354908275005e-04
4.01567796610169e+00 5.53606892883059e-02 5.45499028282942e-04
4.03550847457627e+00 5.50365820225565e-02 5.43642811815141e-04
4.05533898305085e+00 5.47143722316107e-02 5.41786369978703e-04
4.07516949152542e+00 5.43940488067695e-02 5.39929811900458e-04
4.09500000000000e+00 5.40756007043694e-02 5.38073244440739e-04
4.11483050847458e+00 5.37590169461653e-02 5.36216773187932e-04
4.13466101694915e+00 5.34442866166492e-02 5.34360501846214e-04
4.15449152542373e+00 5.31313988649887e-02 5.32504531616144e-04
4.17432203389830e+00 5.28203429038768e-02 5.30648962203365e-04
4.19415254237288e+00 5.25111080091601e-02 5.28793891520147e-04
4.21398305084746e+00 5.22036835194700e-02 5.26939415714694e-04
4.23381355932203e+00 5.18980588358541e-02 5.25085628898552e-04
4.25364406779661e+00 5.15942234221208e-02 5.23232624083325e-04
4.27347457627119e+00 5.12921668023371e-02 5.21380492600630e-04
4.29330508474576e+00 5.09918785626166e-02 5.19529323515178e-04
4.31313559322034e+00 5.06933483500405e-02 5.17679204574729e-04
4.33296610169492e+00 5.03965658723007e-02 5.15830221926726e-04
4.35279661016949e+00 5.01015208973455e-02 5.13982459857311e-04
4.37262711864407e+00 4.98082032536917e-02 5.12136001681278e-04
4.39245762711864e+00 4.95166028280676e-02 5.10290929188525e-04
4.41228813559322e+00 4.92267095670809e-02 5.08447322083909e-04
4.43211864406780e+00 4.89385134761966e-02 5.06605258890221e-04
4.45194915254237e+00 4.86520046193916e-02 5.04764816676856e-04
4.47177966101695e+00 4.83671731188135e-02 5.02926071082798e-04
4.49161016949153e+00 4.80840091544397e-02 5.01089096068331e-04
4.51144067796610e+00 4.78025029643576e-02 4.99253964754589e-04
4.53127118644068e+00 4.75226448425609e-02 4.97420748898667e-04
4.55110169491525e+00 4.72444251404922e-02 4.95589518362928e-04
4.57093220338983e+00 4.69678342660807e-02 4.93760341966705e-04
4.59076271186441e+00 4.66928626834119e-02 4.91933287228473e-04
4.61059322033898e+00 4.64195009123996e-02 4.90108420128210e-04
4.63042372881356e+00 4.61477395290403e-02 4.88285805905885e-04
4.65025423728814e+00 4.58775691633333e-02 4.86465508560588e-04
4.67008474576271e+00 4.56089805007220e-02 4.84647590343733e-04
4.68991525423729e+00 4.53419642811813e-02 4.82832112569576e-04
4.70974576271186e+00 4.50765112988982e-02 4.81019135368408e-04
4.72957627118644e+00 4.48126124019552e-02 4.79208717704906e-04
4.74940677966102e+00 4.45502584920144e-02 4.77400917152270e-04
4.76923728813559e+00 4.42894405245463e-02 4.75595790646019e-04
4.78906779661017e+00 4.40301495068824e-02 4.73793394009235e-04
4.80889830508475e+00 4.37723764995488e-02 4.71993781472201e-04
4.82872881355932e+00 4.35161126154072e-02 4.70197006437557e-04
4.84855932203390e+00 4.32613490193487e-02 4.68403121246081e-04
4.86838983050847e+00 4.30080769279896e-02 4.66612176960234e-04
4.88822033898305e+00 4.27562876098788e-02 4.64824224082250e-04
4.90805084745763e+00 4.25059723836570e-02 4.63039312100557e-04
4.92788135593220e+00 4.22571226193053e-02 4.61257489031028e-04
4.94771186440678e+00 4.20097297373286e-02 4.59478802145865e-04
4.96754237288136e+00 4.17637852084599e-02 4.57703297749313e-04
4.98737288135593e+00 4.15192805533667e-02 4.55931021192415e-04
5.00720338983051e+00 4.12762073423587e-02 4.54162016667374e-04
5.02703389830508e+00 4.10345571955736e-02 4.52396327886242e-04
5.04686440677966e+00 4.07943217812508e-02 4.50633997650837e-04
5.06669491525424e+00 4.05554928168888e-02 4.48875067417486e-04
5.08652542372881e+00 4.03180620684755e-02 4.47119577986070e-04
5.10635593220339e+00 4.00820213502046e-02 4.45367569287133e-04
5.12618644067797e+00 3.98473625241934e-02 4.43619080184756e-04
5.14601694915254e+00 3.96140775006515e-02 4.41874149123511e-04
5.16584745762712e+00 3.93821582362473e-02 4.40132813717574e-04
5.18567796610169e+00 3.91515967351917e-02 4.38395110335012e-04
5.20550847457627e+00 3.89223850485070e-02 4.36661074754373e-04
5.22533898305085e+00 3.86945152737520e-02 4.34930741961039e-04
5.24516949152542e+00 3.84679795547503e-02 4.33204146159096e-04
5.26500000000000e+00 3.82427700813192e-02 4.31481320584211e-04
5.28483050847458e+00 3.80188790894208e-02 4.29762298115556e-04
5.30466101694915e+00 3.77962988596272e-02 4.28047110885946e-04
5.32449152542373e+00 3.75750217181278e-02 4.26335789887375e-04
5.34432203389830e+00 3.73550400360377e-02 4.24628365592425e-04
5.36415254237288e+00 3.71363462291348e-02 4.22924867760617e-04
5.38398305084746e+00 3.69189327575992e-02 4.21225325449209e-04
5.40381355932203e+00 3.67027921257522e-02 4.19529766835275e-04
5.42364406779661e+00 3.64879168821915e-02 4.17838219794857e-04
5.44347457627119e+00 3.62742996183493e-02 4.16150711533021e-04
5.46330508474576e+00 3.60619329694273e-02 4.14467268209604e-04
5.48313559322034e+00 3.58508096137442e-02 4.12787915527237e-04
5.50296610169492e+00 3.56409222724830e-02 4.11112678547462e-04
5.52279661016949e+00 3.54322637094407e-02 4.09441581520368e-04
5.54262711864407e+00 3.52248267311491e-02 4.07774648437216e-04
5.56245762711864e+00 3.50186041855090e-02 4.06111902676755e-04
5.58228813559322e+00 3.48135889626668e-02 4.04453366647452e-04
5.60211864406780e+00 3.46097739943935e-02 4.02799062348680e-04
5.62194915254237e+00 3.44071522538404e-02 4.01149011194643e-04
5.64177966101695e+00 3.42057167552976e-02 3.99503234023201e-04
5.66161016949153e+00 3.40054605539527e-02 3.97861750933976e-04
5.68144067796610e+00 3.38063767459992e-02 3.96224581811654e-04
5.70127118644068e+00 3.36084584673503e-02 3.94591745990258e-04
5.72110169491525e+00 3.34116988944555e-02 3.92963261913573e-04
5.74093220338983e+00 3.32160912437123e-02 3.91339147666633e-04
5.76076271186441e+00 3.30216287712327e-02 3.89719420808437e-04
5.78059322033898e+00 3.28283047726106e-02 3.88104098216804e-04
5.80042372881356e+00 3.26361125830190e-02 3.86493196588094e-04
5.82025423728814e+00 3.24450455759903e-02 3.84886732116140e-04
5.84008474576271e+00 3.22550971641825e-02 3.83284720167580e-04
5.85991525423729e+00 3.20662607988189e-02 3.81687175789224e-04
5.87974576271186e+00 3.18785299694623e-02 3.80094113547904e-04
5.89957627118644e+00 3.16918982037907e-02 3.78505547537747e-04
5.91940677966102e+00 3.15063590673741e-02 3.76921491232721e-04
5.93923728813559e+00 3.13219061637608e-02 3.75341957960245e-04
5.95906779661017e+00 3.11385331333282e-02 3.73766960596235e-04
5.97889830508475e+00 3.09562336539964e-02 3.72196511256771e-04
5.99872881355932e+00 3.07750014406979e-02 3.70630621779009e-04
6.01855932203390e+00 3.05948302451609e-02 3.69069303568967e-04
6.03838983050847e+00 3.04157138556938e-02 3.67512567460256e-04
6.05822033898305e+00 3.02376460972629e-02 3.65960424166397e-04
6.07805084745763e+00 3.00606208304003e-02 3.64412883989237e-04
6.09788135593220e+00 2.98846319518758e-02 3.62869956524053e-04
6.11771186440678e+00 2.97096733941898e-02 3.61331651118814e-04
6.13754237288136e+00 2.95357391253649e-02 3.59797976728479e-04
6.15737288135593e+00 2.93628231487375e-02 3.58268941921041e-04
6.17720338983051e+00 2.91909195027517e-02 3.56744554743232e-04
6.19703389830508e+00 2.90200222610262e-02 3.55224823149356e-04
6.21686440677966e+00 2.88501255313270e-02 3.53709754724376e-04
6.23669491525424e+00 2.86812234561910e-02 3.52199356403708e-04
6.25652542372881e+00 2.85133102124480e-02 3.50693634908713e-04
