Energy (eV)          EEDF (eV^-(3/2))     First Anisotropy
3.06785714285714e-02 2.83922819586639e-01 2.81030938348241e-04
9.20357142857143e-02 2.77006663989771e-01 4.59956131558212e-04
1.53392857142857e-01 2.70258980949094e-01 5.96413453256216e-04
2.14750000000000e-01 2.63675666617242e-01 6.93745231312608e-04
2.76107142857143e-01 2.57252717114968e-01 7.69837265050391e-04
3.37464285714286e-01 2.50986226036659e-01 8.31641409709214e-04
3.98821428571429e-01 2.44872382169071e-01 8.82849344221616e-04
4.60178571428571e-01 2.38907467136829e-01 9.25745629852491e-04
5.21535714285714e-01 2.33087853140901e-01 9.61881123570090e-04
5.82892857142857e-01 2.27410000753116e-01 9.92376414940861e-04
6.44250000000000e-01 2.21870456763055e-01 1.01807848956309e-03
7.05607142857143e-01 2.16465852085859e-01 1.03964967442376e-03
7.66964285714286e-01 2.11192899688469e-01 1.05762182350696e-03
8.28321428571429e-01 2.06048392616306e-01 1.07243118291499e-03
8.89678571428571e-01 2.01029202033850e-01 1.08444182960889e-03
9.51035714285714e-01 1.96132275321652e-01 1.09396200184900e-03
1.01239285714286e+00 1.91354634219947e-01 1.10125582535255e-03
1.07375000000000e+00 1.86693373012634e-01 1.10655194885220e-03
1.13510714285714e+00 1.82145656786382e-01 1.11005004946878e-03
1.19646428571429e+00 1.77708719664923e-01 1.11192582654481e-03
1.25782142857143e+00 1.73379863113573e-01 1.11233488851174e-03
1.31917857142857e+00 1.69156454403234e-01 1.11141584516908e-03
1.38053571428571e+00 1.65035924898379e-01 1.10929279202173e-03
1.44189285714286e+00 1.61015768506760e-01 1.10607731104721e-03
1.50325000000000e+00 1.57093540240645e-01 1.10187013098595e-03
1.56460714285714e+00 1.53266854640084e-01 1.09676250297171e-03
1.62596428571429e+00 1.49533384353417e-01 1.09083734382915e-03
1.68732142857143e+00 1.45890858700676e-01 1.08417020207910e-03
1.74867857142857e+00 1.42337062358180e-01 1.07683008455914e-03
1.81003571428571e+00 1.38869833942768e-01 1.06888016574636e-03
1.87139285714286e+00 1.35487064703514e-01 1.06037838553027e-03
1.93275000000000e+00 1.32186697294279e-01 1.05137797989451e-03
1.99410714285714e+00 1.28966724465082e-01 1.04192794206495e-03
2.05546428571429e+00 1.25825187861197e-01 1.03207342039169e-03
2.11682142857143e+00 1.22760176817945e-01 1.02185606940407e-03
2.17817857142857e+00 1.19769827242481e-01 1.01131436419590e-03
2.23953571428571e+00 1.16852320434589e-01 1.00048388067149e-03
2.30089285714286e+00 1.14005881984276e-01 9.89397535080715e-04
2.36225000000000e+00 1.11228780730129e-01 9.78085807876500e-04
2.42360714285714e+00 1.08519327667524e-01 9.66576943538397e-04
2.48496428571429e+00 1.05875874934822e-01 9.54897125835834e-04
2.54632142857143e+00 1.03296814801250e-01 9.43070636740656e-04
2.60767857142857e+00 1.00780578719692e-01 9.31120003468519e-04
2.66903571428571e+00 9.83256363410832e-02 9.19066132861794e-04
2.73039285714286e+00 9.59304945860327e-02 9.06928425815044e-04
2.79175000000000e+00 9.35936967632957e-02 8.94724889150758e-04
2.85310714285714e+00 9.13138216563947e-02 8.82472237070475e-04
2.91446428571429e+00 8.90894826686895e-02 8.70185980523133e-04
2.97582142857143e+00 8.69193269729347e-02 8.57880509758016e-04
3.03717857142857e+00 8.48020347104886e-02 8.45569172729053e-04
3.09853571428571e+00 8.27363181659154e-02 8.33264348020466e-04
3.15989285714286e+00 8.07209209853946e-02 8.20977505984194e-04
3.22125000000000e+00 7.87546174318820e-02 8.08719271133617e-04
3.28260714285714e+00 7.68362116197691e-02 7.96499479241860e-04
3.34396428571429e+00 7.49645367943764e-02 7.84327227468421e-04
3.40532142857143e+00 7.31384546171040e-02 7.72210921289418e-04
3.46667857142857e+00 7.13568544892489e-02 7.60158320080577e-04
3.52803571428571e+00 6.96186528599319e-02 7.48176580075238e-04
3.58939285714286e+00 6.79227925681931e-02 7.36272289519683e-04
3.65075000000000e+00 6.62682422142845e-02 7.24451506115662e-04
3.71210714285714e+00 6.46539955177204e-02 7.12719791451636e-04
3.77346428571429e+00 6.30790707102935e-02 7.01082240962578e-04
3.83482142857143e+00 6.15425099350583e-02 6.89543512266517e-04
3.89617857142857e+00 6.00433786758207e-02 6.78107853257514e-04
3.95753571428571e+00 5.85807651763898e-02 6.66779128855573e-04
4.01889285714286e+00 5.71537798868398e-02 6.55560842222212e-04
4.08025000000000e+00 5.57615549331900e-02 6.44456158376085e-04
4.14160714285714e+00 5.44032435785806e-02 6.33467925950944e-04
4.20296428571429e+00 5.30780197120593e-02 6.22598695878363e-04
4.26432142857143e+00 5.17850773431860e-02 6.11850739201881e-04
4.32567857142857e+00 5.05236301209468e-02 6.01226065090510e-04
4.38703571428571e+00 4.92929108461507e-02 5.90726438138095e-04
4.44839285714286e+00 4.80921710053956e-02 5.80353391565515e-04
4.50975000000000e+00 4.69206803239531e-02 5.70108242628713e-04
4.57110714285714e+00 4.57777263132842e-02 5.59992106810854e-04
4.63246428571429e+00 4.46626138405621e-02 5.50005909798960e-04
4.69382142857143e+00 4.35746647036355e-02 5.40150398981346e-04
4.75517857142857e+00 4.25132172255110e-02 5.30426155309066e-04
4.81653571428571e+00 4.14776258447901e-02 5.20833604772084e-04
4.87789285714286e+00 4.04672607234657e-02 5.11373026757967e-04
4.93925000000000e+00 3.94815073700892e-02 5.02044564335024e-04
5.00060714285714e+00 3.85197662596552e-02 4.92848233704346e-04
5.06196428571429e+00 3.75814524711592e-02 4.83783932004702e-04
5.12332142857143e+00 3.66659953301083e-02 4.74851444850262e-04
5.18467857142857e+00 3.57728380668048e-02 4.66050454274598e-04
5.24603571428571e+00 3.49014374722287e-02 4.57380546469495e-04
5.30739285714286e+00 3.40512635679784e-02 4.48841217107778e-04
5.36875000000000e+00 3.32217992887570e-02 4.40431878304485e-04
5.43010714285714e+00 3.24125401629646e-02 4.32151864991441e-04
5.49146428571429e+00 3.16229940075690e-02 4.24000440040119e-04
5.55282142857143e+00 3.08526806274090e-02 4.15976799237363e-04
5.61417857142857e+00 3.01011315273052e-02 4.08080076655836e-04
5.67553571428571e+00 2.93678896228644e-02 4.00309349920795e-04
5.73689285714286e+00 2.86525089627236e-02 3.92663643580558e-04
5.79825000000000e+00 2.79545544610724e-02 3.85141933854124e-04
5.85960714285714e+00 2.72736016292021e-02 3.77743152954749e-04
5.92096428571429e+00 2.66092363186449e-02 3.70466192447331e-04
5.98232142857143e+00 2.59610544682349e-02 3.63309906528336e-04
6.04367857142857e+00 2.53286618616095e-02 3.56273115666566e-04
6.10503571428572e+00 2.47116738841264e-02 3.49354610198424e-04
6.16639285714286e+00 2.41097152891267e-02 3.42553152421020e-04
6.22775000000000e+00 2.35224199726439e-02 3.35867479834879e-04
6.28910714285714e+00 2.29494307477439e-02 3.29296308074513e-04
6.35046428571429e+00 2.23903991283102e-02 3.22838333084605e-04
6.41182142857143e+00 2.18449851162676e-02 3.16492233259774e-04
6.47317857142857e+00 2.13128569973473e-02 3.10256671903791e-04
6.53453571428572e+00 2.07936911367337e-02 3.04130299676717e-04
6.59589285714286e+00 2.02871717823730e-02 2.98111755843831e-04
6.65725000000000e+00 1.97929908752403e-02 2.92199670480574e-04
6.71860714285714e+00 1.93108478596234e-02 2.86392666444546e-04
6.77996428571429e+00 1.88404495011319e-02 2.80689360753313e-04
6.84132142857143e+00 1.83815097076997e-02 2.75088365950045e-04
6.90267857142857e+00 1.79337493575959e-02 2.69588291746776e-04
6.96403571428571e+00 1.74968961276104e-02 2.64187746674439e-04
7.02539285714286e+00 1.70706843275387e-02 2.58885338772053e-04
7.08675000000000e+00 1.66548547404112e-02 2.53679677069259e-04
7.14810714285714e+00 1.62491544629787e-02 2.48569372893124e-04
7.20946428571429e+00 1.58533367525342e-02 2.43553040703864e-04
7.27082142857143e+00 1.54671608763268e-02 2.38629298932459e-04
7.33217857142857e+00 1.50903919667418e-02 2.33796771056798e-04
7.39353571428571e+00 1.47228008768295e-02 2.29054086694799e-04
7.45489285714286e+00 1.43641640410260e-02 2.24399881923745e-04
7.51625000000000e+00 1.40142633406242e-02 2.19832800257268e-04
7.57760714285714e+00 1.36728859696423e-02 2.15351493488701e-04
7.63896428571429e+00 1.33398243058998e-02 2.10954622158889e-04
7.70032142857143e+00 1.30148757843309e-02 2.06640856033882e-04
7.76167857142857e+00 1.26978427750504e-02 2.02408874786032e-04
7.82303571428571e+00 1.23885324618658e-02 1.98257368697006e-04
7.88439285714286e+00 1.20867567250746e-02 1.94185038735576e-04
7.94575000000000e+00 1.17923320281993e-02 1.90190597180290e-04
8.00710714285714e+00 1.15050793051895e-02 1.86272768139839e-04
8.06846428571429e+00 1.12248238519154e-02 1.82430287772830e-04
8.12982142857143e+00 1.09513952195857e-02 1.78661904521582e-04
8.19117857142857e+00 1.06846271120894e-02 1.74966379518499e-04
8.25253571428571e+00 1.04243572838273e-02 1.71342487016228e-04
8.31389285714286e+00 1.01704274410879e-02 1.67789014311153e-04
8.37525000000000e+00 9.92268314669047e-03 1.64304762118319e-04
8.43660714285714e+00 9.68097372512231e-03 1.60888544867665e-04
8.49796428571429e+00 9.44515217121817e-03 1.57539190758768e-04
8.55932142857143e+00 9.21507506049044e-03 1.54255541831443e-04
8.62067857142857e+00 8.99060246270430e-03 1.51036454182272e-04
8.68203571428571e+00 8.77159785595178e-03 1.47880798204897e-04
8.74339285714286e+00 8.55792804366184e-03 1.44787458418799e-04
8.80475000000000e+00 8.34946307432356e-03 1.41755333672108e-04
8.86610714285714e+00 8.14607616170319e-03 1.38783337283626e-04
8.92746428571429e+00 7.94764360798861e-03 1.35870396990323e-04
8.98882142857143e+00 7.75404472834716e-03 1.33015454911072e-04
9.05017857142857e+00 7.56516177817080e-03 1.30217467633481e-04
9.11153571428571e+00 7.38087988080681e-03 1.27475406323450e-04
9.17289285714286e+00 7.20108695772377e-03 1.24788256499768e-04
9.23425000000000e+00 7.02567366093347e-03 1.22155018118725e-04
9.29560714285714e+00 6.85453330588715e-03 1.19574705611646e-04
9.35696428571429e+00 6.68756180679505e-03 1.17046347765311e-04
9.41832142857143e+00 6.52465761315351e-03 1.14568987618168e-04
9.47967857142857e+00 6.36572164850042e-03 1.12141682460216e-04
9.54103571428571e+00 6.21065724962957e-03 1.09763503853987e-04
9.60239285714286e+00 6.05937010782709e-03 1.07433537382424e-04
9.66375000000000e+00 5.91176821198563e-03 1.05150882653795e-04
9.72510714285714e+00 5.76776179216239e-03 1.02914653270061e-04
9.78646428571429e+00 5.62726326514594e-03 1.00723976668098e-04
9.84782142857143e+00 5.49018718105296e-03 9.85779939757724e-05
9.90917857142857e+00 5.35645017177487e-03 9.64758599552276e-05
9.97053571428571e+00 5.22597089984910e-03 9.44167429874939e-05
1.00318928571429e+01 5.09867000888630e-03 9.23998246590367e-05
1.00932500000000e+01 4.97447007655002e-03 9.04243001456327e-05
1.01546071428571e+01 4.85329556451865e-03 8.84893775462637e-05
1.02159642857143e+01 4.73507277690670e-03 8.65942780510529e-05
1.02773214285714e+01 4.61972981069893e-03 8.47382358038405e-05
1.03386785714286e+01 4.50719651662693e-03 8.29204974963060e-05
1.04000357142857e+01 4.39740445306706e-03 8.11403230686772e-05
1.04613928571429e+01 4.29028684458919e-03 7.93969843754274e-05
1.05227500000000e+01 4.18577854439863e-03 7.76897658098244e-05
1.05841071428571e+01 4.08381599065397e-03 7.60179640280322e-05
1.06454642857143e+01 3.98433717175294e-03 7.43808877309858e-05
1.07068214285714e+01 3.88728158478774e-03 7.27778575937676e-05
1.07681785714286e+01 3.79259020246740e-03 7.12082058949592e-05
1.08295357142857e+01 3.70020543444229e-03 6.96712770592504e-05
1.08908928571429e+01 3.61007109241772e-03 6.81664265234343e-05
1.09522500000000e+01 3.52213235844924e-03 6.66930212183894e-05
1.10136071428571e+01 3.43633574832105e-03 6.52504393096263e-05
1.10749642857143e+01 3.35262908220533e-03 6.38380699865190e-05
1.11363214285714e+01 3.27096144983047e-03 6.24553133739696e-05
1.11976785714286e+01 3.19128318252586e-03 6.11015801975950e-05
1.12590357142857e+01 3.11354582076933e-03 5.97762922031796e-05
1.13203928571429e+01 3.03770208482637e-03 5.84788811936531e-05
1.13817500000000e+01 2.96370584799333e-03 5.72087894002261e-05
1.14431071428571e+01 2.89151210588696e-03 5.59654692425059e-05
1.15044642857143e+01 2.82107695165425e-03 5.47483831296123e-05
1.15658214285714e+01 2.75235754676120e-03 5.35570033629697e-05
1.16271785714286e+01 2.68531209737504e-03 5.23908118364191e-05
1.16885357142857e+01 2.61989982712766e-03 5.12493003597377e-05
1.17498928571429e+01 2.55608095240576e-03 5.01319698413316e-05
1.18112500000000e+01 2.49381665977474e-03 4.90383305732011e-05
1.18726071428571e+01 2.43306908021919e-03 4.79679020119713e-05
1.19339642857143e+01 2.37380126820393e-03 4.69202125944349e-05
1.19953214285714e+01 2.31597717717081e-03 4.58947996375727e-05
1.20566785714286e+01 2.25956163959131e-03 4.48912090717702e-05
1.21180357142857e+01 2.20452034410363e-03 4.39089956896233e-05
1.21793928571429e+01 2.15081981471716e-03 4.29477224526581e-05
1.22407500000000e+01 2.09842739176781e-03 4.20069607093546e-05
1.23021071428571e+01 2.04731121030647e-03 4.10862899972463e-05
1.23634642857143e+01 1.99744018241804e-03 4.01852978740607e-05
1.24248214285714e+01 1.94878397666303e-03 3.93035798190857e-05
1.24861785714286e+01 1.90131300123483e-03 3.84407389971537e-05
1.25475357142857e+01 1.85499838476487e-03 3.75963864492988e-05
1.26088928571429e+01 1.80981195882174e-03 3.67701405049387e-05
1.26702500000000e+01 1.76572624184820e-03 3.59616269479424e-05
1.27316071428571e+01 1.72271442102636e-03 3.51704788391886e-05
1.27929642857143e+01 1.68075033735136e-03 3.43963363635524e-05
1.28543214285714e+01 1.63980846837952e-03 3.36388467352992e-05
1.29156785714286e+01 1.59986391401044e-03 3.28976639902428e-05
1.29770357142857e+01 1.56089238036945e-03 3.21724491312005e-05
1.30383928571429e+01 1.52287016507943e-03 3.14628696297797e-05
1.30997500000000e+01 1.48577414371504e-03 3.07685995521817e-05
1.31611071428571e+01 1.44958175458247e-03 3.00893194011250e-05
1.32224642857143e+01 1.41427098612152e-03 2.94247159783209e-05
1.32838214285714e+01 1.37982036242595e-03 2.87744822955412e-05
1.33451785714286e+01 1.34620893124403e-03 2.81383173922936e-05
1.34065357142857e+01 1.31341625044301e-03 2.75159264461966e-05
1.34678928571429e+01 1.28142237561469e-03 2.69070203508385e-05
1.35292500000000e+01 1.25020784865379e-03 2.63113158104426e-05
1.35906071428571e+01 1.21975368498201e-03 2.57285351997967e-05
1.36519642857143e+01 1.19004136291734e-03 2.51584064414641e-05
1.37133214285714e+01 1.16105281151931e-03 2.46006629234421e-05
1.37746785714286e+01 1.13277040046375e-03 2.40550433397490e-05
1.38360357142857e+01 1.10517692867441e-03 2.35212917736260e-05
1.38973928571429e+01 1.07825561389238e-03 2.29991573399480e-05
1.39587500000000e+01 1.05199008304696e-03 2.24883942558681e-05
1.40201071428571e+01 1.02636436152980e-03 2.19887617172565e-05
1.40814642857143e+01 1.00136286422597e-03 2.15000237896708e-05
1.41428214285714e+01 9.76970385309260e-04 2.10219493330086e-05
1.42041785714286e+01 9.53172089700061e-04 2.05543118625202e-05
1.42655357142857e+01 9.29953503516006e-04 2.00968896110167e-05
1.43268928571429e+01 9.07300505294195e-04 1.96494652260316e-05
1.43882500000000e+01 8.85199317874208e-04 1.92118258219927e-05
1.44496071428571e+01 8.63636499392151e-04 1.87837628716372e-05
1.45109642857143e+01 8.42598935714965e-04 1.83650721096503e-05
1.45723214285714e+01 8.22073831871874e-04 1.79555534643595e-05
1.46336785714286e+01 8.02048704848929e-04 1.75550109368498e-05
1.46950357142857e+01 7.82511375566868e-04 1.71632526470061e-05
1.47563928571429e+01 7.63449961494299e-04 1.67800905770940e-05
1.48177500000000e+01 7.44852869806090e-04 1.64053406097783e-05
1.48791071428571e+01 7.26708789820654e-04 1.60388224330127e-05
1.49404642857143e+01 7.09006686618896e-04 1.56803594552091e-05
1.50018214285714e+01 6.91735793848613e-04 1.53297787437849e-05
1.50631785714286e+01 6.74885607647460e-04 1.49869109202496e-05
1.51245357142857e+01 6.58445879903144e-04 1.46515901938445e-05
1.51858928571429e+01 6.42406612037192e-04 1.43236541444633e-05
1.52472500000000e+01 6.26758049238896e-04 1.40029437498801e-05
1.53086071428571e+01 6.11490674113844e-04 1.36893033026788e-05
1.53699642857143e+01 5.96595201302747e-04 1.33825803358234e-05
1.54313214285714e+01 5.82062571438149e-04 1.30826255677208e-05
1.54926785714286e+01 5.67883946019784e-04 1.27892928113400e-05
1.55540357142857e+01 5.54050701751635e-04 1.25024389983795e-05
1.56153928571429e+01 5.40554425310823e-04 1.22219239955207e-05
1.56767500000000e+01 5.27386908488460e-04 1.19476106234747e-05
1.57381071428571e+01 5.14540142854883e-04 1.16793645846070e-05
1.57994642857143e+01 5.02006315222256e-04 1.14170543978268e-05
1.58608214285714e+01 4.89777802568546e-04 1.11605513497314e-05
1.59221785714286e+01 4.77847167716538e-04 1.09097294160155e-05
1.59835357142857e+01 4.66207154575343e-04 1.06644652784434e-05
1.60448928571429e+01 4.54850683738309e-04 1.04246381693392e-05
1.61062500000000e+01 4.43770848388469e-04 1.01901298844737e-05
1.61676071428571e+01 4.32960909817320e-04 9.96082472014407e-06
1.62289642857143e+01 4.22414293599327e-04 9.73660941636290e-06
1.62903214285714e+01 4.12124585327954e-04 9.51737311360698e-06
1.63516785714286e+01 4.02085526972722e-04 9.30300728495414e-06
1.64130357142857e+01 3.92291012880419e-04 9.09340574763064e-06
1.64743928571429e+01 3.82735086070667e-04 8.88846453141405e-06
1.65357500000000e+01 3.73411934785925e-04 8.68808188692146e-06
1.65971071428571e+01 3.64315888726914e-04 8.49215823101530e-06
1.66584642857143e+01 3.55441415827672e-04 8.30059609734701e-06
1.67198214285714e+01 3.46783118673419e-04 8.11330009821483e-06
1.67811785714286e+01 3.38335731429580e-04 7.93017686604337e-06
1.68425357142857e+01 3.30094116481184e-04 7.75113506087242e-06
1.69038928571429e+01 3.22053261315539e-04 7.57608525900825e-06
1.69652500000000e+01 3.14208275615526e-04 7.40493995791525e-06
1.70266071428571e+01 3.06554388096807e-04 7.23761352892815e-06
1.70879642857143e+01 2.99086943789415e-04 7.07402217428499e-06
1.71493214285714e+01 2.91801401028192e-04 6.91408389360301e-06
1.72106785714286e+01 2.84693328864214e-04 6.75771843347608e-06
1.72720357142857e+01 2.77758404240359e-04 6.60484729195987e-06
1.73333928571429e+01 2.70992409368050e-04 6.45539362436470e-06
1.73947500000000e+01 2.64391229278438e-04 6.30928224567282e-06
1.74561071428571e+01 2.57950849165004e-04 6.16643958964279e-06
1.75174642857143e+01 2.51667352092327e-04 6.02679367154723e-06
1.75788214285714e+01 2.45536916467384e-04 5.89027405879499e-06
1.76401785714286e+01 2.39555813857797e-04 5.75681182756761e-06
1.77015357142857e+01 2.33720406617890e-04 5.62633956510993e-06
1.77628928571429e+01 2.28027145681197e-04 5.49879129003371e-06
1.78242500000000e+01 2.22472568497541e-04 5.37410245296341e-06
1.78856071428571e+01 2.17053296800098e-04 5.25220990121839e-06
1.79469642857143e+01 2.11766034674390e-04 5.13305184655072e-06
1.80083214285714e+01 2.06607566433464e-04 5.01656783946680e-06
1.80696785714286e+01 2.01574754779174e-04 4.90269873195767e-06
1.81310357142857e+01 1.96664538806770e-04 4.79138667821348e-06
1.81923928571429e+01 1.91873932147289e-04 4.68257506720856e-06
1.82537500000000e+01 1.87200021229800e-04 4.57620852210999e-06
1.83151071428571e+01 1.82639963405031e-04 4.47223286981507e-06
1.83764642857143e+01 1.78190985318054e-04 4.37059511305899e-06
1.84378214285714e+01 1.73850381122741e-04 4.27124340802199e-06
1.84991785714286e+01 1.69615510932258e-04 4.17412703232635e-06
1.85605357142857e+01 1.65483799141742e-04 4.07919638464519e-06
1.86218928571429e+01 1.61452732865124e-04 3.98640292768047e-06
1.86832500000000e+01 1.57519860471370e-04 3.89569918673679e-06
1.87446071428571e+01 1.53682790007623e-04 3.80703872347676e-06
1.88059642857143e+01 1.49939187827935e-04 3.72037611183844e-06
1.88673214285714e+01 1.46286777092722e-04 3.63566691854816e-06
1.89286785714286e+01 1.42723336463079e-04 3.55286767566276e-06
1.89900357142857e+01 1.39246698690771e-04 3.47193587942757e-06
1.90513928571429e+01 1.35854749302829e-04 3.39282994204868e-06
1.91127500000000e+01 1.32545425368636e-04 3.31550918973191e-06
1.91741071428571e+01 1.29316714174709e-04 3.23993384009628e-06
1.92354642857143e+01 1.26166652069261e-04 3.16606498140583e-06
1.92968214285714e+01 1.23093323201097e-04 3.09386455564204e-06
1.93581785714286e+01 1.20094858419454e-04 3.02329533496407e-06
