Energy (eV)          EEDF (eV^-(3/2))     First Anisotropy
1.43333333333333e-02 1.70954103547119e+00 2.06921715759082e-03
4.30000000000000e-02 1.64528105099343e+00 3.36395629075111e-03
7.16666666666667e-02 1.58343653695770e+00 4.30280842746332e-03
1.00333333333333e-01 1.52391669801283e+00 4.93713769065026e-03
1.29000000000000e-01 1.46663415171353e+00 5.40436666607200e-03
1.57666666666667e-01 1.41150480090215e+00 5.75907361964761e-03
1.86333333333333e-01 1.35844770864820e+00 6.03078396622905e-03
2.15000000000000e-01 1.30738498078424e+00 6.23805918959754e-03
2.43666666666667e-01 1.25824165133530e+00 6.39366489902123e-03
2.72333333333333e-01 1.21094557176830e+00 6.50692125498016e-03
3.01000000000000e-01 1.16542730576501e+00 6.58492793725755e-03
3.29666666666667e-01 1.12162002719271e+00 6.63326633249190e-03
3.58333333333333e-01 1.07945942156203e+00 6.65643146847991e-03
3.87000000000000e-01 1.03888359204368e+00 6.65811271110969e-03
4.15666666666667e-01 9.99832968547555e-01 6.64138441062655e-03
4.44333333333333e-01 9.62250219968261e-01 6.60884007854267e-03
4.73000000000000e-01 9.26080170318767e-01 6.56268973049955e-03
5.01666666666667e-01 8.91269717694548e-01 6.50483236818492e-03
5.30333333333333e-01 8.57767756096789e-01 6.43691109801446e-03
5.59000000000000e-01 8.25525100622942e-01 6.36035587215059e-03
5.87666666666667e-01 7.94494415236355e-01 6.27641721552280e-03
6.16333333333333e-01 7.64630143108123e-01 6.18619319126880e-03
6.45000000000000e-01 7.35888439900210e-01 6.09065126043167e-03
6.73666666666667e-01 7.08227109381646e-01 5.99064623148718e-03
7.02333333333333e-01 6.81605541353540e-01 5.88693511661983e-03
7.31000000000000e-01 6.55984652156623e-01 5.78018955846922e-03
7.59666666666667e-01 6.31326827280594e-01 5.67100633060941e-03
7.88333333333333e-01 6.07595866042621e-01 5.55991624688165e-03
8.17000000000000e-01 5.84756928541187e-01 5.44739178631719e-03
8.45666666666667e-01 5.62776484498467e-01 5.33385367494375e-03
8.74333333333333e-01 5.41622263955039e-01 5.21967657289651e-03
9.03000000000000e-01 5.21263209974098e-01 5.10519402562737e-03
9.31666666666667e-01 5.01669433039575e-01 4.99070280769090e-03
9.60333333333333e-01 4.82812167111214e-01 4.87646672724470e-03
9.89000000000000e-01 4.64663727457402e-01 4.76271997849681e-03
1.01766666666667e+00 4.47197470053920e-01 4.64967013492739e-03
1.04633333333333e+00 4.30387752220002e-01 4.53750077444883e-03
1.07500000000000e+00 4.14209895276614e-01 4.42637381405230e-03
1.10366666666667e+00 3.98640148330184e-01 4.31643165935069e-03
1.13233333333333e+00 3.83655652979855e-01 4.20779906046777e-03
1.16100000000000e+00 3.69234410191292e-01 4.10058477373303e-03
1.18966666666667e+00 3.55355247966237e-01 3.99488313528982e-03
1.21833333333333e+00 3.41997789909969e-01 3.89077540530229e-03
1.24700000000000e+00 3.29142425673437e-01 3.78833098106295e-03
1.27566666666667e+00 3.16770282135918e-01 3.68760856189558e-03
1.30433333333333e+00 3.04863195407020e-01 3.58865714039623e-03
1.33300000000000e+00 2.93403684456308e-01 3.49151690102302e-03
1.36166666666667e+00 2.82374925426946e-01 3.39622009449407e-03
1.39033333333333e+00 2.71760726694497e-01 3.30279177756546e-03
1.41900000000000e+00 2.61545505342835e-01 3.21125048591126e-03
1.44766666666667e+00 2.51714264268350e-01 3.12160889742257e-03
1.47633333333333e+00 2.42252569959987e-01 3.03387438916237e-03
1.50500000000000e+00 2.33146531516097e-01 2.94804954516717e-03
1.53366666666667e+00 2.24382780235844e-01 2.86413266355422e-03
1.56233333333333e+00 2.15948449822258e-01 2.78211817834242e-03
1.59100000000000e+00 2.07831157666922e-01 2.70199704464236e-03
1.61966666666667e+00 2.00018986658273e-01 2.62375712848102e-03
1.64833333333333e+00 1.92500467542441e-01 2.54738352738952e-03
1.67700000000000e+00 1.85264562231703e-01 2.47285886337913e-03
1.70566666666667e+00 1.78300647588754e-01 2.40016358363570e-03
1.73433333333333e+00 1.71598499709406e-01 2.32927620444743e-03
1.76300000000000e+00 1.65148279036725e-01 2.26017353412966e-03
1.79166666666667e+00 1.58940515906588e-01 2.19283090532195e-03
1.82033333333333e+00 1.52966096542263e-01 2.12722236036462e-03
1.84900000000000e+00 1.47216249779491e-01 2.06332082058608e-03
1.87766666666667e+00 1.41682534181957e-01 2.00109826570299e-03
1.90633333333333e+00 1.36356825560873e-01 1.94052587417826e-03
1.93500000000000e+00 1.31231305137106e-01 1.88157415118927e-03
1.96366666666667e+00 1.26298448056024e-01 1.82421306686834e-03
1.99233333333333e+00 1.21551012265684e-01 1.76841216187600e-03
2.02100000000000e+00 1.16982027960793e-01 1.71414064339838e-03
2.04966666666667e+00 1.12584787344909e-01 1.66136749121268e-03
2.07833333333333e+00 1.08352834719078e-01 1.61006153629191e-03
2.10700000000000e+00 1.04279957069099e-01 1.56019153199298e-03
2.13566666666667e+00 1.00360174939584e-01 1.51172623488764e-03
2.16433333333333e+00 9.65877336010997e-02 1.46463446241841e-03
2.19300000000000e+00 9.29570946571157e-02 1.41888514480684e-03
2.22166666666667e+00 8.94629279091582e-02 1.37444738605213e-03
2.25033333333333e+00 8.61001034849328e-02 1.33129050530662e-03
2.27900000000000e+00 8.28636843546641e-02 1.28938407380081e-03
2.30766666666667e+00 7.97489190796890e-02 1.24869796024190e-03
2.33633333333333e+00 7.67512347968868e-02 1.20920235954895e-03
2.36500000000000e+00 7.38662305460041e-02 1.17086781815107e-03
2.39366666666667e+00 7.10896708057385e-02 1.13366526711825e-03
2.42233333333333e+00 6.84174792412234e-02 1.09756604110771e-03
2.45100000000000e+00 6.58457327545586e-02 1.06254189466739e-03
2.47966666666667e+00 6.33706557228554e-02 1.02856502573446e-03
2.50833333333333e+00 6.09886144257006e-02 9.95608087033503e-04
2.53700000000000e+00 5.86961117405929e-02 9.63644195456104e-04
2.56566666666667e+00 5.64897820067113e-02 9.32646948017497e-04
2.59433333333333e+00 5.43663860583445e-02 9.02590427471898e-04
2.62300000000000e+00 5.23228064953924e-02 8.73449206400377e-04
2.65166666666667e+00 5.03560431049026e-02 8.45198357287929e-04
2.68033333333333e+00 4.84632084345186e-02 8.17813453748385e-04
2.70900000000000e+00 4.66415235757587e-02 7.91270570608468e-04
2.73766666666667e+00 4.48883140827442e-02 7.65546289429265e-04
2.76633333333333e+00 4.32010060269086e-02 7.40617696439470e-04
2.79500000000000e+00 4.15771222375006e-02 7.16462379632008e-04
2.82366666666667e+00 4.00142786635088e-02 6.93058430784980e-04
2.85233333333333e+00 3.85101808572750e-02 6.70384440969832e-04
2.88100000000000e+00 3.70626206226780e-02 6.48419495461882e-04
2.90966666666667e+00 3.56694727721251e-02 6.27143173101564e-04
2.93833333333333e+00 3.43286919924132e-02 6.06535540059832e-04
2.96700000000000e+00 3.30383098564139e-02 5.86577143193081e-04
2.99566666666667e+00 3.17964319322277e-02 5.67249007414163e-04
3.02433333333333e+00 3.06012349897188e-02 5.48532628250745e-04
3.05300000000000e+00 2.94509643363026e-02 5.30409964139172e-04
3.08166666666667e+00 2.83439312400191e-02 5.12863432337289e-04
3.11033333333333e+00 2.72785104396928e-02 4.95875900694617e-04
3.13900000000000e+00 2.62531377696905e-02 4.79430679271289e-04
3.16766666666667e+00 2.52663078628233e-02 4.63511515214296e-04
3.19633333333333e+00 2.43165719311155e-02 4.48102584065195e-04
3.22500000000000e+00 2.34025356482052e-02 4.33188481003608e-04
3.25366666666667e+00 2.25228571016871e-02 4.18754215019789e-04
3.28233333333333e+00 2.16762448150671e-02 4.04785200011084e-04
3.31100000000000e+00 2.08614558598710e-02 3.91267245880458e-04
3.33966666666667e+00 2.00772940303418e-02 3.78186552266736e-04
3.36833333333333e+00 1.93226080803564e-02 3.65529699621696e-04
3.39700000000000e+00 1.85962900403367e-02 3.53283640338917e-04
3.42566666666667e+00 1.78972735901530e-02 3.41435692245522e-04
3.45433333333333e+00 1.72245324876359e-02 3.29973529804396e-04
3.48300000000000e+00 1.65770790680791e-02 3.18885175404691e-04
3.51166666666667e+00 1.59539627938271e-02 3.08158992772649e-04
3.54033333333333e+00 1.53542688535534e-02 2.97783678405721e-04
3.56900000000000e+00 1.47771168245539e-02 2.87748253121110e-04
3.59766666666667e+00 1.42216593798325e-02 2.78042055505980e-04
3.62633333333333e+00 1.36870810395833e-02 2.68654733660385e-04
3.65500000000000e+00 1.31725969786194e-02 2.59576237072511e-04
3.68366666666667e+00 1.26774518738531e-02 2.50796810198724e-04
3.71233333333333e+00 1.22009187914390e-02 2.42306984568519e-04
3.74100000000000e+00 1.17422981235969e-02 2.34097571033233e-04
3.76966666666667e+00 1.13009165612401e-02 2.26159653542487e-04
3.79833333333333e+00 1.08761261020360e-02 2.18484581645758e-04
3.82700000000000e+00 1.04673031025866e-02 2.11063963144125e-04
3.85566666666667e+00 1.00738473626167e-02 2.03889658110613e-04
3.88433333333333e+00 9.69518124080891e-03 1.96953771808415e-04
3.91300000000000e+00 9.33074880982985e-03 1.90248647761816e-04
3.94166666666667e+00 8.98001503996286e-03 1.83766862052804e-04
3.97033333333333e+00 8.64246501100602e-03 1.77501216664686e-04
3.99900000000000e+00 8.31760315898622e-03 1.71444732977964e-04
4.02766666666667e+00 8.00495254843873e-03 1.65590646363621e-04
4.05633333333333e+00 7.70405416992835e-03 1.59932399952233e-04
4.08500000000000e+00 7.41446626850506e-03 1.54463638552621e-04
4.11366666666667e+00 7.13576369500403e-03 1.49178203552873e-04
4.14233333333333e+00 6.86753727988572e-03 1.44070127108466e-04
4.17100000000000e+00 6.60939323456491e-03 1.39133626475601e-04
4.19966666666667e+00 6.36095257315047e-03 1.34363099223719e-04
4.22833333333333e+00 6.12185055431144e-03 1.29753117831317e-04
4.25700000000000e+00 5.89173614757302e-03 1.25298424421452e-04
4.28566666666667e+00 5.67027151784733e-03 1.20993926283949e-04
4.31433333333333e+00 5.45713152793364e-03 1.16834690864073e-04
4.34300000000000e+00 5.25200326273272e-03 1.12815940884562e-04
4.37166666666667e+00 5.05458556975013e-03 1.08933050171492e-04
4.40033333333333e+00 4.86458861564246e-03 1.05181539018557e-04
4.42900000000000e+00 4.68173346206576e-03 1.01557069677823e-04
4.45766666666667e+00 4.50575165607344e-03 9.80554424801323e-05
4.48633333333333e+00 4.33638483483634e-03 9.46725915561099e-05
4.51500000000000e+00 4.17338434752257e-03 9.14045806765305e-05
4.54366666666667e+00 4.01651089017226e-03 8.82475996558520e-05
4.57233333333333e+00 3.86553415335727e-03 8.51979604102009e-05
4.60100000000000e+00 3.72023248509778e-03 8.22520931274569e-05
4.62966666666667e+00 3.58039256538413e-03 7.94065429410065e-05
4.65833333333333e+00 3.44580909211110e-03 7.66579663045369e-05
4.68700000000000e+00 3.31628448057812e-03 7.40031274716998e-05
4.71566666666667e+00 3.19162857335322e-03 7.14388954261850e-05
4.74433333333333e+00 3.07165836032345e-03 6.89622405531607e-05
4.77300000000000e+00 2.95619771080898e-03 6.65702314084788e-05
4.80166666666667e+00 2.84507711493138e-03 6.42600318906332e-05
4.83033333333333e+00 2.73813343407386e-03 6.20288981889849e-05
4.85900000000000e+00 2.63520966206999e-03 5.98741758228594e-05
4.88766666666667e+00 2.53615469465549e-03 5.77932970407514e-05
4.91633333333333e+00 2.44082310703451e-03 5.57837780260104e-05
4.94500000000000e+00 2.34907494098786e-03 5.38432161867651e-05
4.97366666666667e+00 2.26077549935877e-03 5.19692877678008e-05
5.00233333333333e+00 2.17579514778058e-03 5.01597452950778e-05
5.03100000000000e+00 2.09400912489160e-03 4.84124150981529e-05
5.05966666666667e+00 2.01529735913653e-03 4.67251951204263e-05
5.08833333333333e+00 1.93954429203076e-03 4.50960525846712e-05
5.11700000000000e+00 1.86663870897423e-03 4.35230217304605e-05
5.14566666666667e+00 1.79647357594537e-03 4.20042018088885e-05
5.17433333333333e+00 1.72894588196246e-03 4.05377549521833e-05
5.20300000000000e+00 1.66395648826092e-03 3.91219041095435e-05
5.23166666666667e+00 1.60140998271975e-03 3.77549312129684e-05
5.26033333333333e+00 1.54121453943449e-03 3.64351752349492e-05
5.28900000000000e+00 1.48328178426511e-03 3.51610303070560e-05
5.31766666666667e+00 1.42752666506934e-03 3.39309440441051e-05
5.34633333333333e+00 1.37386732652854e-03 3.27434157748797e-05
5.37500000000000e+00 1.32222499028934e-03 3.15969948287577e-05
5.40366666666667e+00 1.27252383928759e-03 3.04902790060877e-05
5.43233333333333e+00 1.22469090617019e-03 2.94219129678391e-05
5.46100000000000e+00 1.17865596644661e-03 2.83905866765064e-05
5.48966666666667e+00 1.13435143537343e-03 2.73950340012401e-05
5.51833333333333e+00 1.09171226849525e-03 2.64340312532630e-05
5.54700000000000e+00 1.05067586639410e-03 2.55063957682117e-05
5.57566666666667e+00 1.01118198277066e-03 2.46109846352562e-05
5.60433333333333e+00 9.73172635787841e-04 2.37466933660297e-05
5.63300000000000e+00 9.36592023159279e-04 2.29124546064713e-05
5.66166666666667e+00 9.01386440211460e-04 2.21072369798478e-05
5.69033333333333e+00 8.67504200856552e-04 2.13300438778264e-05
5.71900000000000e+00 8.34895561897831e-04 2.05799122907502e-05
5.74766666666667e+00 8.03512649988911e-04 1.98559117551445e-05
5.77633333333333e+00 7.73309391189906e-04 1.91571432564090e-05
5.80500000000000e+00 7.44241443489373e-04 1.84827381672822e-05
5.83366666666667e+00 7.16266131694577e-04 1.78318572910712e-05
5.86233333333333e+00 6.89342384638657e-04 1.72036898662366e-05
5.89100000000000e+00 6.63430675027265e-04 1.65974526035926e-05
5.91966666666667e+00 6.38492961398677e-04 1.60123888171262e-05
5.94833333333333e+00 6.14492632150925e-04 1.54477675215097e-05
5.97700000000000e+00 5.91394451918098e-04 1.49028825593208e-05
6.00566666666667e+00 5.69164509832626e-04 1.43770518119240e-05
6.03433333333333e+00 5.47770169631609e-04 1.38696163816558e-05
6.06300000000000e+00 5.27180021854029e-04 1.33799398010508e-05
6.09166666666667e+00 5.07363837720901e-04 1.29074073168262e-05
6.12033333333333e+00 4.88292524660488e-04 1.24514251491575e-05
6.14900000000000e+00 4.69938083694610e-04 1.20114197755486e-05
6.17766666666667e+00 4.52273568326637e-04 1.15868372815021e-05
6.20633333333333e+00 4.35273044897034e-04 1.11771426899289e-05
6.23500000000000e+00 4.18911554595502e-04 1.07818193129086e-05
6.26366666666667e+00 4.03165076813049e-04 1.04003681631404e-05
6.29233333333333e+00 3.88010493803219e-04 1.00323073471094e-05
6.32100000000000e+00 3.73425556817949e-04 9.67717147855342e-06
6.34966666666667e+00 3.59388853438994e-04 9.33451114526563e-06
6.37833333333333e+00 3.45879776077182e-04 9.00389236018221e-06
6.40700000000000e+00 3.32878491784368e-04 8.68489603089715e-06
6.43566666666667e+00 3.20365913132126e-04 8.37711747683353e-06
6.46433333333333e+00 3.08323670132165e-04 8.08016593291949e-06
6.49300000000000e+00 2.96734083325358e-04 7.79366406997966e-06
6.52166666666667e+00 2.85580137822509e-04 7.51724755770838e-06
6.55033333333333e+00 2.74845458274369e-04 7.25056461606232e-06
6.57900000000000e+00 2.64514284882000e-04 6.99327558180829e-06
6.60766666666667e+00 2.54571450256284e-04 6.74505251311756e-06
6.63633333333333e+00 2.45002357106308e-04 6.50557878423139e-06
6.66500000000000e+00 2.35792956853961e-04 6.27454869385954e-06
6.69366666666667e+00 2.26929729006105e-04 6.05166710757280e-06
6.72233333333333e+00 2.18399661266097e-04 5.83664909169032e-06
6.75100000000000e+00 2.10190230469920e-04 5.62921955960595e-06
6.77966666666667e+00 2.02289384198192e-04 5.42911294848678e-06
6.80833333333333e+00 1.94685523047639e-04 5.23607288869300e-06
6.83700000000000e+00 1.87367483636762e-04 5.04985188445976e-06
6.86566666666667e+00 1.80324522214466e-04 4.87021102171489e-06
6.89433333333333e+00 1.73546298856905e-04 4.69691966967428e-06
6.92300000000000e+00 1.67022862318028e-04 4.52975519262897e-06
6.95166666666667e+00 1.60744635418026e-04 4.36850268597633e-06
6.98033333333333e+00 1.54702400956442e-04 4.21295470693838e-06
7.00900000000000e+00 1.48887288207321e-04 4.06291101449874e-06
7.03766666666667e+00 1.43290759894227e-04 3.91817833100054e-06
7.06633333333333e+00 1.37904599633215e-04 3.77857009921314e-06
7.09500000000000e+00 1.32720899894056e-04 3.64390624773459e-06
7.12366666666667e+00 1.27732050389550e-04 3.51401297574638e-06
7.15233333333333e+00 1.22930726882202e-04 3.38872253390914e-06
7.18100000000000e+00 1.18309880452386e-04 3.26787301279278e-06
7.20966666666667e+00 1.13862727148367e-04 3.15130814859644e-06
7.23833333333333e+00 1.09582738008595e-04 3.03887712558639e-06
7.26700000000000e+00 1.05463629494911e-04 2.93043438534185e-06
7.29566666666667e+00 1.01499354266408e-04 2.82583945144748e-06
7.32433333333333e+00 9.76840922853026e-05 2.72495675139923e-06
7.35300000000000e+00 9.40122422887250e-05 2.62765544465971e-06
7.38166666666667e+00 9.04784135643775e-05 2.53380926451327e-06
7.41033333333333e+00 8.70774180223088e-05 2.44329635755929e-06
7.43900000000000e+00 8.38042625925408e-05 2.35599912875821e-06
7.46766666666667e+00 8.06541418937469e-05 2.27180409880616e-06
7.49633333333333e+00 7.76224311660292e-05 2.19060175951156e-06
7.52500000000000e+00 7.47046794938729e-05 2.11228643418408e-06
7.55366666666667e+00 7.18966032708802e-05 2.03675614903782e-06
7.58233333333333e+00 6.91940799000415e-05 1.96391250290778e-06
7.61100000000000e+00 6.65931417524220e-05 1.89366054148958e-06
7.63966666666667e+00 6.40899703415123e-05 1.82590864141899e-06
7.66833333333333e+00 6.16808907076424e-05 1.76056839293097e-06
7.69700000000000e+00 5.93623660325306e-05 1.69755448659944e-06
7.72566666666667e+00 5.71309924461978e-05 1.63678460886755e-06
7.75433333333333e+00 5.49834940212257e-05 1.57817933638479e-06
7.78300000000000e+00 5.29167179719671e-05 1.52166203402465e-06
7.81166666666667e+00 5.09276300253395e-05 1.46715876075527e-06
7.84033333333333e+00 4.90133099586966e-05 1.41459817451080e-06
7.86900000000000e+00 4.71709473202298e-05 1.36391144038154e-06
7.89766666666667e+00 4.53978373024130e-05 1.31503214581946e-06
7.92633333333333e+00 4.36913767644504e-05 1.26789621500955e-06
7.95500000000000e+00 4.20490604172892e-05 1.22244182623297e-06
7.98366666666667e+00 4.04684771451354e-05 1.17860933549736e-06
8.01233333333333e+00 3.89473064598539e-05 1.13634119947328e-06
8.04100000000000e+00 3.74833151001518e-05 1.09558190112711e-06
8.06966666666667e+00 3.60743537525147e-05 1.05627788095258e-06
8.09833333333333e+00 3.47183538906470e-05 1.01837746762766e-06
8.12700000000000e+00 3.34133247438647e-05 9.81830811101083e-07
8.15566666666667e+00 3.21573503740802e-05 9.46589820680269e-07
8.18433333333333e+00 3.09485868584692e-05 9.12608102645641e-07
8.21300000000000e+00 2.97852595869898e-05 8.79840900053706e-07
8.24166666666667e+00 2.86656606567560e-05 8.48245037007942e-07
8.27033333333333e+00 2.75881463606558e-05 8.17778862541553e-07
8.29900000000000e+00 2.65511347782674e-05 7.88402196471579e-07
8.32766666666667e+00 2.55531034531570e-05 7.60076279244160e-07
8.35633333333333e+00 2.45925871542238e-05 7.32763721463741e-07
8.38500000000000e+00 2.36681757281594e-05 7.06428455197477e-07
8.41366666666667e+00 2.27785120289511e-05 6.81035688844998e-07
8.44233333333333e+00 2.19222899223345e-05 6.56551861752784e-07
8.47100000000000e+00 2.10982523714035e-05 6.32944600426783e-07
8.49966666666667e+00 2.03051895909327e-05 6.10182677929979e-07
8.52833333333333e+00 1.95419372685378e-05 5.88235973075552e-07
8.55700000000000e+00 1.88073748581234e-05 5.67075431058725e-07
8.58566666666667e+00 1.81004239346142e-05 5.46673026933668e-07
8.61433333333333e+00 1.74200466082879e-05 5.27001728928676e-07
8.64300000000000e+00 1.67652440034987e-05 5.08035463056196e-07
8.67166666666667e+00 1.61350547920546e-05 4.89749080264265e-07
8.70033333333333e+00 1.55285537797466e-05 4.72118323461865e-07
8.72900000000000e+00 1.49448505502321e-05 4.55119795709424e-07
8.75766666666667e+00 1.43830881576616e-05 4.38730930679510e-07
8.78633333333333e+00 1.38424418667031e-05 4.22929963021069e-07
8.81500000000000e+00 1.33221179436556e-05 4.07695899771889e-07
8.84366666666667e+00 1.28213524910332e-05 3.93008493799005e-07
8.87233333333333e+00 1.23394103244161e-05 3.78848217167141e-07
8.90100000000000e+00 1.18755838948094e-05 3.65196235450103e-07
8.92966666666667e+00 1.14291922497713e-05 3.52034383853630e-07
8.95833333333333e+00 1.09995800322310e-05 3.39345143286499e-07
8.98700000000000e+00 1.05861165198450e-05 3.27111617279702e-07
9.01566666666667e+00 1.01881946989281e-05 3.15317510523744e-07
9.04433333333333e+00 9.80523037199363e-06 3.03947107370745e-07
