Energy (eV)          EEDF (eV^-(3/2))     First Anisotropy
1.07500000000000e-03 4.95649371582784e+00 2.32443701419077e-03
3.22500000000000e-03 4.92793860813662e+00 3.84015951675294e-03
5.37500000000000e-03 4.89954801076018e+00 5.07435788682510e-03
7.52500000000000e-03 4.87132097590440e+00 6.01498412301172e-03
9.67500000000000e-03 4.84325656125603e+00 6.80196222573980e-03
1.18250000000000e-02 4.81535382993388e+00 7.48810977878564e-03
1.39750000000000e-02 4.78761185045518e+00 8.10071786265201e-03
1.61250000000000e-02 4.76002969670393e+00 8.65624199906462e-03
1.82750000000000e-02 4.73260644789981e+00 9.16557956449773e-03
2.04250000000000e-02 4.70534118856731e+00 9.63642121304496e-03
2.25750000000000e-02 4.67823300850517e+00 1.00744515725363e-02
2.47250000000000e-02 4.65128100275597e+00 1.04840234841792e-02
2.68750000000000e-02 4.62448427157591e+00 1.08685642709476e-02
2.90250000000000e-02 4.59784192040473e+00 1.12308342730216e-02
3.11750000000000e-02 4.57135305983592e+00 1.15730987095626e-02
3.33250000000000e-02 4.54501680558694e+00 1.18972460824120e-02
3.54750000000000e-02 4.51883227846976e+00 1.22048722231970e-02
3.76250000000000e-02 4.49279860436149e+00 1.24973414848505e-02
3.97750000000000e-02 4.46691491417519e+00 1.27758322751081e-02
4.19250000000000e-02 4.44118034383086e+00 1.30413715875545e-02
4.40750000000000e-02 4.41559403422660e+00 1.32948616287610e-02
4.62250000000000e-02 4.39015513120992e+00 1.35371006558786e-02
4.83750000000000e-02 4.36486278554924e+00 1.37687994995866e-02
5.05250000000000e-02 4.33971615290554e+00 1.39905948215656e-02
5.26750000000000e-02 4.31471439380415e+00 1.42030598660049e-02
5.48250000000000e-02 4.28985667360673e+00 1.44067132637169e-02
5.69750000000000e-02 4.26514216248346e+00 1.46020263055662e-02
5.91250000000000e-02 4.24057003538525e+00 1.47894290001524e-02
6.12750000000000e-02 4.21613947201627e+00 1.49693151566269e-02
6.34250000000000e-02 4.19184965680653e+00 1.51420466788941e-02
6.55750000000000e-02 4.16769977888465e+00 1.53079572166645e-02
6.77250000000000e-02 4.14368903205082e+00 1.54673552880489e-02
6.98750000000000e-02 4.11981661474987e+00 1.56205269648693e-02
7.20250000000000e-02 4.09608173004449e+00 1.57677381937823e-02
7.41750000000000e-02 4.07248358558866e+00 1.59092368122442e-02
7.63250000000000e-02 4.04902139360119e+00 1.60452543073108e-02
7.84750000000000e-02 4.02569437083941e+00 1.61760073565726e-02
8.06250000000000e-02 4.00250173857303e+00 1.63016991835813e-02
8.27750000000000e-02 3.97944272255814e+00 1.64225207545708e-02
8.49250000000000e-02 3.95651655301136e+00 1.65386518388007e-02
8.70750000000000e-02 3.93372246458417e+00 1.66502619512196e-02
8.92250000000000e-02 3.91105969633731e+00 1.67575111931629e-02
9.13750000000000e-02 3.88852749171544e+00 1.68605510043785e-02
9.35250000000000e-02 3.86612509852181e+00 1.69595248376590e-02
9.56750000000000e-02 3.84385176889322e+00 1.70545687656940e-02
9.78250000000000e-02 3.82170675927500e+00 1.71458120283696e-02
9.99750000000000e-02 3.79968933039624e+00 1.72333775275833e-02
1.02125000000000e-01 3.77779874724504e+00 1.73173822756592e-02
1.04275000000000e-01 3.75603427904406e+00 1.73979378026399e-02
1.06425000000000e-01 3.73439519922604e+00 1.74751505270260e-02
1.08575000000000e-01 3.71288078540961e+00 1.75491220939331e-02
1.10725000000000e-01 3.69149031937513e+00 1.76199496841531e-02
1.12875000000000e-01 3.67022308704074e+00 1.76877262971563e-02
1.15025000000000e-01 3.64907837843852e+00 1.77525410107052e-02
1.17175000000000e-01 3.62805548769076e+00 1.78144792194332e-02
1.19325000000000e-01 3.60715371298645e+00 1.78736228544626e-02
1.21475000000000e-01 3.58637235655778e+00 1.79300505858975e-02
1.23625000000000e-01 3.56571072465693e+00 1.79838380098240e-02
1.25775000000000e-01 3.54516812753283e+00 1.80350578212560e-02
1.27925000000000e-01 3.52474387940819e+00 1.80837799743208e-02
1.30075000000000e-01 3.50443729845657e+00 1.81300718308391e-02
1.32225000000000e-01 3.48424770677965e+00 1.81739982983204e-02
1.34375000000000e-01 3.46417443038457e+00 1.82156219582966e-02
1.36525000000000e-01 3.44421679916147e+00 1.82550031858309e-02
1.38675000000000e-01 3.42437414686107e+00 1.82922002609328e-02
1.40825000000000e-01 3.40464581107245e+00 1.83272694725584e-02
1.42975000000000e-01 3.38503113320097e+00 1.83602652158069e-02
1.45125000000000e-01 3.36552945844621e+00 1.83912400828466e-02
1.47275000000000e-01 3.34614013578018e+00 1.84202449480750e-02
1.49425000000000e-01 3.32686251792557e+00 1.84473290479632e-02
1.51575000000000e-01 3.30769596133410e+00 1.84725400559890e-02
1.53725000000000e-01 3.28863982616510e+00 1.84959241530353e-02
1.55875000000000e-01 3.26969347626410e+00 1.85175260935866e-02
1.58025000000000e-01 3.25085627914162e+00 1.85373892680356e-02
1.60175000000000e-01 3.23212760595205e+00 1.85555557613811e-02
1.62325000000000e-01 3.21350683147263e+00 1.85720664085731e-02
1.64475000000000e-01 3.19499333408265e+00 1.85869608467472e-02
1.66625000000000e-01 3.17658649574260e+00 1.86002775645589e-02
1.68775000000000e-01 3.15828570197362e+00 1.86120539488157e-02
1.70925000000000e-01 3.14009034183695e+00 1.86223263285984e-02
1.73075000000000e-01 3.12199980791353e+00 1.86311300170266e-02
1.75225000000000e-01 3.10401349628374e+00 1.86384993508353e-02
1.77375000000000e-01 3.08613080650724e+00 1.86444677279010e-02
1.79525000000000e-01 3.06835114160289e+00 1.86490676428460e-02
1.81675000000000e-01 3.05067390802889e+00 1.86523307208429e-02
1.83825000000000e-01 3.03309851566289e+00 1.86542877497408e-02
1.85975000000000e-01 3.01562437778233e+00 1.86549687106075e-02
1.88125000000000e-01 2.99825091104487e+00 1.86544028067833e-02
1.90275000000000e-01 2.98097753546885e+00 1.86526184915467e-02
1.92425000000000e-01 2.96380367441402e+00 1.86496434944672e-02
1.94575000000000e-01 2.94672875456221e+00 1.86455048465243e-02
1.96725000000000e-01 2.92975220589822e+00 1.86402289040632e-02
1.98875000000000e-01 2.91287346169083e+00 1.86338413716558e-02
2.01025000000000e-01 2.89609195847379e+00 1.86263673239308e-02
2.03175000000000e-01 2.87940713602711e+00 1.86178312264280e-02
2.05325000000000e-01 2.86281843735829e+00 1.86082569555346e-02
2.07475000000000e-01 2.84632530868376e+00 1.85976678175496e-02
2.09625000000000e-01 2.82992719941035e+00 1.85860865669234e-02
2.11775000000000e-01 2.81362356211699e+00 1.85735354237280e-02
2.13925000000000e-01 2.79741385253635e+00 1.85600360903850e-02
2.16075000000000e-01 2.78129752953670e+00 1.85456097676953e-02
2.18225000000000e-01 2.76527405510388e+00 1.85302771702103e-02
2.20375000000000e-01 2.74934289432330e+00 1.85140585409755e-02
2.22525000000000e-01 2.73350351536208e+00 1.84969736656804e-02
2.24675000000000e-01 2.71775538945132e+00 1.84790418862399e-02
2.26825000000000e-01 2.70209799086845e+00 1.84602821138400e-02
2.28975000000000e-01 2.68653079691964e+00 1.84407128414819e-02
2.31125000000000e-01 2.67105328792239e+00 1.84203521560269e-02
2.33275000000000e-01 2.65566494718819e+00 1.83992177497870e-02
2.35425000000000e-01 2.64036526100521e+00 1.83773269316813e-02
2.37575000000000e-01 2.62515371862123e+00 1.83546966379659e-02
2.39725000000000e-01 2.61002981222653e+00 1.83313434425701e-02
2.41875000000000e-01 2.59499303693695e+00 1.83072835670486e-02
2.44025000000000e-01 2.58004289077707e+00 1.82825328901729e-02
2.46175000000000e-01 2.56517887466341e+00 1.82571069571801e-02
2.48325000000000e-01 2.55040049238778e+00 1.82310209886893e-02
2.50475000000000e-01 2.53570725060073e+00 1.82042898892992e-02
2.52625000000000e-01 2.52109865879506e+00 1.81769282558873e-02
2.54775000000000e-01 2.50657422928948e+00 1.81489503856274e-02
2.56925000000000e-01 2.49213347721228e+00 1.81203702837209e-02
2.59075000000000e-01 2.47777592048518e+00 1.80912016708674e-02
2.61225000000000e-01 2.46350107980722e+00 1.80614579904910e-02
2.63375000000000e-01 2.44930847863878e+00 1.80311524157163e-02
2.65525000000000e-01 2.43519764318563e+00 1.80002978561150e-02
2.67675000000000e-01 2.42116810238316e+00 1.79689069642356e-02
2.69825000000000e-01 2.40721938788064e+00 1.79369921419155e-02
2.71975000000000e-01 2.39335103402556e+00 1.79045655463936e-02
2.74125000000000e-01 2.37956257784812e+00 1.78716390962224e-02
2.76275000000000e-01 2.36585355904574e+00 1.78382244769939e-02
2.78425000000000e-01 2.35222351996773e+00 1.78043331468944e-02
2.80575000000000e-01 2.33867200560000e+00 1.77699763420754e-02
2.82725000000000e-01 2.32519856354984e+00 1.77351650818599e-02
2.84875000000000e-01 2.31180274403087e+00 1.76999101737956e-02
2.87025000000000e-01 2.29848409984797e+00 1.76642222185500e-02
2.89175000000000e-01 2.28524218638240e+00 1.76281116146578e-02
2.91325000000000e-01 2.27207656157692e+00 1.75915885631275e-02
2.93475000000000e-01 2.25898678592107e+00 1.75546630719134e-02
2.95625000000000e-01 2.24597242243645e+00 1.75173449602530e-02
2.97775000000000e-01 2.23303303666218e+00 1.74796438628811e-02
2.99925000000000e-01 2.22016819664036e+00 1.74415692341177e-02
3.02075000000000e-01 2.20737747290167e+00 1.74031303518435e-02
3.04225000000000e-01 2.19466043845103e+00 1.73643363213595e-02
3.06375000000000e-01 2.18201666875334e+00 1.73251960791366e-02
3.08525000000000e-01 2.16944574171931e+00 1.72857183964645e-02
3.10675000000000e-01 2.15694723769138e+00 1.72459118829943e-02
3.12825000000000e-01 2.14452073942968e+00 1.72057849901850e-02
3.14975000000000e-01 2.13216583209813e+00 1.71653460146558e-02
3.17125000000000e-01 2.11988210325060e+00 1.71246031014490e-02
3.19275000000000e-01 2.10766914281711e+00 1.70835642472013e-02
3.21425000000000e-01 2.09552654309015e+00 1.70422373032336e-02
3.23575000000000e-01 2.08345389871109e+00 1.70006299785551e-02
3.25725000000000e-01 2.07145080665661e+00 1.69587498427925e-02
3.27875000000000e-01 2.05951686622528e+00 1.69166043290382e-02
3.30025000000000e-01 2.04765167902419e+00 1.68742007366266e-02
3.32175000000000e-01 2.03585484895560e+00 1.68315462338387e-02
3.34325000000000e-01 2.02412598220377e+00 1.67886478605364e-02
3.36475000000000e-01 2.01246468722178e+00 1.67455125307294e-02
3.38625000000000e-01 2.00087057471847e+00 1.67021470350790e-02
3.40775000000000e-01 1.98934325764546e+00 1.66585580433399e-02
3.42925000000000e-01 1.97788235118420e+00 1.66147521067347e-02
3.45075000000000e-01 1.96648747273314e+00 1.65707356602748e-02
3.47225000000000e-01 1.95515824189497e+00 1.65265150250264e-02
3.49375000000000e-01 1.94389428046387e+00 1.64820964103175e-02
3.51525000000000e-01 1.93269521241297e+00 1.64374859158875e-02
3.53675000000000e-01 1.92156066388171e+00 1.63926895339934e-02
3.55825000000000e-01 1.91049026316341e+00 1.63477131514609e-02
3.57975000000000e-01 1.89948364069285e+00 1.63025625516828e-02
3.60125000000000e-01 1.88854042903392e+00 1.62572434165798e-02
3.62275000000000e-01 1.87766026286738e+00 1.62117613285068e-02
3.64425000000000e-01 1.86684277897865e+00 1.61661217721171e-02
3.66575000000000e-01 1.85608761624566e+00 1.61203301361852e-02
3.68725000000000e-01 1.84539441562684e+00 1.60743917153851e-02
3.70875000000000e-01 1.83476282014911e+00 1.60283117120293e-02
3.73025000000000e-01 1.82419247489596e+00 1.59820952377660e-02
3.75175000000000e-01 1.81368302699562e+00 1.59357473152407e-02
3.77325000000000e-01 1.80323412560926e+00 1.58892728797205e-02
3.79475000000000e-01 1.79284542191926e+00 1.58426767806768e-02
3.81625000000000e-01 1.78251656911764e+00 1.57959637833395e-02
3.83775000000000e-01 1.77224722239440e+00 1.57491385702144e-02
3.85925000000000e-01 1.76203703892605e+00 1.57022057425645e-02
3.88075000000000e-01 1.75188567786415e+00 1.56551698218609e-02
3.90225000000000e-01 1.74179280032396e+00 1.56080352512021e-02
3.92375000000000e-01 1.73175806937309e+00 1.55608063967061e-02
3.94525000000000e-01 1.72178115002026e+00 1.55134875488674e-02
3.96675000000000e-01 1.71186170920415e+00 1.54660829238844e-02
3.98825000000000e-01 1.70199941578224e+00 1.54185966649636e-02
4.00975000000000e-01 1.69219394051977e+00 1.53710328435944e-02
4.03125000000000e-01 1.68244495607876e+00 1.53233954607941e-02
4.05275000000000e-01 1.67275213700708e+00 1.52756884483289e-02
4.07425000000000e-01 1.66311515972755e+00 1.52279156699106e-02
4.09575000000000e-01 1.65353370252719e+00 1.51800809223692e-02
4.11725000000000e-01 1.64400744554647e+00 1.51321879367973e-02
4.13875000000000e-01 1.63453607076858e+00 1.50842403796732e-02
4.16025000000000e-01 1.62511926200888e+00 1.50362418539634e-02
4.18175000000000e-01 1.61575670490432e+00 1.49881959001991e-02
4.20325000000000e-01 1.60644808690293e+00 1.49401059975323e-02
4.22475000000000e-01 1.59719309725340e+00 1.48919755647745e-02
4.24625000000000e-01 1.58799142699472e+00 1.48438079614074e-02
4.26775000000000e-01 1.57884276894582e+00 1.47956064885764e-02
4.28925000000000e-01 1.56974681769539e+00 1.47473743900701e-02
4.31075000000000e-01 1.56070326959160e+00 1.46991148532722e-02
4.33225000000000e-01 1.55171182273202e+00 1.46508310100989e-02
4.35375000000000e-01 1.54277217695354e+00 1.46025259379169e-02
4.37525000000000e-01 1.53388403382231e+00 1.45542026604469e-02
4.39675000000000e-01 1.52504709662382e+00 1.45058641486448e-02
4.41825000000000e-01 1.51626107035296e+00 1.44575133215671e-02
4.43975000000000e-01 1.50752566170422e+00 1.44091530472236e-02
4.46125000000000e-01 1.49884057906182e+00 1.43607861434089e-02
4.48275000000000e-01 1.49020553249007e+00 1.43124153785203e-02
4.50425000000000e-01 1.48162023372362e+00 1.42640434723609e-02
4.52575000000000e-01 1.47308439615785e+00 1.42156730969283e-02
4.54725000000000e-01 1.46459773483934e+00 1.41673068771837e-02
4.56875000000000e-01 1.45615996645631e+00 1.41189473918143e-02
4.59025000000000e-01 1.44777080932918e+00 1.40705971739745e-02
4.61175000000000e-01 1.43942998340118e+00 1.40222587120164e-02
4.63325000000000e-01 1.43113721022898e+00 1.39739344502096e-02
4.65475000000000e-01 1.42289221297342e+00 1.39256267894427e-02
4.67625000000000e-01 1.41469471639023e+00 1.38773380879157e-02
4.69775000000000e-01 1.40654444682087e+00 1.38290706618175e-02
4.71925000000000e-01 1.39844113218341e+00 1.37808267859931e-02
4.74075000000000e-01 1.39038450196340e+00 1.37326086945976e-02
4.76225000000000e-01 1.38237428720486e+00 1.36844185817392e-02
4.78375000000000e-01 1.37441022050133e+00 1.36362586021107e-02
4.80525000000000e-01 1.36649203598691e+00 1.35881308716083e-02
4.82675000000000e-01 1.35861946932738e+00 1.35400374679405e-02
4.84825000000000e-01 1.35079225771141e+00 1.34919804312263e-02
4.86975000000000e-01 1.34301013984175e+00 1.34439617645862e-02
4.89125000000000e-01 1.33527285592652e+00 1.33959834347166e-02
4.91275000000000e-01 1.32758014767056e+00 1.33480473724550e-02
4.93425000000000e-01 1.31993175826677e+00 1.33001554733409e-02
4.95575000000000e-01 1.31232743238757e+00 1.32523095981650e-02
4.97725000000000e-01 1.30476691617633e+00 1.32045115735054e-02
4.99875000000000e-01 1.29724995723897e+00 1.31567631922556e-02
5.02025000000000e-01 1.28977630463546e+00 1.31090662141469e-02
5.04175000000000e-01 1.28234570887148e+00 1.30614223662577e-02
5.06325000000000e-01 1.27495792189008e+00 1.30138333435178e-02
5.08475000000000e-01 1.26761269706341e+00 1.29663008092035e-02
5.10625000000000e-01 1.26030978918449e+00 1.29188263954208e-02
5.12775000000000e-01 1.25304895445899e+00 1.28714117035829e-02
5.14925000000000e-01 1.24582995049713e+00 1.28240583048818e-02
5.17075000000000e-01 1.23865253630559e+00 1.27767677407492e-02
5.19225000000000e-01 1.23151647227942e+00 1.27295415233113e-02
5.21375000000000e-01 1.22442152019408e+00 1.26823811358338e-02
5.23525000000000e-01 1.21736744319748e+00 1.26352880331613e-02
5.25675000000000e-01 1.21035400580208e+00 1.25882636421498e-02
5.27825000000000e-01 1.20338097387700e+00 1.25413093620934e-02
5.29975000000000e-01 1.19644811464024e+00 1.24944265651394e-02
5.32125000000000e-01 1.18955519665088e+00 1.24476165966995e-02
5.34275000000000e-01 1.18270198980137e+00 1.24008807758559e-02
5.36425000000000e-01 1.17588826530986e+00 1.23542203957574e-02
5.38575000000000e-01 1.16911379571251e+00 1.23076367240127e-02
5.40725000000000e-01 1.16237835485597e+00 1.22611310030747e-02
5.42875000000000e-01 1.15568171788978e+00 1.22147044506184e-02
5.45025000000000e-01 1.14902366125888e+00 1.21683582599146e-02
5.47175000000000e-01 1.14240396269613e+00 1.21220936001979e-02
5.49325000000000e-01 1.13582240121491e+00 1.20759116170254e-02
5.51475000000000e-01 1.12927875710177e+00 1.20298134326336e-02
5.53625000000000e-01 1.12277281190901e+00 1.19838001462876e-02
5.55775000000000e-01 1.11630434844747e+00 1.19378728346268e-02
5.57925000000000e-01 1.10987315077926e+00 1.18920325520016e-02
5.60075000000000e-01 1.10347900421051e+00 1.18462803308069e-02
5.62225000000000e-01 1.09712169528426e+00 1.18006171818132e-02
5.64375000000000e-01 1.09080101177328e+00 1.17550440944855e-02
5.66525000000000e-01 1.08451674267305e+00 1.17095620373035e-02
5.68675000000000e-01 1.07826867819465e+00 1.16641719580760e-02
5.70825000000000e-01 1.07205660975779e+00 1.16188747842481e-02
5.72975000000000e-01 1.06588032998386e+00 1.15736714232042e-02
5.75125000000000e-01 1.05973963268897e+00 1.15285627625678e-02
5.77275000000000e-01 1.05363431287709e+00 1.14835496704937e-02
5.79425000000000e-01 1.04756416673321e+00 1.14386329959609e-02
5.81575000000000e-01 1.04152899161652e+00 1.13938135690570e-02
5.83725000000000e-01 1.03552858605367e+00 1.13490922012564e-02
5.85875000000000e-01 1.02956274973200e+00 1.13044696857008e-02
5.88025000000000e-01 1.02363128349292e+00 1.12599467974710e-02
5.90175000000000e-01 1.01773398932519e+00 1.12155242938533e-02
5.92325000000000e-01 1.01187067035836e+00 1.11712029146050e-02
5.94475000000000e-01 1.00604113085617e+00 1.11269833822156e-02
5.96625000000000e-01 1.00024517621003e+00 1.10828664021625e-02
5.98775000000000e-01 9.94482612932520e-01 1.10388526631631e-02
6.00925000000000e-01 9.88753248650937e-01 1.09949428374245e-02
6.03075000000000e-01 9.83056892100856e-01 1.09511375808884e-02
6.05225000000000e-01 9.77393353119759e-01 1.09074375334728e-02
6.07375000000000e-01 9.71762442640683e-01 1.08638433193092e-02
6.09525000000000e-01 9.66163972685908e-01 1.08203555469767e-02
6.11675000000000e-01 9.60597756360681e-01 1.07769748097339e-02
6.13825000000000e-01 9.55063607846981e-01 1.07337016857467e-02
6.15975000000000e-01 9.49561342397310e-01 1.06905367383121e-02
6.18125000000000e-01 9.44090776328527e-01 1.06474805160780e-02
6.20275000000000e-01 9.38651727015721e-01 1.06045335532604e-02
6.22425000000000e-01 9.33244012886108e-01 1.05616963698610e-02
6.24575000000000e-01 9.27867453412972e-01 1.05189694718758e-02
6.26725000000000e-01 9.22521869109641e-01 1.04763533515023e-02
6.28875000000000e-01 9.17207081523492e-01 1.04338484873483e-02
6.31025000000000e-01 9.11922913229991e-01 1.03914553446318e-02
6.33175000000000e-01 9.06669187826779e-01 1.03491743753802e-02
6.35325000000000e-01 9.01445729927773e-01 1.03070060186267e-02
6.37475000000000e-01 8.96252365157319e-01 1.02649507006047e-02
6.39625000000000e-01 8.91088920144365e-01 1.02230088349383e-02
6.41775000000000e-01 8.85955222516677e-01 1.01811808228288e-02
6.43925000000000e-01 8.80851100895083e-01 1.01394670532426e-02
6.46075000000000e-01 8.75776384887752e-01 1.00978679030918e-02
6.48225000000000e-01 8.70730905084507e-01 1.00563837374141e-02
6.50375000000000e-01 8.65714493051169e-01 1.00150149095526e-02
6.52525000000000e-01 8.60726981323931e-01 9.97376176132927e-03
6.54675000000000e-01 8.55768203403772e-01 9.93262462321550e-03
6.56825000000000e-01 8.50837993750898e-01 9.89160381450553e-03
6.58975000000000e-01 8.45936187779213e-01 9.85069964348181e-03
6.61125000000000e-01 8.41062621850828e-01 9.80991240758072e-03
6.63275000000000e-01 8.36217133270594e-01 9.76924239355585e-03
6.65425000000000e-01 8.31399560280675e-01 9.72868987763757e-03
6.67575000000000e-01 8.26609742055147e-01 9.68825512569229e-03
6.69725000000000e-01 8.21847518694627e-01 9.64793839337827e-03
6.71875000000000e-01 8.17112731220936e-01 9.60773992629908e-03
6.74025000000000e-01 8.12405221571795e-01 9.56765996015555e-03
6.76175000000000e-01 8.07724832595543e-01 9.52769872089578e-03
6.78325000000000e-01 8.03071408045894e-01 9.48785642486175e-03
