Energy (eV)          EEDF (eV^-(3/2))     First Anisotropy
2.17424242424242e-02 4.70476279810790e-02 2.17497414262078e-05
6.52272727272727e-02 4.68018405323185e-02 3.59420210155785e-05
1.08712121212121e-01 4.65573371325373e-02 4.75191643154020e-05
1.52196969696970e-01 4.63141110745715e-02 5.63581407246127e-05
1.95681818181818e-01 4.60721556837350e-02 6.37662472871475e-05
2.39166666666667e-01 4.58314643230787e-02 7.02365736638773e-05
2.82651515151515e-01 4.55920303880161e-02 7.60237157567036e-05
3.26136363636364e-01 4.53538473103482e-02 8.12810764528724e-05
3.69621212121212e-01 4.51169085545746e-02 8.61101727265496e-05
4.13106060606061e-01 4.48812076207371e-02 9.05825984877320e-05
4.56590909090909e-01 4.46467380415936e-02 9.47512361859436e-05
5.00075757575758e-01 4.44134933847976e-02 9.86565507672808e-05
5.43560606060606e-01 4.41814672506015e-02 1.02330381136177e-04
5.87045454545455e-01 4.39506532736073e-02 1.05798352218385e-04
6.30530303030303e-01 4.37210451208291e-02 1.09081477978798e-04
6.74015151515152e-01 4.34926364931436e-02 1.12197265488390e-04
7.17500000000000e-01 4.32654211236131e-02 1.15160498444734e-04
7.60984848484848e-01 4.30393927787133e-02 1.17983807444732e-04
8.04469696969697e-01 4.28145452568541e-02 1.20678094241082e-04
8.47954545454546e-01 4.25908723894371e-02 1.23252853375023e-04
8.91439393939394e-01 4.23683680395306e-02 1.25716420142282e-04
9.34924242424242e-01 4.21470261027923e-02 1.28076164571677e-04
9.78409090909091e-01 4.19268405062692e-02 1.30338645381157e-04
1.02189393939394e+00 4.17078052080875e-02 1.32509732529241e-04
1.06537878787879e+00 4.14899142016644e-02 1.34594708502780e-04
1.10886363636364e+00 4.12731615068137e-02 1.36598349778481e-04
1.15234848484848e+00 4.10575411767655e-02 1.38524993447711e-04
1.19583333333333e+00 4.08430472958050e-02 1.40378594599504e-04
1.23931818181818e+00 4.06296739791249e-02 1.42162773215661e-04
1.28280303030303e+00 4.04174153726653e-02 1.43880853787104e-04
1.32628787878788e+00 4.02062656545612e-02 1.45535900045996e-04
1.36977272727273e+00 3.99962190300833e-02 1.47130743395758e-04
1.41325757575758e+00 3.97872697364389e-02 1.48668007274963e-04
1.45674242424242e+00 3.95794120409400e-02 1.50150129536290e-04
1.50022727272727e+00 3.93726402408365e-02 1.51579380858279e-04
1.54371212121212e+00 3.91669486631800e-02 1.52957881053407e-04
1.58719696969697e+00 3.89623316646577e-02 1.54287613116577e-04
1.63068181818182e+00 3.87587836327014e-02 1.55570436503155e-04
1.67416666666667e+00 3.85562989815029e-02 1.56808097731726e-04
1.71765151515152e+00 3.83548721557323e-02 1.58002239719666e-04
1.76113636363636e+00 3.81544976290787e-02 1.59154411241607e-04
1.80462121212121e+00 3.79551699041001e-02 1.60266074463094e-04
1.84810606060606e+00 3.77568835120777e-02 1.61338611685864e-04
1.89159090909091e+00 3.75596330139117e-02 1.62373332232799e-04
1.93507575757576e+00 3.73634129967931e-02 1.63371477625869e-04
1.97856060606061e+00 3.71682180772648e-02 1.64334226210928e-04
2.02204545454545e+00 3.69740428999933e-02 1.65262698385222e-04
2.06553030303030e+00 3.67808821376184e-02 1.66157960518486e-04
2.10901515151515e+00 3.65887304906141e-02 1.67021028713387e-04
2.15250000000000e+00 3.63975826871405e-02 1.67852872038050e-04
2.19598484848485e+00 3.62074334837706e-02 1.68654416222784e-04
2.23946969696970e+00 3.60182776627081e-02 1.69426546124048e-04
2.28295454545455e+00 3.58301100343058e-02 1.70170107945698e-04
2.32643939393939e+00 3.56429254360270e-02 1.70885912218365e-04
2.36992424242424e+00 3.54567187323033e-02 1.71574735800252e-04
2.41340909090909e+00 3.52714848143979e-02 1.72237323900502e-04
2.45689393939394e+00 3.50872186002631e-02 1.72874391772033e-04
2.50037878787879e+00 3.49039150351388e-02 1.73486626953442e-04
2.54386363636364e+00 3.47215690891818e-02 1.74074690511119e-04
2.58734848484848e+00 3.45401757595777e-02 1.74639218161858e-04
2.63083333333333e+00 3.43597300696466e-02 1.75180822167944e-04
2.67431818181818e+00 3.41802270687079e-02 1.75700092427667e-04
2.71780303030303e+00 3.40016618319455e-02 1.76197597496361e-04
2.76128787878788e+00 3.38240294609170e-02 1.76673886163351e-04
2.80477272727273e+00 3.36473250814680e-02 1.77129488153649e-04
2.84825757575758e+00 3.34715438455647e-02 1.77564914759541e-04
2.89174242424242e+00 3.32966809305003e-02 1.77980660219496e-04
2.93522727272727e+00 3.31227315387606e-02 1.78377202387945e-04
2.97871212121212e+00 3.29496908978970e-02 1.78755003516028e-04
3.02219696969697e+00 3.27775542603927e-02 1.79114510838809e-04
3.06568181818182e+00 3.26063169040937e-02 1.79456157699892e-04
3.10916666666667e+00 3.24359741303852e-02 1.79780363902265e-04
3.15265151515152e+00 3.22665212657685e-02 1.80087536018720e-04
3.19613636363636e+00 3.20979536611597e-02 1.80378068407313e-04
3.23962121212121e+00 3.19302666917623e-02 1.80652343598525e-04
3.28310606060606e+00 3.17634557569419e-02 1.80910732666593e-04
3.32659090909091e+00 3.15975162805978e-02 1.81153596114314e-04
3.37007575757576e+00 3.14324437095297e-02 1.81381284050960e-04
3.41356060606061e+00 3.12682335148309e-02 1.81594136343652e-04
3.45704545454545e+00 3.11048811912549e-02 1.81792483433771e-04
3.50053030303030e+00 3.09423822570905e-02 1.81976646579143e-04
3.54401515151515e+00 3.07807322540405e-02 1.82146938214838e-04
3.58750000000000e+00 3.06199267470993e-02 1.82303662171212e-04
3.63098484848485e+00 3.04599613248719e-02 1.82447114374128e-04
3.67446969696970e+00 3.03008315981201e-02 1.82577582901282e-04
3.71795454545455e+00 3.01425332009842e-02 1.82695348021386e-04
3.76143939393939e+00 2.99850617904122e-02 1.82800682853909e-04
3.80492424242424e+00 2.98284130460405e-02 1.82893853505217e-04
3.84840909090909e+00 2.96725826700768e-02 1.82975119320291e-04
3.89189393939394e+00 2.95175663871816e-02 1.83044733007215e-04
3.93537878787879e+00 2.93633599447432e-02 1.83102941213494e-04
3.97886363636364e+00 2.92099591115755e-02 1.83149984510582e-04
4.02234848484848e+00 2.90573596789956e-02 1.83186097366881e-04
4.06583333333333e+00 2.89055574603068e-02 1.83211508699208e-04
4.10931818181818e+00 2.87545482906849e-02 1.83226441943413e-04
4.15280303030303e+00 2.86043280270639e-02 1.83231115127263e-04
4.19628787878788e+00 2.84548925483784e-02 1.83225741369617e-04
4.23977272727273e+00 2.83062377543751e-02 1.83210528827328e-04
4.28325757575758e+00 2.81583595665824e-02 1.83185680633514e-04
4.32674242424242e+00 2.80112539278354e-02 1.83151395380432e-04
4.37022727272727e+00 2.78649168021638e-02 1.83107867153185e-04
4.41371212121212e+00 2.77193441746833e-02 1.83055285668873e-04
4.45719696969697e+00 2.75745320514838e-02 1.82993836309609e-04
4.50068181818182e+00 2.74304764598406e-02 1.82923700553995e-04
4.54416666666667e+00 2.72871734471390e-02 1.82845055896579e-04
4.58765151515152e+00 2.71446190817377e-02 1.82758075760968e-04
4.63113636363636e+00 2.70028094525351e-02 1.82662929921395e-04
4.67462121212121e+00 2.68617406688618e-02 1.82559784507978e-04
4.71810606060606e+00 2.67214088603744e-02 1.82448802016665e-04
4.76159090909091e+00 2.65818101772423e-02 1.82330141695825e-04
4.80507575757576e+00 2.64429407891574e-02 1.82203959451619e-04
4.84856060606061e+00 2.63047968861187e-02 1.82070407748406e-04
4.89204545454546e+00 2.61673746780295e-02 1.81929635988740e-04
4.93553030303030e+00 2.60306703945931e-02 1.81781790502347e-04
4.97901515151515e+00 2.58946802852095e-02 1.81627014629280e-04
5.02250000000000e+00 2.57594006188733e-02 1.81465448711732e-04
5.06598484848485e+00 2.56248276843359e-02 1.81297230438653e-04
5.10946969696970e+00 2.54909577892030e-02 1.81122494741539e-04
5.15295454545455e+00 2.53577872606389e-02 1.80941373686222e-04
5.19643939393939e+00 2.52253124449953e-02 1.80753996813747e-04
5.23992424242424e+00 2.50935297077113e-02 1.80560491116390e-04
5.28340909090909e+00 2.49624354332141e-02 1.80360981102587e-04
5.32689393939394e+00 2.48320260248194e-02 1.80155588776680e-04
5.37037878787879e+00 2.47022979048742e-02 1.79944433949753e-04
5.41386363636364e+00 2.45732475139303e-02 1.79727634130687e-04
5.45734848484849e+00 2.44448713113791e-02 1.79505304413975e-04
5.50083333333333e+00 2.43171657751086e-02 1.79277557788504e-04
5.54431818181818e+00 2.41901274014072e-02 1.79044505105408e-04
5.58780303030303e+00 2.40637527048677e-02 1.78806255050935e-04
5.63128787878788e+00 2.39380382185143e-02 1.78562914432847e-04
5.67477272727273e+00 2.38129804930351e-02 1.78314588070191e-04
5.71825757575758e+00 2.36885760973636e-02 1.78061378680283e-04
5.76174242424242e+00 2.35648216183581e-02 1.77803387164202e-04
5.80522727272727e+00 2.34417136607073e-02 1.77540712569875e-04
5.84871212121212e+00 2.33192488468383e-02 1.77273452134578e-04
5.89219696969697e+00 2.31974238168232e-02 1.77001701252519e-04
5.93568181818182e+00 2.30762352284914e-02 1.76725553736984e-04
5.97916666666667e+00 2.29556797567220e-02 1.76445101710424e-04
6.02265151515152e+00 2.28357540939718e-02 1.76160435492136e-04
6.06613636363636e+00 2.27164549499766e-02 1.75871643860372e-04
6.10962121212121e+00 2.25977790516612e-02 1.75578814012143e-04
6.15310606060606e+00 2.24797231430501e-02 1.75282031527807e-04
6.19659090909091e+00 2.23622839853666e-02 1.74981380615240e-04
6.24007575757576e+00 2.22454583563739e-02 1.74676944001440e-04
6.28356060606061e+00 2.21292430508601e-02 1.74368802822060e-04
6.32704545454545e+00 2.20136348803580e-02 1.74057036865907e-04
6.37053030303030e+00 2.18986306730575e-02 1.73741724533100e-04
6.41401515151515e+00 2.17842272737187e-02 1.73422942864108e-04
6.45750000000000e+00 2.16704215435856e-02 1.73100767502331e-04
6.50098484848485e+00 2.15572103604737e-02 1.72775272919857e-04
6.54446969696970e+00 2.14445906181597e-02 1.72446532311539e-04
6.58795454545455e+00 2.13325592268239e-02 1.72114617487327e-04
6.63143939393939e+00 2.12211131127881e-02 1.71779599098874e-04
6.67492424242424e+00 2.11102492184318e-02 1.71441546596695e-04
6.71840909090909e+00 2.09999645021084e-02 1.71100528254297e-04
6.76189393939394e+00 2.08902559380614e-02 1.70756611129592e-04
6.80537878787879e+00 2.07811205165016e-02 1.70409861274602e-04
6.84886363636364e+00 2.06725552430419e-02 1.70060343632725e-04
6.89234848484849e+00 2.05645571391003e-02 1.69708121934318e-04
6.93583333333333e+00 2.04571232416552e-02 1.69353258907465e-04
6.97931818181818e+00 2.03502506031649e-02 1.68995816234991e-04
7.02280303030303e+00 2.02439362914860e-02 1.68635854515664e-04
7.06628787878788e+00 2.01381773899430e-02 1.68273433461473e-04
7.10977272727273e+00 2.00329709967974e-02 1.67908611797938e-04
7.15325757575758e+00 1.99283142256208e-02 1.67541447162889e-04
7.19674242424242e+00 1.98242042050643e-02 1.67171996304991e-04
7.24022727272727e+00 1.97206380787792e-02 1.66800315041047e-04
7.28371212121212e+00 1.96176130053394e-02 1.66426458273304e-04
7.32719696969697e+00 1.95151261581630e-02 1.66050479950845e-04
7.37068181818182e+00 1.94131747255727e-02 1.65672433253750e-04
7.41416666666667e+00 1.93117559103027e-02 1.65292370497115e-04
7.45765151515152e+00 1.92108669298401e-02 1.64910343033721e-04
7.50113636363636e+00 1.91105050162084e-02 1.64526401439552e-04
7.54462121212121e+00 1.90106674158916e-02 1.64140595471822e-04
7.58810606060606e+00 1.89113513897590e-02 1.63752974030758e-04
7.63159090909091e+00 1.88125542131184e-02 1.63363585333611e-04
7.67507575757576e+00 1.87142731752528e-02 1.62972476821938e-04
7.71856060606061e+00 1.86165055797371e-02 1.62579695067692e-04
7.76204545454546e+00 1.85192487442326e-02 1.62185285948652e-04
7.80553030303030e+00 1.84225000004139e-02 1.61789294607236e-04
7.84901515151515e+00 1.83262566938954e-02 1.61391765463313e-04
7.89250000000000e+00 1.82305161841587e-02 1.60992742176752e-04
7.93598484848485e+00 1.81352758445999e-02 1.60592267810637e-04
7.97946969696970e+00 1.80405330620964e-02 1.60190384742356e-04
8.02295454545455e+00 1.79462852372980e-02 1.59787134573544e-04
8.06643939393939e+00 1.78525297844339e-02 1.59382558294774e-04
8.10992424242424e+00 1.77592641312423e-02 1.58976696245486e-04
8.15340909090909e+00 1.76664857188991e-02 1.58569588125027e-04
8.19689393939394e+00 1.75741920019483e-02 1.58161272956091e-04
8.24037878787879e+00 1.74823804483431e-02 1.57751789238096e-04
8.28386363636364e+00 1.73910485390413e-02 1.57341174862067e-04
8.32734848484849e+00 1.73001937682730e-02 1.56929467024411e-04
8.37083333333333e+00 1.72098136433587e-02 1.56516702381738e-04
8.41431818181818e+00 1.71199056846414e-02 1.56102917012079e-04
8.45780303030303e+00 1.70304674254186e-02 1.55688146379231e-04
8.50128787878788e+00 1.69414964119785e-02 1.55272425478271e-04
8.54477272727273e+00 1.68529902032184e-02 1.54855788753692e-04
8.58825757575758e+00 1.67649463708940e-02 1.54438270016486e-04
8.63174242424243e+00 1.66773624994464e-02 1.54019902591147e-04
8.67522727272727e+00 1.65902361859363e-02 1.53600719277949e-04
8.71871212121212e+00 1.65035650399777e-02 1.53180752361368e-04
8.76219696969697e+00 1.64173466836728e-02 1.52760033575652e-04
8.80568181818182e+00 1.63315787516435e-02 1.52338594241917e-04
8.84916666666667e+00 1.62462588906737e-02 1.51916465189833e-04
8.89265151515152e+00 1.61613847599392e-02 1.51493676678428e-04
8.93613636363636e+00 1.60769540308447e-02 1.51070258534635e-04
8.97962121212121e+00 1.59929643869599e-02 1.50646240116940e-04
9.02310606060606e+00 1.59094135239563e-02 1.50221650281918e-04
9.06659090909091e+00 1.58262991496349e-02 1.49796517514603e-04
9.11007575757576e+00 1.57436189835883e-02 1.49370869853269e-04
9.15356060606061e+00 1.56613707574144e-02 1.48944734813336e-04
9.19704545454545e+00 1.55795522145620e-02 1.48518139519130e-04
9.24053030303030e+00 1.54981611102684e-02 1.48091110668741e-04
9.28401515151515e+00 1.54171952114981e-02 1.47663674540576e-04
9.32750000000000e+00 1.53366522968817e-02 1.47235856961101e-04
9.37098484848485e+00 1.52565301567397e-02 1.46807683427993e-04
9.41446969696970e+00 1.51768265927653e-02 1.46379179038259e-04
9.45795454545455e+00 1.50975394182223e-02 1.45950368415565e-04
9.50143939393939e+00 1.50186664577982e-02 1.45521275834755e-04
9.54492424242424e+00 1.49402055475452e-02 1.45091925188035e-04
9.58840909090909e+00 1.48621545348200e-02 1.44662339990783e-04
9.63189393939394e+00 1.47845112782256e-02 1.44232543350464e-04
9.67537878787879e+00 1.47072736476316e-02 1.43802558083050e-04
9.71886363636364e+00 1.46304395238759e-02 1.43372406644422e-04
9.76234848484849e+00 1.45540067989477e-02 1.42942111060959e-04
9.80583333333333e+00 1.44779733758491e-02 1.42511693047307e-04
9.84931818181818e+00 1.44023371685371e-02 1.42081173973928e-04
9.89280303030303e+00 1.43270961018668e-02 1.41650574837054e-04
9.93628787878788e+00 1.42522481116095e-02 1.41219916369666e-04
9.97977272727273e+00 1.41777911441696e-02 1.40789219149356e-04
1.00232575757576e+01 1.41037231563863e-02 1.40358502835793e-04
1.00667424242424e+01 1.40300421168808e-02 1.39927786982537e-04
1.01102272727273e+01 1.39567460041388e-02 1.39497091692731e-04
1.01537121212121e+01 1.38838328064956e-02 1.39066435722653e-04
1.01971969696970e+01 1.38113005242301e-02 1.38635837857870e-04
1.02406818181818e+01 1.37391471666474e-02 1.38205316599640e-04
1.02841666666667e+01 1.36673707548599e-02 1.37774890135693e-04
1.03276515151515e+01 1.35959693189238e-02 1.37344576377883e-04
1.03711363636364e+01 1.35249409005682e-02 1.36914392933330e-04
1.04146212121212e+01 1.34542835503839e-02 1.36484357141447e-04
1.04581060606061e+01 1.33839953305019e-02 1.36054486045434e-04
1.05015909090909e+01 1.33140743118336e-02 1.35624796428644e-04
1.05450757575758e+01 1.32445185766996e-02 1.35195304786468e-04
1.05885606060606e+01 1.31753262161197e-02 1.34766027362086e-04
1.06320454545455e+01 1.31064953323938e-02 1.34336980118692e-04
1.06755303030303e+01 1.30380240364406e-02 1.33908178774634e-04
1.07190151515152e+01 1.29699104503312e-02 1.33479638776012e-04
1.07625000000000e+01 1.29021527046758e-02 1.33051375331204e-04
1.08059848484848e+01 1.28347489411107e-02 1.32623403383814e-04
1.08494696969697e+01 1.27676973097320e-02 1.32195737646675e-04
1.08929545454545e+01 1.27009959715377e-02 1.31768392575105e-04
1.09364393939394e+01 1.26346430959068e-02 1.31341382400270e-04
1.09799242424242e+01 1.25686368629969e-02 1.30914721102875e-04
1.10234090909091e+01 1.25029754612690e-02 1.30488422445960e-04
1.10668939393939e+01 1.24376570898411e-02 1.30062499948902e-04
1.11103787878788e+01 1.23726799560568e-02 1.29636966919684e-04
1.11538636363636e+01 1.23080422777970e-02 1.29211836429226e-04
1.11973484848485e+01 1.22437422810913e-02 1.28787121343151e-04
1.12408333333333e+01 1.21797782023881e-02 1.28362834296407e-04
1.12843181818182e+01 1.21161482862079e-02 1.27938987724510e-04
1.13278030303030e+01 1.20528507873732e-02 1.27515593838532e-04
1.13712878787879e+01 1.19898839687029e-02 1.27092664655805e-04
1.14147727272727e+01 1.19272461032020e-02 1.26670211975240e-04
1.14582575757576e+01 1.18649354717969e-02 1.26248247407538e-04
1.15017424242424e+01 1.18029503654860e-02 1.25826782082109e-04
1.15452272727273e+01 1.17412890836465e-02 1.25405827753113e-04
1.15887121212121e+01 1.16799499340155e-02 1.24985395165288e-04
1.16321969696970e+01 1.16189312342277e-02 1.24565495136199e-04
1.16756818181818e+01 1.15582313096594e-02 1.24146138308178e-04
1.17191666666667e+01 1.14978484954738e-02 1.23727335124975e-04
1.17626515151515e+01 1.14377811345022e-02 1.23309095860063e-04
1.18061363636364e+01 1.13780275792539e-02 1.22891430593572e-04
1.18496212121212e+01 1.13185861898334e-02 1.22474349240186e-04
1.18931060606061e+01 1.12594553359149e-02 1.22057861526353e-04
1.19365909090909e+01 1.12006333946964e-02 1.21641977017740e-04
1.19800757575758e+01 1.11421187528384e-02 1.21226705096762e-04
1.20235606060606e+01 1.10839098044537e-02 1.20812054989580e-04
1.20670454545455e+01 1.10260049530124e-02 1.20398035743900e-04
1.21105303030303e+01 1.09684026093657e-02 1.19984656255587e-04
1.21540151515152e+01 1.09111011936183e-02 1.19571925246765e-04
1.21975000000000e+01 1.08540991331853e-02 1.19159851291962e-04
1.22409848484848e+01 1.07973948646324e-02 1.18748442796489e-04
1.22844696969697e+01 1.07409868317662e-02 1.18337708022241e-04
1.23279545454545e+01 1.06848734874421e-02 1.17927655066338e-04
1.23714393939394e+01 1.06290532916870e-02 1.17518291886481e-04
1.24149242424242e+01 1.05735247134763e-02 1.17109626279893e-04
1.24584090909091e+01 1.05182862288884e-02 1.16701665908291e-04
1.25018939393939e+01 1.04633363228505e-02 1.16294418277100e-04
1.25453787878788e+01 1.04086734873250e-02 1.15887890760037e-04
1.25888636363636e+01 1.03542962230253e-02 1.15482090578590e-04
1.26323484848485e+01 1.03002030376318e-02 1.15077024826219e-04
1.26758333333333e+01 1.02463924474796e-02 1.14672700448126e-04
1.27193181818182e+01 1.01928629758036e-02 1.14269124265050e-04
1.27628030303030e+01 1.01396131543974e-02 1.13866302953318e-04
1.28062878787879e+01 1.00866415218885e-02 1.13464243068289e-04
1.28497727272727e+01 1.00339466253682e-02 1.13062951024636e-04
1.28932575757576e+01 9.98152701869568e-03 1.12662433119461e-04
1.29367424242424e+01 9.92938126410063e-03 1.12262695299633e-04
1.29802272727273e+01 9.87750793091351e-03 1.11863744038400e-04
1.30237121212121e+01 9.82590559554628e-03 1.11465585038808e-04
1.30671969696970e+01 9.77457284263892e-03 1.11068224091742e-04
1.31106818181818e+01 9.72350826344134e-03 1.10671666878478e-04
1.31541666666667e+01 9.67271045734072e-03 1.10275918951998e-04
1.31976515151515e+01 9.62217803027023e-03 1.09880985758741e-04
1.32411363636364e+01 9.57190959621064e-03 1.09486872620153e-04
1.32846212121212e+01 9.52190377562529e-03 1.09093584754116e-04
1.33281060606061e+01 9.47215919693652e-03 1.08701127256726e-04
1.33715909090909e+01 9.42267449498637e-03 1.08309505123426e-04
1.34150757575758e+01 9.37344831248830e-03 1.07918723231018e-04
1.34585606060606e+01 9.32447929851317e-03 1.07528786358453e-04
1.35020454545455e+01 9.27576610991667e-03 1.07139699169086e-04
1.35455303030303e+01 9.22730740985014e-03 1.06751466231168e-04
1.35890151515152e+01 9.17910186916417e-03 1.06364092000329e-04
1.36325000000000e+01 9.13114816494381e-03 1.05977580839756e-04
1.36759848484849e+01 9.08344498188877e-03 1.05591937002918e-04
1.37194696969697e+01 9.03599101087253e-03 1.05207164653434e-04
