Energy (eV)          EEDF (eV^-(3/2))     First Anisotropy
5.12500000000000e-02 4.68782483033450e-02 3.31546034238684e-05
1.53750000000000e-01 4.63030171572104e-02 5.45953150991558e-05
2.56250000000000e-01 4.57348445272841e-02 7.16695031009208e-05
3.58750000000000e-01 4.51736438002313e-02 8.43985473755642e-05
4.61250000000000e-01 4.46193294255800e-02 9.48160566825281e-05
5.63750000000000e-01 4.40718169026347e-02 1.03697208029354e-04
6.66250000000000e-01 4.35310227675891e-02 1.11446274306689e-04
7.68750000000000e-01 4.29968645808009e-02 1.18309229049598e-04
8.71250000000000e-01 4.24692609142245e-02 1.24450416354970e-04
9.73750000000000e-01 4.19481313389972e-02 1.29986839427448e-04
1.07625000000000e+00 4.14333964131788e-02 1.35005732614323e-04
1.17875000000000e+00 4.09249776696413e-02 1.39574463936146e-04
1.28125000000000e+00 4.04227976041070e-02 1.43746522951158e-04
1.38375000000000e+00 3.99267796633334e-02 1.47565344585763e-04
1.48625000000000e+00 3.94368482334439e-02 1.51066859934328e-04
1.58875000000000e+00 3.89529286284004e-02 1.54281259796306e-04
1.69125000000000e+00 3.84749470786185e-02 1.57234250913773e-04
1.79375000000000e+00 3.80028307197217e-02 1.59947973839220e-04
1.89625000000000e+00 3.75365075814338e-02 1.62441688380168e-04
1.99875000000000e+00 3.70759065766077e-02 1.64732295295658e-04
2.10125000000000e+00 3.66209574903889e-02 1.66834740048804e-04
2.20375000000000e+00 3.61715909695115e-02 1.68762329937281e-04
2.30625000000000e+00 3.57277385117259e-02 1.70526986496972e-04
2.40875000000000e+00 3.52893324553566e-02 1.72139448786850e-04
2.51125000000000e+00 3.48563059689873e-02 1.73609438878045e-04
2.61375000000000e+00 3.44285930412730e-02 1.74945797892053e-04
2.71625000000000e+00 3.40061284708774e-02 1.76156598826839e-04
2.81875000000000e+00 3.35888478565334e-02 1.77249240896125e-04
2.92125000000000e+00 3.31766875872253e-02 1.78230529003589e-04
3.02375000000000e+00 3.27695848324924e-02 1.79106741158401e-04
3.12625000000000e+00 3.23674775328506e-02 1.79883686028820e-04
3.22875000000000e+00 3.19703043903319e-02 1.80566752369246e-04
3.33125000000000e+00 3.15780048591406e-02 1.81160951703751e-04
3.43375000000000e+00 3.11905191364227e-02 1.81670955376961e-04
3.53625000000000e+00 3.08077881531502e-02 1.82101126871489e-04
3.63875000000000e+00 3.04297535651162e-02 1.82455550124663e-04
3.74125000000000e+00 3.00563577440407e-02 1.82738054445769e-04
3.84375000000000e+00 2.96875437687859e-02 1.82952236530012e-04
3.94625000000000e+00 2.93232554166789e-02 1.83101479981190e-04
4.04875000000000e+00 2.89634371549410e-02 1.83188972687003e-04
4.15125000000000e+00 2.86080341322220e-02 1.83217722335581e-04
4.25375000000000e+00 2.82569921702392e-02 1.83190570316511e-04
4.35625000000000e+00 2.79102577555174e-02 1.83110204212520e-04
4.45875000000000e+00 2.75677780312323e-02 1.82979169057133e-04
4.56125000000000e+00 2.72295007891518e-02 1.82799877508164e-04
4.66375000000000e+00 2.68953744616783e-02 1.82574619065481e-04
4.76625000000000e+00 2.65653481139868e-02 1.82305568443718e-04
4.86875000000000e+00 2.62393714362609e-02 1.81994793195565e-04
4.97125000000000e+00 2.59173947360232e-02 1.81644260668428e-04
5.07375000000000e+00 2.55993689305600e-02 1.81255844366639e-04
5.17625000000000e+00 2.52852455394395e-02 1.80831329782087e-04
5.27875000000000e+00 2.49749766771207e-02 1.80372419748391e-04
5.38125000000000e+00 2.46685150456542e-02 1.79880739366863e-04
5.48375000000000e+00 2.43658139274717e-02 1.79357840546880e-04
5.58625000000000e+00 2.40668271782643e-02 1.78805206198197e-04
5.68875000000000e+00 2.37715092199484e-02 1.78224254108404e-04
5.79125000000000e+00 2.34798150337176e-02 1.77616340534995e-04
5.89375000000000e+00 2.31917001531797e-02 1.76982763538261e-04
5.99625000000000e+00 2.29071206575786e-02 1.76324766078366e-04
6.09875000000000e+00 2.26260331650984e-02 1.75643538897386e-04
6.20125000000000e+00 2.23483948262510e-02 1.74940223205061e-04
6.30375000000000e+00 2.20741633173429e-02 1.74215913184926e-04
6.40625000000000e+00 2.18032968340245e-02 1.73471658335846e-04
6.50875000000000e+00 2.15357540849166e-02 1.72708465662577e-04
6.61125000000000e+00 2.12714942853161e-02 1.71927301727462e-04
6.71375000000000e+00 2.10104771509786e-02 1.71129094574333e-04
6.81625000000000e+00 2.07526628919777e-02 1.70314735534603e-04
6.91875000000000e+00 2.04980122066389e-02 1.69485080924601e-04
7.02125000000000e+00 2.02464862755488e-02 1.68640953642352e-04
7.12375000000000e+00 1.99980467556372e-02 1.67783144671289e-04
7.22625000000000e+00 1.97526557743320e-02 1.66912414497722e-04
7.32875000000000e+00 1.95102759237857e-02 1.66029494448246e-04
7.43125000000000e+00 1.92708702551734e-02 1.65135087952765e-04
7.53375000000000e+00 1.90344022730596e-02 1.64229871738358e-04
7.63625000000000e+00 1.88008359298352e-02 1.63314496958710e-04
7.73875000000000e+00 1.85701356202222e-02 1.62389590263494e-04
7.84125000000000e+00 1.83422661758459e-02 1.61455754811675e-04
7.94375000000000e+00 1.81171928598740e-02 1.60513571232475e-04
8.04625000000000e+00 1.78948813617209e-02 1.59563598537359e-04
8.14875000000000e+00 1.76752977918177e-02 1.58606374986160e-04
8.25125000000000e+00 1.74584086764458e-02 1.57642418910257e-04
8.35375000000000e+00 1.72441809526341e-02 1.56672229495473e-04
8.45625000000000e+00 1.70325819631188e-02 1.55696287527151e-04
8.55875000000000e+00 1.68235794513653e-02 1.54715056099683e-04
8.66125000000000e+00 1.66171415566508e-02 1.53728981292623e-04
8.76375000000000e+00 1.64132368092071e-02 1.52738492815368e-04
8.86625000000000e+00 1.62118341254240e-02 1.51744004622197e-04
8.96875000000000e+00 1.60129028031100e-02 1.50745915499386e-04
9.07125000000000e+00 1.58164125168128e-02 1.49744609625970e-04
9.17375000000000e+00 1.56223333131958e-02 1.48740457109641e-04
9.27625000000000e+00 1.54306356064725e-02 1.47733814499143e-04
9.37875000000000e+00 1.52412901738958e-02 1.46725025274424e-04
9.48125000000000e+00 1.50542681513037e-02 1.45714420315772e-04
9.58375000000000e+00 1.48695410287191e-02 1.44702318353052e-04
9.68625000000000e+00 1.46870806460037e-02 1.43689026396068e-04
9.78875000000000e+00 1.45068591885648e-02 1.42674840147026e-04
9.89125000000000e+00 1.43288491831159e-02 1.41660044396050e-04
9.99375000000000e+00 1.41530234934880e-02 1.40644913400577e-04
1.00962500000000e+01 1.39793553164935e-02 1.39629711249470e-04
1.01987500000000e+01 1.38078181778396e-02 1.38614692212569e-04
1.03012500000000e+01 1.36383859280931e-02 1.37600101076411e-04
1.04037500000000e+01 1.34710327386937e-02 1.36586173466806e-04
1.05062500000000e+01 1.33057330980170e-02 1.35573136158881e-04
1.06087500000000e+01 1.31424618074852e-02 1.34561207375179e-04
1.07112500000000e+01 1.29811939777260e-02 1.33550597072398e-04
1.08137500000000e+01 1.28219050247782e-02 1.32541507217282e-04
1.09162500000000e+01 1.26645706663441e-02 1.31534132052148e-04
1.10187500000000e+01 1.25091669180882e-02 1.30528658350557e-04
1.11212500000000e+01 1.23556700899804e-02 1.29525265663533e-04
1.12237500000000e+01 1.22040567826854e-02 1.28524126556789e-04
1.13262500000000e+01 1.20543038839947e-02 1.27525406839333e-04
1.14287500000000e+01 1.19063885653044e-02 1.26529265783817e-04
1.15312500000000e+01 1.17602882781342e-02 1.25535856339037e-04
1.16337500000000e+01 1.16159807506908e-02 1.24545325334856e-04
1.17362500000000e+01 1.14734439844723e-02 1.23557813679924e-04
1.18387500000000e+01 1.13326562509149e-02 1.22573456552481e-04
1.19412500000000e+01 1.11935960880806e-02 1.21592383584515e-04
1.20437500000000e+01 1.10562422973853e-02 1.20614719039564e-04
1.21462500000000e+01 1.09205739403675e-02 1.19640581984428e-04
1.22487500000000e+01 1.07865703354960e-02 1.18670086455034e-04
1.23512500000000e+01 1.06542110550178e-02 1.17703341616680e-04
1.24537500000000e+01 1.05234759218436e-02 1.16740451918874e-04
1.25562500000000e+01 1.03943450064718e-02 1.15781517245023e-04
1.26587500000000e+01 1.02667986239510e-02 1.14826633057136e-04
1.27612500000000e+01 1.01408173308787e-02 1.13875890535731e-04
1.28637500000000e+01 1.00163819224377e-02 1.12929376715166e-04
1.29662500000000e+01 9.89347342946786e-03 1.11987174614546e-04
1.30687500000000e+01 9.77207311557520e-03 1.11049363364354e-04
1.31712500000000e+01 9.65216247427512e-03 1.10116018329020e-04
1.32737500000000e+01 9.53372322617144e-03 1.09187211225528e-04
1.33762500000000e+01 9.41673731616985e-03 1.08263010238238e-04
1.34787500000000e+01 9.30118691072553e-03 1.07343480130042e-04
1.35812500000000e+01 9.18705439512458e-03 1.06428682350018e-04
1.36837500000000e+01 9.07432237079882e-03 1.05518675137674e-04
1.37862500000000e+01 8.96297365267350e-03 1.04613513623921e-04
1.38887500000000e+01 8.85299126654759e-03 1.03713249928899e-04
1.39912500000000e+01 8.74435844650619e-03 1.02817933256765e-04
1.40937500000000e+01 8.63705863236470e-03 1.01927609987530e-04
1.41962500000000e+01 8.53107546714437e-03 1.01042323766059e-04
1.42987500000000e+01 8.42639279457880e-03 1.00162115588369e-04
1.44012500000000e+01 8.32299465665105e-03 9.92870238852464e-05
1.45037500000000e+01 8.22086529116100e-03 9.84170846033444e-05
1.46062500000000e+01 8.11998912932248e-03 9.75523312838069e-05
1.47087500000000e+01 8.02035079338998e-03 9.66927951385119e-05
1.48112500000000e+01 7.92193509431441e-03 9.58385051240174e-05
1.49137500000000e+01 7.82472702942767e-03 9.49894880132806e-05
1.50162500000000e+01 7.72871178015561e-03 9.41457684652417e-05
1.51187500000000e+01 7.63387470975908e-03 9.33073690923213e-05
1.52212500000000e+01 7.54020136110263e-03 9.24743105259064e-05
1.53237500000000e+01 7.44767745445068e-03 9.16466114798913e-05
1.54262500000000e+01 7.35628888529068e-03 9.08242888123428e-05
1.55287500000000e+01 7.26602172218300e-03 9.00073575853554e-05
1.56312500000000e+01 7.17686220463718e-03 8.91958311231345e-05
1.57337500000000e+01 7.08879674101426e-03 8.83897210683672e-05
1.58362500000000e+01 7.00181190645484e-03 8.75890374369477e-05
1.59387500000000e+01 6.91589444083259e-03 8.67937886711158e-05
1.60412500000000e+01 6.83103124673286e-03 8.60039816910400e-05
1.61437500000000e+01 6.74720938745604e-03 8.52196219448889e-05
1.62462500000000e+01 6.66441608504550e-03 8.44407134574681e-05
1.63487500000000e+01 6.58263871833970e-03 8.36672588774393e-05
1.64512500000000e+01 6.50186482104817e-03 8.28992595231707e-05
1.65537500000000e+01 6.42208207985116e-03 8.21367154272711e-05
1.66562500000000e+01 6.34327833252253e-03 8.13796253798382e-05
1.67587500000000e+01 6.26544156607577e-03 8.06279869704692e-05
1.68612500000000e+01 6.18855991493270e-03 7.98817966290623e-05
1.69637500000000e+01 6.11262165911462e-03 7.91410496654398e-05
1.70662500000000e+01 6.03761522245576e-03 7.84057403078464e-05
1.71687500000000e+01 5.96352917083854e-03 7.76758617403488e-05
1.72712500000000e+01 5.89035221045056e-03 7.69514061391611e-05
1.73737500000000e+01 5.81807318606292e-03 7.62323647079341e-05
1.74762500000000e+01 5.74668107932975e-03 7.55187277120468e-05
1.75787500000000e+01 5.67616500710848e-03 7.48104845119112e-05
1.76812500000000e+01 5.60651421980086e-03 7.41076235953299e-05
1.77837500000000e+01 5.53771809971424e-03 7.34101326089465e-05
1.78862500000000e+01 5.46976615944300e-03 7.27179983887970e-05
1.79887500000000e+01 5.40264804026982e-03 7.20312069899833e-05
1.80912500000000e+01 5.33635351058657e-03 7.13497437155121e-05
1.81937500000000e+01 5.27087246433463e-03 7.06735931443227e-05
1.82962500000000e+01 5.20619491946425e-03 7.00027391585124e-05
1.83987500000000e+01 5.14231101641290e-03 6.93371649697891e-05
1.85012500000000e+01 5.07921101660225e-03 6.86768531451754e-05
1.86037500000000e+01 5.01688530095361e-03 6.80217856319845e-05
1.87062500000000e+01 4.95532436842155e-03 6.73719437820907e-05
1.88087500000000e+01 4.89451883454561e-03 6.67273083755058e-05
1.89112500000000e+01 4.83445943001966e-03 6.60878596432946e-05
1.90137500000000e+01 4.77513699927885e-03 6.54535772898350e-05
1.91162500000000e+01 4.71654249910401e-03 6.48244405144399e-05
1.92187500000000e+01 4.65866699724298e-03 6.42004280323785e-05
1.93212500000000e+01 4.60150167104905e-03 6.35815180952958e-05
1.94237500000000e+01 4.54503780613595e-03 6.29676885110432e-05
1.95262500000000e+01 4.48926679504946e-03 6.23589166629510e-05
1.96287500000000e+01 4.43418013595524e-03 6.17551795285581e-05
1.97312500000000e+01 4.37976943134284e-03 6.11564536977973e-05
1.98337500000000e+01 4.32602638674551e-03 6.05627153906639e-05
1.99362500000000e+01 4.27294280947583e-03 5.99739404743826e-05
2.00387500000000e+01 4.22051060737676e-03 5.93901044800785e-05
2.01412500000000e+01 4.16872178758809e-03 5.88111826189762e-05
2.02437500000000e+01 4.11756845532797e-03 5.82371497981301e-05
2.03462500000000e+01 4.06704281268943e-03 5.76679806357047e-05
2.04487500000000e+01 4.01713715745164e-03 5.71036494758069e-05
2.05512500000000e+01 3.96784388190578e-03 5.65441304028990e-05
2.06537500000000e+01 3.91915547169531e-03 5.59893972558004e-05
2.07562500000000e+01 3.87106450467046e-03 5.54394236412658e-05
2.08587500000000e+01 3.82356364975677e-03 5.48941829471836e-05
2.09612500000000e+01 3.77664566583756e-03 5.43536483553883e-05
2.10637500000000e+01 3.73030340065006e-03 5.38177928540939e-05
2.11662500000000e+01 3.68452978969510e-03 5.32865892499698e-05
2.12687500000000e+01 3.63931785516022e-03 5.27600101798595e-05
2.13712500000000e+01 3.59466070485591e-03 5.22380281221550e-05
2.14737500000000e+01 3.55055153116499e-03 5.17206154078373e-05
2.15762500000000e+01 3.50698361000481e-03 5.12077442311906e-05
2.16787500000000e+01 3.46395029980227e-03 5.06993866601924e-05
2.17812500000000e+01 3.42144504048132e-03 5.01955146466082e-05
2.18837500000000e+01 3.37946135246296e-03 4.96961000357756e-05
2.19862500000000e+01 3.33799283567743e-03 4.92011145760925e-05
2.20887500000000e+01 3.29703316858866e-03 4.87105299282286e-05
2.21912500000000e+01 3.25657610723053e-03 4.82243176740534e-05
2.22937500000000e+01 3.21661548425504e-03 4.77424493252976e-05
2.23962500000000e+01 3.17714520799217e-03 4.72648963319469e-05
2.24987500000000e+01 3.13815926152126e-03 4.67916300903821e-05
2.26012500000000e+01 3.09965170175373e-03 4.63226219512692e-05
2.27037500000000e+01 3.06161665852716e-03 4.58578432272056e-05
2.28062500000000e+01 3.02404833371041e-03 4.53972652001314e-05
2.29087500000000e+01 2.98694100031975e-03 4.49408591285118e-05
2.30112500000000e+01 2.95028900164581e-03 4.44885962542925e-05
2.31137500000000e+01 2.91408675039127e-03 4.40404478096337e-05
2.32162500000000e+01 2.87832872781912e-03 4.35963850234389e-05
2.33187500000000e+01 2.84300948291140e-03 4.31563791276700e-05
2.34212500000000e+01 2.80812363153820e-03 4.27204013634641e-05
2.35237500000000e+01 2.77366585563691e-03 4.22884229870535e-05
2.36262500000000e+01 2.73963090240151e-03 4.18604152754931e-05
2.37287500000000e+01 2.70601358348187e-03 4.14363495322060e-05
2.38312500000000e+01 2.67280877419276e-03 4.10161970923420e-05
2.39337500000000e+01 2.64001141273268e-03 4.05999293279613e-05
2.40362500000000e+01 2.60761649941223e-03 4.01875176530481e-05
2.41387500000000e+01 2.57561909589192e-03 3.97789335283567e-05
2.42412500000000e+01 2.54401432442937e-03 3.93741484660944e-05
2.43437500000000e+01 2.51279736713578e-03 3.89731340344421e-05
2.44462500000000e+01 2.48196346524141e-03 3.85758618619237e-05
2.45487500000000e+01 2.45150791837019e-03 3.81823036416280e-05
2.46512500000000e+01 2.42142608382320e-03 3.77924311352794e-05
2.47537500000000e+01 2.39171337587088e-03 3.74062161771658e-05
2.48562500000000e+01 2.36236526505400e-03 3.70236306779300e-05
2.49587500000000e+01 2.33337727749320e-03 3.66446466282234e-05
2.50612500000000e+01 2.30474499420695e-03 3.62692361022325e-05
2.51637500000000e+01 2.27646405043792e-03 3.58973712610750e-05
2.52662500000000e+01 2.24853013498764e-03 3.55290243560689e-05
2.53687500000000e+01 2.22093898955924e-03 3.51641677318805e-05
2.54712500000000e+01 2.19368640810835e-03 3.48027738295547e-05
2.55737500000000e+01 2.16676823620191e-03 3.44448151894343e-05
2.56762500000000e+01 2.14018037038484e-03 3.40902644539630e-05
2.57787500000000e+01 2.11391875755454e-03 3.37390943703780e-05
2.58812500000000e+01 2.08797939434302e-03 3.33912777933012e-05
2.59837500000000e+01 2.06235832650657e-03 3.30467876872233e-05
2.60862500000000e+01 2.03705164832304e-03 3.27055971288865e-05
2.61887500000000e+01 2.01205550199639e-03 3.23676793095731e-05
2.62912500000000e+01 1.98736607706862e-03 3.20330075372966e-05
2.63937500000000e+01 1.96297960983893e-03 3.17015552389013e-05
2.64962500000000e+01 1.93889238278989e-03 3.13732959620691e-05
2.65987500000000e+01 1.91510072402084e-03 3.10482033772395e-05
2.67012500000000e+01 1.89160100668804e-03 3.07262512794476e-05
2.68037500000000e+01 1.86838964845187e-03 3.04074135900747e-05
2.69062500000000e+01 1.84546311093066e-03 3.00916643585181e-05
2.70087500000000e+01 1.82281789916137e-03 2.97789777637861e-05
2.71112500000000e+01 1.80045056106674e-03 2.94693281160127e-05
2.72137500000000e+01 1.77835768692907e-03 2.91626898578990e-05
2.73162500000000e+01 1.75653590887047e-03 2.88590375660833e-05
2.74187500000000e+01 1.73498190033942e-03 2.85583459524403e-05
2.75212500000000e+01 1.71369237560367e-03 2.82605898653082e-05
2.76237500000000e+01 1.69266408924937e-03 2.79657442906559e-05
2.77262500000000e+01 1.67189383568629e-03 2.76737843531814e-05
2.78287500000000e+01 1.65137844865924e-03 2.73846853173447e-05
2.79312500000000e+01 1.63111480076532e-03 2.70984225883454e-05
2.80337500000000e+01 1.61109980297718e-03 2.68149717130368e-05
2.81362500000000e+01 1.59133040417220e-03 2.65343083807836e-05
2.82387500000000e+01 1.57180359066725e-03 2.62564084242646e-05
2.83412500000000e+01 1.55251638575941e-03 2.59812478202169e-05
2.84437500000000e+01 1.53346584927207e-03 2.57088026901310e-05
2.85462500000000e+01 1.51464907710683e-03 2.54390493008908e-05
2.86487500000000e+01 1.49606320080072e-03 2.51719640653657e-05
2.87512500000000e+01 1.47770538708897e-03 2.49075235429551e-05
2.88537500000000e+01 1.45957283747307e-03 2.46457044400852e-05
2.89562500000000e+01 1.44166278779421e-03 2.43864836106548e-05
2.90587500000000e+01 1.42397250781183e-03 2.41298380564422e-05
2.91612500000000e+01 1.40649930078750e-03 2.38757449274707e-05
2.92637500000000e+01 1.38924050307378e-03 2.36241815223247e-05
2.93662500000000e+01 1.37219348370815e-03 2.33751252884286e-05
2.94687500000000e+01 1.35535564401200e-03 2.31285538222889e-05
2.95712500000000e+01 1.33872441719442e-03 2.28844448696935e-05
2.96737500000000e+01 1.32229726796097e-03 2.26427763258750e-05
2.97762500000000e+01 1.30607169212715e-03 2.24035262356412e-05
2.98787500000000e+01 1.29004521623667e-03 2.21666727934652e-05
2.99812500000000e+01 1.27421539718442e-03 2.19321943435439e-05
3.00837500000000e+01 1.25857982184399e-03 2.17000693798237e-05
3.01862500000000e+01 1.24313610669986e-03 2.14702765459963e-05
3.02887500000000e+01 1.22788189748401e-03 2.12427946354586e-05
3.03912500000000e+01 1.21281486881705e-03 2.10176025912465e-05
3.04937500000000e+01 1.19793272385375e-03 2.07946795059386e-05
3.05962500000000e+01 1.18323319393285e-03 2.05740046215298e-05
3.06987500000000e+01 1.16871403823131e-03 2.03555573292821e-05
3.08012500000000e+01 1.15437304342262e-03 2.01393171695433e-05
3.09037500000000e+01 1.14020802333945e-03 1.99252638315442e-05
3.10062500000000e+01 1.12621681864041e-03 1.97133771531704e-05
3.11087500000000e+01 1.11239729648080e-03 1.95036371207079e-05
3.12112500000000e+01 1.09874735018754e-03 1.92960238685687e-05
3.13137500000000e+01 1.08526489893800e-03 1.90905176789921e-05
3.14162500000000e+01 1.07194788744281e-03 1.88870989817236e-05
3.15187500000000e+01 1.05879428563250e-03 1.86857483536758e-05
3.16212500000000e+01 1.04580208834812e-03 1.84864465185657e-05
3.17237500000000e+01 1.03296931503548e-03 1.82891743465338e-05
3.18262500000000e+01 1.02029400944329e-03 1.80939128537456e-05
3.19287500000000e+01 1.00777423932492e-03 1.79006432019741e-05
3.20312500000000e+01 9.95408096143856e-04 1.77093466981627e-05
3.21337500000000e+01 9.83193694782739e-04 1.75200047939736e-05
3.22362500000000e+01 9.71129173256022e-04 1.73325990853200e-05
3.23387500000000e+01 9.59212692426109e-04 1.71471113118805e-05
