Energy (eV)          EEDF (eV^-(3/2))     First Anisotropy
2.52631578947368e-02 8.55346369689732e-02 5.19158850995141e-05
7.57894736842105e-02 8.47616968009219e-02 8.56284052064874e-05
1.26315789473684e-01 8.39957413597679e-02 1.12775972604559e-04
1.76842105263158e-01 8.32367075391699e-02 1.33240688604105e-04
2.27368421052632e-01 8.24845327836944e-02 1.50177024722294e-04
2.77894736842105e-01 8.17391551111876e-02 1.64781472616708e-04
3.28421052631579e-01 8.10005130994260e-02 1.77675104840196e-04
3.78947368421053e-01 8.02685458812894e-02 1.89234082855373e-04
4.29473684210526e-01 7.95431931414696e-02 1.99708614464612e-04
4.80000000000000e-01 7.88243951057714e-02 2.09276054352556e-04
5.30526315789474e-01 7.81120925421693e-02 2.18068067033715e-04
5.81052631578947e-01 7.74062267538857e-02 2.26185907159177e-04
6.31578947368421e-01 7.67067395757214e-02 2.33709642711778e-04
6.82105263157895e-01 7.60135733657012e-02 2.40704034129725e-04
7.32631578947368e-01 7.53266710039593e-02 2.47222449086331e-04
7.83157894736842e-01 7.46459758867766e-02 2.53309564603323e-04
8.33684210526316e-01 7.39714319219460e-02 2.59003288012717e-04
8.84210526315789e-01 7.33029835249200e-02 2.64336158299661e-04
9.34736842105263e-01 7.26405756118466e-02 2.69336390338314e-04
9.85263157894737e-01 7.19841535974586e-02 2.74028668423290e-04
1.03578947368421e+00 7.13336633870881e-02 2.78434758135559e-04
1.08631578947368e+00 7.06890513840421e-02 2.82573988757065e-04
1.13684210526316e+00 7.00502644632812e-02 2.86463633552836e-04
1.18736842105263e+00 6.94172499916835e-02 2.90119216722955e-04
1.23789473684211e+00 6.87899558006687e-02 2.93554762910799e-04
1.28842105263158e+00 6.81683302034996e-02 2.96783001431794e-04
1.33894736842105e+00 6.75523219706976e-02 2.99815536265764e-04
1.38947368421053e+00 6.69418803406148e-02 3.02662984920818e-04
1.44000000000000e+00 6.63369550146950e-02 3.05335100508280e-04
1.49052631578947e+00 6.57374961401476e-02 3.07840870078031e-04
1.54105263157895e+00 6.51434543229914e-02 3.10188600613703e-04
1.59157894736842e+00 6.45547806077118e-02 3.12385993037727e-04
1.64210526315789e+00 6.39714264851167e-02 3.14440203349148e-04
1.69263157894737e+00 6.33933438879285e-02 3.16357900335520e-04
1.74315789473684e+00 6.28204851761038e-02 3.18145311306121e-04
1.79368421052632e+00 6.22528031469176e-02 3.19808264103937e-04
1.84421052631579e+00 6.16902510176883e-02 3.21352223814533e-04
1.89473684210526e+00 6.11327824347172e-02 3.22782324853192e-04
1.94526315789474e+00 6.05803514572239e-02 3.24103400013732e-04
1.99578947368421e+00 6.00329125625459e-02 3.25320004050713e-04
2.04631578947368e+00 5.94904206421281e-02 3.26436438741695e-04
2.09684210526316e+00 5.89528309895704e-02 3.27456771434288e-04
2.14736842105263e+00 5.84200993077242e-02 3.28384853433804e-04
2.19789473684211e+00 5.78921816946815e-02 3.29224336364083e-04
2.24842105263158e+00 5.73690346501220e-02 3.29978686706627e-04
2.29894736842105e+00 5.68506150621323e-02 3.30651199488312e-04
2.34947368421053e+00 5.63368802107282e-02 3.31245008793467e-04
2.40000000000000e+00 5.58277877641336e-02 3.31763100814854e-04
2.45052631578947e+00 5.53232957687673e-02 3.32208322381633e-04
2.50105263157895e+00 5.48233626543545e-02 3.32583390287568e-04
2.55157894736842e+00 5.43279472222284e-02 3.32890899970735e-04
2.60210526315789e+00 5.38370086480400e-02 3.33133331740619e-04
2.65263157894737e+00 5.33505064782283e-02 3.33313059698502e-04
2.70315789473684e+00 5.28684006210322e-02 3.33432356862822e-04
2.75368421052632e+00 5.23906513506265e-02 3.33493401319158e-04
2.80421052631579e+00 5.19172192966452e-02 3.33498281735669e-04
2.85473684210526e+00 5.14480654479114e-02 3.33449002310398e-04
2.90526315789474e+00 5.09831511424667e-02 3.33347487774092e-04
2.95578947368421e+00 5.05224380693782e-02 3.33195586518808e-04
3.00631578947368e+00 5.00658882654599e-02 3.32995076322860e-04
3.05684210526316e+00 4.96134641074856e-02 3.32747666958279e-04
3.10736842105263e+00 4.91651283152204e-02 3.32455003884216e-04
3.15789473684211e+00 4.87208439423976e-02 3.32118671543880e-04
3.20842105263158e+00 4.82805743794520e-02 3.31740196315846e-04
3.25894736842105e+00 4.78442833448894e-02 3.31321049639286e-04
3.30947368421053e+00 4.74119348864558e-02 3.30862649608190e-04
3.36000000000000e+00 4.69834933780728e-02 3.30366364963248e-04
3.41052631578947e+00 4.65589235130123e-02 3.29833516421688e-04
3.46105263157895e+00 4.61381903061151e-02 3.29265379056565e-04
3.51157894736842e+00 4.57212590859199e-02 3.28663184624000e-04
3.56210526315789e+00 4.53080954955023e-02 3.28028122523159e-04
3.61263157894737e+00 4.48986654895563e-02 3.27361343013238e-04
3.66315789473684e+00 4.44929353281230e-02 3.26663958007626e-04
3.71368421052632e+00 4.40908715783842e-02 3.25937042875129e-04
3.76421052631579e+00 4.36924411074517e-02 3.25181638011688e-04
3.81473684210526e+00 4.32976110839773e-02 3.24398750228528e-04
3.86526315789474e+00 4.29063489712182e-02 3.23589354363227e-04
3.91578947368421e+00 4.25186225274918e-02 3.22754393708351e-04
3.96631578947368e+00 4.21343998034503e-02 3.21894782486136e-04
4.01684210526316e+00 4.17536491364947e-02 3.21011406190662e-04
4.06736842105263e+00 4.13763391520632e-02 3.20105122856315e-04
4.11789473684211e+00 4.10024387572437e-02 3.19176764144488e-04
4.16842105263158e+00 4.06319171419215e-02 3.18227136291836e-04
4.21894736842105e+00 4.02647437726193e-02 3.17257021275930e-04
4.26947368421053e+00 3.99008883926701e-02 3.16267176943365e-04
4.32000000000000e+00 3.95403210196646e-02 3.15258338988787e-04
4.37052631578947e+00 3.91830119404451e-02 3.14231221037415e-04
4.42105263157895e+00 3.88289317120064e-02 3.13186515575187e-04
4.47157894736842e+00 3.84780511557986e-02 3.12124894896975e-04
4.52210526315789e+00 3.81303413577518e-02 3.11047011097992e-04
4.57263157894737e+00 3.77857736658407e-02 3.09953497796282e-04
4.62315789473684e+00 3.74443196854305e-02 3.08844970096779e-04
4.67368421052632e+00 3.71059512799685e-02 3.07722025353003e-04
4.72421052631579e+00 3.67706405657017e-02 3.06585243792815e-04
4.77473684210526e+00 3.64383599122772e-02 3.05435189049577e-04
4.82526315789474e+00 3.61090819376309e-02 3.04272408890369e-04
4.87578947368421e+00 3.57827795078373e-02 3.03097435090023e-04
4.92631578947368e+00 3.54594257348303e-02 3.01910784873178e-04
4.97684210526316e+00 3.51389939721935e-02 3.00712960777217e-04
5.02736842105263e+00 3.48214578156008e-02 2.99504451240926e-04
5.07789473684211e+00 3.45067910980608e-02 2.98285731075538e-04
5.12842105263158e+00 3.41949678902849e-02 2.97057261857065e-04
5.17894736842105e+00 3.38859624960798e-02 2.95819492500263e-04
5.22947368421053e+00 3.35797494520681e-02 2.94572859066385e-04
5.28000000000000e+00 3.32763035255509e-02 2.93317785992849e-04
5.33052631578947e+00 3.29755997106886e-02 2.92054685898318e-04
5.38105263157895e+00 3.26776132287428e-02 2.90783960049092e-04
5.43157894736842e+00 3.23823195237795e-02 2.89505998850965e-04
5.48210526315789e+00 3.20896942623231e-02 2.88221181626819e-04
5.53263157894737e+00 3.17997133313161e-02 2.86929877726577e-04
5.58315789473684e+00 3.15123528345426e-02 2.85632446306282e-04
5.63368421052632e+00 3.12275890927637e-02 2.84329236728657e-04
5.68421052631579e+00 3.09453986397035e-02 2.83020588867448e-04
5.73473684210526e+00 3.06657582221370e-02 2.81706833351608e-04
5.78526315789474e+00 3.03886447959925e-02 2.80388291967283e-04
5.83578947368421e+00 3.01140355259268e-02 2.79065277413876e-04
5.88631578947368e+00 2.98419077834146e-02 2.77738094271940e-04
5.93684210526316e+00 2.95722391434834e-02 2.76407038764650e-04
5.98736842105263e+00 2.93050073847191e-02 2.75072399085406e-04
6.03789473684211e+00 2.90401904856174e-02 2.73734455639582e-04
6.08842105263158e+00 2.87777666245514e-02 2.72393481233982e-04
6.13894736842105e+00 2.85177141762253e-02 2.71049741410355e-04
6.18947368421053e+00 2.82600117111941e-02 2.69703494193786e-04
6.24000000000000e+00 2.80046379940718e-02 2.68354990944647e-04
6.29052631578947e+00 2.77515719805443e-02 2.67004476113924e-04
6.34105263157895e+00 2.75007928172736e-02 2.65652187515515e-04
6.39157894736842e+00 2.72522798385724e-02 2.64298356621305e-04
6.44210526315789e+00 2.70060125658975e-02 2.62943208307865e-04
6.49263157894737e+00 2.67619707061389e-02 2.61586961639569e-04
6.54315789473684e+00 2.65201341488095e-02 2.60229829623172e-04
6.59368421052632e+00 2.62804829658955e-02 2.58872019448656e-04
6.64421052631579e+00 2.60429974087347e-02 2.57513732657420e-04
6.69473684210526e+00 2.58076579078412e-02 2.56155165268420e-04
6.74526315789474e+00 2.55744450698673e-02 2.54796508028685e-04
6.79578947368421e+00 2.53433396770669e-02 2.53437946164406e-04
6.84631578947368e+00 2.51143226856924e-02 2.52079660078521e-04
6.89684210526316e+00 2.48873752234130e-02 2.50721825110570e-04
6.94736842105263e+00 2.46624785891004e-02 2.49364611740834e-04
6.99789473684211e+00 2.44396142499714e-02 2.48008185728746e-04
7.04842105263158e+00 2.42187638413528e-02 2.46652708213850e-04
7.09894736842105e+00 2.39999091638994e-02 2.45298335930392e-04
7.14947368421053e+00 2.37830321830397e-02 2.43945220966869e-04
7.20000000000000e+00 2.35681150274717e-02 2.42593511390619e-04
7.25052631578947e+00 2.33551399867890e-02 2.41243351015816e-04
7.30105263157895e+00 2.31440895112159e-02 2.39894879578431e-04
7.35157894736842e+00 2.29349462089878e-02 2.38548232929930e-04
7.40210526315789e+00 2.27276928457924e-02 2.37203542803041e-04
7.45263157894737e+00 2.25223123433325e-02 2.35860937391718e-04
7.50315789473684e+00 2.23187877770859e-02 2.34520541125476e-04
7.55368421052632e+00 2.21171023760153e-02 2.33182474827088e-04
7.60421052631579e+00 2.19172395201002e-02 2.31846855813760e-04
7.65473684210526e+00 2.17191827400349e-02 2.30513797967321e-04
7.70526315789474e+00 2.15229157148223e-02 2.29183411902616e-04
7.75578947368421e+00 2.13284222712106e-02 2.27855804744583e-04
7.80631578947368e+00 2.11356863823460e-02 2.26531080651126e-04
7.85684210526316e+00 2.09446921657067e-02 2.25209340598625e-04
7.90736842105263e+00 2.07554238827820e-02 2.23890682518742e-04
7.95789473684211e+00 2.05678659368041e-02 2.22575201383631e-04
8.00842105263158e+00 2.03820028724179e-02 2.21262989263336e-04
8.05894736842105e+00 2.01978193734683e-02 2.19954135473044e-04
8.10947368421053e+00 2.00153002624381e-02 2.18648726362180e-04
8.16000000000000e+00 1.98344304991849e-02 2.17346845787385e-04
8.21052631578947e+00 1.96551951790324e-02 2.16048574909582e-04
8.26105263157895e+00 1.94775795324294e-02 2.14753992313482e-04
8.31157894736842e+00 1.93015689228603e-02 2.13463174142209e-04
8.36210526315790e+00 1.91271488462897e-02 2.12176193894496e-04
8.41263157894737e+00 1.89543049299540e-02 2.10893122866439e-04
8.46315789473684e+00 1.87830229305580e-02 2.09614029956345e-04
8.51368421052632e+00 1.86132887339227e-02 2.08338981773884e-04
8.56421052631579e+00 1.84450883530138e-02 2.07068042704516e-04
8.61473684210526e+00 1.82784079275847e-02 2.05801274950464e-04
8.66526315789474e+00 1.81132337222516e-02 2.04538738649623e-04
8.71578947368421e+00 1.79495521259451e-02 2.03280491684810e-04
8.76631578947368e+00 1.77873496507784e-02 2.02026590085119e-04
8.81684210526316e+00 1.76266129303778e-02 2.00777087842551e-04
8.86736842105263e+00 1.74673287195210e-02 1.99532037008126e-04
8.91789473684210e+00 1.73094838923177e-02 1.98291487747052e-04
8.96842105263158e+00 1.71530654418447e-02 1.97055488372669e-04
9.01894736842105e+00 1.69980604783684e-02 1.95824085451830e-04
9.06947368421053e+00 1.68444562288090e-02 1.94597323626060e-04
9.12000000000000e+00 1.66922400356783e-02 1.93375245976974e-04
9.17052631578947e+00 1.65413993555339e-02 1.92157893854212e-04
9.22105263157895e+00 1.63919217586122e-02 1.90945306960577e-04
9.27157894736842e+00 1.62437949271485e-02 1.89737523449181e-04
9.32210526315789e+00 1.60970066548506e-02 1.88534579752386e-04
9.37263157894737e+00 1.59515448458847e-02 1.87336510924467e-04
9.42315789473684e+00 1.58073975134105e-02 1.86143350477022e-04
9.47368421052632e+00 1.56645527792143e-02 1.84955130457362e-04
9.52421052631579e+00 1.55229988721189e-02 1.83771881491201e-04
9.57473684210526e+00 1.53827241276153e-02 1.82593632807271e-04
9.62526315789474e+00 1.52437169863093e-02 1.81420412324049e-04
9.67578947368421e+00 1.51059659934107e-02 1.80252246489752e-04
9.72631578947368e+00 1.49694597977817e-02 1.79089160595212e-04
9.77684210526316e+00 1.48341871505782e-02 1.77931178620031e-04
9.82736842105263e+00 1.47001369048846e-02 1.76778323302337e-04
9.87789473684211e+00 1.45672980142421e-02 1.75630616175771e-04
9.92842105263158e+00 1.44356595322829e-02 1.74488077589986e-04
9.97894736842105e+00 1.43052106112923e-02 1.73350726662013e-04
1.00294736842105e+01 1.41759405020973e-02 1.72218581466683e-04
1.00800000000000e+01 1.40478385521419e-02 1.71091659522353e-04
1.01305263157895e+01 1.39208942040177e-02 1.69969976266639e-04
1.01810526315789e+01 1.37950969982266e-02 1.68853546134945e-04
1.02315789473684e+01 1.36704365685250e-02 1.67742383388597e-04
1.02821052631579e+01 1.35469026423447e-02 1.66636500861810e-04
1.03326315789474e+01 1.34244850399459e-02 1.65535910413736e-04
1.03831578947368e+01 1.33031736735797e-02 1.64440623336586e-04
1.04336842105263e+01 1.31829585455120e-02 1.63350649216692e-04
1.04842105263158e+01 1.30638297506597e-02 1.62265996735321e-04
1.05347368421053e+01 1.29457774722859e-02 1.61186674480928e-04
1.05852631578947e+01 1.28287919823638e-02 1.60112689778664e-04
1.06357894736842e+01 1.27128636407734e-02 1.59044049110646e-04
1.06863157894737e+01 1.25979828945097e-02 1.57980758136347e-04
1.07368421052632e+01 1.24841402768945e-02 1.56922822068065e-04
1.07873684210526e+01 1.23713264057580e-02 1.55870244618293e-04
1.08378947368421e+01 1.22595319858041e-02 1.54823028737044e-04
1.08884210526316e+01 1.21487478046813e-02 1.53781177359804e-04
1.09389473684211e+01 1.20389647332852e-02 1.52744692326043e-04
1.09894736842105e+01 1.19301737250082e-02 1.51713574765994e-04
1.10400000000000e+01 1.18223658149931e-02 1.50687825450059e-04
1.10905263157895e+01 1.17155321184384e-02 1.49667443804692e-04
1.11410526315789e+01 1.16096638327573e-02 1.48652428600032e-04
1.11915789473684e+01 1.15047522339378e-02 1.47642778647539e-04
1.12421052631579e+01 1.14007886768029e-02 1.46638491788979e-04
1.12926315789474e+01 1.12977645942981e-02 1.45639565256546e-04
1.13431578947368e+01 1.11956714967866e-02 1.44645995998220e-04
1.13936842105263e+01 1.10945009704673e-02 1.43657779757436e-04
1.14442105263158e+01 1.09942446793470e-02 1.42674911714621e-04
1.14947368421053e+01 1.08948943618670e-02 1.41697387138239e-04
1.15452631578947e+01 1.07964418311248e-02 1.40725200439367e-04
1.15957894736842e+01 1.06988789741985e-02 1.39758345507193e-04
1.16463157894737e+01 1.06021977514806e-02 1.38796815722560e-04
1.16968421052632e+01 1.05063901960138e-02 1.37840604257901e-04
1.17473684210526e+01 1.04114484120333e-02 1.36889703225729e-04
1.17978947368421e+01 1.03173645767400e-02 1.35944104270371e-04
1.18484210526316e+01 1.02241309372129e-02 1.35003799168541e-04
1.18989473684211e+01 1.01317398105903e-02 1.34068778954816e-04
1.19494736842105e+01 1.00401835834375e-02 1.33139034230981e-04
1.20000000000000e+01 9.94945471111979e-03 1.32214555445631e-04
1.20505263157895e+01 9.85954571643941e-03 1.31295332097332e-04
1.21010526315789e+01 9.77044919125853e-03 1.30381353287271e-04
1.21515789473684e+01 9.68215779363242e-03 1.29472608280187e-04
1.22021052631579e+01 9.59466424796222e-03 1.28569085686076e-04
1.22526315789474e+01 9.50796134439541e-03 1.27670773748674e-04
1.23031578947368e+01 9.42204193823238e-03 1.26777660606225e-04
1.23536842105263e+01 9.33689894865298e-03 1.25889733545636e-04
1.24042105263158e+01 9.25252536020153e-03 1.25006979518777e-04
1.24547368421053e+01 9.16891422012410e-03 1.24129385666617e-04
1.25052631578947e+01 9.08605863849595e-03 1.23256938553308e-04
1.25557894736842e+01 9.00395178765306e-03 1.22389624435349e-04
1.26063157894737e+01 8.92258690163084e-03 1.21527429270663e-04
1.26568421052632e+01 8.84195727560588e-03 1.20670338959378e-04
1.27073684210526e+01 8.76205626471968e-03 1.19818338653062e-04
1.27578947368421e+01 8.68287728541683e-03 1.18971413231680e-04
1.28084210526316e+01 8.60441381300213e-03 1.18129547787753e-04
1.28589473684211e+01 8.52665938174099e-03 1.17292726917169e-04
1.29094736842105e+01 8.44960758432718e-03 1.16460934967771e-04
1.29600000000000e+01 8.37325207135478e-03 1.15634156264136e-04
1.30105263157895e+01 8.29758655021771e-03 1.14812374460662e-04
1.30610526315789e+01 8.22260478633574e-03 1.13995572987469e-04
1.31115789473684e+01 8.14830060088273e-03 1.13183735503155e-04
1.31621052631579e+01 8.07466787086787e-03 1.12376845230644e-04
1.32126315789474e+01 8.00170052863108e-03 1.11574885189320e-04
1.32631578947368e+01 7.92939256134354e-03 1.10777838404916e-04
1.33136842105263e+01 7.85773800997766e-03 1.09985687303539e-04
1.33642105263158e+01 7.78673097043083e-03 1.09198414128703e-04
1.34147368421053e+01 7.71636559141169e-03 1.08416001364809e-04
1.34652631578947e+01 7.64663607450460e-03 1.07638431115040e-04
1.35157894736842e+01 7.57753667369129e-03 1.06865685318185e-04
1.35663157894737e+01 7.50906169487836e-03 1.06097745754703e-04
1.36168421052632e+01 7.44120549542754e-03 1.05334594240812e-04
1.36673684210526e+01 7.37396248320266e-03 1.04576212066762e-04
1.37178947368421e+01 7.30732711758409e-03 1.03822580382532e-04
1.37684210526316e+01 7.24129390752569e-03 1.03073680589526e-04
1.38189473684211e+01 7.17585741160133e-03 1.02329493763988e-04
1.38694736842105e+01 7.11101223755693e-03 1.01590000857530e-04
1.39200000000000e+01 7.04675304186610e-03 1.00855182878523e-04
1.39705263157895e+01 6.98307452883739e-03 1.00125020365634e-04
1.40210526315789e+01 6.91997145154493e-03 9.93994937487834e-05
1.40715789473684e+01 6.85743861001867e-03 9.86785837157732e-05
1.41221052631579e+01 6.79547085127841e-03 9.79622706719080e-05
1.41726315789474e+01 6.73406306890915e-03 9.72505349274617e-05
1.42231578947368e+01 6.67321020264068e-03 9.65433568672387e-05
1.42736842105263e+01 6.61290723751104e-03 9.58407164570655e-05
1.43242105263158e+01 6.55314920472057e-03 9.51425935817104e-05
1.43747368421053e+01 6.49393117994562e-03 9.44489683880876e-05
1.44252631578947e+01 6.43524828336157e-03 9.37598207787312e-05
1.44757894736842e+01 6.37709567924041e-03 9.30751305870971e-05
1.45263157894737e+01 6.31946857555294e-03 9.23948775815708e-05
1.45768421052632e+01 6.26236222357349e-03 9.17190416224197e-05
1.46273684210526e+01 6.20577191710492e-03 9.10476022039835e-05
1.46778947368421e+01 6.14969299325058e-03 9.03805387675076e-05
1.47284210526316e+01 6.09412083086157e-03 8.97178310189169e-05
1.47789473684211e+01 6.03905085054820e-03 8.90594584590069e-05
1.48294736842105e+01 5.98447851430288e-03 8.84054005457112e-05
1.48800000000000e+01 5.93039932512622e-03 8.77556368409287e-05
1.49305263157895e+01 5.87680882630020e-03 8.71101465811847e-05
1.49810526315789e+01 5.82370260209724e-03 8.64689089706465e-05
1.50315789473684e+01 5.77107627633193e-03 8.58319034787732e-05
1.50821052631579e+01 5.71892551236456e-03 8.51991093997220e-05
1.51326315789474e+01 5.66724601274373e-03 8.45705060042005e-05
1.51831578947368e+01 5.61603351885246e-03 8.39460726768441e-05
1.52336842105263e+01 5.56528381022655e-03 8.33257885134967e-05
1.52842105263158e+01 5.51499270520586e-03 8.27096325957089e-05
1.53347368421053e+01 5.46515605958319e-03 8.20975842696303e-05
1.53852631578947e+01 5.41576976660081e-03 8.14896227327460e-05
1.54357894736842e+01 5.36682975661178e-03 8.08857271759786e-05
1.54863157894737e+01 5.31833199674512e-03 8.02858767862873e-05
1.55368421052632e+01 5.27027249057321e-03 7.96900508739560e-05
1.55873684210526e+01 5.22264727747942e-03 7.90982284987477e-05
1.56378947368421e+01 5.17545243324760e-03 7.85103887242670e-05
1.56884210526316e+01 5.12868406881603e-03 7.79265108763965e-05
1.57389473684211e+01 5.08233833026667e-03 7.73465741596971e-05
1.57894736842105e+01 5.03641139850783e-03 7.67705577890934e-05
1.58400000000000e+01 4.99089948895939e-03 7.61984411090413e-05
1.58905263157895e+01 4.94579885095934e-03 7.56302032427270e-05
1.59410526315789e+01 4.90110576830561e-03 7.50658233304789e-05
