Energy (eV)          EEDF (eV^-(3/2))     First Anisotropy
1.00000000000000e-02 2.50590150635230e-01 1.30826628733989e-03
3.00000000000000e-02 2.50583389532525e-01 8.59710669940881e-04
5.00000000000000e-02 2.50575851679289e-01 8.40438550271479e-04
7.00000000000000e-02 2.50567204223802e-01 8.82715036188355e-04
9.00000000000000e-02 2.50557416355300e-01 9.43698942651875e-04
1.10000000000000e-01 2.50546433288262e-01 1.01592428523981e-03
1.30000000000000e-01 2.50534298628527e-01 1.10038207445993e-03
1.50000000000000e-01 2.50520830032532e-01 1.19365991812581e-03
1.70000000000000e-01 2.50505875948330e-01 1.29202108295860e-03
1.90000000000000e-01 2.50489298837306e-01 1.39356470017508e-03
2.10000000000000e-01 2.50470970425778e-01 1.49877698761053e-03
2.30000000000000e-01 2.50451068228966e-01 1.61166409655291e-03
2.50000000000000e-01 2.50429438912094e-01 1.73175494440236e-03
2.70000000000000e-01 2.50405945664824e-01 1.85721423811888e-03
2.90000000000000e-01 2.50380464432154e-01 1.98669337279073e-03
3.10000000000000e-01 2.50352880691728e-01 2.13910323184392e-03
3.30000000000000e-01 2.50322847555122e-01 2.34854888311242e-03
3.50000000000000e-01 2.50289445357204e-01 2.62112416551687e-03
3.70000000000000e-01 2.50251897741982e-01 2.94381311647519e-03
3.90000000000000e-01 2.50209541001025e-01 3.30644745382475e-03
4.10000000000000e-01 2.50161801582939e-01 3.73170882806062e-03
4.30000000000000e-01 2.50107843590438e-01 4.27103369087161e-03
4.50000000000000e-01 2.50045888171185e-01 4.93348152307669e-03
4.70000000000000e-01 2.49974428183062e-01 5.69825319310982e-03
4.90000000000000e-01 2.49892178649427e-01 6.54835851051280e-03
5.10000000000000e-01 2.49798037285861e-01 7.45092410114170e-03
5.30000000000000e-01 2.49691877589780e-01 8.36297483343628e-03
5.50000000000000e-01 2.49573824487682e-01 9.26326997254440e-03
5.70000000000000e-01 2.49444011459497e-01 1.01512801994859e-02
5.90000000000000e-01 2.49302578124753e-01 1.10266592515831e-02
6.10000000000000e-01 2.49149668017752e-01 1.19665041109036e-02
6.30000000000000e-01 2.48983408847834e-01 1.31112146071849e-02
6.50000000000000e-01 2.48800269362128e-01 1.45058449104014e-02
6.70000000000000e-01 2.48597182239136e-01 1.61166201937723e-02
6.90000000000000e-01 2.48371481190077e-01 1.79143336925245e-02
7.10000000000000e-01 2.48120847699653e-01 1.98789135334625e-02
7.30000000000000e-01 2.47843388494321e-01 2.19990046291374e-02
7.50000000000000e-01 2.47537153652023e-01 2.42563728068357e-02
7.70000000000000e-01 2.47200493057190e-01 2.66294497411882e-02
7.90000000000000e-01 2.46832022534935e-01 2.90991180692746e-02
8.10000000000000e-01 2.46430593515079e-01 3.15736861518748e-02
8.30000000000000e-01 2.45997227110416e-01 3.38994754937157e-02
8.50000000000000e-01 2.45534805581808e-01 3.60135512627735e-02
8.70000000000000e-01 2.45046000482634e-01 3.79311692967454e-02
8.90000000000000e-01 2.44533293835414e-01 3.96660695850002e-02
9.10000000000000e-01 2.43998996796676e-01 4.12453944332291e-02
9.30000000000000e-01 2.43444879602504e-01 4.27086339973949e-02
9.50000000000000e-01 2.42872217502753e-01 4.40777060950967e-02
9.70000000000000e-01 2.42282205605650e-01 4.53583526196214e-02
9.90000000000000e-01 2.41675968520620e-01 4.65556317135523e-02
1.01000000000000e+00 2.41054568862696e-01 4.77940492763152e-02
1.03000000000000e+00 2.40414611957877e-01 4.93012501027651e-02
1.05000000000000e+00 2.39751070700147e-01 5.11674455133434e-02
1.07000000000000e+00 2.39059351276938e-01 5.33585314335515e-02
1.09000000000000e+00 2.38335270999483e-01 5.58423295928624e-02
1.11000000000000e+00 2.37575036647035e-01 5.85571191634475e-02
1.13000000000000e+00 2.36772984652764e-01 6.14053456263473e-02
1.15000000000000e+00 2.35927429445811e-01 6.43396635138582e-02
1.17000000000000e+00 2.35036846608075e-01 6.73467273687446e-02
1.19000000000000e+00 2.34099870851978e-01 7.04137017460956e-02
1.21000000000000e+00 2.33115292567081e-01 7.34940062113870e-02
1.23000000000000e+00 2.32077209608117e-01 7.64965467234486e-02
1.25000000000000e+00 2.30986203884575e-01 7.93917427163271e-02
1.27000000000000e+00 2.29842817394659e-01 8.21855968069403e-02
1.29000000000000e+00 2.28647563032842e-01 8.48831045244168e-02
1.31000000000000e+00 2.27400935125140e-01 8.74831731699396e-02
1.33000000000000e+00 2.26105864118364e-01 8.99859236662354e-02
1.35000000000000e+00 2.24763129678276e-01 9.23940496081319e-02
1.37000000000000e+00 2.23373432633899e-01 9.47147743264605e-02
1.39000000000000e+00 2.21937412045544e-01 9.69539884083418e-02
1.41000000000000e+00 2.20455660586501e-01 9.91115558296397e-02
1.43000000000000e+00 2.18928885770801e-01 1.01182427856864e-01
1.45000000000000e+00 2.17357898787038e-01 1.03166587112018e-01
1.47000000000000e+00 2.15743475673510e-01 1.05068030580903e-01
1.49000000000000e+00 2.14086371595096e-01 1.06889763734990e-01
1.51000000000000e+00 2.12387333452079e-01 1.08640855833931e-01
1.53000000000000e+00 2.10641193726163e-01 1.10332441919157e-01
1.55000000000000e+00 2.08848133986102e-01 1.11976069418417e-01
1.57000000000000e+00 2.07008285084269e-01 1.13576283191023e-01
1.59000000000000e+00 2.05121732525177e-01 1.15137102442996e-01
1.61000000000000e+00 2.03188521836489e-01 1.16744735376616e-01
1.63000000000000e+00 2.01193646882421e-01 1.18549122291076e-01
1.65000000000000e+00 1.99131456822922e-01 1.20616016879405e-01
1.67000000000000e+00 1.96996398710572e-01 1.22926181594593e-01
1.69000000000000e+00 1.94783047115496e-01 1.25460060193760e-01
1.71000000000000e+00 1.92486130342346e-01 1.28051046693751e-01
1.73000000000000e+00 1.90092477083767e-01 1.30386407336307e-01
1.75000000000000e+00 1.87607572506494e-01 1.32335166521830e-01
1.77000000000000e+00 1.85037012631593e-01 1.33915749422008e-01
1.79000000000000e+00 1.82386477454187e-01 1.35146451496919e-01
1.81000000000000e+00 1.79661704981488e-01 1.36039664201608e-01
1.83000000000000e+00 1.76768787632679e-01 1.36573658251683e-01
1.85000000000000e+00 1.73713983786810e-01 1.36765855141837e-01
1.87000000000000e+00 1.70504274468881e-01 1.36636237484573e-01
1.89000000000000e+00 1.67147271217808e-01 1.36204854441016e-01
1.91000000000000e+00 1.63651124552022e-01 1.35413947605948e-01
1.93000000000000e+00 1.60042730460829e-01 1.34133274868695e-01
1.95000000000000e+00 1.56339405044845e-01 1.32318138208370e-01
1.97000000000000e+00 1.52559285401501e-01 1.29998920177692e-01
1.99000000000000e+00 1.48721188027999e-01 1.27206501440205e-01
2.01000000000000e+00 1.44844471869972e-01 1.24046595066800e-01
2.03000000000000e+00 1.40957247254214e-01 1.20678943019713e-01
2.05000000000000e+00 1.37069731027520e-01 1.17192134423189e-01
2.07000000000000e+00 1.33191964592552e-01 1.13601245338843e-01
2.09000000000000e+00 1.29333794710093e-01 1.09920260606943e-01
2.11000000000000e+00 1.25504858256790e-01 1.06222866180376e-01
2.13000000000000e+00 1.21765936155543e-01 1.02581507197141e-01
2.15000000000000e+00 1.18115693221213e-01 9.90561285555793e-02
2.17000000000000e+00 1.14552751053957e-01 9.56440789249771e-02
2.19000000000000e+00 1.11075695786347e-01 9.23426098739192e-02
2.21000000000000e+00 1.07683085902672e-01 8.91121283861164e-02
2.23000000000000e+00 1.04392583419815e-01 8.58662445665813e-02
2.25000000000000e+00 1.01207350860391e-01 8.25761705533073e-02
2.27000000000000e+00 9.81302970724403e-02 7.92490527775832e-02
2.29000000000000e+00 9.51640954157865e-02 7.58913905236697e-02
2.31000000000000e+00 9.23112031843810e-02 7.25524719019841e-02
2.33000000000000e+00 8.95762430009150e-02 6.93117818747940e-02
2.35000000000000e+00 8.69547247404818e-02 6.62059909708094e-02
2.37000000000000e+00 8.44423797020810e-02 6.32281290704581e-02
2.39000000000000e+00 8.20351537971107e-02 6.03714973135453e-02
2.41000000000000e+00 7.97292005007475e-02 5.76134724657119e-02
2.43000000000000e+00 7.75266752358964e-02 5.49122960822106e-02
2.45000000000000e+00 7.54262966189117e-02 5.22503037292027e-02
2.47000000000000e+00 7.34268370411667e-02 4.96258967417727e-02
2.49000000000000e+00 7.15271283648847e-02 4.70373425200981e-02
2.51000000000000e+00 6.97260674287304e-02 4.45131396163736e-02
2.53000000000000e+00 6.80225662373979e-02 4.21054333416449e-02
2.55000000000000e+00 6.64110109799314e-02 3.98360568964186e-02
2.57000000000000e+00 6.48861279451958e-02 3.76966630885050e-02
2.59000000000000e+00 6.34429602985820e-02 3.56794772100337e-02
2.61000000000000e+00 6.20768462483131e-02 3.37829877321745e-02
2.63000000000000e+00 6.07856064246649e-02 3.20085112703092e-02
2.65000000000000e+00 5.95640565924373e-02 3.03559916070813e-02
2.67000000000000e+00 5.84072719026988e-02 2.88197682985796e-02
2.69000000000000e+00 5.73105681321405e-02 2.73945983682231e-02
2.71000000000000e+00 5.62694843192968e-02 2.60724955730592e-02
2.73000000000000e+00 5.52895844360518e-02 2.48310530548954e-02
2.75000000000000e+00 5.43668286647574e-02 2.36640961706333e-02
2.77000000000000e+00 5.34974045204137e-02 2.25684088764801e-02
2.79000000000000e+00 5.26777120669157e-02 2.15410041122954e-02
2.81000000000000e+00 5.19043503033270e-02 2.05918494995562e-02
2.83000000000000e+00 5.11801960175329e-02 1.97344298848323e-02
2.85000000000000e+00 5.05002080519416e-02 1.89777228811213e-02
2.87000000000000e+00 4.98597272234331e-02 1.83178462548712e-02
2.89000000000000e+00 4.92544517374166e-02 1.77512484345675e-02
2.91000000000000e+00 4.86804153819300e-02 1.72485490560538e-02
2.93000000000000e+00 4.81370174563922e-02 1.67543778896152e-02
2.95000000000000e+00 4.76239769358185e-02 1.62422683718875e-02
2.97000000000000e+00 4.71409617159757e-02 1.57123492263918e-02
2.99000000000000e+00 4.66875899584983e-02 1.51647212274945e-02
3.01000000000000e+00 4.62634312627468e-02 1.46088182848037e-02
3.03000000000000e+00 4.58598194408873e-02 1.40732622204181e-02
3.05000000000000e+00 4.54755693998642e-02 1.35664337030604e-02
3.07000000000000e+00 4.51095491032184e-02 1.30875114122828e-02
3.09000000000000e+00 4.47606770501689e-02 1.26357228135768e-02
3.11000000000000e+00 4.44279199276018e-02 1.22127842762025e-02
3.13000000000000e+00 4.41120825437612e-02 1.18204696857096e-02
3.15000000000000e+00 4.38119122607368e-02 1.14605748368257e-02
3.17000000000000e+00 4.35262252927389e-02 1.11323416443326e-02
3.19000000000000e+00 4.32539038938669e-02 1.08350604311938e-02
3.21000000000000e+00 4.29938937730191e-02 1.05664872980763e-02
3.23000000000000e+00 4.27436146050701e-02 1.03244638972481e-02
3.25000000000000e+00 4.25023137838662e-02 1.01067590216990e-02
3.27000000000000e+00 4.22692749806598e-02 9.91290525750882e-03
3.29000000000000e+00 4.20438169276686e-02 9.74245872894296e-03
3.31000000000000e+00 4.18252922885646e-02 9.59405172600214e-03
3.33000000000000e+00 4.16121223493279e-02 9.46602440616422e-03
3.35000000000000e+00 4.14038183898063e-02 9.35702211827802e-03
3.37000000000000e+00 4.11999122519571e-02 9.26673210317671e-03
3.39000000000000e+00 4.09999557686290e-02 9.19485361389154e-03
3.41000000000000e+00 4.08035202271708e-02 9.13652474000136e-03
3.43000000000000e+00 4.06103902530796e-02 9.08242138083580e-03
3.45000000000000e+00 4.04205483718822e-02 9.02793349449548e-03
3.47000000000000e+00 4.02339768675896e-02 8.97305948368960e-03
3.49000000000000e+00 4.00506577872317e-02 8.91779751310763e-03
3.51000000000000e+00 3.98705729429828e-02 8.86273545456102e-03
3.53000000000000e+00 3.96932152983827e-02 8.80913316977941e-03
3.55000000000000e+00 3.95185254001829e-02 8.75749899957421e-03
3.57000000000000e+00 3.93464455702828e-02 8.70779875714641e-03
3.59000000000000e+00 3.91769198621396e-02 8.65999919968776e-03
3.61000000000000e+00 3.90098940175244e-02 8.61162125857976e-03
3.63000000000000e+00 3.88454093087970e-02 8.55783165845665e-03
3.65000000000000e+00 3.86835945358555e-02 8.49631169681921e-03
3.67000000000000e+00 3.85245722881766e-02 8.42716268369747e-03
3.69000000000000e+00 3.83684590702992e-02 8.35048327594817e-03
3.71000000000000e+00 3.82153654232309e-02 8.26986326688775e-03
3.73000000000000e+00 3.80648345746021e-02 8.19249255847476e-03
3.75000000000000e+00 3.79167248501095e-02 8.12173331650776e-03
3.77000000000000e+00 3.77708988239408e-02 8.05749621241476e-03
3.79000000000000e+00 3.76272232262552e-02 7.99969437090639e-03
3.81000000000000e+00 3.74855688546746e-02 7.94827226897779e-03
3.83000000000000e+00 3.73458094663249e-02 7.90320527857385e-03
3.85000000000000e+00 3.72078217447548e-02 7.86444187154810e-03
3.87000000000000e+00 3.70714862411389e-02 7.83190304860515e-03
3.89000000000000e+00 3.69366873273019e-02 7.80551087954037e-03
3.91000000000000e+00 3.68033131231108e-02 7.78493709396860e-03
3.93000000000000e+00 3.66710597949726e-02 7.76962056295698e-03
3.95000000000000e+00 3.65398401674113e-02 7.75922850554497e-03
3.97000000000000e+00 3.64095696266514e-02 7.75370163030203e-03
3.99000000000000e+00 3.62801660777241e-02 7.75298170425182e-03
4.01000000000000e+00 3.61515499041124e-02 7.75578275057552e-03
4.03000000000000e+00 3.60234809691982e-02 7.75961153230047e-03
4.05000000000000e+00 3.58959631911433e-02 7.76323948372510e-03
4.07000000000000e+00 3.57690004000913e-02 7.76666977339835e-03
4.09000000000000e+00 3.56425963163134e-02 7.76990622731189e-03
4.11000000000000e+00 3.55167545527976e-02 7.77295862367101e-03
4.13000000000000e+00 3.53914784241226e-02 7.77584243314081e-03
4.15000000000000e+00 3.52667709608246e-02 7.77856690175012e-03
4.17000000000000e+00 3.51426351025330e-02 7.78113531805161e-03
4.19000000000000e+00 3.50190737001935e-02 7.78355089716361e-03
4.21000000000000e+00 3.48960895182343e-02 7.78581294919660e-03
4.23000000000000e+00 3.47735832485087e-02 7.78790436521143e-03
4.25000000000000e+00 3.46515580378234e-02 7.78981361781410e-03
4.27000000000000e+00 3.45300169487203e-02 7.79154377083631e-03
4.29000000000000e+00 3.44089629612268e-02 7.79309782843859e-03
4.31000000000000e+00 3.42883989745577e-02 7.79446435045957e-03
4.33000000000000e+00 3.41683282516768e-02 7.79561807875521e-03
4.35000000000000e+00 3.40487543914088e-02 7.79654844058565e-03
4.37000000000000e+00 3.39296808948201e-02 7.79725891626515e-03
4.39000000000000e+00 3.38111111670973e-02 7.79775292361799e-03
4.41000000000000e+00 3.36930485193860e-02 7.79804353808896e-03
4.43000000000000e+00 3.35753936091496e-02 7.79814133218928e-03
4.45000000000000e+00 3.34581493495106e-02 7.79804668120327e-03
4.47000000000000e+00 3.33413185910517e-02 7.79776226564900e-03
4.49000000000000e+00 3.32249041063775e-02 7.79729127305311e-03
4.51000000000000e+00 3.31089085916261e-02 7.79665455051232e-03
4.53000000000000e+00 3.29931296418638e-02 7.79586895309321e-03
4.55000000000000e+00 3.28775694714117e-02 7.79493201615768e-03
4.57000000000000e+00 3.27622302432186e-02 7.79384640048843e-03
4.59000000000000e+00 3.26471140693570e-02 7.79261473614031e-03
4.61000000000000e+00 3.25322230119906e-02 7.79122642618902e-03
4.63000000000000e+00 3.24176003435589e-02 7.78966272177868e-03
4.65000000000000e+00 3.23032486251122e-02 7.78791920475367e-03
4.67000000000000e+00 3.21891703453374e-02 7.78599912217750e-03
4.69000000000000e+00 3.20753679365880e-02 7.78390516883083e-03
4.71000000000000e+00 3.19618437757415e-02 7.78163112225906e-03
4.73000000000000e+00 3.18485800324137e-02 7.77916017494778e-03
4.75000000000000e+00 3.17355795562742e-02 7.77648418406276e-03
4.77000000000000e+00 3.16228451347003e-02 7.77360620105946e-03
4.79000000000000e+00 3.15103794937267e-02 7.77052923622000e-03
4.81000000000000e+00 3.13981852989875e-02 7.76725831766908e-03
4.83000000000000e+00 3.12861428590163e-02 7.76379015963499e-03
4.85000000000000e+00 3.11742550670965e-02 7.76011548686808e-03
4.87000000000000e+00 3.10625247723691e-02 7.75623723207986e-03
4.89000000000000e+00 3.09509547676765e-02 7.75215873164555e-03
4.91000000000000e+00 3.08395477904609e-02 7.74789698112006e-03
4.93000000000000e+00 3.07280127563468e-02 7.74346095916540e-03
4.95000000000000e+00 3.06163526432854e-02 7.73883439391878e-03
4.97000000000000e+00 3.05045703969715e-02 7.73402068989568e-03
4.99000000000000e+00 3.03926872300444e-02 7.72896317174427e-03
5.01000000000000e+00 3.02818303452228e-02 7.72365725047926e-03
5.03000000000000e+00 3.01724669196008e-02 7.71825153685667e-03
5.05000000000000e+00 3.00629539034367e-02 7.71280383981908e-03
5.07000000000000e+00 2.99532935065686e-02 7.70722390491693e-03
5.09000000000000e+00 2.98434879159148e-02 7.70151415245483e-03
5.11000000000000e+00 2.97335392957895e-02 7.69566471484636e-03
5.13000000000000e+00 2.96237371054301e-02 7.68967069844970e-03
5.15000000000000e+00 2.95140829951740e-02 7.68355496356155e-03
5.17000000000000e+00 2.94045785812337e-02 7.67731970008165e-03
5.19000000000000e+00 2.92952254459545e-02 7.67096707332814e-03
5.21000000000000e+00 2.91860251383935e-02 7.66450290077609e-03
5.23000000000000e+00 2.90769589666432e-02 7.65793506452017e-03
5.25000000000000e+00 2.89680283031683e-02 7.65126598427743e-03
5.27000000000000e+00 2.88592345047219e-02 7.64449698782058e-03
5.29000000000000e+00 2.87505789029116e-02 7.63762972656704e-03
5.31000000000000e+00 2.86420628045198e-02 7.63066218957882e-03
5.33000000000000e+00 2.85337676543880e-02 7.62359273535969e-03
5.35000000000000e+00 2.84256945779105e-02 7.61642860947035e-03
5.37000000000000e+00 2.83178446730847e-02 7.60917142215237e-03
5.39000000000000e+00 2.82102190108986e-02 7.60182276340198e-03
5.41000000000000e+00 2.81028186357175e-02 7.59438191889299e-03
5.43000000000000e+00 2.79956047905951e-02 7.58684390076060e-03
5.45000000000000e+00 2.78885787711413e-02 7.57920310412168e-03
5.47000000000000e+00 2.77817418502706e-02 7.57146120024377e-03
5.49000000000000e+00 2.76750952701309e-02 7.56362013627124e-03
5.51000000000000e+00 2.75686402425702e-02 7.55568351039976e-03
5.53000000000000e+00 2.74623382661416e-02 7.54765494218103e-03
5.55000000000000e+00 2.73561905725942e-02 7.53953332523924e-03
5.57000000000000e+00 2.72501983665831e-02 7.53132048208605e-03
5.59000000000000e+00 2.71443628258132e-02 7.52301821887318e-03
5.61000000000000e+00 2.70386851014314e-02 7.51462500051577e-03
5.63000000000000e+00 2.69332846742423e-02 7.50614047441539e-03
5.65000000000000e+00 2.68281622986048e-02 7.49757734160260e-03
5.67000000000000e+00 2.67233186943038e-02 7.48893743482863e-03
5.69000000000000e+00 2.66187545547101e-02 7.48022228968249e-03
5.71000000000000e+00 2.65144705471975e-02 7.47145161655554e-03
5.73000000000000e+00 2.64104668081345e-02 7.46266303383881e-03
5.75000000000000e+00 2.63067429543533e-02 7.45387551148188e-03
5.77000000000000e+00 2.62032985944531e-02 7.44508964293900e-03
5.79000000000000e+00 2.61001333289971e-02 7.43630601098013e-03
5.81000000000000e+00 2.59972467507107e-02 7.42752605039378e-03
5.83000000000000e+00 2.58945604927469e-02 7.41874942667538e-03
5.85000000000000e+00 2.57920744358595e-02 7.40996804681461e-03
5.87000000000000e+00 2.56897884565641e-02 7.40118244375254e-03
5.89000000000000e+00 2.55877024206518e-02 7.39239337986948e-03
5.91000000000000e+00 2.54858161834112e-02 7.38359855169713e-03
5.93000000000000e+00 2.53842071409777e-02 7.37479498801279e-03
5.95000000000000e+00 2.52828749506793e-02 7.36598957342488e-03
5.97000000000000e+00 2.51818192594981e-02 7.35718304095186e-03
5.99000000000000e+00 2.50810397044966e-02 7.34837610395275e-03
6.01000000000000e+00 2.49805359130516e-02 7.33955039100148e-03
6.03000000000000e+00 2.48803465254245e-02 7.33067061510142e-03
6.05000000000000e+00 2.47804719862029e-02 7.32172436491652e-03
6.07000000000000e+00 2.46809127152893e-02 7.31271306195581e-03
6.09000000000000e+00 2.45816691082827e-02 7.30363811091049e-03
6.11000000000000e+00 2.44827415368507e-02 7.29450440043685e-03
6.13000000000000e+00 2.43840345889882e-02 7.28531788479815e-03
6.15000000000000e+00 2.42855488307261e-02 7.27607201410707e-03
6.17000000000000e+00 2.41872848078317e-02 7.26676811523772e-03
6.19000000000000e+00 2.40892430459251e-02 7.25740750547744e-03
6.21000000000000e+00 2.39914240507604e-02 7.24799073204793e-03
6.23000000000000e+00 2.38938283287765e-02 7.23851763753697e-03
6.25000000000000e+00 2.37964563855203e-02 7.22898886211258e-03
6.27000000000000e+00 2.36993087058163e-02 7.21940577004434e-03
6.29000000000000e+00 2.36023857542633e-02 7.20976969992775e-03
6.31000000000000e+00 2.35056879755688e-02 7.20008421362054e-03
