Energy (eV)          EEDF (eV^-(3/2))     First Anisotropy
8.38461538461538e-03 7.91250098160152e-01 5.75360883394403e-04
2.51538461538462e-02 7.80799593063659e-01 9.46993797805370e-04
4.19230769230769e-02 7.70487113969434e-01 1.24197838164874e-03
5.86923076923077e-02 7.60310837840113e-01 1.46117589947891e-03
7.54615384615385e-02 7.50268965764899e-01 1.63997528585234e-03
9.22307692307692e-02 7.40359722604606e-01 1.79188594606600e-03
1.09000000000000e-01 7.30581356596135e-01 1.92396310417707e-03
1.25769230769231e-01 7.20932139283776e-01 2.04050514482050e-03
1.42538461538462e-01 7.11410364837230e-01 2.14438770983544e-03
1.59307692307692e-01 7.02014350046951e-01 2.23766065408783e-03
1.76076923076923e-01 6.92742433933239e-01 2.32185415421689e-03
1.92846153846154e-01 6.83592977503531e-01 2.39815130382368e-03
2.09615384615385e-01 6.74564363310662e-01 2.46749252481956e-03
2.26384615384615e-01 6.65654995322082e-01 2.53064227736378e-03
2.43153846153846e-01 6.56863298583687e-01 2.58823359835225e-03
2.59923076923077e-01 6.48187718943587e-01 2.64079889834022e-03
2.76692307692308e-01 6.39626722807880e-01 2.68879192284204e-03
2.93461538461538e-01 6.31178796772443e-01 2.73260379687229e-03
3.10230769230769e-01 6.22842447454574e-01 2.77257501213308e-03
3.27000000000000e-01 6.14616201195684e-01 2.80900456507535e-03
3.43769230769231e-01 6.06498603824504e-01 2.84215703249306e-03
3.60538461538462e-01 5.98488220327084e-01 2.87226812545845e-03
3.77307692307692e-01 5.90583634667278e-01 2.89954911142183e-03
3.94076923076923e-01 5.82783449511217e-01 2.92419038584087e-03
4.10846153846154e-01 5.75086285999281e-01 2.94636438096007e-03
4.27615384615385e-01 5.67490783445100e-01 2.96622795238493e-03
4.44384615384615e-01 5.59995599153088e-01 2.98392435901072e-03
4.61153846153846e-01 5.52599408161178e-01 2.99958492797420e-03
4.77923076923077e-01 5.45300903007048e-01 3.01333045034397e-03
4.94692307692308e-01 5.38098793511326e-01 3.02527237314250e-03
5.11461538461538e-01 5.30991806505112e-01 3.03551381079100e-03
5.28230769230769e-01 5.23978685649973e-01 3.04415041383854e-03
5.45000000000000e-01 5.17058191200714e-01 3.05127112567458e-03
5.61769230769231e-01 5.10229099798289e-01 3.05695883935791e-03
5.78538461538462e-01 5.03490204216697e-01 3.06129096616566e-03
5.95307692307692e-01 4.96840313186910e-01 3.06433993371564e-03
6.12076923076923e-01 4.90278251173646e-01 3.06617362991731e-03
6.28846153846154e-01 4.83802858177842e-01 3.06685579503962e-03
6.45615384615385e-01 4.77412989500543e-01 3.06644636538541e-03
6.62384615384615e-01 4.71107515571992e-01 3.06500177905940e-03
6.79153846153846e-01 4.64885321741227e-01 3.06257525502448e-03
6.95923076923077e-01 4.58745308079214e-01 3.05921703775876e-03
7.12692307692308e-01 4.52686389192745e-01 3.05497462242954e-03
7.29461538461538e-01 4.46707494006924e-01 3.04989295304361e-03
7.46230769230769e-01 4.40807565601798e-01 3.04401460139027e-03
7.63000000000000e-01 4.34985561016795e-01 3.03737993353373e-03
7.79769230769231e-01 4.29240451073625e-01 3.03002726079265e-03
7.96538461538462e-01 4.23571220172200e-01 3.02199297383424e-03
8.13307692307692e-01 4.17976866133515e-01 3.01331166491484e-03
8.30076923076923e-01 4.12456400014915e-01 3.00401624358920e-03
8.46846153846154e-01 4.07008845941645e-01 2.99413804249955e-03
8.63615384615385e-01 4.01633240915072e-01 2.98370691143440e-03
8.80384615384615e-01 3.96328634661944e-01 2.97275130374095e-03
8.97153846153846e-01 3.91094089459783e-01 2.96129836027469e-03
9.13923076923077e-01 3.85928679971199e-01 2.94937398288404e-03
9.30692307692308e-01 3.80831493085679e-01 2.93700290623565e-03
9.47461538461538e-01 3.75801627741743e-01 2.92420876073156e-03
9.64230769230769e-01 3.70838194784279e-01 2.91101413077263e-03
9.81000000000000e-01 3.65940316801778e-01 2.89744061207355e-03
9.97769230769231e-01 3.61107127975996e-01 2.88350886747903e-03
1.01453846153846e+00 3.56337773895738e-01 2.86923866495561e-03
1.03130769230769e+00 3.51631411481791e-01 2.85464892816896e-03
1.04807692307692e+00 3.46987208765973e-01 2.83975778644403e-03
1.06484615384615e+00 3.42404344768409e-01 2.82458260352097e-03
1.08161538461538e+00 3.37882009352395e-01 2.80914001814445e-03
1.09838461538462e+00 3.33419403081195e-01 2.79344597876408e-03
1.11515384615385e+00 3.29015737076643e-01 2.77751577609296e-03
1.13192307692308e+00 3.24670232879834e-01 2.76136407374056e-03
1.14869230769231e+00 3.20382122313436e-01 2.74500493706483e-03
1.16546153846154e+00 3.16150647345897e-01 2.72845186032074e-03
1.18223076923077e+00 3.11975059957437e-01 2.71171779227267e-03
1.19900000000000e+00 3.07854622007822e-01 2.69481516559215e-03
1.21576923076923e+00 3.03788605073132e-01 2.67775590384383e-03
1.23253846153846e+00 2.99776290416591e-01 2.66055145375438e-03
1.24930769230769e+00 2.95816968760504e-01 2.64321281652455e-03
1.26607692307692e+00 2.91909940195032e-01 2.62575055070155e-03
1.28284615384615e+00 2.88054514054462e-01 2.60817479608379e-03
1.29961538461538e+00 2.84250008795117e-01 2.59049529112164e-03
1.31638461538462e+00 2.80495751874871e-01 2.57272138944171e-03
1.33315384615385e+00 2.76791079634226e-01 2.55486207552339e-03
1.34992307692308e+00 2.73135337179071e-01 2.53692597961382e-03
1.36669230769231e+00 2.69527878264874e-01 2.51892139192909e-03
1.38346153846154e+00 2.65968065182436e-01 2.50085627615042e-03
1.40023076923077e+00 2.62455268645165e-01 2.48273828228473e-03
1.41700000000000e+00 2.58988867677829e-01 2.46457476296475e-03
1.43376923076923e+00 2.55568249483451e-01 2.44637277286664e-03
1.45053846153846e+00 2.52192809405904e-01 2.42813908811394e-03
1.46730769230769e+00 2.48861950751153e-01 2.40988022534464e-03
1.48407692307692e+00 2.45575084706055e-01 2.39160243912564e-03
1.50084615384615e+00 2.42331630234274e-01 2.37331173596758e-03
1.51761538461538e+00 2.39131013973565e-01 2.35501388361312e-03
1.53438461538462e+00 2.35972670134418e-01 2.33671441992623e-03
1.55115384615385e+00 2.32856040400016e-01 2.31841866138562e-03
1.56792307692308e+00 2.29780573827593e-01 2.30013171122609e-03
1.58469230769231e+00 2.26745726751008e-01 2.28185846724575e-03
1.60146153846154e+00 2.23750962684643e-01 2.26360362927358e-03
1.61823076923077e+00 2.20795752228561e-01 2.24537170633335e-03
1.63500000000000e+00 2.17879572974926e-01 2.22716702668255e-03
1.65176923076923e+00 2.15001909398622e-01 2.20899373479431e-03
1.66853846153846e+00 2.12162252817851e-01 2.19085580414473e-03
1.68530769230769e+00 2.09360101251821e-01 2.17275704988818e-03
1.70207692307692e+00 2.06594959349699e-01 2.15470112470672e-03
1.71884615384615e+00 2.03866338303044e-01 2.13669152778260e-03
1.73561538461538e+00 2.01173755759396e-01 2.11873161018679e-03
1.75238461538462e+00 1.98516735737012e-01 2.10082458006310e-03
1.76915384615385e+00 1.95894808540704e-01 2.08297350760503e-03
1.78592307692308e+00 1.93307510678845e-01 2.06518132985003e-03
1.80269230769231e+00 1.90754384781415e-01 2.04745085529968e-03
1.81946153846154e+00 1.88234979519151e-01 2.02978476835769e-03
1.83623076923077e+00 1.85748849523763e-01 2.01218563360672e-03
1.85300000000000e+00 1.83295555309202e-01 1.99465590243232e-03
1.86976923076923e+00 1.80874663181324e-01 1.97719790939670e-03
1.88653846153846e+00 1.78485745199629e-01 1.95981388116641e-03
1.90330769230769e+00 1.76128379062730e-01 1.94250594541708e-03
1.92007692307692e+00 1.73802148046828e-01 1.92527612649781e-03
1.93684615384615e+00 1.71506640932039e-01 1.90812635151786e-03
1.95361538461538e+00 1.69241451929703e-01 1.89105845365343e-03
1.97038461538462e+00 1.67006180610653e-01 1.87407417533990e-03
1.98715384615385e+00 1.64800431834415e-01 1.85717517134608e-03
2.00392307692308e+00 1.62623815679379e-01 1.84036301174581e-03
2.02069230769231e+00 1.60475947373862e-01 1.82363918479145e-03
2.03746153846154e+00 1.58356447228087e-01 1.80700509968189e-03
2.05423076923077e+00 1.56264940567064e-01 1.79046208923778e-03
2.07100000000000e+00 1.54201057664359e-01 1.77401141447966e-03
2.08776923076923e+00 1.52164433667204e-01 1.75765426108094e-03
2.10453846153846e+00 1.50154708560922e-01 1.74139174583988e-03
2.12130769230769e+00 1.48171527076020e-01 1.72522492316521e-03
2.13807692307692e+00 1.46214538635258e-01 1.70915478105240e-03
2.15484615384615e+00 1.44283397291679e-01 1.69318224537787e-03
2.17161538461538e+00 1.42377761667450e-01 1.67730818200615e-03
2.18838461538462e+00 1.40497294893518e-01 1.66153339882894e-03
2.20515384615385e+00 1.38641664550050e-01 1.64585864773284e-03
2.22192307692308e+00 1.36810542607688e-01 1.63028462650584e-03
2.23869230769231e+00 1.35003605369549e-01 1.61481198068503e-03
2.25546153846154e+00 1.33220533414007e-01 1.59944130533929e-03
2.27223076923077e+00 1.31461011538225e-01 1.58417314679637e-03
2.28900000000000e+00 1.29724728702438e-01 1.56900800591002e-03
2.30576923076923e+00 1.28011377967711e-01 1.55394633484077e-03
2.32253846153846e+00 1.26320656463694e-01 1.53898854186932e-03
2.33930769230769e+00 1.24652265312814e-01 1.52413499623747e-03
2.35607692307692e+00 1.23005909584951e-01 1.50938602459267e-03
2.37284615384615e+00 1.21381298245300e-01 1.49474191410158e-03
2.38961538461538e+00 1.19778144102926e-01 1.48020291382656e-03
2.40638461538462e+00 1.18196163759992e-01 1.46576923605988e-03
2.42315384615385e+00 1.16635077561661e-01 1.45144105761257e-03
2.43992307692308e+00 1.15094609546665e-01 1.43721852106518e-03
2.45669230769231e+00 1.13574487398523e-01 1.42310173598173e-03
2.47346153846154e+00 1.12074442397393e-01 1.40909078008234e-03
2.49023076923077e+00 1.10594209372581e-01 1.39518570038050e-03
2.50700000000000e+00 1.09133526655653e-01 1.38138651556774e-03
2.52376923076923e+00 1.07692136028614e-01 1.36769321319320e-03
2.54053846153846e+00 1.06269782695168e-01 1.35410575330814e-03
2.55730769230769e+00 1.04866215218570e-01 1.34062407214184e-03
2.57407692307692e+00 1.03481185482954e-01 1.32724807903560e-03
2.59084615384615e+00 1.02114448649461e-01 1.31397765874457e-03
2.60761538461538e+00 1.00765763112967e-01 1.30081267235058e-03
2.62438461538462e+00 9.94348904593682e-02 1.28775295814772e-03
2.64115384615385e+00 9.81215954234324e-02 1.27479833249831e-03
2.65792307692308e+00 9.68256458472186e-02 1.26194859066424e-03
2.67469230769231e+00 9.55468126390323e-02 1.24920350761474e-03
2.69146153846154e+00 9.42848697329280e-02 1.23656283880660e-03
2.70823076923077e+00 9.30395940487467e-02 1.22402632094143e-03
2.72500000000000e+00 9.18107654526803e-02 1.21159367373550e-03
2.74176923076923e+00 9.05981667140426e-02 1.19926459749371e-03
2.75853846153846e+00 8.94015834799577e-02 1.18703877590525e-03
2.77530769230769e+00 8.82208042242312e-02 1.17491587887004e-03
2.79207692307692e+00 8.70556202144198e-02 1.16289555988941e-03
2.80884615384615e+00 8.59058254749329e-02 1.15097745779214e-03
2.82561538461538e+00 8.47712167506208e-02 1.13916119734417e-03
2.84238461538462e+00 8.36515934708445e-02 1.12744638984013e-03
2.85915384615385e+00 8.25467577140171e-02 1.11583263367520e-03
2.87592307692308e+00 8.14565141726212e-02 1.10431951490072e-03
2.89269230769231e+00 8.03806701186814e-02 1.09290660776397e-03
2.90946153846154e+00 7.93190353696938e-02 1.08159347522974e-03
2.92623076923077e+00 7.82714222550072e-02 1.07037966948652e-03
2.94300000000000e+00 7.72376455826471e-02 1.05926473327541e-03
2.95976923076923e+00 7.62175226032166e-02 1.04824819782584e-03
2.97653846153846e+00 7.52108729877872e-02 1.03732958502084e-03
2.99330769230769e+00 7.42175187857122e-02 1.02650840959086e-03
3.01007692307692e+00 7.32372843966436e-02 1.01578417690970e-03
3.02684615384615e+00 7.22699965394912e-02 1.00515638430259e-03
3.04361538461538e+00 7.13154842217898e-02 9.94624521453256e-04
3.06038461538462e+00 7.03735787094728e-02 9.84188070798897e-04
3.07715384615385e+00 6.94441134970417e-02 9.73846507911426e-04
3.09392307692308e+00 6.85269242781365e-02 9.63599301868034e-04
3.11069230769231e+00 6.76218489164879e-02 9.53445915611247e-04
3.12746153846154e+00 6.67287274172560e-02 9.43385806296244e-04
3.14423076923077e+00 6.58474018987467e-02 9.33418425627868e-04
3.16100000000000e+00 6.49777165645029e-02 9.23543220867731e-04
3.17776923076923e+00 6.41195176731288e-02 9.13759633088689e-04
3.19453846153846e+00 6.32726535190998e-02 9.04067098864308e-04
3.21130769230769e+00 6.24369743978707e-02 8.94465051983854e-04
3.22807692307692e+00 6.16123325821322e-02 8.84952921599052e-04
3.24484615384615e+00 6.07985822956967e-02 8.75530133223294e-04
3.26161538461538e+00 5.99955796877286e-02 8.66196109001230e-04
3.27838461538462e+00 5.92031828073151e-02 8.56950267970062e-04
3.29515384615385e+00 5.84212515783712e-02 8.47792026311537e-04
3.31192307692308e+00 5.76496477748809e-02 8.38720797596538e-04
3.32869230769231e+00 5.68882349964605e-02 8.29735993022607e-04
3.34546153846154e+00 5.61368786442465e-02 8.20837021642682e-04
3.36223076923077e+00 5.53954458971020e-02 8.12023290586769e-04
3.37900000000000e+00 5.46638056881369e-02 8.03294205830295e-04
3.39576923076923e+00 5.39418286794656e-02 7.94649170723786e-04
3.41253846153846e+00 5.32293872456291e-02 7.86087587318889e-04
3.42930769230769e+00 5.25263554446807e-02 7.77608857716529e-04
3.44607692307692e+00 5.18326089980628e-02 7.69212382512820e-04
3.46284615384615e+00 5.11480252686380e-02 7.60897561566968e-04
3.47961538461538e+00 5.04724832390101e-02 7.52663794176675e-04
3.49638461538462e+00 4.98058634901305e-02 7.44510479247963e-04
3.51315384615385e+00 4.91480481801877e-02 7.36437015458353e-04
3.52992307692308e+00 4.84989210237771e-02 7.28442801415132e-04
3.54669230769231e+00 4.78583672713442e-02 7.20527235808749e-04
3.56346153846154e+00 4.72262736888994e-02 7.12689717560102e-04
3.58023076923077e+00 4.66025285380008e-02 7.04929645963025e-04
3.59700000000000e+00 4.59870215560023e-02 6.97246421273418e-04
3.61376923076923e+00 4.53796439349226e-02 6.89639443473887e-04
3.63053846153846e+00 4.47802883071787e-02 6.82108113319133e-04
3.64730769230769e+00 4.41888487215857e-02 6.74651833400562e-04
3.66407692307692e+00 4.36052206263179e-02 6.67270006845205e-04
3.68084615384615e+00 4.30293008504274e-02 6.59962037908550e-04
3.69761538461538e+00 4.24609875856058e-02 6.52727332085176e-04
3.71438461538462e+00 4.19001803681868e-02 6.45565296215467e-04
3.73115384615385e+00 4.13467800613863e-02 6.38475338587772e-04
3.74792307692308e+00 4.08006888377787e-02 6.31456869037193e-04
3.76469230769231e+00 4.02618101620029e-02 6.24509299041009e-04
3.78146153846154e+00 3.97300487736974e-02 6.17632041809944e-04
3.79823076923077e+00 3.92053106706599e-02 6.10824512376023e-04
3.81500000000000e+00 3.86875030922309e-02 6.04086128046030e-04
3.83176923076923e+00 3.81765345015953e-02 5.97416307365125e-04
3.84853846153846e+00 3.76723145735423e-02 5.90814470944113e-04
3.86530769230769e+00 3.71747541745153e-02 5.84280042303131e-04
3.88207692307692e+00 3.66837653481971e-02 5.77812446783358e-04
3.89884615384615e+00 3.61992612999614e-02 5.71411112006388e-04
3.91561538461538e+00 3.57211563815295e-02 5.65075467940189e-04
3.93238461538462e+00 3.52493660758300e-02 5.58804946962449e-04
3.94915384615385e+00 3.47838069820579e-02 5.52598983920693e-04
3.96592307692308e+00 3.43243968009319e-02 5.46457016190167e-04
3.98269230769231e+00 3.38710543201461e-02 5.40378483729449e-04
3.99946153846154e+00 3.34236994000132e-02 5.34362829133062e-04
4.01623076923077e+00 3.29822529592979e-02 5.28409497681901e-04
4.03300000000000e+00 3.25466369612374e-02 5.22517937693138e-04
4.04976923076923e+00 3.21167743987116e-02 5.16687599651619e-04
4.06653846153846e+00 3.16925892837667e-02 5.10917936866522e-04
4.08330769230769e+00 3.12740066310128e-02 5.05208406141867e-04
4.10007692307692e+00 3.08609524454366e-02 4.99558466866743e-04
4.11684615384615e+00 3.04533537093201e-02 4.93967581372180e-04
4.13361538461538e+00 3.00511383693336e-02 4.88435214966517e-04
4.15038461538462e+00 2.96542353237980e-02 4.82960835969038e-04
4.16715384615385e+00 2.92625744101154e-02 4.77543915741325e-04
4.18392307692308e+00 2.88760863923673e-02 4.72183928717131e-04
4.20069230769231e+00 2.84947029490747e-02 4.66880352430736e-04
4.21746153846154e+00 2.81183566611203e-02 4.61632667543252e-04
4.23423076923077e+00 2.77469809998312e-02 4.56440357867430e-04
4.25100000000000e+00 2.73805103152175e-02 4.51302910638194e-04
4.26776923076923e+00 2.70188798235417e-02 4.46219815785067e-04
4.28453846153846e+00 2.66620255983692e-02 4.41190566454633e-04
4.30130769230769e+00 2.63098845567392e-02 4.36214659544792e-04
4.31807692307692e+00 2.59623944488645e-02 4.31291594944339e-04
4.33484615384615e+00 2.56194938471275e-02 4.26420875810769e-04
4.35161538461538e+00 2.52811221352212e-02 4.21602008584897e-04
4.36838461538462e+00 2.49472194974340e-02 4.16834503004300e-04
4.38515384615385e+00 2.46177269080753e-02 4.12117872115258e-04
4.40192307692308e+00 2.42925861210417e-02 4.07451632283685e-04
4.41869230769231e+00 2.39717396595205e-02 4.02835303205091e-04
4.43546153846154e+00 2.36551308058291e-02 3.98268407913115e-04
4.45223076923077e+00 2.33427035913887e-02 3.93750472787068e-04
4.46900000000000e+00 2.30344027868305e-02 3.89281027761400e-04
4.48576923076923e+00 2.27301738915713e-02 3.84859605716375e-04
4.50253846153846e+00 2.24299631261827e-02 3.80485742894617e-04
4.51930769230769e+00 2.21337174208605e-02 3.76158979327675e-04
4.53607692307692e+00 2.18413844067242e-02 3.71878858200508e-04
4.55284615384615e+00 2.15529124065602e-02 3.67644926067928e-04
4.56961538461538e+00 2.12682504256861e-02 3.63456732855445e-04
4.58638461538462e+00 2.09873481429365e-02 3.59313831859312e-04
4.60315384615385e+00 2.07101559017668e-02 3.55215779745526e-04
4.61992307692308e+00 2.04366247014761e-02 3.51162136548217e-04
4.63669230769231e+00 2.01667061885442e-02 3.47152465667433e-04
4.65346153846154e+00 1.99003526480847e-02 3.43186333865926e-04
4.67023076923077e+00 1.96375169954095e-02 3.39263311265337e-04
4.68700000000000e+00 1.93781527677060e-02 3.35382971508464e-04
4.70376923076923e+00 1.91222141152926e-02 3.31544891249033e-04
4.72053846153846e+00 1.88696557951215e-02 3.27748650484387e-04
4.73730769230769e+00 1.86204331611567e-02 3.23993832896613e-04
4.75407692307692e+00 1.83745021570286e-02 3.20280025321358e-04
4.77084615384615e+00 1.81318193082462e-02 3.16606817916642e-04
4.78761538461538e+00 1.78923417145115e-02 3.12973804154742e-04
4.80438461538462e+00 1.76560270421362e-02 3.09380580813590e-04
4.82115384615385e+00 1.74228335165576e-02 3.05826747967445e-04
4.83792307692308e+00 1.71927199149543e-02 3.02311908977219e-04
4.85469230769231e+00 1.69656455589593e-02 2.98835670480459e-04
4.87146153846154e+00 1.67415703074685e-02 2.95397642380680e-04
4.88823076923077e+00 1.65204545495450e-02 2.91997437836304e-04
4.90500000000000e+00 1.63022591974168e-02 2.88634673386339e-04
4.92176923076923e+00 1.60869456791409e-02 2.85308968523138e-04
4.93853846153846e+00 1.58744759330766e-02 2.82019945958519e-04
4.95530769230769e+00 1.56648123998517e-02 2.78767231896941e-04
4.97207692307692e+00 1.54579180161630e-02 2.75550455591416e-04
4.98884615384615e+00 1.52537562082242e-02 2.72369249475269e-04
5.00561538461538e+00 1.50522908853001e-02 2.69223249148448e-04
5.02238461538462e+00 1.48534864333277e-02 2.66112093363580e-04
5.03915384615385e+00 1.46573077086191e-02 2.63035424011590e-04
5.05592307692308e+00 1.44637200316504e-02 2.59992886107123e-04
5.07269230769231e+00 1.42726891809304e-02 2.56984127773758e-04
5.08946153846154e+00 1.40841813869512e-02 2.54008800228847e-04
5.10623076923077e+00 1.38981633262188e-02 2.51066557768153e-04
5.12300000000000e+00 1.37146021153621e-02 2.48157057863118e-04
5.13976923076923e+00 1.35334653049767e-02 2.45279960803107e-04
5.15653846153846e+00 1.33547208749290e-02 2.42434929908483e-04
5.17330769230769e+00 1.31783372276450e-02 2.39621631749635e-04
5.19007692307692e+00 1.30042831828785e-02 2.36839735775668e-04
5.20684615384615e+00 1.28325279721990e-02 2.34088914417190e-04
5.22361538461538e+00 1.26630412335530e-02 2.31368843069464e-04
5.24038461538461e+00 1.24957930058961e-02 2.28679200075472e-04
5.25715384615385e+00 1.23307537238974e-02 2.26019666708698e-04
5.27392307692308e+00 1.21678942127126e-02 2.23389927155804e-04
5.29069230769231e+00 1.20071856828267e-02 2.20789668499295e-04
