Energy (eV)          EEDF (eV^-(3/2))     First Anisotropy
1.93571428571429e-02 5.66958809447847e-01 5.59608085761962e-04
5.80714285714286e-02 5.53140487567869e-01 9.15889980887968e-04
9.67857142857143e-02 5.39658955621858e-01 1.18759496889688e-03
1.35500000000000e-01 5.26506005135301e-01 1.38138568775119e-03
1.74214285714286e-01 5.13673627652059e-01 1.53287907005397e-03
2.12928571428571e-01 5.01154009949033e-01 1.65591901263695e-03
2.51642857142857e-01 4.88939529285553e-01 1.75785726267970e-03
2.90357142857143e-01 4.77022748587679e-01 1.84324346203866e-03
3.29071428571429e-01 4.65396412102366e-01 1.91516614498868e-03
3.67785714285714e-01 4.54053440952983e-01 1.97585700274876e-03
4.06500000000000e-01 4.42986928725894e-01 2.02700285668667e-03
4.45214285714286e-01 4.32190137369687e-01 2.06992277911125e-03
4.83928571428571e-01 4.21656493057333e-01 2.10567600446845e-03
5.22642857142857e-01 4.11379582204330e-01 2.13513136434183e-03
5.61357142857143e-01 4.01353147500074e-01 2.15901396023550e-03
6.00071428571429e-01 3.91571084162803e-01 2.17793768302736e-03
6.38785714285714e-01 3.82027436216364e-01 2.19242857090417e-03
6.77500000000000e-01 3.72716392816594e-01 2.20294200745483e-03
7.16214285714286e-01 3.63632284761124e-01 2.20987567136316e-03
7.54928571428571e-01 3.54769581021357e-01 2.21357947886025e-03
7.93642857142857e-01 3.46122885385960e-01 2.21436334376854e-03
8.32357142857143e-01 3.37686933141137e-01 2.21250332321336e-03
8.71071428571429e-01 3.29456587899839e-01 2.20824655095120e-03
9.09785714285714e-01 3.21426838471663e-01 2.20181525158280e-03
9.48500000000000e-01 3.13592795784382e-01 2.19341003247878e-03
9.87214285714286e-01 3.05949689934855e-01 2.18321261508479e-03
1.02592857142857e+00 2.98492867267970e-01 2.17138811875385e-03
1.06464285714286e+00 2.91217787606234e-01 2.15808700088173e-03
1.10335714285714e+00 2.84120021313347e-01 2.14344668826328e-03
1.14207142857143e+00 2.77195246784062e-01 2.12759296844731e-03
1.18078571428571e+00 2.70439247801134e-01 2.11064122610487e-03
1.21950000000000e+00 2.63847910789598e-01 2.09269747272693e-03
1.25821428571429e+00 2.57417222544404e-01 2.07385926196933e-03
1.29692857142857e+00 2.51143267569216e-01 2.05421649139752e-03
1.33564285714286e+00 2.45022225896682e-01 2.03385210330886e-03
1.37435714285714e+00 2.39050370570561e-01 2.01284271162770e-03
1.41307142857143e+00 2.33224065516664e-01 1.99125913771113e-03
1.45178571428571e+00 2.27539763321564e-01 1.96916692311790e-03
1.49050000000000e+00 2.21994002951708e-01 1.94662675492942e-03
1.52921428571429e+00 2.16583407804059e-01 1.92369486144075e-03
1.56792857142857e+00 2.11304683501019e-01 1.90042336810921e-03
1.60664285714286e+00 2.06154616025584e-01 1.87686061545600e-03
1.64535714285714e+00 2.01130069631022e-01 1.85305145242515e-03
1.68407142857143e+00 1.96227985029385e-01 1.82903748688889e-03
1.72278571428571e+00 1.91445377523864e-01 1.80485734094125e-03
1.76150000000000e+00 1.86779335106300e-01 1.78054685792686e-03
1.80021428571429e+00 1.82227016795701e-01 1.75613930275700e-03
1.83892857142857e+00 1.77785650802572e-01 1.73166554512071e-03
1.87764285714286e+00 1.73452532941833e-01 1.70715422506475e-03
1.91635714285714e+00 1.69225024890728e-01 1.68263190949736e-03
1.95507142857143e+00 1.65100552652688e-01 1.65812322409036e-03
1.99378571428571e+00 1.61076604986662e-01 1.63365099637147e-03
2.03250000000000e+00 1.57150731816468e-01 1.60923636767569e-03
2.07121428571429e+00 1.53320542819875e-01 1.58489890551808e-03
2.10992857142857e+00 1.49583705896170e-01 1.56065670745418e-03
2.14864285714286e+00 1.45937945819652e-01 1.53652649550225e-03
2.18735714285714e+00 1.42381042784277e-01 1.51252370717777e-03
2.22607142857143e+00 1.38910831103667e-01 1.48866257055573e-03
2.26478571428571e+00 1.35525197890026e-01 1.46495619106414e-03
2.30350000000000e+00 1.32222081722186e-01 1.44141661635277e-03
2.34221428571429e+00 1.28999471450233e-01 1.41805490381181e-03
2.38092857142857e+00 1.25855404913876e-01 1.39488118338370e-03
2.41964285714286e+00 1.22787967802335e-01 1.37190471477811e-03
2.45835714285714e+00 1.19795292436578e-01 1.34913394360434e-03
2.49707142857143e+00 1.16875556670649e-01 1.32657654632416e-03
2.53578571428571e+00 1.14026982780414e-01 1.30423948580761e-03
2.57450000000000e+00 1.11247836347086e-01 1.28212905066186e-03
2.61321428571429e+00 1.08536425246013e-01 1.26025089772924e-03
2.65192857142857e+00 1.05891098573475e-01 1.23861009177271e-03
2.69064285714286e+00 1.03310245682618e-01 1.21721114159014e-03
2.72935714285714e+00 1.00792295163374e-01 1.19605803602446e-03
2.76807142857143e+00 9.83357139147870e-02 1.17515427177456e-03
2.80678571428571e+00 9.59390062102043e-02 1.15450289030285e-03
2.84550000000000e+00 9.36007127607384e-02 1.13410650236712e-03
2.88421428571429e+00 9.13194098607782e-02 1.11396731561958e-03
2.92292857142857e+00 8.90937084884928e-02 1.09408716042535e-03
2.96164285714286e+00 8.69222534914278e-02 1.07446751327905e-03
3.00035714285714e+00 8.48037227313238e-02 1.05510952052828e-03
3.03907142857143e+00 8.27368263013379e-02 1.03601401590098e-03
3.07778571428571e+00 8.07203057396470e-02 1.01718154566434e-03
3.11650000000000e+00 7.87529332434194e-02 9.98612384163397e-04
3.15521428571429e+00 7.68335109473244e-02 9.80306552111753e-04
3.19392857142857e+00 7.49608701691311e-02 9.62263833705118e-04
3.23264285714286e+00 7.31338707222152e-02 9.44483792056329e-04
3.27135714285714e+00 7.13514001981882e-02 9.26965785092286e-04
3.31007142857143e+00 6.96123733067119e-02 9.09708976673911e-04
3.34878571428571e+00 6.79157312139284e-02 8.92712354051778e-04
3.38750000000000e+00 6.62604408824892e-02 8.75974737746799e-04
3.42621428571429e+00 6.46454944627207e-02 8.59494793815748e-04
3.46492857142857e+00 6.30699086595922e-02 8.43271045312957e-04
3.50364285714286e+00 6.15327241526683e-02 8.27301882545306e-04
3.54235714285714e+00 6.00330049940610e-02 8.11585573825644e-04
3.58107142857143e+00 5.85698380518483e-02 7.96120272491937e-04
3.61978571428571e+00 5.71423324535043e-02 7.80904029159590e-04
3.65850000000000e+00 5.57496190315973e-02 7.65934797955004e-04
3.69721428571429e+00 5.43908498102526e-02 7.51210444778765e-04
3.73592857142857e+00 5.30651974737546e-02 7.36728755006332e-04
3.77464285714286e+00 5.17718548773557e-02 7.22487440302752e-04
3.81335714285714e+00 5.05100345418287e-02 7.08484145917873e-04
3.85207142857143e+00 4.92789681843687e-02 6.94716455033063e-04
3.89078571428571e+00 4.80779062503507e-02 6.81181897420246e-04
3.92950000000000e+00 4.69061174476633e-02 6.67877953286605e-04
3.96821428571429e+00 4.57628883137065e-02 6.54802058829294e-04
4.00692857142857e+00 4.46475227691703e-02 6.41951611389136e-04
4.04564285714286e+00 4.35593417056049e-02 6.29323973943459e-04
4.08435714285714e+00 4.24976825609498e-02 6.16916480038126e-04
4.12307142857143e+00 4.14618989242614e-02 6.04726436374089e-04
4.16178571428571e+00 4.04513601417758e-02 5.92751128944115e-04
4.20050000000000e+00 3.94654509256263e-02 5.80987825298858e-04
4.23921428571429e+00 3.85035709888512e-02 5.69433778245172e-04
4.27792857142857e+00 3.75651346706012e-02 5.58086229254631e-04
4.31664285714286e+00 3.66495705885175e-02 5.46942411372940e-04
4.35535714285714e+00 3.57563212821816e-02 5.35999552519315e-04
4.39407142857143e+00 3.48848428801116e-02 5.25254876909389e-04
4.43278571428571e+00 3.40346047683361e-02 5.14705609400317e-04
4.47150000000000e+00 3.32050892615613e-02 5.04348976711345e-04
4.51021428571429e+00 3.23957912955767e-02 4.94182209839817e-04
4.54892857142857e+00 3.16062181123927e-02 4.84202546265587e-04
4.58764285714286e+00 3.08358889673066e-02 4.74407231774950e-04
4.62635714285714e+00 3.00843348293455e-02 4.64793522624758e-04
4.66507142857143e+00 2.93510981007671e-02 4.55358686198509e-04
4.70378571428571e+00 2.86357323382225e-02 4.46100004068389e-04
4.74250000000000e+00 2.79378019763678e-02 4.37014772526758e-04
4.78121428571429e+00 2.72568820686923e-02 4.28100304113432e-04
4.81992857142857e+00 2.65925580229571e-02 4.19353928987306e-04
4.85864285714286e+00 2.59444253543896e-02 4.10772996005722e-04
4.89735714285714e+00 2.53120894339695e-02 4.02354874097356e-04
4.93607142857143e+00 2.46951652521852e-02 3.94096952418714e-04
4.97478571428571e+00 2.40932771844397e-02 3.85996642492560e-04
5.01350000000000e+00 2.35060587587173e-02 3.78051378291295e-04
5.05221428571429e+00 2.29331524372451e-02 3.70258617148832e-04
5.09092857142857e+00 2.23742093941656e-02 3.62615840557343e-04
5.12964285714286e+00 2.18288893076263e-02 3.55120554738226e-04
5.16835714285714e+00 2.12968601482388e-02 3.47770291464460e-04
5.20707142857143e+00 2.07777979801308e-02 3.40562607898846e-04
5.24578571428571e+00 2.02713867635734e-02 3.33495088065930e-04
5.28450000000000e+00 1.97773181596618e-02 3.26565342651183e-04
5.32321428571429e+00 1.92952913464024e-02 3.19771009489036e-04
5.36192857142857e+00 1.88250128318534e-02 3.13109753965547e-04
5.40064285714286e+00 1.83661962790028e-02 3.06579269245768e-04
5.43935714285714e+00 1.79185623279685e-02 3.00177276715386e-04
5.47807142857143e+00 1.74818384284726e-02 2.93901525624117e-04
5.51678571428571e+00 1.70557586737842e-02 2.87749794076640e-04
5.55550000000000e+00 1.66400636365048e-02 2.81719888659356e-04
5.59421428571429e+00 1.62345002136692e-02 2.75809644639710e-04
5.63292857142857e+00 1.58388214696809e-02 2.70016926102110e-04
5.67164285714286e+00 1.54527864888227e-02 2.64339625947254e-04
5.71035714285714e+00 1.50761602258011e-02 2.58775666073408e-04
5.74907142857143e+00 1.47087133646921e-02 2.53322996908871e-04
5.78778571428571e+00 1.43502221792299e-02 2.47979598056714e-04
5.82650000000000e+00 1.40004683947330e-02 2.42743477825071e-04
5.86521428571429e+00 1.36592390576563e-02 2.37612673233346e-04
5.90392857142857e+00 1.33263264035571e-02 2.32585249971336e-04
5.94264285714286e+00 1.30015277328904e-02 2.27659302251592e-04
5.98135714285714e+00 1.26846452853686e-02 2.22832952815907e-04
6.02007142857143e+00 1.23754861212030e-02 2.18104352413459e-04
6.05878571428571e+00 1.20738620035587e-02 2.13471680197718e-04
6.09750000000000e+00 1.17795892824534e-02 2.08933143211532e-04
6.13621428571429e+00 1.14924887849098e-02 2.04486976267843e-04
6.17492857142857e+00 1.12123857039549e-02 2.00131441795495e-04
6.21364285714286e+00 1.09391094940321e-02 1.95864829601404e-04
6.25235714285714e+00 1.06724937653736e-02 1.91685456763058e-04
6.29107142857143e+00 1.04123761840195e-02 1.87591667090066e-04
6.32978571428571e+00 1.01585983729212e-02 1.83581831345141e-04
6.36850000000000e+00 9.91100581431190e-03 1.79654346718090e-04
6.40721428571429e+00 9.66944775721234e-03 1.75807636628745e-04
6.44592857142857e+00 9.43377712410644e-03 1.72040150504084e-04
6.48464285714286e+00 9.20385042287866e-03 1.68350363489742e-04
6.52335714285714e+00 8.97952765800481e-03 1.64736776271562e-04
6.56207142857143e+00 8.76067224638433e-03 1.61197914545129e-04
6.60078571428571e+00 8.54715093413388e-03 1.57732329113490e-04
6.63950000000000e+00 8.33883371448628e-03 1.54338595372166e-04
6.67821428571429e+00 8.13559374991335e-03 1.51015313067723e-04
6.71692857142857e+00 7.93730729365867e-03 1.47761106037386e-04
6.75564285714286e+00 7.74385361559312e-03 1.44574621897094e-04
6.79435714285714e+00 7.55511492754252e-03 1.41454531822372e-04
6.83307142857143e+00 7.37097631243495e-03 1.38399530041328e-04
6.87178571428571e+00 7.19132565429504e-03 1.35408333847569e-04
6.91050000000000e+00 7.01605356919876e-03 1.32479683110034e-04
6.94921428571429e+00 6.84505333970724e-03 1.29612340010414e-04
6.98792857142857e+00 6.67822084888772e-03 1.26805088766730e-04
7.02664285714286e+00 6.51545451789105e-03 1.24056735316360e-04
7.06535714285714e+00 6.35665524316251e-03 1.21366107077310e-04
7.10407142857143e+00 6.20172633680035e-03 1.18732052473799e-04
7.14278571428571e+00 6.05057346765616e-03 1.16153440892400e-04
7.18150000000000e+00 5.90310460326749e-03 1.13629162224749e-04
7.22021428571429e+00 5.75922995465907e-03 1.11158126599613e-04
7.25892857142857e+00 5.61886192086198e-03 1.08739264104982e-04
7.29764285714286e+00 5.48191503636233e-03 1.06371524478237e-04
7.33635714285714e+00 5.34830591830197e-03 1.04053876862248e-04
7.37507142857143e+00 5.21795321627585e-03 1.01785309368300e-04
7.41378571428571e+00 5.09077756277664e-03 9.95648289958188e-05
7.45250000000000e+00 4.96670152435805e-03 9.73914612119909e-05
7.49121428571429e+00 4.84564955516640e-03 9.52642496890355e-05
7.52992857142857e+00 4.72754795028543e-03 9.31822560343663e-05
7.56864285714286e+00 4.61232480149730e-03 9.11445594956203e-05
7.60735714285714e+00 4.49990995288175e-03 8.91502567212120e-05
7.64607142857143e+00 4.39023495856005e-03 8.71984613624248e-05
7.68478571428571e+00 4.28323304100124e-03 8.52883039713361e-05
7.72350000000000e+00 4.17883904994772e-03 8.34189316187492e-05
7.76221428571429e+00 4.07698942329776e-03 8.15895076433984e-05
7.80092857142857e+00 3.97762214787073e-03 7.97992113962042e-05
7.83964285714286e+00 3.88067672216688e-03 7.80472379647293e-05
7.87835714285714e+00 3.78609411902785e-03 7.63327979443908e-05
7.91707142857143e+00 3.69381675007027e-03 7.46551170795777e-05
7.95578571428571e+00 3.60378843060638e-03 7.30134361501660e-05
7.99450000000000e+00 3.51595434509724e-03 7.14070106273748e-05
8.03321428571429e+00 3.43026101422458e-03 6.98351104389646e-05
8.07192857142857e+00 3.34665626189503e-03 6.82970197310777e-05
8.11064285714286e+00 3.26508918389258e-03 6.67920366145011e-05
8.14935714285714e+00 3.18551011647642e-03 6.53194729502817e-05
8.18807142857143e+00 3.10787060644582e-03 6.38786540284541e-05
8.22678571428571e+00 3.03212338162591e-03 6.24689184504410e-05
8.26550000000000e+00 2.95822232181033e-03 6.10896178212938e-05
8.30421428571429e+00 2.88612243104407e-03 5.97401165330503e-05
8.34292857142857e+00 2.81577980987377e-03 5.84197915459071e-05
8.38164285714286e+00 2.74715162896121e-03 5.71280321571325e-05
8.42035714285714e+00 2.68019610267360e-03 5.58642398031039e-05
8.45907142857143e+00 2.61487246388879e-03 5.46278277734686e-05
8.49778571428571e+00 2.55114093916319e-03 5.34182210944179e-05
8.53650000000000e+00 2.48896272429123e-03 5.22348562550941e-05
8.57521428571429e+00 2.42829996097507e-03 5.10771810099547e-05
8.61392857142857e+00 2.36911571348629e-03 4.99446541798036e-05
8.65264285714286e+00 2.31137394645596e-03 4.88367454431863e-05
8.69135714285714e+00 2.25503950266300e-03 4.77529351556631e-05
8.73007142857143e+00 2.20007808182958e-03 4.66927140967847e-05
8.76878571428571e+00 2.14645621972830e-03 4.56555833575546e-05
8.80750000000000e+00 2.09414126762457e-03 4.46410540984163e-05
8.84621428571429e+00 2.04310137263942e-03 4.36486473705682e-05
8.88492857142857e+00 1.99330545812078e-03 4.26778939365703e-05
8.92364285714286e+00 1.94472320494945e-03 4.17283340833830e-05
8.96235714285714e+00 1.89732503285788e-03 4.07995174588667e-05
9.00107142857143e+00 1.85108208258405e-03 3.98910028487702e-05
9.03978571428572e+00 1.80596619829307e-03 3.90023580704668e-05
9.07850000000000e+00 1.76194991028525e-03 3.81331597597675e-05
9.11721428571429e+00 1.71900641846777e-03 3.72829932105571e-05
9.15592857142857e+00 1.67710957584560e-03 3.64514522141585e-05
9.19464285714286e+00 1.63623387278715e-03 3.56381388927622e-05
9.23335714285714e+00 1.59635442131199e-03 3.48426635526011e-05
9.27207142857143e+00 1.55744694007144e-03 3.40646444881098e-05
9.31078571428571e+00 1.51948773955894e-03 3.33037078831467e-05
9.34950000000000e+00 1.48245370756465e-03 3.25594876238683e-05
9.38821428571429e+00 1.44632229526426e-03 3.18316251556809e-05
9.42692857142857e+00 1.41107150333332e-03 3.11197693402215e-05
9.46564285714286e+00 1.37667986870434e-03 3.04235763076939e-05
9.50435714285714e+00 1.34312645135129e-03 2.97427093258235e-05
9.54307142857143e+00 1.31039082164945e-03 2.90768386284181e-05
9.58178571428572e+00 1.27845304793200e-03 2.84256413246595e-05
9.62050000000000e+00 1.24729368425484e-03 2.77888012353628e-05
9.65921428571429e+00 1.21689375868826e-03 2.71660087660172e-05
9.69792857142857e+00 1.18723476163770e-03 2.65569607800691e-05
9.73664285714286e+00 1.15829863469792e-03 2.59613604685731e-05
9.77535714285714e+00 1.13006775953733e-03 2.53789172338303e-05
9.81407142857143e+00 1.10252494726040e-03 2.48093465397236e-05
9.85278571428571e+00 1.07565342793820e-03 2.42523698292215e-05
9.89150000000000e+00 1.04943684031642e-03 2.37077143814839e-05
9.93021428571429e+00 1.02385922196124e-03 2.31751131996754e-05
9.96892857142857e+00 9.98904999435725e-04 2.26543048991492e-05
1.00076428571429e+01 9.74558978919183e-04 2.21450335928040e-05
1.00463571428571e+01 9.50806336857513e-04 2.16470487931722e-05
1.00850714285714e+01 9.27632610988587e-04 2.11601052766009e-05
1.01237857142857e+01 9.05023691558504e-04 2.06839629942366e-05
1.01625000000000e+01 8.82965812706208e-04 2.02183869272277e-05
1.02012142857143e+01 8.61445544287319e-04 1.97631471181558e-05
1.02399285714286e+01 8.40449783069917e-04 1.93180184770110e-05
1.02786428571429e+01 8.19965745394459e-04 1.88827805841019e-05
1.03173571428571e+01 7.99980959173738e-04 1.84572177425583e-05
1.03560714285714e+01 7.80483256298881e-04 1.80411188328388e-05
1.03947857142857e+01 7.61460765230880e-04 1.76342772196633e-05
1.04335000000000e+01 7.42901903772225e-04 1.72364906228303e-05
1.04722142857143e+01 7.24795372183230e-04 1.68475611433177e-05
1.05109285714286e+01 7.07130145788115e-04 1.64672950976354e-05
1.05496428571429e+01 6.89895468785321e-04 1.60955028497471e-05
1.05883571428571e+01 6.73080847521250e-04 1.57319988503612e-05
1.06270714285714e+01 6.56676044100893e-04 1.53766015119291e-05
1.06657857142857e+01 6.40671070154544e-04 1.50291331272825e-05
1.07045000000000e+01 6.25056180756074e-04 1.46894197583736e-05
1.07432142857143e+01 6.09821868627618e-04 1.43572912541081e-05
1.07819285714286e+01 5.94958857929489e-04 1.40325811090037e-05
1.08206428571429e+01 5.80458099041215e-04 1.37151263199229e-05
1.08593571428571e+01 5.66310762906039e-04 1.34047674151527e-05
1.08980714285714e+01 5.52508235655093e-04 1.31013483471086e-05
1.09367857142857e+01 5.39042113362883e-04 1.28047164213763e-05
1.09755000000000e+01 5.25904196930300e-04 1.25147222009955e-05
1.10142142857143e+01 5.13086487205755e-04 1.22312195180980e-05
1.10529285714286e+01 5.00581179768934e-04 1.19540653533647e-05
1.10916428571429e+01 4.88380660530805e-04 1.16831197139636e-05
1.11303571428571e+01 4.76477500978270e-04 1.14182456547698e-05
1.11690714285714e+01 4.64864453651105e-04 1.11593091863473e-05
1.12077857142857e+01 4.53534447729370e-04 1.09061792131968e-05
1.12465000000000e+01 4.42480584728122e-04 1.06587274514968e-05
1.12852142857143e+01 4.31696134390188e-04 1.04168284361441e-05
1.13239285714286e+01 4.21174530304374e-04 1.01803594179993e-05
1.13626428571429e+01 4.10909366196300e-04 9.94920025993200e-06
1.14013571428571e+01 4.00894391929814e-04 9.72323345202455e-06
1.14400714285714e+01 3.91123509701422e-04 9.50234403271808e-06
1.14787857142857e+01 3.81590770327654e-04 9.28641953517533e-06
1.15175000000000e+01 3.72290369622725e-04 9.07534991665160e-06
1.15562142857143e+01 3.63216644940995e-04 8.86902756217030e-06
1.15949285714286e+01 3.54364071495871e-04 8.66734719696812e-06
1.16336428571429e+01 3.45727259233304e-04 8.47020579799628e-06
1.16723571428571e+01 3.37300949469437e-04 8.27750260454551e-06
1.17110714285714e+01 3.29080011688710e-04 8.08913905072224e-06
1.17497857142857e+01 3.21059440420152e-04 7.90501871894004e-06
1.17885000000000e+01 3.13234352189654e-04 7.72504727932833e-06
1.18272142857143e+01 3.05599982609416e-04 7.54913249098339e-06
1.18659285714286e+01 2.98151683285287e-04 7.37718412739633e-06
1.19046428571429e+01 2.90884919181626e-04 7.20911390113912e-06
1.19433571428571e+01 2.83795265793874e-04 7.04483547102936e-06
1.19820714285714e+01 2.76878406454571e-04 6.88426438434866e-06
1.20207857142857e+01 2.70130129705161e-04 6.72731803657731e-06
1.20595000000000e+01 2.63546326731720e-04 6.57391561945440e-06
1.20982142857143e+01 2.57122988914914e-04 6.42397812052334e-06
1.21369285714286e+01 2.50856205231550e-04 6.27742825963955e-06
1.21756428571429e+01 2.44742160033757e-04 6.13419042489858e-06
1.22143571428571e+01 2.38777130671318e-04 5.99419067721119e-06
