Energy (eV)          EEDF (eV^-(3/2))     First Anisotropy
3.38333333333333e-01 7.46732645701639e-02 1.53328457182163e-04
1.01500000000000e+00 6.65450018434127e-02 2.40216488013735e-04
1.69166666666667e+00 5.93015090094946e-02 2.84507825943049e-04
2.36833333333333e+00 5.28464779120022e-02 3.02278447489856e-04
3.04500000000000e+00 4.70940836727633e-02 3.06384286356330e-04
3.72166666666667e+00 4.19678435576717e-02 3.02318029916251e-04
4.39833333333333e+00 3.73996000207981e-02 2.93139894437451e-04
5.07500000000000e+00 3.33286145538214e-02 2.80763329648207e-04
5.75166666666667e+00 2.97007601052491e-02 2.66459065758964e-04
6.42833333333333e+00 2.64678013947405e-02 2.51099540802281e-04
7.10500000000000e+00 2.35867536098743e-02 2.35294150921666e-04
7.78166666666667e+00 2.10193108833134e-02 2.19471068051952e-04
8.45833333333333e+00 1.87313369739491e-02 2.03929964837199e-04
9.13500000000000e+00 1.66924114098309e-02 1.88877601612619e-04
9.81166666666667e+00 1.48754250209776e-02 1.74452690731885e-04
1.04883333333333e+01 1.32562194948002e-02 1.60743727221095e-04
1.11650000000000e+01 1.18132661743256e-02 1.47802030593787e-04
1.18416666666667e+01 1.05273798352992e-02 1.35651429426023e-04
1.25183333333333e+01 9.38146356188539e-03 1.24295531028348e-04
1.31950000000000e+01 8.36028146724121e-03 1.13723222114089e-04
1.38716666666667e+01 7.45025611315511e-03 1.03912856189581e-04
1.45483333333333e+01 6.63928796583526e-03 9.48354465592813e-05
1.52250000000000e+01 5.91659454548140e-03 8.64571042357762e-05
1.59016666666667e+01 5.27256706041959e-03 7.87408978931957e-05
1.65783333333333e+01 4.69864263746477e-03 7.16482646216211e-05
1.72550000000000e+01 4.18719048548003e-03 6.51400736046067e-05
1.79316666666667e+01 3.73141043536850e-03 5.91774208159147e-05
1.86083333333333e+01 3.32524251822568e-03 5.37222122053654e-05
1.92850000000000e+01 2.96328640181475e-03 4.87375829416424e-05
1.99616666666667e+01 2.64072958725529e-03 4.41881897351310e-05
2.06383333333333e+01 2.35328341783196e-03 4.00404033649518e-05
2.13150000000000e+01 2.09712606331714e-03 3.62624246820872e-05
2.19916666666667e+01 1.86885170468763e-03 3.28243423289722e-05
2.26683333333333e+01 1.66542524772463e-03 2.96981452761338e-05
2.33450000000000e+01 1.48414197248984e-03 2.68577018073571e-05
2.40216666666667e+01 1.32259157127569e-03 2.42787140515947e-05
2.46983333333333e+01 1.17862609949487e-03 2.19386543479531e-05
2.53750000000000e+01 1.05033141928578e-03 1.98166892413859e-05
2.60516666666667e+01 9.36001749108866e-04 1.78935955895638e-05
2.67283333333333e+01 8.34116982621086e-04 1.61516716689516e-05
2.74050000000000e+01 7.43322479107427e-04 1.45746460829111e-05
2.80816666666667e+01 6.62411052182259e-04 1.31475865790818e-05
2.87583333333333e+01 5.90306918365449e-04 1.18568099609143e-05
2.94350000000000e+01 5.26051394636928e-04 1.06897943491188e-05
3.01116666666667e+01 4.68790151804170e-04 9.63509468118320e-06
3.07883333333333e+01 4.17761854908559e-04 8.68226179532025e-06
3.14650000000000e+01 3.72288041297626e-04 7.82176556486074e-06
3.21416666666667e+01 3.31764099805984e-04 7.04492235771799e-06
3.28183333333333e+01 2.95651231566216e-04 6.34382677487388e-06
3.34950000000000e+01 2.63469286663250e-04 5.71128774490864e-06
3.41716666666667e+01 2.34790380080636e-04 5.14076895552613e-06
3.48483333333333e+01 2.09233202360757e-04 4.62633341276325e-06
3.55250000000000e+01 1.86457950067049e-04 4.16259202764071e-06
3.62016666666667e+01 1.66161807774509e-04 3.74465608525776e-06
3.68783333333333e+01 1.48074921718568e-04 3.36809333870354e-06
3.75550000000000e+01 1.31956812057712e-04 3.02888756029054e-06
3.82316666666667e+01 1.17593175467519e-04 2.72340136499375e-06
3.89083333333333e+01 1.04793035687362e-04 2.44834205477611e-06
3.95850000000000e+01 9.33862044614952e-05 2.20073030408451e-06
4.02616666666667e+01 8.32210187271597e-05 1.97787150299868e-06
4.09383333333333e+01 7.41623240527489e-05 1.77732953609348e-06
4.16150000000000e+01 6.60896777341761e-05 1.59690283056657e-06
4.22916666666667e+01 5.88957473973648e-05 1.43460250993123e-06
4.29683333333333e+01 5.24848838744957e-05 1.28863246772070e-06
4.36450000000000e+01 4.67718495273878e-05 1.15737121794310e-06
4.43216666666667e+01 4.16806849345062e-05 1.03935538442919e-06
4.49983333333333e+01 3.71436989132237e-05 9.33264679170177e-07
4.56750000000000e+01 3.31005685488646e-05 8.37908251595756e-07
4.63516666666667e+01 2.94975371462527e-05 7.52212296791517e-07
4.70283333333333e+01 2.62866994667592e-05 6.75208804344495e-07
4.77050000000000e+01 2.34253648151428e-05 6.06025353286595e-07
4.83816666666667e+01 2.08754894278248e-05 5.43875864331506e-07
4.90583333333333e+01 1.86031706338728e-05 4.88052217580496e-07
4.97350000000000e+01 1.65781961090008e-05 4.37916661508035e-07
5.04116666666667e+01 1.47736421752989e-05 3.92894944037246e-07
5.10883333333333e+01 1.31655158180166e-05 3.52470095327918e-07
5.17650000000000e+01 1.17324356908549e-05 3.16176804909859e-07
5.24416666666667e+01 1.04553478316488e-05 2.83596339956621e-07
5.31183333333333e+01 9.31727231694997e-06 2.54351951282982e-07
5.37950000000000e+01 8.30307750825235e-06 2.28104723207077e-07
5.44716666666667e+01 7.39927886324150e-06 2.04549826778054e-07
5.51483333333333e+01 6.59385964273571e-06 1.83413136138405e-07
5.58250000000000e+01 5.87611114389328e-06 1.64448174787255e-07
5.65016666666667e+01 5.23649031840842e-06 1.47433361165215e-07
5.71783333333333e+01 4.66649288644368e-06 1.32169523450534e-07
5.78550000000000e+01 4.15854026908313e-06 1.18477658564471e-07
5.85316666666667e+01 3.70587882435565e-06 1.06196912447466e-07
5.92083333333333e+01 3.30249004969689e-06 9.51827591871375e-08
5.98850000000000e+01 2.94301056363742e-06 8.53053602993217e-08
6.05616666666667e+01 2.62266079487063e-06 7.64480870484944e-08
6.12383333333333e+01 2.33718143234118e-06 6.85061891876800e-08
6.19150000000000e+01 2.08277679600079e-06 6.13855962018251e-08
6.25916666666667e+01 1.85606436987270e-06 5.50018383445707e-08
6.32683333333333e+01 1.65402982763941e-06 4.92790751929962e-08
6.39450000000000e+01 1.47398695592778e-06 4.41492214066830e-08
6.46216666666667e+01 1.31354193872458e-06 3.95511602879004e-08
6.52983333333333e+01 1.17056152888424e-06 3.54300361050269e-08
6.59750000000000e+01 1.04314468569890e-06 3.17366175624996e-08
6.66516666666667e+01 9.29597298883996e-07 2.84267254836295e-08
6.73283333333333e+01 8.28409663481992e-07 2.54607180703465e-08
6.80050000000000e+01 7.38236407673574e-07 2.28030281321131e-08
6.86816666666667e+01 6.57878604874671e-07 2.04217471860027e-08
6.93583333333333e+01 5.86267832673896e-07 1.82882515673130e-08
7.00350000000000e+01 5.22451967676597e-07 1.63768664330616e-08
7.07116666666667e+01 4.65582526187921e-07 1.46645639194545e-08
7.13883333333333e+01 4.14903382685669e-07 1.31306919006041e-08
7.20650000000000e+01 3.69740716783825e-07 1.17567303320943e-08
7.27416666666667e+01 3.29494054199919e-07 1.05260724433300e-08
7.34183333333333e+01 2.93628282791658e-07 9.42382818680374e-09
7.40950000000000e+01 2.61666537989649e-07 8.43664773919446e-09
7.47716666666667e+01 2.33183862465848e-07 7.55256305603849e-09
7.54483333333333e+01 2.07801555863675e-07 6.76084559226810e-09
7.61250000000000e+01 1.85182139795329e-07 6.05187857961686e-09
7.68016666666667e+01 1.65024870772033e-07 5.41704240404141e-09
7.74783333333333e+01 1.47061741494452e-07 4.84861171038597e-09
7.81550000000000e+01 1.31053917564854e-07 4.33966306218436e-09
7.88316666666667e+01 1.16788561975709e-07 3.88399209614553e-09
7.95083333333333e+01 1.04076005213216e-07 3.47603917437528e-09
8.01850000000000e+01 9.27472235069650e-08 3.11082268176932e-09
8.08616666666667e+01 8.26515915119029e-08 2.78387919776334e-09
8.15383333333333e+01 7.36548795836924e-08 2.49120981932292e-09
8.22150000000000e+01 6.56374691278799e-08 2.22923201587405e-09
8.28916666666667e+01 5.84927621668264e-08 1.99473645661435e-09
8.35683333333333e+01 5.21257640065493e-08 1.78484828629558e-09
8.42450000000000e+01 4.64518202336248e-08 1.59699240017447e-09
8.49216666666667e+01 4.13954911613814e-08 1.42886231240600e-09
8.55983333333333e+01 3.68895487797142e-08 1.27839223868962e-09
8.62750000000000e+01 3.28740829237800e-08 1.14373206756356e-09
8.69516666666667e+01 2.92957047165046e-08 1.02322492647992e-09
8.76283333333333e+01 2.61068367074675e-08 9.15387068473698e-10
8.83050000000000e+01 2.32650803056642e-08 8.18889843706395e-10
8.89816666666667e+01 2.07326520535969e-08 7.32543543245661e-10
8.96583333333333e+01 1.84758812567857e-08 6.55282916992895e-10
9.03350000000000e+01 1.64647623139463e-08 5.86154195272291e-10
9.10116666666667e+01 1.46725557666263e-08 5.24303460358920e-10
9.16883333333333e+01 1.30754327703446e-08 4.68966224950429e-10
9.23650000000000e+01 1.16521582772592e-08 4.19458094383851e-10
9.30416666666667e+01 1.03838086979044e-08 3.75166401560277e-10
9.37183333333333e+01 9.25352029251737e-09 3.35542711429057e-10
9.43950000000000e+01 8.24626495842541e-09 3.00096106076391e-10
9.50716666666667e+01 7.34865041848613e-09 2.68387170275826e-10
9.57483333333333e+01 6.54874215698918e-09 2.40022603147033e-10
9.64250000000000e+01 5.83590474369608e-09 2.14650391741065e-10
9.71016666666667e+01 5.20066042665216e-09 1.91955488750005e-10
9.77783333333333e+01 4.63456311576983e-09 1.71655940778253e-10
9.84550000000000e+01 4.13008608736208e-09 1.53499420900022e-10
9.91316666666667e+01 3.68052190988810e-09 1.37260123841724e-10
9.98083333333333e+01 3.27989326181226e-09 1.22735985298688e-10
1.00485000000000e+02 2.92287345874546e-09 1.09746191541836e-10
1.01161666666667e+02 2.60471563566564e-09 9.81289507155448e-11
1.01838333333333e+02 2.32118962242953e-09 8.77394962669683e-11
1.02515000000000e+02 2.06852571062574e-09 7.84482987380786e-11
1.03191666666667e+02 1.84336453057252e-09 7.01394669730398e-11
1.03868333333333e+02 1.64271237909092e-09 6.27093148586691e-11
1.04545000000000e+02 1.46390142300448e-09 5.60650783050187e-11
1.05221666666667e+02 1.30455422697430e-09 5.01237681554178e-11
1.05898333333333e+02 1.16255213893070e-09 4.48111420199411e-11
1.06575000000000e+02 1.03600712588009e-09 4.00607839949370e-11
1.07251666666667e+02 9.23236670170887e-10 3.58132819549865e-11
1.07928333333333e+02 8.22741395837404e-10 3.20154902459076e-11
1.08605000000000e+02 7.33185136654516e-10 2.86198698182494e-11
1.09281666666667e+02 6.53377170165882e-10 2.55838983727549e-11
1.09958333333333e+02 5.82256383827422e-10 2.28695418089086e-11
1.10635000000000e+02 5.18877169068138e-10 2.04427812387906e-11
1.11311666666667e+02 4.62396848269733e-10 1.82731902187600e-11
1.11988333333333e+02 4.12064469131019e-10 1.63335559691443e-11
1.12665000000000e+02 3.67210821824147e-10 1.45995404487591e-11
1.13341666666667e+02 3.27239541038050e-10 1.30493774368651e-11
1.14018333333333e+02 2.91619175738549e-10 1.16636011671910e-11
1.14695000000000e+02 2.59876124260640e-10 1.04248035383766e-11
1.15371666666667e+02 2.31588337203254e-10 9.31741713410826e-12
1.16048333333333e+02 2.06379705189787e-10 8.32752086732807e-12
1.16725000000000e+02 1.83915058998646e-10 7.44266610736525e-12
1.17401666666667e+02 1.63895713086644e-10 6.65172130131554e-12
1.18078333333333e+02 1.46055493800645e-10 5.94473281243461e-12
1.18755000000000e+02 1.30157200946056e-10 5.31280043562472e-12
1.19431666666667e+02 1.15989453927502e-10 4.74796616122884e-12
1.20108333333333e+02 1.03363880909397e-10 4.24311455959429e-12
1.20785000000000e+02 9.21126146512893e-11 3.79188367941327e-12
1.21461666666667e+02 8.20860605139198e-11 3.38858543374345e-12
1.22138333333333e+02 7.31509072245965e-11 3.02813431074113e-12
1.22815000000000e+02 6.51883546682384e-11 2.70598361368429e-12
1.23491666666667e+02 5.80925342997774e-11 2.41806849367716e-12
1.24168333333333e+02 5.17691013602010e-11 2.16075494418973e-12
1.24845000000000e+02 4.61339806761467e-11 1.93079418612726e-12
1.25521666666667e+02 4.11122487818624e-11 1.72528191483668e-12
1.26198333333333e+02 3.66371376285815e-11 1.54162181558684e-12
1.26875000000000e+02 3.26491469812169e-11 1.37749293735128e-12
1.27551666666667e+02 2.90952532933040e-11 1.23082054570954e-12
1.28228333333333e+02 2.59282046307204e-11 1.09975003103855e-12
1.28905000000000e+02 2.31058925108588e-11 9.82623577621287e-13
1.29581666666667e+02 2.05907920214544e-11 8.77959321759226e-13
1.30258333333333e+02 1.83494628370788e-11 7.84432696258237e-13
1.30935000000000e+02 1.63521046669454e-11 7.00859750097666e-13
1.31611666666667e+02 1.45721610256068e-11 6.26182248356273e-13
1.32288333333333e+02 1.29859661015804e-11 5.59454336340344e-13
1.32965000000000e+02 1.15724301458198e-11 4.99830616452695e-13
1.33641666666667e+02 1.03127590592428e-11 4.46555498109321e-13
1.34318333333333e+02 9.19020448111720e-12 3.98953666481492e-13
1.34995000000000e+02 8.18984113712201e-12 3.56421561473931e-13
1.35671666666667e+02 7.29836839073610e-12 3.18419766857912e-13
1.36348333333333e+02 6.50393338039570e-12 2.84466199490529e-13
1.37025000000000e+02 5.79597344776570e-12 2.54130020791744e-13
1.37701666666667e+02 5.16507569515667e-12 2.27026198797816e-13
1.38378333333333e+02 4.60285181940670e-12 2.02810642246217e-13
1.39055000000000e+02 4.10182659770240e-12 1.81175850927322e-13
1.39731666666667e+02 3.65533849600735e-12 1.61847030976120e-13
1.40408333333333e+02 3.25745108879463e-12 1.44578619062378e-13
1.41085000000000e+02 2.90287413999531e-12 1.29151175534649e-13
1.41761666666667e+02 2.58689326333081e-12 1.15368609775654e-13
1.42438333333333e+02 2.30530723390918e-12 1.03055697788919e-13
1.43115000000000e+02 2.05437213688494e-12 9.20558634119205e-14
1.43791666666667e+02 1.83075158789713e-12 8.22291968599327e-14
1.44468333333333e+02 1.63147236837899e-12 7.34506820825238e-14
1.45145000000000e+02 1.45388489933495e-12 6.56086124538192e-14
1.45821666666667e+02 1.29562801221751e-12 5.86031759816886e-14
1.46498333333333e+02 1.15459755195877e-12 5.23451896963025e-14
1.47175000000000e+02 1.02891840410146e-12 4.67549685603832e-14
1.47851666666667e+02 9.16919563058247e-13 4.17613154420266e-14
1.48528333333333e+02 8.17111912421687e-13 3.73006176453869e-14
1.49205000000000e+02 7.28168428451899e-13 3.33160395105439e-14
1.49881666666667e+02 6.48906535819675e-13 2.97568014567350e-14
1.50558333333333e+02 5.78272382691942e-13 2.65775351264616e-14
1.51235000000000e+02 5.15326830660729e-13 2.37377071267461e-14
1.51911666666667e+02 4.59232967857154e-13 2.12011044847013e-14
1.52588333333333e+02 4.09244980400761e-13 1.89353744436193e-14
1.53265000000000e+02 3.64698237416606e-13 1.69116132325064e-14
1.53941666666667e+02 3.25000454033817e-13 1.51039988885601e-14
1.54618333333333e+02 2.89623815689730e-13 1.34894628759459e-14
1.55295000000000e+02 2.58097961257411e-13 1.20473966628638e-14
1.55971666666667e+02 2.30003729076895e-13 1.07593897399445e-14
1.56648333333333e+02 2.04967583310470e-13 9.60899533301769e-15
1.57325000000000e+02 1.82656648074598e-13 8.58152106623844e-15
1.58001666666667e+02 1.62774281490008e-13 7.66384206227315e-15
1.58678333333333e+02 1.45056131202773e-13 6.84423380897842e-15
1.59355000000000e+02 1.29266620020188e-13 6.11222283110252e-15
1.60031666666667e+02 1.15195813654535e-13 5.45845337127592e-15
1.60708333333333e+02 1.02656629207780e-13 4.87456817709152e-15
1.61385000000000e+02 9.14823480425368e-14 4.35310199244643e-15
1.62061666666667e+02 8.15243990761888e-14 3.88738647032881e-15
1.62738333333333e+02 7.26503832200838e-14 3.47146515085547e-15
1.63415000000000e+02 6.47423132288034e-14 3.10001750288031e-15
1.64091666666667e+02 5.76950449316300e-14 2.76829111292289e-15
1.64768333333333e+02 5.14148791242930e-14 2.47204105510418e-15
1.65445000000000e+02 4.58183159036044e-14 2.20747572646207e-15
1.66121666666667e+02 4.08309444458724e-14 1.97120849332135e-15
1.66798333333333e+02 3.63864535629186e-14 1.76021446026693e-15
1.67475000000000e+02 3.24257501399948e-14 1.57179185054310e-15
1.68151666666667e+02 2.88961734290639e-14 1.40352753067651e-15
1.68828333333333e+02 2.57507948173108e-14 1.25326618887900e-15
1.69505000000000e+02 2.29477939423490e-14 1.11908280215302e-15
1.70181666666667e+02 2.04499026455165e-14 9.99258058557468e-16
1.70858333333333e+02 1.82239094166364e-14 8.92256385278945e-16
1.71535000000000e+02 1.62402178684212e-14 7.96706321815360e-16
1.72211666666667e+02 1.44724532207611e-14 7.11383000186214e-16
1.72888333333333e+02 1.28971115952712e-14 6.35192483337155e-16
1.73565000000000e+02 1.14932475459899e-14 5.67157775612223e-16
1.74241666666667e+02 1.02421955672757e-14 5.06406335370199e-16
1.74918333333333e+02 9.12732189883702e-15 4.52158912525715e-16
1.75595000000000e+02 8.13380339005530e-15 4.03719578146419e-16
1.76271666666667e+02 7.24843041039112e-15 3.60466824846947e-16
1.76948333333333e+02 6.45943120128844e-15 3.21845611773758e-16
1.77625000000000e+02 5.75631537764606e-15 2.87360259344457e-16
1.78301666666667e+02 5.12973444699220e-15 2.56568107221220e-16
1.78978333333333e+02 4.57135750296009e-15 2.29073845648459e-16
1.79655000000000e+02 4.07376047070876e-15 2.04524452473686e-16
1.80331666666667e+02 3.63032739597478e-15 1.82604674125836e-16
1.81008333333333e+02 3.23516247308310e-15 1.63032986560689e-16
1.81685000000000e+02 2.88301166352972e-15 1.45557987878502e-16
1.82361666666667e+02 2.56919283798272e-15 1.29955178582726e-16
1.83038333333333e+02 2.28953351831888e-15 1.16024083919941e-16
1.83715000000000e+02 2.04031540681189e-15 1.03585683843897e-16
1.84391666666667e+02 1.81822494744158e-15 9.24801191985337e-17
1.85068333333333e+02 1.62030926580027e-15 8.25646416846246e-17
1.85745000000000e+02 1.44393691220008e-15 7.37117830289196e-17
1.86421666666667e+02 1.28676287378056e-15 6.58077209587667e-17
1.87098333333333e+02 1.14669739308558e-15 5.87508188922135e-17
1.87775000000000e+02 1.02187818582018e-15 5.24503218099806e-17
1.88451666666667e+02 9.10645679826300e-16 4.68251923383526e-17
1.89128333333333e+02 8.11520947922176e-16 4.18030706068999e-17
1.89805000000000e+02 7.23186046310058e-16 3.73193453758615e-17
1.90481666666667e+02 6.44466491133593e-16 3.33163250458231e-17
1.91158333333333e+02 5.74315641500183e-16 2.97424968508339e-17
1.91835000000000e+02 5.11800784902558e-16 2.65518653171590e-17
1.92511666666667e+02 4.56090735831838e-16 2.37033618692982e-17
1.93188333333333e+02 4.06444783608236e-16 2.11603172568241e-17
1.93865000000000e+02 3.62202844984883e-16 1.88899904432095e-17
1.94541666666667e+02 3.22776687653283e-16 1.68631481694316e-17
1.95218333333333e+02 2.87642108598742e-16 1.50536892665491e-17
1.95895000000000e+02 2.56331965063555e-16 1.34383091835819e-17
1.96571666666667e+02 2.28429963398428e-16 1.19962006056796e-17
1.97248333333333e+02 2.03565123667286e-16 1.07087859455405e-17
1.97925000000000e+02 1.81406847635572e-16 9.55947847604190e-18
1.98601666666667e+02 1.61660523123837e-16 8.53346916414145e-18
1.99278333333333e+02 1.44063606596228e-16 7.61753620522379e-18
1.99955000000000e+02 1.28382132758651e-16 6.79987495401836e-18
2.00631666666667e+02 1.14407603748069e-16 6.06994615696440e-18
2.01308333333333e+02 1.01954216771607e-16 5.41834035077732e-18
2.01985000000000e+02 9.08563939370712e-17 4.83665678512589e-18
2.02661666666667e+02 8.09665807239103e-17 4.56589668053552e-18
