Energy (eV)          EEDF (eV^-(3/2))     First Anisotropy
1.72340425531915e-02 1.10996813954002e-01 6.07008249562601e-05
5.17021276595745e-02 1.10182525023163e-01 1.00203512732141e-04
8.61702127659575e-02 1.09374209835956e-01 1.32198416875321e-04
1.20638297872340e-01 1.08571824569652e-01 1.56455604259259e-04
1.55106382978723e-01 1.07775325719643e-01 1.76645400696105e-04
1.89574468085106e-01 1.06984670097641e-01 1.94156440087611e-04
2.24042553191489e-01 1.06199814842380e-01 2.09707799405562e-04
2.58510638297872e-01 1.05420717401201e-01 2.23733977989377e-04
2.92978723404255e-01 1.04647335533748e-01 2.36523319590281e-04
3.27446808510638e-01 1.03879627309617e-01 2.48279743271515e-04
3.61914893617021e-01 1.03117551106027e-01 2.59154291523295e-04
3.96382978723404e-01 1.02361065605586e-01 2.69262860612018e-04
4.30851063829787e-01 1.01610129794044e-01 2.78696892941376e-04
4.65319148936170e-01 1.00864702958043e-01 2.87530186854788e-04
4.99787234042553e-01 1.00124744682909e-01 2.95823427272085e-04
5.34255319148936e-01 9.93902148490615e-02 3.03627309058703e-04
5.68723404255319e-01 9.86610736341531e-02 3.10984756499892e-04
6.03191489361702e-01 9.79372815064582e-02 3.17932540597657e-04
6.37659574468085e-01 9.72187992242660e-02 3.24502482845417e-04
6.72127659574468e-01 9.65055878337509e-02 3.30722369366132e-04
7.06595744680851e-01 9.57976086668562e-02 3.36616656271419e-04
7.41063829787234e-01 9.50948233392099e-02 3.42207022112909e-04
7.75531914893617e-01 9.43971937480350e-02 3.47512806308852e-04
8.10000000000000e-01 9.37046820700830e-02 3.52551361321307e-04
8.44468085106383e-01 9.30172507587620e-02 3.57338338102830e-04
8.78936170212766e-01 9.23348625446150e-02 3.61887920518377e-04
9.13404255319149e-01 9.16574804307308e-02 3.66213019211670e-04
9.47872340425532e-01 9.09850676916142e-02 3.70325432701420e-04
9.82340425531915e-01 9.03175878711945e-02 3.74235983057218e-04
1.01680851063830e+00 8.96550047808460e-02 3.77954630268522e-04
1.05127659574468e+00 8.89972824992761e-02 3.81490571027601e-04
1.08574468085106e+00 8.83443853619511e-02 3.84852319953646e-04
1.12021276595745e+00 8.76962779769156e-02 3.88047783529033e-04
1.15468085106383e+00 8.70529252000594e-02 3.91084321457404e-04
1.18914893617021e+00 8.64142921564347e-02 3.93968800703434e-04
1.22361702127660e+00 8.57803442160298e-02 3.96707642907298e-04
1.25808510638298e+00 8.51510470133942e-02 3.99306865587083e-04
1.29255319148936e+00 8.45263664250555e-02 4.01772118779788e-04
1.32702127659574e+00 8.39062685876524e-02 4.04108717071871e-04
1.36148936170213e+00 8.32907198768106e-02 4.06321668346613e-04
1.39595744680851e+00 8.26796869239510e-02 4.08415699037690e-04
1.43042553191489e+00 8.20731365964708e-02 4.10395276991232e-04
1.46489361702128e+00 8.14710360133683e-02 4.12264631629130e-04
1.49936170212766e+00 8.08733525265975e-02 4.14027772353778e-04
1.53382978723404e+00 8.02800537356300e-02 4.15688504831146e-04
1.56829787234043e+00 7.96911074698710e-02 4.17250445971903e-04
1.60276595744681e+00 7.91064818022623e-02 4.18717037216865e-04
1.63723404255319e+00 7.85261450326614e-02 4.20091557476397e-04
1.67170212765957e+00 7.79500656971265e-02 4.21377131580403e-04
1.70617021276596e+00 7.73782125659968e-02 4.22576744211834e-04
1.74063829787234e+00 7.68105546318091e-02 4.23693246621056e-04
1.77510638297872e+00 7.62470611212880e-02 4.24729365586384e-04
1.80957446808511e+00 7.56877014803905e-02 4.25687711268320e-04
1.84404255319149e+00 7.51324453855685e-02 4.26570784184050e-04
1.87851063829787e+00 7.45812627295579e-02 4.27380981856231e-04
1.91297872340426e+00 7.40341236319755e-02 4.28120604713597e-04
1.94744680851064e+00 7.34909984257938e-02 4.28791861758296e-04
1.98191489361702e+00 7.29518576673264e-02 4.29396875589931e-04
2.01638297872340e+00 7.24166721233371e-02 4.29937687267710e-04
2.05085106382979e+00 7.18854127804616e-02 4.30416260613403e-04
2.08531914893617e+00 7.13580508329047e-02 4.30834486407651e-04
2.11978723404255e+00 7.08345576913420e-02 4.31194186095763e-04
2.15425531914894e+00 7.03149049711629e-02 4.31497115429766e-04
2.18872340425532e+00 6.97990645008914e-02 4.31744967676208e-04
2.22319148936170e+00 6.92870083109374e-02 4.31939376793703e-04
2.25765957446809e+00 6.87787086415717e-02 4.32081920223021e-04
2.29212765957447e+00 6.82741379321515e-02 4.32174121673003e-04
2.32659574468085e+00 6.77732688286809e-02 4.32217453558192e-04
2.36106382978723e+00 6.72760741734806e-02 4.32213339452759e-04
2.39553191489362e+00 6.67825270123623e-02 4.32163156229021e-04
2.43000000000000e+00 6.62926005847146e-02 4.32068236228406e-04
2.46446808510638e+00 6.58062683303169e-02 4.31929869144960e-04
2.49893617021277e+00 6.53235038798162e-02 4.31749303953823e-04
2.53340425531915e+00 6.48442810612050e-02 4.31527750576259e-04
2.56787234042553e+00 6.43685738906651e-02 4.31266381599461e-04
2.60234042553191e+00 6.38963565787308e-02 4.30966333753523e-04
2.63680851063830e+00 6.34276035214791e-02 4.30628709450741e-04
2.67127659574468e+00 6.29622893063975e-02 4.30254578100128e-04
2.70574468085106e+00 6.25003887039010e-02 4.29844977489876e-04
2.74021276595745e+00 6.20418766729233e-02 4.29400914960868e-04
2.77468085106383e+00 6.15867283527422e-02 4.28923368652558e-04
2.80914893617021e+00 6.11349190683103e-02 4.28413288553623e-04
2.84361702127660e+00 6.06864243223732e-02 4.27871597628127e-04
2.87808510638298e+00 6.02412198005546e-02 4.27299192758762e-04
2.91255319148936e+00 5.97992813637518e-02 4.26696945767946e-04
2.94702127659574e+00 5.93605850529898e-02 4.26065704266923e-04
2.98148936170213e+00 5.89251070820795e-02 4.25406292584141e-04
3.01595744680851e+00 5.84928238422540e-02 4.24719512531439e-04
3.05042553191489e+00 5.80637118950764e-02 4.24006144250399e-04
3.08489361702128e+00 5.76377479768709e-02 4.23266946905362e-04
3.11936170212766e+00 5.72149089918669e-02 4.22502659457095e-04
3.15382978723404e+00 5.67951720164368e-02 4.21714001290988e-04
3.18829787234043e+00 5.63785142924656e-02 4.20901672925891e-04
3.22276595744681e+00 5.59649132314043e-02 4.20066356584817e-04
3.25723404255319e+00 5.55543464078558e-02 4.19208717158632e-04
3.29170212765957e+00 5.51467915622202e-02 4.18329401472617e-04
3.32617021276596e+00 5.47422265994274e-02 4.17429040755853e-04
3.36063829787234e+00 5.43406295840368e-02 4.16508249908134e-04
3.39510638297872e+00 5.39419787439483e-02 4.15567628279512e-04
3.42957446808511e+00 5.35462524644094e-02 4.14607760202801e-04
3.46404255319149e+00 5.31534292915701e-02 4.13629215406464e-04
3.49851063829787e+00 5.27634879266769e-02 4.12632549507337e-04
3.53297872340426e+00 5.23764072294789e-02 4.11618304388804e-04
3.56744680851064e+00 5.19921662126008e-02 4.10587008657665e-04
3.60191489361702e+00 5.16107440448076e-02 4.09539177990963e-04
3.63638297872340e+00 5.12321200455491e-02 4.08475315560318e-04
3.67085106382979e+00 5.08562736880902e-02 4.07395912350691e-04
3.70531914893617e+00 5.04831845942194e-02 4.06301447555184e-04
3.73978723404255e+00 5.01128325372511e-02 4.05192388868258e-04
3.77425531914894e+00 4.97451974368916e-02 4.04069192853751e-04
3.80872340425532e+00 4.93802593621199e-02 4.02932305215085e-04
3.84319148936170e+00 4.90179985262038e-02 4.01782161138789e-04
3.87765957446809e+00 4.86583952894657e-02 4.00619185543819e-04
3.91212765957447e+00 4.83014301544426e-02 3.99443793402705e-04
3.94659574468085e+00 4.79470837685420e-02 3.98256389971906e-04
3.98106382978723e+00 4.75953369193409e-02 3.97057371092543e-04
4.01553191489362e+00 4.72461705371358e-02 3.95847123403444e-04
4.05000000000000e+00 4.68995656903758e-02 3.94626024623144e-04
4.08446808510638e+00 4.65555035881121e-02 3.93394443747151e-04
4.11893617021277e+00 4.62139655755593e-02 3.92152741312804e-04
4.15340425531915e+00 4.58749331364489e-02 3.90901269582155e-04
4.18787234042553e+00 4.55383878887143e-02 3.89640372790889e-04
4.22234042553192e+00 4.52043115867528e-02 3.88370387318121e-04
4.25680851063830e+00 4.48726861172291e-02 3.87091641920801e-04
4.29127659574468e+00 4.45434935012500e-02 3.85804457891331e-04
4.32574468085106e+00 4.42167158902826e-02 3.84509149278540e-04
4.36021276595745e+00 4.38923355682452e-02 3.83206023034311e-04
4.39468085106383e+00 4.35703349475354e-02 3.81895379222099e-04
4.42914893617021e+00 4.32506965710416e-02 3.80577511153332e-04
4.46361702127660e+00 4.29334031082771e-02 3.79252705584456e-04
4.49808510638298e+00 4.26184373573152e-02 3.77921242844028e-04
4.53255319148936e+00 4.23057822410258e-02 3.76583397019048e-04
4.56702127659574e+00 4.19954208089370e-02 3.75239436073443e-04
4.60148936170213e+00 4.16873362335711e-02 3.73889622024477e-04
4.63595744680851e+00 4.13815118122358e-02 3.72534211053300e-04
4.67042553191489e+00 4.10779309634556e-02 3.71173453672186e-04
4.70489361702128e+00 4.07765772286963e-02 3.69807594827767e-04
4.73936170212766e+00 4.04774342688879e-02 3.68436874059559e-04
4.77382978723404e+00 4.01804858660853e-02 3.67061525596546e-04
4.80829787234043e+00 3.98857159200803e-02 3.65681778507747e-04
4.84276595744681e+00 3.95931084500002e-02 3.64297856792401e-04
4.87723404255319e+00 3.93026475910061e-02 3.62909979704048e-04
4.91170212765957e+00 3.90143175952491e-02 3.61518361109900e-04
4.94617021276596e+00 3.87281028309900e-02 3.60123210709863e-04
4.98063829787234e+00 3.84439877800015e-02 3.58724733414614e-04
5.01510638297872e+00 3.81619570390482e-02 3.57323129610797e-04
5.04957446808511e+00 3.78819953167637e-02 3.55918595287979e-04
5.08404255319149e+00 3.76040874350765e-02 3.54511322109899e-04
5.11851063829787e+00 3.73282183261646e-02 3.53101497535446e-04
5.15297872340426e+00 3.70543730338291e-02 3.51689304885510e-04
5.18744680851064e+00 3.67825367105239e-02 3.50274923458320e-04
5.22191489361702e+00 3.65126946186796e-02 3.48858528592193e-04
5.25638297872340e+00 3.62448321278058e-02 3.47440291775632e-04
5.29085106382979e+00 3.59789347157671e-02 3.46020380706194e-04
5.32531914893617e+00 3.57149879659553e-02 3.44598959395730e-04
5.35978723404255e+00 3.54529775685195e-02 3.43176188225557e-04
5.39425531914894e+00 3.51928893176073e-02 3.41752224047073e-04
5.42872340425532e+00 3.49347091125493e-02 3.40327220233635e-04
5.46319148936170e+00 3.46784229551673e-02 3.38901326776790e-04
5.49765957446809e+00 3.44240169509161e-02 3.37474690335022e-04
5.53212765957447e+00 3.41714773062557e-02 3.36047454325808e-04
5.56659574468085e+00 3.39207903297519e-02 3.34619758971486e-04
5.60106382978723e+00 3.36719424295109e-02 3.33191741387431e-04
5.63553191489362e+00 3.34249201142409e-02 3.31763535625144e-04
5.67000000000000e+00 3.31797099907464e-02 3.30335272756802e-04
5.70446808510638e+00 3.29362987649522e-02 3.28907080915767e-04
5.73893617021277e+00 3.26946732394562e-02 3.27479085377656e-04
5.77340425531915e+00 3.24548203145172e-02 3.26051408598436e-04
5.80787234042553e+00 3.22167269856641e-02 3.24624170292220e-04
5.84234042553192e+00 3.19803803446488e-02 3.23197487467138e-04
5.87680851063830e+00 3.17457675771109e-02 3.21771474500017e-04
5.91127659574468e+00 3.15128759634961e-02 3.20346243170140e-04
5.94574468085106e+00 3.12816928767752e-02 3.18921902730897e-04
5.98021276595745e+00 3.10522057833299e-02 3.17498559941655e-04
6.01468085106383e+00 3.08244022407234e-02 3.16076319136639e-04
6.04914893617021e+00 3.05982698985551e-02 3.14655282254826e-04
6.08361702127660e+00 3.03737964962823e-02 3.13235548906246e-04
6.11808510638298e+00 3.01509698640441e-02 3.11817216400173e-04
6.15255319148936e+00 2.99297779205324e-02 3.10400379808815e-04
6.18702127659575e+00 2.97102086737870e-02 3.08985131993886e-04
6.22148936170213e+00 2.94922502191141e-02 3.07571563667933e-04
6.25595744680851e+00 2.92758907398536e-02 3.06159763419329e-04
6.29042553191489e+00 2.90611185053444e-02 3.04749817771315e-04
6.32489361702128e+00 2.88479218716638e-02 3.03341811205575e-04
6.35936170212766e+00 2.86362892796389e-02 3.01935826219065e-04
6.39382978723404e+00 2.84262092555599e-02 3.00531943346264e-04
6.42829787234043e+00 2.82176704092348e-02 2.99130241213902e-04
6.46276595744681e+00 2.80106614346784e-02 2.97730796561897e-04
6.49723404255319e+00 2.78051711082095e-02 2.96333684407124e-04
6.53170212765957e+00 2.76011882888055e-02 2.94938977618495e-04
6.56617021276596e+00 2.73987019174843e-02 2.93546747632088e-04
6.60063829787234e+00 2.71977010157756e-02 2.92157064039155e-04
6.63510638297872e+00 2.69981746863594e-02 2.90769994719694e-04
6.66957446808511e+00 2.68001121112572e-02 2.89385605890820e-04
6.70404255319149e+00 2.66035025524480e-02 2.88003962123672e-04
6.73851063829787e+00 2.64083353500987e-02 2.86625126390071e-04
6.77297872340426e+00 2.62145999231588e-02 2.85249160078369e-04
6.80744680851064e+00 2.60222857676287e-02 2.83876123038555e-04
6.84191489361702e+00 2.58313824571338e-02 2.82506073597171e-04
6.87638297872340e+00 2.56418796412298e-02 2.81139068600871e-04
6.91085106382979e+00 2.54537670459569e-02 2.79775163430462e-04
6.94531914893617e+00 2.52670344721815e-02 2.78414412042972e-04
6.97978723404255e+00 2.50816717961305e-02 2.77056866984883e-04
7.01425531914894e+00 2.48976689677687e-02 2.75702579432781e-04
7.04872340425532e+00 2.47150160113147e-02 2.74351599205807e-04
7.08319148936170e+00 2.45337030236520e-02 2.73003974804973e-04
7.11765957446809e+00 2.43537201748274e-02 2.71659753424842e-04
7.15212765957447e+00 2.41750577064953e-02 2.70318980991550e-04
7.18659574468085e+00 2.39977059323989e-02 2.68981702173774e-04
7.22106382978723e+00 2.38216552368473e-02 2.67647960419558e-04
7.25553191489362e+00 2.36468960751795e-02 2.66317797966638e-04
7.29000000000000e+00 2.34734189722738e-02 2.64991255877967e-04
7.32446808510638e+00 2.33012145229952e-02 2.63668374051477e-04
7.35893617021277e+00 2.31302733907362e-02 2.62349191254517e-04
7.39340425531915e+00 2.29605863078482e-02 2.61033745132923e-04
7.42787234042553e+00 2.27921440742128e-02 2.59722072244371e-04
7.46234042553192e+00 2.26249375576582e-02 2.58414208066967e-04
7.49680851063830e+00 2.24589576925598e-02 2.57110187031464e-04
7.53127659574468e+00 2.22941954802422e-02 2.55810042529339e-04
7.56574468085106e+00 2.21306419876086e-02 2.54513806944025e-04
7.60021276595745e+00 2.19682883475281e-02 2.53221511658433e-04
7.63468085106383e+00 2.18071257574943e-02 2.51933187085238e-04
7.66914893617021e+00 2.16471454799985e-02 2.50648862673950e-04
7.70361702127660e+00 2.14883388412153e-02 2.49368566940210e-04
7.73808510638298e+00 2.13306972313630e-02 2.48092327472415e-04
7.77255319148936e+00 2.11742121034163e-02 2.46820170960144e-04
7.80702127659575e+00 2.10188749734536e-02 2.45552123200349e-04
7.84148936170213e+00 2.08646774193958e-02 2.44288209124917e-04
7.87595744680851e+00 2.07116110813415e-02 2.43028452806381e-04
7.91042553191489e+00 2.05596676603314e-02 2.41772877484693e-04
7.94489361702128e+00 2.04088389186713e-02 2.40521505572629e-04
7.97936170212766e+00 2.02591166787217e-02 2.39274358681646e-04
8.01382978723404e+00 2.01104928232094e-02 2.38031457626933e-04
8.04829787234043e+00 1.99629592940410e-02 2.36792822452546e-04
8.08276595744681e+00 1.98165080926039e-02 2.35558472436080e-04
8.11723404255319e+00 1.96711312786034e-02 2.34328426183293e-04
8.15170212765958e+00 1.95268209701769e-02 2.33102701350959e-04
8.18617021276596e+00 1.93835693434592e-02 2.31881315091162e-04
8.22063829787234e+00 1.92413686316315e-02 2.30664283782364e-04
8.25510638297872e+00 1.91002111251999e-02 2.29451623106435e-04
8.28957446808511e+00 1.89600891708862e-02 2.28243348071316e-04
8.32404255319149e+00 1.88209951718961e-02 2.27039473014582e-04
8.35851063829787e+00 1.86829215868320e-02 2.25840011625475e-04
8.39297872340426e+00 1.85458609299519e-02 2.24644976948125e-04
8.42744680851064e+00 1.84098057701033e-02 2.23454381402980e-04
8.46191489361702e+00 1.82747487309727e-02 2.22268236789776e-04
8.49638297872341e+00 1.81406824900414e-02 2.21086554308320e-04
8.53085106382979e+00 1.80075997788249e-02 2.19909344561237e-04
8.56531914893617e+00 1.78754933818497e-02 2.18736617574159e-04
8.59978723404255e+00 1.77443561368845e-02 2.17568382798230e-04
8.63425531914894e+00 1.76141809339361e-02 2.16404649129721e-04
8.66872340425532e+00 1.74849607154728e-02 2.15245424912320e-04
8.70319148936170e+00 1.73566884754399e-02 2.14090717956168e-04
8.73765957446809e+00 1.72293572594749e-02 2.12940535539967e-04
8.77212765957447e+00 1.71029601639421e-02 2.11794884429466e-04
8.80659574468085e+00 1.69774903361401e-02 2.10653770879342e-04
8.84106382978723e+00 1.68529409733549e-02 2.09517200651233e-04
8.87553191489362e+00 1.67293053230599e-02 2.08385179015396e-04
8.91000000000000e+00 1.66065766819876e-02 2.07257710768185e-04
8.94446808510638e+00 1.64847483963220e-02 2.06134800233589e-04
8.97893617021277e+00 1.63638138607883e-02 2.05016451280226e-04
9.01340425531915e+00 1.62437665188378e-02 2.03902667322679e-04
9.04787234042553e+00 1.61245998617560e-02 2.02793451338037e-04
9.08234042553192e+00 1.60063074288400e-02 2.01688805867062e-04
9.11680851063830e+00 1.58888828065236e-02 2.00588733030283e-04
9.15127659574468e+00 1.57723196285485e-02 1.99493234529015e-04
9.18574468085106e+00 1.56566115751062e-02 1.98402311660985e-04
9.22021276595745e+00 1.55417523730023e-02 1.97315965321209e-04
9.25468085106383e+00 1.54277357948153e-02 1.96234196017202e-04
9.28914893617021e+00 1.53145556590544e-02 1.95157003869735e-04
9.32361702127660e+00 1.52022058293343e-02 1.94084388627614e-04
9.35808510638298e+00 1.50906802145274e-02 1.93016349668290e-04
9.39255319148936e+00 1.49799727679539e-02 1.91952886012243e-04
9.42702127659575e+00 1.48700774875281e-02 1.90893996323483e-04
9.46148936170213e+00 1.47609884149645e-02 1.89839678923556e-04
9.49595744680851e+00 1.46526996359180e-02 1.88789931791902e-04
9.53042553191489e+00 1.45452052792047e-02 1.87744752579460e-04
9.56489361702128e+00 1.44384995169374e-02 1.86704138608956e-04
9.59936170212766e+00 1.43325765637610e-02 1.85668086888169e-04
9.63382978723404e+00 1.42274306769822e-02 1.84636594110044e-04
9.66829787234043e+00 1.41230561558197e-02 1.83609656665627e-04
9.70276595744681e+00 1.40194473415289e-02 1.82587270644100e-04
9.73723404255319e+00 1.39165986166660e-02 1.81569431890721e-04
9.77170212765957e+00 1.38145044051042e-02 1.80556135824963e-04
9.80617021276596e+00 1.37131591717270e-02 1.79547377724467e-04
9.84063829787234e+00 1.36125574218175e-02 1.78543152548442e-04
9.87510638297872e+00 1.35126937011736e-02 1.77543454984732e-04
9.90957446808511e+00 1.34135625954034e-02 1.76548279461590e-04
9.94404255319149e+00 1.33151587300362e-02 1.75557620147391e-04
9.97851063829787e+00 1.32174767698312e-02 1.74571470962097e-04
1.00129787234043e+01 1.31205114188832e-02 1.73589825703789e-04
1.00474468085106e+01 1.30242574196594e-02 1.72612677760846e-04
1.00819148936170e+01 1.29287095537745e-02 1.71640019741690e-04
1.01163829787234e+01 1.28338626418651e-02 1.70671845121735e-04
1.01508510638298e+01 1.27397115406920e-02 1.69708147063860e-04
1.01853191489362e+01 1.26462511456887e-02 1.68748917662928e-04
1.02197872340426e+01 1.25534763897356e-02 1.67794149226343e-04
1.02542553191489e+01 1.24613822428866e-02 1.66843833851111e-04
1.02887234042553e+01 1.23699637120961e-02 1.65897963036456e-04
1.03231914893617e+01 1.22792158418210e-02 1.64956528872296e-04
1.03576595744681e+01 1.21891337111186e-02 1.64019523252203e-04
1.03921276595745e+01 1.20997124360284e-02 1.63086937075264e-04
1.04265957446809e+01 1.20109471684194e-02 1.62158761458459e-04
1.04610638297872e+01 1.19228330957264e-02 1.61234987335933e-04
1.04955319148936e+01 1.18353654406904e-02 1.60315605463193e-04
1.05300000000000e+01 1.17485394610992e-02 1.59400606053264e-04
1.05644680851064e+01 1.16623504503400e-02 1.58489979892200e-04
1.05989361702128e+01 1.15767937347005e-02 1.57583717599902e-04
1.06334042553191e+01 1.14918646755733e-02 1.56681808880405e-04
1.06678723404255e+01 1.14075586683805e-02 1.55784243660046e-04
1.07023404255319e+01 1.13238711423235e-02 1.54891011710897e-04
1.07368085106383e+01 1.12407975601365e-02 1.54002102654661e-04
1.07712765957447e+01 1.11583334178393e-02 1.53117505620641e-04
1.08057446808511e+01 1.10764742452459e-02 1.52237210293174e-04
1.08402127659574e+01 1.09952156034526e-02 1.51361206217211e-04
1.08746808510638e+01 1.09145530868795e-02 1.50489482094015e-04
