Energy (eV)          EEDF (eV^-(3/2))     First Anisotropy
1.89444444444444e-02 1.12732705817909e+00 1.37130876864068e-03
5.68333333333333e-02 1.08489547578214e+00 2.22929963031757e-03
9.47222222222222e-02 1.04406098020362e+00 2.85133018702341e-03
1.32611111111111e-01 1.00476345839360e+00 3.27150916783511e-03
1.70500000000000e-01 9.66945060180723e-01 3.58092404779716e-03
2.08388888888889e-01 9.30550112860366e-01 3.81575370185097e-03
2.46277777777778e-01 8.95525038784197e-01 3.99557122074275e-03
2.84166666666667e-01 8.61818277156411e-01 4.13268208316036e-03
3.22055555555556e-01 8.29380207880607e-01 4.23554966037221e-03
3.59944444444444e-01 7.98163078514769e-01 4.31035320768873e-03
3.97833333333333e-01 7.68120933973781e-01 4.36179988025694e-03
4.35722222222222e-01 7.39209548881943e-01 4.39359019058919e-03
4.73611111111111e-01 7.11386362466475e-01 4.40870436119836e-03
5.11500000000000e-01 6.84610415903578e-01 4.40958842217595e-03
5.49388888888889e-01 6.58842292069480e-01 4.39828059371368e-03
5.87277777777778e-01 6.34044057367454e-01 4.37650025114928e-03
6.25166666666667e-01 6.10179206038971e-01 4.34571247042697e-03
6.63055555555556e-01 5.87212606369405e-01 4.30717608008512e-03
7.00944444444444e-01 5.65110448970294e-01 4.26198021438992e-03
7.38833333333333e-01 5.43840197007950e-01 4.21107266172597e-03
7.76722222222222e-01 5.23370538306223e-01 4.15528221842723e-03
8.14611111111111e-01 5.03671339251176e-01 4.09533657674532e-03
8.52500000000000e-01 4.84713600431074e-01 4.03187682585448e-03
8.90388888888889e-01 4.66469413966144e-01 3.96546934941869e-03
9.28277777777778e-01 4.48911922362562e-01 3.89661568093957e-03
9.66166666666667e-01 4.32015279040171e-01 3.82576074749992e-03
1.00405555555556e+00 4.15754610260933e-01 3.75329982959291e-03
1.04194444444444e+00 4.00105978512022e-01 3.67958447368368e-03
1.07983333333333e+00 3.85046347253137e-01 3.60492755138497e-03
1.11772222222222e+00 3.70553547034759e-01 3.52960761822447e-03
1.15561111111111e+00 3.56606242845332e-01 3.45387269081304e-03
1.19350000000000e+00 3.43183902703813e-01 3.37794352666955e-03
1.23138888888889e+00 3.30266767536472e-01 3.30201651860952e-03
1.26927777777778e+00 3.17835821772660e-01 3.22626620794461e-03
1.30716666666667e+00 3.05872765679573e-01 3.15084749868797e-03
1.34505555555556e+00 2.94359988309805e-01 3.07589765105606e-03
1.38294444444444e+00 2.83280541576110e-01 3.00153802582813e-03
1.42083333333333e+00 2.72618115301628e-01 2.92787564466639e-03
1.45872222222222e+00 2.62357013210232e-01 2.85500458396387e-03
1.49661111111111e+00 2.52482129819480e-01 2.78300722315316e-03
1.53450000000000e+00 2.42978928203679e-01 2.71195536130740e-03
1.57238888888889e+00 2.33833418650315e-01 2.64191123695281e-03
1.61027777777778e+00 2.25032137891081e-01 2.57292842846635e-03
1.64816666666667e+00 2.16562129462776e-01 2.50505266566104e-03
1.68605555555556e+00 2.08410924571810e-01 2.43832258485779e-03
1.72394444444444e+00 2.00566523738762e-01 2.37277039625291e-03
1.76183333333333e+00 1.93017379133677e-01 2.30842249328194e-03
1.79972222222222e+00 1.85752377576707e-01 2.24530000598934e-03
1.83761111111111e+00 1.78760824178106e-01 2.18341930411087e-03
1.87550000000000e+00 1.72032426594162e-01 2.12279245236784e-03
1.91338888888889e+00 1.65557279908456e-01 2.06342763502148e-03
1.95127777777778e+00 1.59325851949535e-01 2.00532953077716e-03
1.98916666666667e+00 1.53328969362890e-01 1.94849965390047e-03
2.02705555555556e+00 1.47557804070837e-01 1.89293667911027e-03
2.06494444444444e+00 1.42003860276604e-01 1.83863672762667e-03
2.10283333333333e+00 1.36658961957507e-01 1.78559363114084e-03
2.14072222222222e+00 1.31515240829103e-01 1.73379917307361e-03
2.17861111111111e+00 1.26565124762108e-01 1.68324330913828e-03
2.21650000000000e+00 1.21801326635392e-01 1.63391436738155e-03
2.25438888888889e+00 1.17216833628148e-01 1.58579923754228e-03
2.29227777777778e+00 1.12804896835599e-01 1.53888353633021e-03
2.33016666666667e+00 1.08559021396372e-01 1.49315175800479e-03
2.36805555555556e+00 1.04472956909849e-01 1.44858742088188e-03
2.40594444444444e+00 1.00540688234882e-01 1.40517319432307e-03
2.44383333333333e+00 9.67564266348020e-02 1.36289101650402e-03
2.48172222222222e+00 9.31146012558388e-02 1.32172220200188e-03
2.51961111111111e+00 8.96098509261622e-02 1.28164754003627e-03
2.55750000000000e+00 8.62370162636417e-02 1.24264738304626e-03
2.59538888888889e+00 8.29911320927180e-02 1.20470173170201e-03
2.63327777777778e+00 7.98674200978855e-02 1.16779030718282e-03
2.67116666666667e+00 7.68612818278300e-02 1.13189261659885e-03
2.70905555555556e+00 7.39682919128213e-02 1.09698801829706e-03
2.74694444444444e+00 7.11841915500779e-02 1.06305577663335e-03
2.78483333333333e+00 6.85048822343158e-02 1.03007511278455e-03
2.82272222222222e+00 6.59264197243398e-02 9.98025250777146e-04
2.86061111111111e+00 6.34450082366575e-02 9.66885459112945e-04
2.89850000000000e+00 6.10569948576651e-02 9.36635087625125e-04
2.93638888888889e+00 5.87588641736885e-02 9.07253603478820e-04
2.97427777777778e+00 5.65472330726413e-02 8.78720620092971e-04
3.01216666666667e+00 5.44188457876599e-02 8.51015922775739e-04
3.05005555555556e+00 5.23705690960270e-02 8.24119495454598e-04
3.08794444444444e+00 5.03993877067207e-02 7.98011541479376e-04
3.12583333333333e+00 4.85023998215592e-02 7.72672502785083e-04
3.16372222222222e+00 4.66768128634571e-02 7.48083076789897e-04
3.20161111111111e+00 4.49199393654285e-02 7.24224231211418e-04
3.23950000000000e+00 4.32291930143370e-02 7.01077216491332e-04
3.27738888888889e+00 4.16020848483316e-02 6.78623578389927e-04
3.31527777777778e+00 4.00362195780794e-02 6.56845166528961e-04
3.35316666666667e+00 3.85292920758033e-02 6.35724141372146e-04
3.39105555555556e+00 3.70790839766704e-02 6.15242982532743e-04
3.42894444444444e+00 3.56834604131128e-02 5.95384493664318e-04
3.46683333333333e+00 3.43403668720585e-02 5.76131806767457e-04
3.50472222222222e+00 3.30478261704747e-02 5.57468385458823e-04
3.54261111111111e+00 3.18039355447268e-02 5.39378027293071e-04
3.58050000000000e+00 3.06068638494992e-02 5.21844864899054e-04
3.61838888888889e+00 2.94548488652069e-02 5.04853367627249e-04
3.65627777777778e+00 2.83461946943688e-02 4.88388340839916e-04
3.69416666666667e+00 2.72792692747748e-02 4.72434924496026e-04
3.73205555555556e+00 2.62525019735745e-02 4.56978592955467e-04
3.76994444444444e+00 2.52643812751313e-02 4.42005152787328e-04
3.80783333333333e+00 2.43134525558993e-02 4.27500740471157e-04
3.84572222222222e+00 2.33983159430646e-02 4.13451819668071e-04
3.88361111111111e+00 2.25176242537725e-02 3.99845178106474e-04
3.92150000000000e+00 2.16700810119243e-02 3.86667923905894e-04
3.95938888888889e+00 2.08544385416003e-02 3.73907482472502e-04
3.99727777777778e+00 2.00694961242365e-02 3.61551592012641e-04
4.03516666666667e+00 1.93140982373137e-02 3.49588298769338e-04
4.07305555555556e+00 1.85871328511458e-02 3.38005953272461e-04
4.11094444444444e+00 1.78875297918481e-02 3.26793205416664e-04
4.14883333333333e+00 1.72142591659203e-02 3.15938999634937e-04
4.18672222222222e+00 1.65663298441338e-02 3.05432569939709e-04
4.22461111111111e+00 1.59427880024767e-02 2.95263434852974e-04
4.26250000000000e+00 1.53427157180191e-02 2.85421392097448e-04
4.30038888888889e+00 1.47652296189179e-02 2.75896513810673e-04
4.33827777777778e+00 1.42094795800180e-02 2.66679140948099e-04
4.37616666666667e+00 1.36746474754644e-02 2.57759877618508e-04
4.41405555555556e+00 1.31599459729265e-02 2.49129586222015e-04
4.45194444444444e+00 1.26646173745578e-02 2.40779381900212e-04
4.48983333333333e+00 1.21879325015787e-02 2.32700627153728e-04
4.52772222222222e+00 1.17291896208480e-02 2.24884926466980e-04
4.56561111111111e+00 1.12877134118313e-02 2.17324120949689e-04
4.60350000000000e+00 1.08628539724549e-02 2.10010282903270e-04
4.64138888888889e+00 1.04539858632227e-02 2.02935710826665e-04
4.67927777777778e+00 1.00605071838929e-02 1.96092923948619e-04
4.71716666666667e+00 9.68183869009436e-03 1.89474656788768e-04
4.75505555555556e+00 9.31742293969582e-03 1.83073854336751e-04
4.79294444444444e+00 8.96672347218865e-03 1.76883666830407e-04
4.83083333333333e+00 8.62922401895666e-03 1.70897444712376e-04
4.86872222222222e+00 8.30442774327319e-03 1.65108733652779e-04
4.90661111111111e+00 7.99185650890120e-03 1.59511269641522e-04
4.94450000000000e+00 7.69105017622362e-03 1.54098974084637e-04
4.98238888888889e+00 7.40156592542434e-03 1.48865949253496e-04
5.02027777777778e+00 7.12297760288903e-03 1.43806473460670e-04
5.05816666666667e+00 6.85487509562712e-03 1.38914996303164e-04
5.09605555555556e+00 6.59686372693388e-03 1.34186134373332e-04
5.13394444444444e+00 6.34856367538244e-03 1.29614666739218e-04
5.17183333333333e+00 6.10960941568389e-03 1.25195530588068e-04
5.20972222222222e+00 5.87964918059464e-03 1.20923816954302e-04
5.24761111111111e+00 5.65834444307526e-03 1.16794766532552e-04
5.28550000000000e+00 5.44536941794109e-03 1.12803765529138e-04
5.32338888888889e+00 5.24041058263963e-03 1.08946341789174e-04
5.36127777777778e+00 5.04316621457182e-03 1.05218160768925e-04
5.39916666666667e+00 4.85334594809330e-03 1.01615021585226e-04
5.43705555555556e+00 4.67067034666264e-03 9.81328534146779e-05
5.47494444444444e+00 4.49487049147977e-03 9.47677117631591e-05
5.51283333333333e+00 4.32568758560715e-03 9.15157748739539e-05
5.55072222222222e+00 4.16287257299277e-03 8.83733402194214e-05
5.58861111111111e+00 4.00618577183146e-03 8.53368210754340e-05
5.62650000000000e+00 3.85539652172671e-03 8.24027431455133e-05
5.66438888888889e+00 3.71028284437863e-03 7.95677413963858e-05
5.70227777777778e+00 3.57063111604982e-03 7.68285568086214e-05
5.74016666666667e+00 3.43623575386595e-03 7.41820332004650e-05
5.77805555555556e+00 3.30689891290806e-03 7.16251143111325e-05
5.81594444444444e+00 3.18243019496288e-03 6.91548408136753e-05
5.85383333333333e+00 3.06264636823528e-03 6.67683474407391e-05
5.89172222222222e+00 2.94737109761113e-03 6.44628601846050e-05
5.92961111111111e+00 2.83643468507218e-03 6.22356935702666e-05
5.96750000000000e+00 2.72967381988174e-03 6.00842479781008e-05
6.00538888888889e+00 2.62693133833714e-03 5.80060071266323e-05
6.04327777777778e+00 2.52805599190170e-03 5.59985355110362e-05
6.08116666666667e+00 2.43290222506968e-03 5.40594759054492e-05
6.11905555555556e+00 2.34132996091431e-03 5.21865470565748e-05
6.15694444444444e+00 2.25320439487898e-03 5.03775413412272e-05
6.19483333333333e+00 2.16839579632983e-03 4.86303225133182e-05
6.23272222222222e+00 2.08677931757808e-03 4.69428235132349e-05
6.27061111111111e+00 2.00823481009026e-03 4.53130443382582e-05
6.30850000000000e+00 1.93264664761616e-03 4.37390499574365e-05
6.34638888888889e+00 1.85990355608405e-03 4.22189683465551e-05
6.38427777777778e+00 1.78989844945424e-03 4.07509885020651e-05
6.42216666666667e+00 1.72252827242450e-03 3.93333585079863e-05
6.46005555555556e+00 1.65769384860195e-03 3.79643837431910e-05
6.49794444444444e+00 1.59529973450439e-03 3.66424250721469e-05
6.53583333333333e+00 1.53525407905679e-03 3.53658971051920e-05
6.57372222222222e+00 1.47746848837648e-03 3.41332665093755e-05
6.61161111111111e+00 1.42185789564744e-03 3.29430503686228e-05
6.64950000000000e+00 1.36834043589247e-03 3.17938145814762e-05
6.68738888888889e+00 1.31683732553271e-03 3.06841723482925e-05
6.72527777777778e+00 1.26727274618192e-03 2.96127826502873e-05
6.76316666666667e+00 1.21957373326714e-03 2.85783487711942e-05
6.80105555555556e+00 1.17367006853666e-03 2.75796169215753e-05
6.83894444444444e+00 1.12949417669093e-03 2.66153748573174e-05
6.87683333333333e+00 1.08698102590415e-03 2.56844505514416e-05
6.91472222222222e+00 1.04606803209029e-03 2.47857109059261e-05
6.95261111111111e+00 1.00669496677235e-03 2.39180605024668e-05
6.99050000000000e+00 9.68803868419278e-04 2.30804403838718e-05
7.02838888888889e+00 9.32338957169943e-04 2.22718269017137e-05
7.06627777777778e+00 8.97246552565715e-04 2.14912305626564e-05
7.10416666666667e+00 8.63474994684304e-04 2.07376949083334e-05
7.14205555555556e+00 8.30974568036666e-04 2.00102954700653e-05
7.17994444444444e+00 7.99697428380281e-04 1.93081387233598e-05
7.21783333333333e+00 7.69597532287070e-04 1.86303610828641e-05
7.25572222222222e+00 7.40630569362423e-04 1.79761279284366e-05
7.29361111111111e+00 7.12753897015339e-04 1.73446326614553e-05
7.33150000000000e+00 6.85926477683784e-04 1.67350957854866e-05
7.36938888888889e+00 6.60108818456415e-04 1.61467640358100e-05
7.40727777777778e+00 6.35262912831184e-04 1.55789095109559e-05
7.44516666666667e+00 6.11352184871810e-04 1.50308288302451e-05
7.48305555555556e+00 5.88341435327525e-04 1.45018423457614e-05
7.52094444444444e+00 5.66196789815866e-04 1.39912933567595e-05
7.55883333333333e+00 5.44885648955790e-04 1.34985473545193e-05
7.59672222222222e+00 5.24376640377815e-04 1.30229912910933e-05
7.63461111111111e+00 5.04639572540375e-04 1.25640328712424e-05
7.67250000000000e+00 4.85645390284514e-04 1.21210998633998e-05
7.71038888888889e+00 4.67366132084182e-04 1.16936394465306e-05
7.74827777777778e+00 4.49774888813768e-04 1.12811175603833e-05
7.78616666666667e+00 4.32845764206780e-04 1.08830182756519e-05
7.82405555555556e+00 4.16553836709020e-04 1.04988432036537e-05
7.86194444444444e+00 4.00875122791297e-04 1.01281109094571e-05
7.89983333333333e+00 3.85786541642980e-04 9.77035634777799e-06
7.93772222222222e+00 3.71265881194518e-04 9.42513031703925e-06
7.97561111111111e+00 3.57291765418782e-04 9.09199893104106e-06
8.01350000000000e+00 3.43843622863180e-04 8.77054310529824e-06
8.05138888888889e+00 3.30901656381591e-04 8.46035806967081e-06
8.08927777777778e+00 3.18446813943322e-04 8.16105288471170e-06
8.12716666666667e+00 3.06460760635132e-04 7.87224997312220e-06
8.16505555555556e+00 2.94925851653515e-04 7.59358467984297e-06
8.20294444444444e+00 2.83825106329576e-04 7.32470483574679e-06
8.24083333333333e+00 2.73142183131598e-04 7.06527033826701e-06
8.27872222222222e+00 2.62861355608506e-04 6.81495274572544e-06
8.31661111111111e+00 2.52967489238774e-04 6.57343488493203e-06
8.35450000000000e+00 2.43446019150725e-04 6.34041046997363e-06
8.39238888888889e+00 2.34282928691880e-04 6.11558374021249e-06
8.43027777777778e+00 2.25464728762669e-04 5.89866910180181e-06
8.46816666666667e+00 2.16978437992069e-04 5.68939078057863e-06
8.50605555555556e+00 2.08811563616250e-04 5.48748249567926e-06
8.54394444444444e+00 2.00952083087834e-04 5.29268713648360e-06
8.58183333333333e+00 1.93388426377363e-04 5.10475645210221e-06
8.61972222222222e+00 1.86109458940943e-04 4.92345075112981e-06
8.65761111111111e+00 1.79104465328953e-04 4.74853861133823e-06
8.69550000000000e+00 1.72363133411706e-04 4.57979659783516e-06
8.73338888888889e+00 1.65875539205966e-04 4.41700899522708e-06
8.77127777777778e+00 1.59632132243827e-04 4.25996754286912e-06
8.80916666666667e+00 1.53623721535866e-04 4.10847117863095e-06
8.84705555555556e+00 1.47841462033283e-04 3.96232579764043e-06
8.88494444444444e+00 1.42276841606999e-04 3.82134401391014e-06
8.92283333333333e+00 1.36921668516856e-04 3.68534493121854e-06
8.96072222222222e+00 1.31768059352468e-04 3.55415392164440e-06
8.99861111111111e+00 1.26808427427965e-04 3.42760241150691e-06
9.03650000000000e+00 1.22035471613546e-04 3.30552767366797e-06
9.07438888888889e+00 1.17442165592252e-04 3.18777263002462e-06
9.11227777777778e+00 1.13021747501512e-04 3.07418565659066e-06
9.15016666666667e+00 1.08767709994267e-04 2.96462039492098e-06
9.18805555555556e+00 1.04673790654183e-04 2.85893557434913e-06
9.22594444444444e+00 1.00733962776672e-04 2.75699483662254e-06
9.26383333333333e+00 9.69424264969104e-05 2.65866656734467e-06
9.30172222222222e+00 9.32936002518037e-05 2.56382373309713e-06
9.33961111111111e+00 8.97821125632972e-05 2.47234372405572e-06
9.37750000000000e+00 8.64027941309649e-05 2.38410820136152e-06
9.41538888888889e+00 8.31506702255325e-05 2.29900295189430e-06
9.45327777777778e+00 8.00209533553336e-05 2.21691774515320e-06
9.49116666666667e+00 7.70090362290540e-05 2.13774619484120e-06
9.52905555555555e+00 7.41104849697026e-05 2.06138562824891e-06
9.56694444444445e+00 7.13210325874517e-05 1.98773695757778e-06
9.60483333333333e+00 6.86365726981514e-05 1.91670455625649e-06
9.64272222222222e+00 6.60531534782795e-05 1.84819613945719e-06
9.68061111111111e+00 6.35669718474156e-05 1.78212264867202e-06
9.71850000000000e+00 6.11743678696843e-05 1.71839813982719e-06
9.75638888888889e+00 5.88718193681822e-05 1.65693967676660e-06
9.79427777777778e+00 5.66559367329815e-05 1.59766722641362e-06
9.83216666666667e+00 5.45234579383955e-05 1.54050355740858e-06
9.87005555555556e+00 5.24712437384661e-05 1.48537414436722e-06
9.90794444444444e+00 5.04962730456449e-05 1.43220707367663e-06
9.94583333333333e+00 4.85956384834145e-05 1.38093295294526e-06
9.98372222222222e+00 4.67665421063101e-05 1.33148482442466e-06
1.00216111111111e+01 4.50062912759724e-05 1.28379807813018e-06
1.00595000000000e+01 4.33122947112507e-05 1.23781036880376e-06
1.00973888888889e+01 4.16820586764333e-05 1.19346154739380e-06
1.01352777777778e+01 4.01131832662319e-05 1.15069357704367e-06
1.01731666666667e+01 3.86033589217539e-05 1.10945045424519e-06
1.02110555555556e+01 3.71503630138288e-05 1.06967814709378e-06
1.02489444444444e+01 3.57520565710525e-05 1.03132452362521e-06
1.02868333333333e+01 3.44063811309760e-05 9.94339285653692e-07
1.03247222222222e+01 3.31113557098368e-05 9.58673904887473e-07
1.03626111111111e+01 3.18650738863228e-05 9.24281561245157e-07
1.04005000000000e+01 3.06657009951086e-05 8.91117081418570e-07
1.04383888888889e+01 2.95114714366125e-05 8.59136887120301e-07
1.04762777777778e+01 2.84006860452311e-05 8.28298935672362e-07
1.05141666666667e+01 2.73317096214636e-05 7.98562662170191e-07
1.05520555555556e+01 2.63029685132505e-05 7.69888934126307e-07
1.05899444444444e+01 2.53129482993826e-05 7.42239999298410e-07
1.06278333333333e+01 2.43601915601004e-05 7.15579437435449e-07
1.06657222222222e+01 2.34432957316212e-05 6.89872113693163e-07
1.07036111111111e+01 2.25609110414040e-05 6.65084133662539e-07
1.07415000000000e+01 2.17117385211347e-05 6.41182798646863e-07
1.07793888888889e+01 2.08945281017594e-05 6.18136567759515e-07
1.08172777777778e+01 2.01080767508901e-05 5.95915014756911e-07
1.08551666666667e+01 1.93512267247627e-05 5.74488786036928e-07
1.08930555555556e+01 1.86228638560489e-05 5.53829567397181e-07
1.09309444444444e+01 1.79219159136784e-05 5.33910046108067e-07
1.09688333333333e+01 1.72473510243926e-05 5.14703875775889e-07
1.10067222222222e+01 1.65981761537196e-05 4.96185642427245e-07
1.10446111111111e+01 1.59734356441138e-05 4.78330831773018e-07
1.10825000000000e+01 1.53722098081219e-05 4.61115796698896e-07
1.11203888888889e+01 1.47936135794824e-05 4.44517729561408e-07
1.11582777777778e+01 1.42367951948696e-05 4.28514630863422e-07
1.11961666666667e+01 1.37009349557559e-05 4.13085278789224e-07
1.12340555555556e+01 1.31852440163303e-05 3.98209204891077e-07
1.12719444444444e+01 1.26889632222302e-05 3.83866666553722e-07
1.13098333333333e+01 1.22113619929793e-05 3.70038621445742e-07
1.13477222222222e+01 1.17517372464974e-05 3.56706702862623e-07
1.13856111111111e+01 1.13094123640828e-05 3.43853195930863e-07
1.14235000000000e+01 1.08837361943545e-05 3.31461014007103e-07
1.14613888888889e+01 1.04740820981069e-05 3.19513678464024e-07
1.14992777777778e+01 1.00798470152904e-05 3.07995295985656e-07
1.15371666666667e+01 9.70045058805996e-06 2.96890536494965e-07
1.15750555555556e+01 9.33533430271877e-06 2.86184615402880e-07
1.16129444444444e+01 8.98396066752433e-06 2.75863273640837e-07
1.16508333333333e+01 8.64581242143947e-06 2.65912759108120e-07
1.16887222222222e+01 8.32039177266992e-06 2.56319808769149e-07
1.17266111111111e+01 8.00721966585782e-06 2.47071631378248e-07
1.17645000000000e+01 7.70583507685916e-06 2.38155890366238e-07
1.18023888888889e+01 7.41579433641758e-06 2.29560689114652e-07
1.18402777777778e+01 7.13667046978980e-06 2.21274554516127e-07
1.18781666666667e+01 6.86805257562981e-06 2.13286420998790e-07
1.19160555555556e+01 6.60954521854948e-06 2.05585617587614e-07
1.19539444444444e+01 6.36076784699381e-06 1.98161853440537e-07
