Energy (eV)          EEDF (eV^-(3/2))     First Anisotropy
1.87500000000000e-02 4.88033017244384e-01 4.51796011741129e-04
5.62500000000000e-02 4.77602224159790e-01 7.40560605376008e-04
9.37500000000000e-02 4.67394369770893e-01 9.63205252736043e-04
1.31250000000000e-01 4.57404689180068e-01 1.12382487512459e-03
1.68750000000000e-01 4.47628519330397e-01 1.25090629559637e-03
2.06250000000000e-01 4.38061296829077e-01 1.35546769759985e-03
2.43750000000000e-01 4.28698555817285e-01 1.44333413612927e-03
2.81250000000000e-01 4.19535925885581e-01 1.51809578019614e-03
3.18750000000000e-01 4.10569130033851e-01 1.58218084601927e-03
3.56250000000000e-01 4.01793982674860e-01 1.63733811937897e-03
3.93750000000000e-01 3.93206387680475e-01 1.68488559991808e-03
4.31250000000000e-01 3.84802336469639e-01 1.72585139194781e-03
4.68750000000000e-01 3.76577906137219e-01 1.76105936838700e-03
5.06250000000000e-01 3.68529257622844e-01 1.79118418013101e-03
5.43750000000000e-01 3.60652633918879e-01 1.81678815871561e-03
5.81250000000000e-01 3.52944358316701e-01 1.83834697574349e-03
6.18750000000000e-01 3.45400832690458e-01 1.85626802760487e-03
6.56250000000000e-01 3.38018535817510e-01 1.87090394788698e-03
6.93750000000000e-01 3.30794021734764e-01 1.88256275906010e-03
7.31250000000000e-01 3.23723918130147e-01 1.89151564644399e-03
7.68750000000000e-01 3.16804924768447e-01 1.89800301222843e-03
8.06250000000000e-01 3.10033811950810e-01 1.90223926082342e-03
8.43750000000000e-01 3.03407419007154e-01 1.90441663203991e-03
8.81250000000000e-01 2.96922652820810e-01 1.90470830847012e-03
9.18750000000000e-01 2.90576486384693e-01 1.90327096183967e-03
9.56250000000000e-01 2.84365957388335e-01 1.90024686017914e-03
9.93750000000000e-01 2.78288166835113e-01 1.89576562722194e-03
1.03125000000000e+00 2.72340277689035e-01 1.88994572349945e-03
1.06875000000000e+00 2.66519513550450e-01 1.88289570256827e-03
1.10625000000000e+00 2.60823157360056e-01 1.87471528392159e-03
1.14375000000000e+00 2.55248550130612e-01 1.86549627522554e-03
1.18125000000000e+00 2.49793089705759e-01 1.85532336976268e-03
1.21875000000000e+00 2.44454229545361e-01 1.84427483978301e-03
1.25625000000000e+00 2.39229477536817e-01 1.83242314245411e-03
1.29375000000000e+00 2.34116394831773e-01 1.81983545197074e-03
1.33125000000000e+00 2.29112594707696e-01 1.80657412891846e-03
1.36875000000000e+00 2.24215741453784e-01 1.79269713602817e-03
1.40625000000000e+00 2.19423549280687e-01 1.77825840789389e-03
1.44375000000000e+00 2.14733781253526e-01 1.76330818096585e-03
1.48125000000000e+00 2.10144248247723e-01 1.74789328910875e-03
1.51875000000000e+00 2.05652807927144e-01 1.73205742918337e-03
1.55625000000000e+00 2.01257363744082e-01 1.71584140042556e-03
1.59375000000000e+00 1.96955863960618e-01 1.69928332083312e-03
1.63125000000000e+00 1.92746300690895e-01 1.68241882330431e-03
1.66875000000000e+00 1.88626708963858e-01 1.66528123388212e-03
1.70625000000000e+00 1.84595165806038e-01 1.64790173413215e-03
1.74375000000000e+00 1.80649789343924e-01 1.63030950940849e-03
1.78125000000000e+00 1.76788737925533e-01 1.61253188452996e-03
1.81875000000000e+00 1.73010209260751e-01 1.59459444819273e-03
1.85625000000000e+00 1.69312439580043e-01 1.57652116727851e-03
1.89375000000000e+00 1.65693702811150e-01 1.55833449207440e-03
1.93125000000000e+00 1.62152309773378e-01 1.54005545329783e-03
1.96875000000000e+00 1.58686607389116e-01 1.52170375171498e-03
2.00625000000000e+00 1.55294977912190e-01 1.50329784104965e-03
2.04375000000000e+00 1.51975838172728e-01 1.48485500480082e-03
2.08125000000000e+00 1.48727638838154e-01 1.46639142751895e-03
2.11875000000000e+00 1.45548863689976e-01 1.44792226103081e-03
2.15625000000000e+00 1.42438028916040e-01 1.42946168605060e-03
2.19375000000000e+00 1.39393682417899e-01 1.41102296957010e-03
2.23125000000000e+00 1.36414403132997e-01 1.39261851837935e-03
2.26875000000000e+00 1.33498800371331e-01 1.37425992903483e-03
2.30625000000000e+00 1.30645513166296e-01 1.35595803456055e-03
2.34375000000000e+00 1.27853209639405e-01 1.33772294813990e-03
2.38125000000000e+00 1.25120586378582e-01 1.31956410403151e-03
2.41875000000000e+00 1.22446367829746e-01 1.30149029592098e-03
2.45625000000000e+00 1.19829305701399e-01 1.28350971290018e-03
2.49375000000000e+00 1.17268178381940e-01 1.26562997324940e-03
2.53125000000000e+00 1.14761790369432e-01 1.24785815618152e-03
2.56875000000000e+00 1.12308971713556e-01 1.23020083169364e-03
2.60625000000000e+00 1.09908577469491e-01 1.21266408865922e-03
2.64375000000000e+00 1.07559487163474e-01 1.19525356128263e-03
2.68125000000000e+00 1.05260604269771e-01 1.17797445402770e-03
2.71875000000000e+00 1.03010855698834e-01 1.16083156512294e-03
2.75625000000000e+00 1.00809191296401e-01 1.14382930873771e-03
2.79375000000000e+00 9.86545833532896e-02 1.12697173591623e-03
2.83125000000000e+00 9.65460261256818e-02 1.11026255434963e-03
2.86875000000000e+00 9.44825353656519e-02 1.09370514705998e-03
2.90625000000000e+00 9.24631478617331e-02 1.07730259006452e-03
2.94375000000000e+00 9.04869209893024e-02 1.06105766908362e-03
2.98125000000000e+00 8.85529322705755e-02 1.04497289535095e-03
3.01875000000000e+00 8.66602789440055e-02 1.02905052058016e-03
3.05625000000000e+00 8.48080775428854e-02 1.01329255113880e-03
3.09375000000000e+00 8.29954634829568e-02 9.97700761476205e-04
3.13125000000000e+00 8.12215906588331e-02 9.82276706849087e-04
3.16875000000000e+00 7.94856310490481e-02 9.67021735385540e-04
3.20625000000000e+00 7.77867743295458e-02 9.51936999525361e-04
3.24375000000000e+00 7.61242274954318e-02 9.37023466872027e-04
3.28125000000000e+00 7.44972144908080e-02 9.22281930489386e-04
3.31875000000000e+00 7.29049758465200e-02 9.07713018674016e-04
3.35625000000000e+00 7.13467683256464e-02 8.93317204232082e-04
3.39375000000000e+00 6.98218645765650e-02 8.79094813287772e-04
3.43125000000000e+00 6.83295527934343e-02 8.65046033648661e-04
3.46875000000000e+00 6.68691363839316e-02 8.51170922751772e-04
3.50625000000000e+00 6.54399336440923e-02 8.37469415212663e-04
3.54375000000000e+00 6.40412774400993e-02 8.23941329998514e-04
3.58125000000000e+00 6.26725148968732e-02 8.10586377244820e-04
3.61875000000000e+00 6.13330070933187e-02 7.97404164734386e-04
3.65625000000000e+00 6.00221287640836e-02 7.84394204055821e-04
3.69375000000000e+00 5.87392680076939e-02 7.71555916458114e-04
3.73125000000000e+00 5.74838260009248e-02 7.58888638416769e-04
3.76875000000000e+00 5.62552167192785e-02 7.46391626925905e-04
3.80625000000000e+00 5.50528666634346e-02 7.34064064530277e-04
3.84375000000000e+00 5.38762145915484e-02 7.21905064110112e-04
3.88125000000000e+00 5.27247112572699e-02 7.09913673430953e-04
3.91875000000000e+00 5.15978191533629e-02 6.98088879470250e-04
3.95625000000000e+00 5.04950122608031e-02 6.86429612531537e-04
3.99375000000000e+00 4.94157758032389e-02 6.74934750156596e-04
4.03125000000000e+00 4.83596060067011e-02 6.63603120845416e-04
4.06875000000000e+00 4.73260098644464e-02 6.52433507593201e-04
4.10625000000000e+00 4.63145049068291e-02 6.41424651253286e-04
4.14375000000000e+00 4.53246189760897e-02 6.30575253734186e-04
4.18125000000000e+00 4.43558900059579e-02 6.19883981038828e-04
4.21875000000000e+00 4.34078658059659e-02 6.09349466153339e-04
4.25625000000000e+00 4.24801038503714e-02 5.98970311792510e-04
4.29375000000000e+00 4.15721710715924e-02 5.88745093008772e-04
4.33125000000000e+00 4.06836436580565e-02 5.78672359670987e-04
4.36875000000000e+00 3.98141068563712e-02 5.68750638819194e-04
4.40625000000000e+00 3.89631547777219e-02 5.58978436901122e-04
4.44375000000000e+00 3.81303902084087e-02 5.49354241895895e-04
4.48125000000000e+00 3.73154244244316e-02 5.39876525330206e-04
4.51875000000000e+00 3.65178770100390e-02 5.30543744191981e-04
4.55625000000000e+00 3.57373756801548e-02 5.21354342746136e-04
4.59375000000000e+00 3.49735561066000e-02 5.12306754257018e-04
4.63125000000000e+00 3.42260617480293e-02 5.03399402621860e-04
4.66875000000000e+00 3.34945436835018e-02 4.94630703919211e-04
4.70625000000000e+00 3.27786604496092e-02 4.85999067876349e-04
4.74375000000000e+00 3.20780778810850e-02 4.77502899259319e-04
4.78125000000000e+00 3.13924689548204e-02 4.69140599189113e-04
4.81875000000000e+00 3.07215136372138e-02 4.60910566387421e-04
4.85625000000000e+00 3.00648987347837e-02 4.52811198355138e-04
4.89375000000000e+00 2.94223177479733e-02 4.44840892486668e-04
4.93125000000000e+00 2.87934707280807e-02 4.36998047122971e-04
4.96875000000000e+00 2.81780641372465e-02 4.29281062546120e-04
5.00625000000000e+00 2.75758107114344e-02 4.21688341918042e-04
5.04375000000000e+00 2.69864293263393e-02 4.14218292166017e-04
5.08125000000000e+00 2.64096448661626e-02 4.06869324817253e-04
5.11875000000000e+00 2.58451880951915e-02 3.99639856784997e-04
5.15625000000000e+00 2.52927955321227e-02 3.92528311108288e-04
5.19375000000000e+00 2.47522093270735e-02 3.85533117647471e-04
5.23125000000000e+00 2.42231771412200e-02 3.78652713737544e-04
5.26875000000000e+00 2.37054520290086e-02 3.71885544801224e-04
5.30625000000000e+00 2.31987923228855e-02 3.65230064923578e-04
5.34375000000000e+00 2.27029615204885e-02 3.58684737390004e-04
5.38125000000000e+00 2.22177281742516e-02 3.52248035189215e-04
5.41875000000000e+00 2.17428657833672e-02 3.45918441482854e-04
5.45625000000000e+00 2.12781526880592e-02 3.39694450043249e-04
5.49375000000000e+00 2.08233719661146e-02 3.33574565660851e-04
5.53125000000000e+00 2.03783113316271e-02 3.27557304522658e-04
5.56875000000000e+00 1.99427630359045e-02 3.21641194563055e-04
5.60625000000000e+00 1.95165237704946e-02 3.15824775788350e-04
5.64375000000000e+00 1.90993945722830e-02 3.10106600576156e-04
5.68125000000000e+00 1.86911807306199e-02 3.04485233950900e-04
5.71875000000000e+00 1.82916916964314e-02 2.98959253836535e-04
5.75625000000000e+00 1.79007409932739e-02 2.93527251287528e-04
5.79375000000000e+00 1.75181461302887e-02 2.88187830699175e-04
5.83125000000000e+00 1.71437285170185e-02 2.82939609998216e-04
5.86875000000000e+00 1.67773133800425e-02 2.77781220814704e-04
5.90625000000000e+00 1.64187296813952e-02 2.72711308636044e-04
5.94375000000000e+00 1.60678100387277e-02 2.67728532944018e-04
5.98125000000000e+00 1.57243906471758e-02 2.62831567335672e-04
6.01875000000000e+00 1.53883112028980e-02 2.58019099628872e-04
6.05625000000000e+00 1.50594148282475e-02 2.53289831953215e-04
6.09375000000000e+00 1.47375479985440e-02 2.48642480827087e-04
6.13125000000000e+00 1.44225604704100e-02 2.44075777221545e-04
6.16875000000000e+00 1.41143052116392e-02 2.39588466611669e-04
6.20625000000000e+00 1.38126383325638e-02 2.35179309016036e-04
6.24375000000000e+00 1.35174190188888e-02 2.30847079024937e-04
6.28125000000000e+00 1.32285094659609e-02 2.26590565817899e-04
6.31875000000000e+00 1.29457748144441e-02 2.22408573171073e-04
6.35625000000000e+00 1.26690830873682e-02 2.18299919455032e-04
6.39375000000000e+00 1.23983051285240e-02 2.14263437623484e-04
6.43125000000000e+00 1.21333145421747e-02 2.10297975193391e-04
6.46875000000000e+00 1.18739876340560e-02 2.06402394216964e-04
6.50625000000000e+00 1.16202033536374e-02 2.02575571245972e-04
6.54375000000000e+00 1.13718432376168e-02 1.98816397288792e-04
6.58125000000000e+00 1.11287913546239e-02 1.95123777760640e-04
6.61875000000000e+00 1.08909342511045e-02 1.91496632427339e-04
6.65625000000000e+00 1.06581608983619e-02 1.87933895343008e-04
6.69375000000000e+00 1.04303626407303e-02 1.84434514782052e-04
6.73125000000000e+00 1.02074331448556e-02 1.80997453165757e-04
6.76875000000000e+00 9.98926835006008e-03 1.77621686983869e-04
6.80625000000000e+00 9.77576641976857e-03 1.74306206711418e-04
6.84375000000000e+00 9.56682769397221e-03 1.71050016721119e-04
6.88125000000000e+00 9.36235464270844e-03 1.67852135191629e-04
6.91875000000000e+00 9.16225182053529e-03 1.64711594011939e-04
6.95625000000000e+00 8.96642582197861e-03 1.61627438682158e-04
6.99375000000000e+00 8.77478523793157e-03 1.58598728210929e-04
7.03125000000000e+00 8.58724061298607e-03 1.55624535009729e-04
7.06875000000000e+00 8.40370440367609e-03 1.52703944784289e-04
7.10625000000000e+00 8.22409093761345e-03 1.49836056423333e-04
7.14375000000000e+00 8.04831637349707e-03 1.47019981884850e-04
7.18125000000000e+00 7.87629866197687e-03 1.44254846080096e-04
7.21875000000000e+00 7.70795750735423e-03 1.41539786755538e-04
7.25625000000000e+00 7.54321433010089e-03 1.38873954372890e-04
7.29375000000000e+00 7.38199223017907e-03 1.36256511987423e-04
7.33125000000000e+00 7.22421595114550e-03 1.33686635124721e-04
7.36875000000000e+00 7.06981184502264e-03 1.31163511656043e-04
7.40625000000000e+00 6.91870783792074e-03 1.28686341672419e-04
7.44375000000000e+00 6.77083339639467e-03 1.26254337357650e-04
7.48125000000000e+00 6.62611949451978e-03 1.23866722860324e-04
7.51875000000000e+00 6.48449858167147e-03 1.21522734164991e-04
7.55625000000000e+00 6.34590455099343e-03 1.19221618962621e-04
7.59375000000000e+00 6.21027270853975e-03 1.16962636520454e-04
7.63125000000000e+00 6.07753974307667e-03 1.14745057551353e-04
7.66875000000000e+00 5.94764369652963e-03 1.12568164082777e-04
7.70625000000000e+00 5.82052393506205e-03 1.10431249325465e-04
7.74375000000000e+00 5.69612112077223e-03 1.08333617541927e-04
7.78125000000000e+00 5.57437718399513e-03 1.06274583914831e-04
7.81875000000000e+00 5.45523529619624e-03 1.04253474415383e-04
7.85625000000000e+00 5.33863984344465e-03 1.02269625671767e-04
7.89375000000000e+00 5.22453640045328e-03 1.00322384837740e-04
7.93125000000000e+00 5.11287170517374e-03 9.84111094614273e-05
7.96875000000000e+00 5.00359363393433e-03 9.65351673544200e-05
8.00625000000000e+00 4.89665117710936e-03 9.46939364612123e-05
8.04375000000000e+00 4.79199441530851e-03 9.28868047290672e-05
8.08125000000000e+00 4.68957449607505e-03 9.11131699783413e-05
8.11875000000000e+00 4.58934361108217e-03 8.93724397733441e-05
8.15625000000000e+00 4.49125497381664e-03 8.76640312937779e-05
8.19375000000000e+00 4.39526279773946e-03 8.59873712068003e-05
8.23125000000000e+00 4.30132227491326e-03 8.43418955397732e-05
8.26875000000000e+00 4.20938955508655e-03 8.27270495537137e-05
8.30625000000000e+00 4.11942172522496e-03 8.11422876175164e-05
8.34375000000000e+00 4.03137678947999e-03 7.95870730829742e-05
8.38125000000000e+00 3.94521364958585e-03 7.80608781606192e-05
8.41875000000000e+00 3.86089208567532e-03 7.65631837964404e-05
8.45625000000000e+00 3.77837273750565e-03 7.50934795494954e-05
8.49375000000000e+00 3.69761708608565e-03 7.36512634704471e-05
8.53125000000000e+00 3.61858743569555e-03 7.22360419810545e-05
8.56875000000000e+00 3.54124689629108e-03 7.08473297546372e-05
8.60625000000000e+00 3.46555936628370e-03 6.94846495975495e-05
8.64375000000000e+00 3.39148951568879e-03 6.81475323316717e-05
8.68125000000000e+00 3.31900276963410e-03 6.68355166779412e-05
8.71875000000000e+00 3.24806529222060e-03 6.55481491409477e-05
8.75625000000000e+00 3.17864397072835e-03 6.42849838946029e-05
8.79375000000000e+00 3.11070640015984e-03 6.30455826688997e-05
8.83125000000000e+00 3.04422086811382e-03 6.18295146377785e-05
8.86875000000000e+00 2.97915633998228e-03 6.06363563081110e-05
8.90625000000000e+00 2.91548244446393e-03 5.94656914098119e-05
8.94375000000000e+00 2.85316945938727e-03 5.83171107870857e-05
8.98125000000000e+00 2.79218829783661e-03 5.71902122908210e-05
9.01875000000000e+00 2.73251049457468e-03 5.60846006721358e-05
9.05625000000000e+00 2.67410819275545e-03 5.49998874770862e-05
9.09375000000000e+00 2.61695413092086e-03 5.39356909425391e-05
9.13125000000000e+00 2.56102163027555e-03 5.28916358932116e-05
9.16875000000000e+00 2.50628458223350e-03 5.18673536398826e-05
9.20625000000000e+00 2.45271743623092e-03 5.08624818787825e-05
9.24375000000000e+00 2.40029518779950e-03 4.98766645921584e-05
9.28125000000000e+00 2.34899336689472e-03 4.89095519500145e-05
9.31875000000000e+00 2.29878802647347e-03 4.79608002130331e-05
9.35625000000000e+00 2.24965573131592e-03 4.70300716366690e-05
9.39375000000000e+00 2.20157354708624e-03 4.61170343764254e-05
9.43125000000000e+00 2.15451902962713e-03 4.52213623942965e-05
9.46875000000000e+00 2.10847021448318e-03 4.43427353663862e-05
9.50625000000000e+00 2.06340560664816e-03 4.34808385916951e-05
9.54375000000000e+00 2.01930417053136e-03 4.26353629020672e-05
9.58125000000000e+00 1.97614532013852e-03 4.18060045733022e-05
9.61875000000000e+00 1.93390890946250e-03 4.09924652374217e-05
9.65625000000000e+00 1.89257522307939e-03 4.01944517960838e-05
9.69375000000000e+00 1.85212496694557e-03 3.94116763351476e-05
9.73125000000000e+00 1.81253925939157e-03 3.86438560403717e-05
9.76875000000000e+00 1.77379962230825e-03 3.78907131142462e-05
9.80625000000000e+00 1.73588797252151e-03 3.71519746939560e-05
9.84375000000000e+00 1.69878661335131e-03 3.64273727704587e-05
9.88125000000000e+00 1.66247822635101e-03 3.57166441086716e-05
9.91875000000000e+00 1.62694586322339e-03 3.50195301687677e-05
9.95625000000000e+00 1.59217293790941e-03 3.43357770285666e-05
9.99375000000000e+00 1.55814321884600e-03 3.36651353070133e-05
1.00312500000000e+01 1.52484082138941e-03 3.30073600887356e-05
1.00687500000000e+01 1.49225020040044e-03 3.23622108496720e-05
1.01062500000000e+01 1.46035614298817e-03 3.17294513837632e-05
1.01437500000000e+01 1.42914376140877e-03 3.11088497306961e-05
1.01812500000000e+01 1.39859848611611e-03 3.05001781046907e-05
1.02187500000000e+01 1.36870605896085e-03 2.99032128243241e-05
1.02562500000000e+01 1.33945252653491e-03 2.93177342433756e-05
1.02937500000000e+01 1.31082423365826e-03 2.87435266826891e-05
1.03312500000000e+01 1.28280781700475e-03 2.81803783630408e-05
1.03687500000000e+01 1.25539019886439e-03 2.76280813390027e-05
1.04062500000000e+01 1.22855858103875e-03 2.70864314337913e-05
1.04437500000000e+01 1.20230043886697e-03 2.65552281750920e-05
1.04812500000000e+01 1.17660351537939e-03 2.60342747318483e-05
1.05187500000000e+01 1.15145581557615e-03 2.55233778520052e-05
1.05562500000000e+01 1.12684560082810e-03 2.50223478012004e-05
1.05937500000000e+01 1.10276138339731e-03 2.45309983023882e-05
1.06312500000000e+01 1.07919192107479e-03 2.40491464763862e-05
1.06687500000000e+01 1.05612621193273e-03 2.35766127833368e-05
1.07062500000000e+01 1.03355348918896e-03 2.31132209650736e-05
1.07437500000000e+01 1.01146321618112e-03 2.26587979883782e-05
1.07812500000000e+01 9.89845081448335e-04 2.22131739891187e-05
1.08187500000000e+01 9.68688993917910e-04 2.17761822172636e-05
1.08562500000000e+01 9.47985078194955e-04 2.13476589827547e-05
1.08937500000000e+01 9.27723669952683e-04 2.09274436022300e-05
1.09312500000000e+01 9.07895311421216e-04 2.05153783465898e-05
1.09687500000000e+01 8.88490746972821e-04 2.01113083893900e-05
1.10062500000000e+01 8.69500918801501e-04 1.97150817560567e-05
1.10437500000000e+01 8.50916962694920e-04 1.93265492739107e-05
1.10812500000000e+01 8.32730203896708e-04 1.89455645229898e-05
1.11187500000000e+01 8.14932153057186e-04 1.85719837876602e-05
1.11562500000000e+01 7.97514502270652e-04 1.82056660090054e-05
1.11937500000000e+01 7.80469121197349e-04 1.78464727379848e-05
1.12312500000000e+01 7.63788053268330e-04 1.74942680893501e-05
1.12687500000000e+01 7.47463511971429e-04 1.71489186963088e-05
1.13062500000000e+01 7.31487877216616e-04 1.68102936659255e-05
1.13437500000000e+01 7.15853691779035e-04 1.64782645352531e-05
1.13812500000000e+01 7.00553657818069e-04 1.61527052281803e-05
1.14187500000000e+01 6.85580633470791e-04 1.58334920129873e-05
1.14562500000000e+01 6.70927629518243e-04 1.55205034606007e-05
1.14937500000000e+01 6.56587806122950e-04 1.52136204035362e-05
1.15312500000000e+01 6.42554469636171e-04 1.49127258955212e-05
1.15687500000000e+01 6.28821069473391e-04 1.46177051717864e-05
1.16062500000000e+01 6.15381195056589e-04 1.43284456100174e-05
1.16437500000000e+01 6.02228572821860e-04 1.40448366919577e-05
1.16812500000000e+01 5.89357063290994e-04 1.37667699656514e-05
1.17187500000000e+01 5.76760658205650e-04 1.34941390083188e-05
1.17562500000000e+01 5.64433477722771e-04 1.32268393898550e-05
1.17937500000000e+01 5.52369767669949e-04 1.29647686369422e-05
1.18312500000000e+01 5.40563896859451e-04 1.27078261977666e-05
