Energy (eV)          EEDF (eV^-(3/2))     First Anisotropy
4.38888888888889e-02 3.19896676923963e-01 3.92169187214001e-04
1.31666666666667e-01 3.07851110623096e-01 6.37533838551033e-04
2.19444444444444e-01 2.96259114691653e-01 8.15408693235929e-04
3.07222222222222e-01 2.85103610240675e-01 9.35554291487286e-04
3.95000000000000e-01 2.74368161312278e-01 1.02402130670966e-03
4.82777777777778e-01 2.64036950906079e-01 1.09115701047944e-03
5.70555555555555e-01 2.54094757603100e-01 1.14255948018783e-03
6.58333333333333e-01 2.44526933155366e-01 1.18174825042343e-03
7.46111111111111e-01 2.35319380854524e-01 1.21114398792484e-03
8.33888888888889e-01 2.26458534814910e-01 1.23251407669801e-03
9.21666666666667e-01 2.17931339967645e-01 1.24720485827612e-03
1.00944444444444e+00 2.09725232826901e-01 1.25627475382104e-03
1.09722222222222e+00 2.01828123007125e-01 1.26057616751115e-03
1.18500000000000e+00 1.94228375309598e-01 1.26080871013992e-03
1.27277777777778e+00 1.86914792699069e-01 1.25755534261792e-03
1.36055555555556e+00 1.79876599759324e-01 1.25130782564810e-03
1.44833333333333e+00 1.73103426864963e-01 1.24248518701643e-03
1.53611111111111e+00 1.66585294755796e-01 1.23144745960343e-03
1.62388888888889e+00 1.60312599986948e-01 1.21850613271246e-03
1.71166666666667e+00 1.54276100726038e-01 1.20393226771115e-03
1.79944444444444e+00 1.48466903138275e-01 1.18796288814097e-03
1.88722222222222e+00 1.42876448311814e-01 1.17080610107251e-03
1.97500000000000e+00 1.37496499554950e-01 1.15264524215240e-03
2.06277777777778e+00 1.32319130356585e-01 1.13364227457299e-03
2.15055555555556e+00 1.27336712674771e-01 1.11394061274039e-03
2.23833333333333e+00 1.22541905719424e-01 1.09366748291189e-03
2.32611111111111e+00 1.17927645070596e-01 1.07293591062325e-03
2.41388888888889e+00 1.13487132338538e-01 1.05184640950311e-03
2.50166666666667e+00 1.09213825123536e-01 1.03048843292072e-03
2.58944444444444e+00 1.05101427377182e-01 1.00894161856516e-03
2.67722222222222e+00 1.01143880140592e-01 9.87276871139635e-04
2.76500000000000e+00 9.73353525719161e-02 9.65557300770061e-04
2.85277777777778e+00 9.36702334025635e-02 9.43839043530205e-04
2.94055555555556e+00 9.01431226537214e-02 9.22171986355483e-04
3.02833333333333e+00 8.67488236914558e-02 9.00600405540112e-04
3.11611111111111e+00 8.34823355359621e-02 8.79163529444024e-04
3.20388888888889e+00 8.03388455287844e-02 8.57896037962227e-04
3.29166666666667e+00 7.73137222298532e-02 8.36828511267798e-04
3.37944444444444e+00 7.44025085939691e-02 8.15987827142593e-04
3.46722222222222e+00 7.16009154119409e-02 7.95397519726721e-04
3.55500000000000e+00 6.89048149663870e-02 7.75078098878331e-04
3.64277777777778e+00 6.63102349756769e-02 7.55047337250320e-04
3.73055555555556e+00 6.38133527326542e-02 7.35320531557929e-04
3.81833333333333e+00 6.14104894786909e-02 7.15910737927445e-04
3.90611111111111e+00 5.90981049644478e-02 6.96828983155563e-04
3.99388888888889e+00 5.68727922536066e-02 6.78084455890479e-04
4.08166666666667e+00 5.47312726964599e-02 6.59684682437580e-04
4.16944444444444e+00 5.26703910994178e-02 6.41635684160635e-04
4.25722222222222e+00 5.06871110808716e-02 6.23942122435234e-04
4.34500000000000e+00 4.87785105833752e-02 6.06607428845271e-04
4.43277777777778e+00 4.69417775830624e-02 5.89633923643273e-04
4.52055555555556e+00 4.51742059415607e-02 5.73022925342435e-04
4.60833333333333e+00 4.34731914225541e-02 5.56774850331651e-04
4.69611111111111e+00 4.18362278436468e-02 5.40889302767860e-04
4.78388888888889e+00 4.02609033954243e-02 5.25365156563798e-04
4.87166666666667e+00 3.87448970840503e-02 5.10200631847690e-04
4.95944444444444e+00 3.72859753116874e-02 4.95393363389761e-04
5.04722222222222e+00 3.58819885883535e-02 4.80940464363294e-04
5.13500000000000e+00 3.45308683565412e-02 4.66838583532535e-04
5.22277777777778e+00 3.32306239522135e-02 4.53083957468808e-04
5.31055555555556e+00 3.19793396688933e-02 4.39672459346864e-04
5.39833333333333e+00 3.07751719373611e-02 4.26599643341168e-04
5.48611111111111e+00 2.96163466026922e-02 4.13860784544122e-04
5.57388888888889e+00 2.85011563172626e-02 4.01450915389742e-04
5.66166666666667e+00 2.74279580228459e-02 3.89364859956192e-04
5.74944444444444e+00 2.63951705298453e-02 3.77597264351981e-04
5.83722222222222e+00 2.54012721893181e-02 3.66142625252305e-04
5.92500000000000e+00 2.44447986459078e-02 3.54995315210239e-04
6.01277777777778e+00 2.35243406856509e-02 3.44149605685431e-04
6.10055555555556e+00 2.26385421579031e-02 3.33599688713716e-04
6.18833333333333e+00 2.17860979786147e-02 3.23339696490744e-04
6.27611111111111e+00 2.09657522033311e-02 3.13363718737074e-04
6.36388888888889e+00 2.01762961810359e-02 3.03665818426451e-04
6.45166666666667e+00 1.94165667719182e-02 2.94240046723612e-04
6.53944444444444e+00 1.86854446336802e-02 2.85080455890418e-04
6.62722222222222e+00 1.79818525733960e-02 2.76181111478635e-04
6.71500000000000e+00 1.73047539572269e-02 2.67536102853317e-04
6.80277777777778e+00 1.66531511864043e-02 2.59139552631901e-04
6.89055555555556e+00 1.60260842262939e-02 2.50985625615640e-04
6.97833333333333e+00 1.54226291927819e-02 2.43068536700000e-04
7.06611111111111e+00 1.48418969884668e-02 2.35382557643956e-04
7.15388888888889e+00 1.42830319953964e-02 2.27922023059165e-04
7.24166666666667e+00 1.37452108135255e-02 2.20681336158594e-04
7.32944444444444e+00 1.32276410475711e-02 2.13654973415242e-04
7.41722222222222e+00 1.27295601401965e-02 2.06837488990305e-04
7.50500000000000e+00 1.22502342464749e-02 2.00223518273620e-04
7.59277777777778e+00 1.17889571547680e-02 1.93807780910531e-04
7.68055555555556e+00 1.13450492455202e-02 1.87585083685139e-04
7.76833333333333e+00 1.09178564904837e-02 1.81550322903453e-04
7.85611111111111e+00 1.05067494874523e-02 1.75698486181847e-04
7.94388888888889e+00 1.01111225346403e-02 1.70024653871099e-04
8.03166666666667e+00 9.73039273768878e-03 1.64524000466948e-04
8.11944444444444e+00 9.36399915086670e-03 1.59191795427388e-04
8.20722222222222e+00 9.01140195102286e-03 1.54023403964296e-04
8.29500000000000e+00 8.67208164094566e-03 1.49014287359181e-04
8.38277777777778e+00 8.34553828529707e-03 1.44160003046583e-04
8.47055555555555e+00 8.03129077358010e-03 1.39456204706591e-04
8.55833333333333e+00 7.72887611164330e-03 1.34898642120396e-04
8.64611111111111e+00 7.43784873846736e-03 1.30483160718205e-04
8.73388888888889e+00 7.15777987079414e-03 1.26205700969026e-04
8.82166666666667e+00 6.88825687100582e-03 1.22062297843522e-04
8.90944444444444e+00 6.62888263917012e-03 1.18049079953949e-04
8.99722222222222e+00 6.37927502824579e-03 1.14162268749505e-04
9.08500000000000e+00 6.13906628021288e-03 1.10398177458678e-04
9.17277777777778e+00 5.90790248509800e-03 1.06753209939035e-04
9.26055555555556e+00 5.68544305924917e-03 1.03223859593794e-04
9.34833333333333e+00 5.47136024376294e-03 9.98067081856336e-05
9.43611111111111e+00 5.26533862089388e-03 9.64984244962421e-05
9.52388888888889e+00 5.06707465004394e-03 9.32957629298168e-05
9.61166666666667e+00 4.87627622029961e-03 9.01955622141875e-05
9.69944444444444e+00 4.69266222005354e-03 8.71947439287003e-05
9.78722222222222e+00 4.51596212300628e-03 8.42903111126979e-05
9.87500000000000e+00 4.34591558904459e-03 8.14793467430903e-05
9.96277777777778e+00 4.18227208122958e-03 7.87590122413875e-05
1.00505555555556e+01 4.02479049601751e-03 7.61265457236368e-05
1.01383333333333e+01 3.87323881061842e-03 7.35792610123075e-05
1.02261111111111e+01 3.72739373581531e-03 7.11145458672390e-05
1.03138888888889e+01 3.58704039176799e-03 6.87298599559050e-05
1.04016666666667e+01 3.45197198983490e-03 6.64227339148735e-05
1.04894444444444e+01 3.32198952791032e-03 6.41907674719240e-05
1.05772222222222e+01 3.19690149837648e-03 6.20316283370628e-05
1.06650000000000e+01 3.07652360238896e-03 5.99430503873750e-05
1.07527777777778e+01 2.96067848199718e-03 5.79228318380792e-05
1.08405555555556e+01 2.84919545758346e-03 5.59688340910658e-05
1.09283333333333e+01 2.74191027735168e-03 5.40789804385904e-05
1.10161111111111e+01 2.63866487237751e-03 5.22512543433921e-05
1.11038888888889e+01 2.53930712674955e-03 5.04836977153788e-05
1.11916666666667e+01 2.44369065240952e-03 4.87744098646904e-05
1.12794444444444e+01 2.35167457347716e-03 4.71215458461276e-05
1.13672222222222e+01 2.26312331944946e-03 4.55233153448497e-05
1.14550000000000e+01 2.17790642311629e-03 4.39779810959403e-05
1.15427777777778e+01 2.09589833074399e-03 4.24838573095859e-05
1.16305555555556e+01 2.01697821626769e-03 4.10393085729782e-05
1.17183333333333e+01 1.94102980390545e-03 3.96427486673754e-05
1.18061111111111e+01 1.86794119489712e-03 3.82926391085444e-05
1.18938888888889e+01 1.79760470463894e-03 3.69874876972195e-05
1.19816666666667e+01 1.72991670334057e-03 3.57258475436744e-05
1.20694444444444e+01 1.66477746334575e-03 3.45063156874532e-05
1.21572222222222e+01 1.60209101270071e-03 3.33275320980575e-05
1.22450000000000e+01 1.54176499220480e-03 3.21881783669067e-05
1.23327777777778e+01 1.48371052092568e-03 3.10869764128477e-05
1.24205555555556e+01 1.42784206470220e-03 3.00226875231208e-05
1.25083333333333e+01 1.37407731054242e-03 2.89941113453524e-05
1.25961111111111e+01 1.32233704405766e-03 2.80000846984149e-05
1.26838888888889e+01 1.27254503407819e-03 2.70394803981879e-05
1.27716666666667e+01 1.22462791988346e-03 2.61112064158155e-05
1.28594444444444e+01 1.17851510311848e-03 2.52142047659033e-05
1.29472222222222e+01 1.13413864411143e-03 2.43474506628753e-05
1.30350000000000e+01 1.09143316074555e-03 2.35099514723131e-05
1.31227777777778e+01 1.05033573318652e-03 2.27007456779488e-05
1.32105555555556e+01 1.01078581081784e-03 2.19189020847713e-05
1.32983333333333e+01 9.72725123308092e-04 2.11635189945036e-05
1.33861111111111e+01 9.36097593899594e-04 2.04337232622495e-05
1.34738888888889e+01 9.00849257670440e-04 1.97286693686665e-05
1.35616666666667e+01 8.66928181722835e-04 1.90475387254556e-05
1.36494444444444e+01 8.34284388669267e-04 1.83895388002817e-05
1.37372222222222e+01 8.02869783220991e-04 1.77539024305116e-05
1.38250000000000e+01 7.72638080640408e-04 1.71398870005189e-05
1.39127777777778e+01 7.43544739253132e-04 1.65467736339629e-05
1.40005555555556e+01 7.15546894581357e-04 1.59738665523187e-05
1.40883333333333e+01 6.88603296376181e-04 1.54204924183740e-05
1.41761111111111e+01 6.62674247267953e-04 1.48859996016694e-05
1.42638888888889e+01 6.37721544867773e-04 1.43697574581412e-05
1.43516666666667e+01 6.13708425280041e-04 1.38711557735885e-05
1.44394444444444e+01 5.90599508937350e-04 1.33896040861804e-05
1.45272222222222e+01 5.68360748623048e-04 1.29245311419627e-05
1.46150000000000e+01 5.46959378848441e-04 1.24753842594263e-05
1.47027777777778e+01 5.26363868049974e-04 1.20416287071993e-05
1.47905555555556e+01 5.06543871970848e-04 1.16227471988519e-05
1.48783333333333e+01 4.87470189078446e-04 1.12182393799947e-05
1.49661111111111e+01 4.69114717155873e-04 1.08276212640685e-05
1.50538888888889e+01 4.51450412292669e-04 1.04504246802788e-05
1.51416666666667e+01 4.34451248904360e-04 1.00861968366367e-05
1.52294444444444e+01 4.18092181388300e-04 9.73449980184198e-06
1.53172222222222e+01 4.02349107322811e-04 9.39491008089163e-06
1.54050000000000e+01 3.87198831647573e-04 9.06701812999568e-06
1.54927777777778e+01 3.72619032806133e-04 8.75042788243553e-06
1.55805555555556e+01 3.58588229750150e-04 8.44475635695976e-06
1.56683333333333e+01 3.45085750374400e-04 8.14963326264362e-06
1.57561111111111e+01 3.32091700801219e-04 7.86470057001465e-06
1.58438888888889e+01 3.19586936335380e-04 7.58961209214831e-06
1.59316666666667e+01 3.07553033166357e-04 7.32403314669041e-06
1.60194444444444e+01 2.95972261224020e-04 7.06764016335898e-06
1.61072222222222e+01 2.84827558123404e-04 6.82012035752336e-06
1.61950000000000e+01 2.74102503818365e-04 6.58117136323724e-06
1.62827777777778e+01 2.63781296622400e-04 6.35050087510820e-06
1.63705555555556e+01 2.53848729854372e-04 6.12782634836405e-06
1.64583333333333e+01 2.44290169490418e-04 5.91287469767983e-06
1.65461111111111e+01 2.35091532428869e-04 5.70538197382968e-06
1.66338888888889e+01 2.26239265919819e-04 5.50509304830549e-06
1.67216666666667e+01 2.17720327535941e-04 5.31176135486528e-06
1.68094444444444e+01 2.09522165956706e-04 5.12514859441809e-06
1.68972222222222e+01 2.01632702521359e-04 4.94502448651440e-06
1.69850000000000e+01 1.94040313292845e-04 4.77116649373020e-06
1.70727777777778e+01 1.86733812075584e-04 4.60335955303063e-06
1.71605555555556e+01 1.79702433885138e-04 4.44139584818653e-06
1.72483333333333e+01 1.72935819125901e-04 4.28507458215093e-06
1.73361111111111e+01 1.66423998210253e-04 4.13420173486692e-06
1.74238888888889e+01 1.60157376990688e-04 3.98858982732070e-06
1.75116666666667e+01 1.54126722582932e-04 3.84805772566559e-06
1.75994444444444e+01 1.48323149762857e-04 3.71243042067063e-06
1.76872222222222e+01 1.42738107906182e-04 3.58153884005483e-06
1.77750000000000e+01 1.37363368295770e-04 3.45521964269150e-06
1.78627777777778e+01 1.32191012095144e-04 3.33331501823694e-06
1.79505555555556e+01 1.27213418648037e-04 3.21567251573055e-06
1.80383333333333e+01 1.22423254276412e-04 3.10214487272465e-06
1.81261111111111e+01 1.17813461395843e-04 2.99258983485249e-06
1.82138888888889e+01 1.13377248198988e-04 2.88686998022158e-06
1.83016666666667e+01 1.09108078620908e-04 2.78485257202737e-06
1.83894444444444e+01 1.04999662709276e-04 2.68640939454890e-06
1.84772222222222e+01 1.01045947377911e-04 2.59141661235827e-06
1.85650000000000e+01 9.72411074243464e-05 2.49975461740109e-06
1.86527777777778e+01 9.35795370131861e-05 2.41130788024091e-06
1.87405555555556e+01 9.00558413942353e-05 2.32596482175783e-06
1.88283333333333e+01 8.66648289717169e-05 2.24361768559496e-06
1.89161111111111e+01 8.34015036012987e-05 2.16416240433783e-06
1.90038888888889e+01 8.02610572844684e-05 2.08749846938198e-06
1.90916666666667e+01 7.72388630657032e-05 2.01352882068423e-06
1.91794444444444e+01 7.43304682154275e-05 1.94215972531700e-06
1.92672222222222e+01 7.15315876837286e-05 1.87330067241558e-06
1.93550000000000e+01 6.88380977434594e-05 1.80686426001025e-06
1.94427777777778e+01 6.62460299592856e-05 1.74276608502450e-06
1.95305555555556e+01 6.37515653255158e-05 1.68092464771962e-06
1.96183333333333e+01 6.13510286513058e-05 1.62126125691906e-06
1.97061111111111e+01 5.90408831091790e-05 1.56369993113272e-06
1.97938888888889e+01 5.68177250617054e-05 1.50816730247568e-06
1.98816666666667e+01 5.46782790338706e-05 1.45459253460324e-06
1.99694444444444e+01 5.26193928872107e-05 1.40290723309911e-06
2.00572222222222e+01 5.06380331852281e-05 1.35304536744398e-06
2.01450000000000e+01 4.87312806944900e-05 1.30494318755502e-06
2.02327777777778e+01 4.68963261139946e-05 1.25853914271439e-06
2.03205555555556e+01 4.51304659257030e-05 1.21377381070454e-06
2.04083333333333e+01 4.34310984194330e-05 1.17058982766421e-06
2.04961111111111e+01 4.17957198347024e-05 1.12893181526809e-06
2.05838888888889e+01 4.02219206974394e-05 1.08874631000901e-06
2.06716666666667e+01 3.87073822612214e-05 1.04998170236459e-06
2.07594444444444e+01 3.72498730909874e-05 1.01258817087639e-06
2.08472222222222e+01 3.58472457819049e-05 9.76517624412095e-07
2.09350000000000e+01 3.44974337753426e-05 9.41723640796962e-07
2.10227777777778e+01 3.31984483348209e-05 9.08161407236550e-07
2.11105555555556e+01 3.19483756088362e-05 8.75787667953166e-07
2.11983333333333e+01 3.07453738166232e-05 8.44560672446573e-07
2.12861111111111e+01 2.95876705175811e-05 8.14440122012623e-07
2.13738888888889e+01 2.84735600173110e-05 7.85387117834555e-07
2.14616666666667e+01 2.74014008485608e-05 7.57364116047828e-07
2.15494444444444e+01 2.63696133527948e-05 7.30334879374895e-07
2.16372222222222e+01 2.53766773572729e-05 7.04264434544412e-07
2.17250000000000e+01 2.44211299215634e-05 6.79119027283282e-07
2.18127777777778e+01 2.35015631962472e-05 6.54866078644855e-07
2.19005555555556e+01 2.26166223438406e-05 6.31474146437141e-07
2.19883333333333e+01 2.17650035464234e-05 6.08912887170150e-07
2.20761111111111e+01 2.09454520730683e-05 5.87153016873103e-07
2.21638888888889e+01 2.01567604430988e-05 5.66166273082380e-07
2.22516666666667e+01 1.93977666429751e-05 5.45925381751059e-07
2.23394444444444e+01 1.86673524142577e-05 5.26404021846025e-07
2.24272222222222e+01 1.79644416090744e-05 5.07576794035081e-07
2.25150000000000e+01 1.72879985951949e-05 4.89419187752549e-07
2.26027777777778e+01 1.66370267398288e-05 4.71907549257214e-07
2.26905555555556e+01 1.60105669379446e-05 4.55019053296854e-07
2.27783333333333e+01 1.54076962017536e-05 4.38731675192785e-07
2.28661111111111e+01 1.48275262929067e-05 4.23024162194195e-07
2.29538888888889e+01 1.42692024219503e-05 4.07876005700453e-07
2.30416666666667e+01 1.37319019861396e-05 3.93267416958044e-07
2.31294444444444e+01 1.32148333574687e-05 3.79179301198726e-07
2.32172222222222e+01 1.27172347184126e-05 3.65593234670443e-07
2.33050000000000e+01 1.22383729330883e-05 3.52491440585813e-07
2.33927777777778e+01 1.17775424736851e-05 3.39856765804798e-07
2.34805555555556e+01 1.13340643787243e-05 3.27672660068612e-07
2.35683333333333e+01 1.09072852544776e-05 3.15923155566683e-07
2.36561111111111e+01 1.04965763068715e-05 3.04592846034084e-07
2.37438888888889e+01 1.01013324206243e-05 2.93666866490225e-07
2.38316666666667e+01 9.72097126579540e-06 2.83130875431377e-07
2.39194444444444e+01 9.35493243981812e-06 2.72971035972765e-07
2.40072222222222e+01 9.00267664325922e-06 2.63173999037075e-07
2.40950000000000e+01 8.66368488085101e-06 2.53726885821159e-07
2.41827777777778e+01 8.33745770134482e-06 2.44617270804171e-07
2.42705555555556e+01 8.02351446010390e-06 2.35833166560835e-07
2.43583333333333e+01 7.72139261215543e-06 2.27363008834838e-07
2.44461111111111e+01 7.43064702698950e-06 2.19195641312100e-07
2.45338888888889e+01 7.15084933654103e-06 2.11320300866367e-07
2.46216666666667e+01 6.88158730275022e-06 2.03726604538246e-07
2.47094444444444e+01 6.62246421019717e-06 1.96404535806609e-07
2.47972222222222e+01 6.37309828258059e-06 1.89344432308060e-07
2.48850000000000e+01 6.13312211721859e-06 1.82536973075624e-07
2.49727777777778e+01 5.90218214683012e-06 1.75973166175612e-07
2.50605555555556e+01 5.67993811755094e-06 1.69644337621985e-07
2.51483333333333e+01 5.46606258845013e-06 1.63542120491531e-07
2.52361111111111e+01 5.26024044655121e-06 1.57658443848551e-07
2.53238888888889e+01 5.06216844517598e-06 1.51985522016509e-07
2.54116666666667e+01 4.87155475626255e-06 1.46515845074560e-07
2.54994444444444e+01 4.68811854040418e-06 1.41242168877628e-07
2.55872222222222e+01 4.51158953374662e-06 1.36157506101334e-07
2.56750000000000e+01 4.34170764773060e-06 1.31255116967146e-07
2.57627777777778e+01 4.17822258801298e-06 1.26528500259644e-07
2.58505555555556e+01 4.02089348497148e-06 1.21971385248051e-07
2.59383333333333e+01 3.86948853938875e-06 1.17577723761335e-07
2.60261111111111e+01 3.72378467918528e-06 1.13341682143461e-07
2.61138888888889e+01 3.58356723255122e-06 1.09257633462920e-07
2.62016666666667e+01 3.44862961104650e-06 1.05320150588001e-07
2.62894444444444e+01 3.31877300522640e-06 1.01523998941445e-07
2.63772222222222e+01 3.19380609218708e-06 9.78641299805860e-08
2.64650000000000e+01 3.07354475226275e-06 9.43356744651390e-08
2.65527777777778e+01 2.95781179921033e-06 9.09339359388200e-08
2.66405555555556e+01 2.84643671865503e-06 8.76543848511711e-08
2.67283333333333e+01 2.73925541725409e-06 8.44926527959354e-08
2.68161111111111e+01 2.63610997973073e-06 8.14445266748251e-08
2.69038888888889e+01 2.53684843744271e-06 7.85059430472674e-08
2.69916666666667e+01 2.44132454405828e-06 7.56729830921955e-08
2.70794444444444e+01 2.34939756008588e-06 7.29418673542400e-08
2.71672222222222e+01 2.26093204583283e-06 7.03089510035835e-08
2.72550000000000e+01 2.17579766088125e-06 6.77707189550692e-08
2.73427777777778e+01 2.09386897305266e-06 6.53237811435229e-08
2.74305555555556e+01 2.01502527326080e-06 6.29648682524244e-08
2.75183333333333e+01 1.93915039793390e-06 6.06908275304513e-08
2.76061111111111e+01 1.86613255704062e-06 5.84986185622263e-08
2.76938888888889e+01 1.79586417023203e-06 5.63853091748343e-08
