Energy (eV)          EEDF (eV^-(3/2))     First Anisotropy
2.11818181818182e-02 2.52654140148603e-01 2.00537089643588e-04
6.35454545454545e-02 2.48717364964769e-01 3.29672139193799e-04
1.05909090909091e-01 2.44841931346052e-01 4.31323415203102e-04
1.48272727272727e-01 2.41026883483021e-01 5.06227094765086e-04
1.90636363636364e-01 2.37271280469325e-01 5.66805527234938e-04
2.33000000000000e-01 2.33574196036290e-01 6.17818663364279e-04
2.75363636363636e-01 2.29934718384305e-01 6.61761180147616e-04
3.17727272727273e-01 2.26351949888834e-01 7.00158120096036e-04
3.60090909090909e-01 2.22825006939482e-01 7.34033079319778e-04
4.02454545454546e-01 2.19353019678883e-01 7.64118008215689e-04
4.44818181818182e-01 2.15935131796596e-01 7.90960932949242e-04
4.87181818181818e-01 2.12570500342081e-01 8.14986780916061e-04
5.29545454545455e-01 2.09258295489962e-01 8.36534231373869e-04
5.71909090909091e-01 2.05997700339789e-01 8.55879290107766e-04
6.14272727272727e-01 2.02787910731884e-01 8.73251049223861e-04
6.56636363636364e-01 1.99628135030215e-01 8.88842604415219e-04
6.99000000000000e-01 1.96517593929622e-01 9.02818844384868e-04
7.41363636363636e-01 1.93455520277024e-01 9.15322156613946e-04
7.83727272727273e-01 1.90441158864146e-01 9.26476695749525e-04
8.26090909090909e-01 1.87473766258356e-01 9.36391638907669e-04
8.68454545454545e-01 1.84552610606612e-01 9.45163711858414e-04
9.10818181818182e-01 1.81676971456312e-01 9.52879174831987e-04
9.53181818181818e-01 1.78846139587325e-01 9.59615408750729e-04
9.95545454545455e-01 1.76059416826861e-01 9.65442194973553e-04
1.03790909090909e+00 1.73316115886078e-01 9.70422760785544e-04
1.08027272727273e+00 1.70615560164825e-01 9.74614637263467e-04
1.12263636363636e+00 1.67957083621512e-01 9.78070371363417e-04
1.16500000000000e+00 1.65340030615816e-01 9.80838134919651e-04
1.20736363636364e+00 1.62763755676514e-01 9.82962223193365e-04
1.24972727272727e+00 1.60227623433893e-01 9.84483486606817e-04
1.29209090909091e+00 1.57731008377168e-01 9.85439701808015e-04
1.33445454545455e+00 1.55273294762744e-01 9.85865880702705e-04
1.37681818181818e+00 1.52853876459138e-01 9.85794556298981e-04
1.41918181818182e+00 1.50472156743587e-01 9.85256016036986e-04
1.46154545454545e+00 1.48127548209157e-01 9.84278505297988e-04
1.50390909090909e+00 1.45819472617395e-01 9.82888421273730e-04
1.54627272727273e+00 1.43547360708315e-01 9.81110469746947e-04
1.58863636363636e+00 1.41310652107731e-01 9.78967803530746e-04
1.63100000000000e+00 1.39108795186779e-01 9.76482159472391e-04
1.67336363636364e+00 1.36941246884157e-01 9.73673966102966e-04
1.71572727272727e+00 1.34807472626758e-01 9.70562446478410e-04
1.75809090909091e+00 1.32706946145950e-01 9.67165711502032e-04
1.80045454545455e+00 1.30639149385849e-01 9.63500836544166e-04
1.84281818181818e+00 1.28603572373850e-01 9.59583944029316e-04
1.88518181818182e+00 1.26599713061228e-01 9.55430266837537e-04
1.92754545454545e+00 1.24627077233203e-01 9.51054205646113e-04
1.96990909090909e+00 1.22685178385675e-01 9.46469392242484e-04
2.01227272727273e+00 1.20773537575058e-01 9.41688736688350e-04
2.05463636363636e+00 1.18891683330569e-01 9.36724470257335e-04
2.09700000000000e+00 1.17039151536656e-01 9.31588195107486e-04
2.13936363636364e+00 1.15215485291467e-01 9.26290918977026e-04
2.18172727272727e+00 1.13420234829698e-01 9.20843092035146e-04
2.22409090909091e+00 1.11652957377625e-01 9.15254641497647e-04
2.26645454545455e+00 1.09913217068985e-01 9.09534998055925e-04
2.30881818181818e+00 1.08200584836465e-01 9.03693130396280e-04
2.35118181818182e+00 1.06514638283398e-01 8.97737568521398e-04
2.39354545454545e+00 1.04854961602255e-01 8.91676425274590e-04
2.43590909090909e+00 1.03221145471235e-01 8.85517424748082e-04
2.47827272727273e+00 1.01612786932897e-01 8.79267920630683e-04
2.52063636363636e+00 1.00029489315365e-01 8.72934913207824e-04
2.56300000000000e+00 9.84708621336906e-02 8.66525073070811e-04
2.60536363636364e+00 9.69365209750090e-02 8.60044754913022e-04
2.64772727272727e+00 9.54260874281251e-02 8.53500014242172e-04
2.69009090909091e+00 9.39391889666979e-02 8.46896623488353e-04
2.73245454545455e+00 9.24754588747205e-02 8.40240082885816e-04
2.77481818181818e+00 9.10345361554144e-02 8.33535638423435e-04
2.81718181818182e+00 8.96160654265065e-02 8.26788292021522e-04
2.85954545454545e+00 8.82196968484074e-02 8.20002811041893e-04
2.90190909090909e+00 8.68450860373652e-02 8.13183743716901e-04
2.94427272727273e+00 8.54918939661577e-02 8.06335427420200e-04
2.98663636363636e+00 8.41597868949742e-02 7.99461996414511e-04
3.02900000000000e+00 8.28484362885661e-02 7.92567395230284e-04
3.07136363636364e+00 8.15575187220716e-02 7.85655384815279e-04
3.11372727272727e+00 8.02867158185809e-02 7.78729551323039e-04
3.15609090909091e+00 7.90357141538692e-02 7.71793314762020e-04
3.19845454545455e+00 7.78042051914932e-02 7.64849933914309e-04
3.24081818181818e+00 7.65918852062474e-02 7.57902517021263e-04
3.28318181818182e+00 7.53984551979758e-02 7.50954026686829e-04
3.32554545454546e+00 7.42236208292104e-02 7.44007284496360e-04
3.36790909090909e+00 7.30670923521877e-02 7.37064980456513e-04
3.41027272727273e+00 7.19285845269966e-02 7.30129677052804e-04
3.45263636363636e+00 7.08078165617135e-02 7.23203813077532e-04
3.49500000000000e+00 6.97045120427776e-02 7.16289712016198e-04
3.53736363636364e+00 6.86183988572564e-02 7.09389584935001e-04
3.57972727272727e+00 6.75492091383534e-02 7.02505535574565e-04
3.62209090909091e+00 6.64966791871213e-02 6.95639565452723e-04
3.66445454545455e+00 6.54605494164868e-02 6.88793576164024e-04
3.70681818181818e+00 6.44405642869118e-02 6.81969376311960e-04
3.74918181818182e+00 6.34364722350858e-02 6.75168683998164e-04
3.79154545454545e+00 6.24480256202422e-02 6.68393129179129e-04
3.83390909090909e+00 6.14749806628048e-02 6.61644259899874e-04
3.87627272727273e+00 6.05170973765990e-02 6.54923544368729e-04
3.91863636363636e+00 5.95741395173988e-02 6.48232372923367e-04
3.96100000000000e+00 5.86458745243961e-02 6.41572063657105e-04
4.00336363636364e+00 5.77320734557589e-02 6.34943863769194e-04
4.04572727272727e+00 5.68325109415260e-02 6.28348952717386e-04
4.08809090909091e+00 5.59469651189415e-02 6.21788445426400e-04
4.13045454545455e+00 5.50752175844767e-02 6.15263393332143e-04
4.17281818181818e+00 5.42170533397364e-02 6.08774789138887e-04
4.21518181818182e+00 5.33722607322497e-02 6.02323568100684e-04
4.25754545454545e+00 5.25406314095117e-02 5.95910609238214e-04
4.29990909090909e+00 5.17219602673950e-02 5.89536739667393e-04
4.34227272727273e+00 5.09160453938235e-02 5.83202735663639e-04
4.38463636363636e+00 5.01226880247687e-02 5.76909323672704e-04
4.42700000000000e+00 4.93416924950356e-02 5.70657184259254e-04
4.46936363636364e+00 4.85728661846798e-02 5.64446952686019e-04
4.51172727272727e+00 4.78160194785411e-02 5.58279220954849e-04
4.55409090909091e+00 4.70709657126368e-02 5.52154539914361e-04
4.59645454545455e+00 4.63375211332058e-02 5.46073419669866e-04
4.63881818181818e+00 4.56155048512215e-02 5.40036332973856e-04
4.68118181818182e+00 4.49047387931030e-02 5.34043715866367e-04
4.72354545454546e+00 4.42050476615167e-02 5.28095968283554e-04
4.76590909090909e+00 4.35162588919927e-02 5.22193457167795e-04
4.80827272727273e+00 4.28382026060124e-02 5.16336516989275e-04
4.85063636363636e+00 4.21707115735047e-02 5.10525450241312e-04
4.89300000000000e+00 4.15136211714584e-02 5.04760530298273e-04
4.93536363636364e+00 4.08667693392733e-02 4.99042001594575e-04
4.97772727272727e+00 4.02299965441450e-02 4.93370080987807e-04
5.02009090909091e+00 3.96031457365087e-02 4.87744959186103e-04
5.06245454545455e+00 3.89860623151786e-02 4.82166800829629e-04
5.10481818181818e+00 3.83785940890931e-02 4.76635746971125e-04
5.14718181818182e+00 3.77805912362077e-02 4.71151915363561e-04
5.18954545454546e+00 3.71919062701504e-02 4.65715400732541e-04
5.23190909090909e+00 3.66123940037346e-02 4.60326277064705e-04
5.27427272727273e+00 3.60419115098184e-02 4.54984597828827e-04
5.31663636363636e+00 3.54803180894193e-02 4.49690396184565e-04
5.35900000000000e+00 3.49274752369053e-02 4.44443687096334e-04
5.40136363636364e+00 3.43832466027285e-02 4.39244467303414e-04
5.44372727272727e+00 3.38474979639086e-02 4.34092716249871e-04
5.48609090909091e+00 3.33200971869242e-02 4.28988397071828e-04
5.52845454545455e+00 3.28009141981025e-02 4.23931456509912e-04
5.57081818181818e+00 3.22898209514448e-02 4.18921826758350e-04
5.61318181818182e+00 3.17866913942938e-02 4.13959425555091e-04
5.65554545454545e+00 3.12914014390242e-02 4.09044156265542e-04
5.69790909090909e+00 3.08038289323531e-02 4.04175909595496e-04
5.74027272727273e+00 3.03238536226409e-02 3.99354563643815e-04
5.78263636363636e+00 2.98513571328305e-02 3.94579983950235e-04
5.82500000000000e+00 2.93862229311705e-02 3.89852025083638e-04
5.86736363636364e+00 2.89283363000716e-02 3.85170530506230e-04
5.90972727272727e+00 2.84775843109951e-02 3.80535333216776e-04
5.95209090909091e+00 2.80338557934998e-02 3.75946256443420e-04
5.99445454545455e+00 2.75970413101309e-02 3.71403113473320e-04
6.03681818181818e+00 2.71670331293573e-02 3.66905709049949e-04
6.07918181818182e+00 2.67437251968657e-02 3.62453839353104e-04
6.12154545454545e+00 2.63270131115611e-02 3.58047291977228e-04
6.16390909090909e+00 2.59167940997525e-02 3.53685847229800e-04
6.20627272727273e+00 2.55129669878065e-02 3.49369278090682e-04
6.24863636363636e+00 2.51154321792134e-02 3.45097350170519e-04
6.29100000000000e+00 2.47240916299610e-02 3.40869822918040e-04
6.33336363636364e+00 2.43388488224834e-02 3.36686449435206e-04
6.37572727272727e+00 2.39596087443340e-02 3.32546976925858e-04
6.41809090909091e+00 2.35862778623356e-02 3.28451147186437e-04
6.46045454545455e+00 2.32187641013109e-02 3.24398696400419e-04
6.50281818181818e+00 2.28569768213181e-02 3.20389356205031e-04
6.54518181818182e+00 2.25008267936294e-02 3.16422853611827e-04
6.58754545454546e+00 2.21502261804076e-02 3.12498910927964e-04
6.62990909090909e+00 2.18050885129921e-02 3.08617246749655e-04
6.67227272727273e+00 2.14653286690104e-02 3.04777575871928e-04
6.71463636363636e+00 2.11308628529620e-02 3.00979609199527e-04
6.75700000000000e+00 2.08016085755038e-02 2.97223054672616e-04
6.79936363636364e+00 2.04774846316414e-02 2.93507617064741e-04
6.84172727272727e+00 2.01584110826409e-02 2.89832998296899e-04
6.88409090909091e+00 1.98443092344203e-02 2.86198897786825e-04
6.92645454545455e+00 1.95351016195503e-02 2.82605012234816e-04
6.96881818181818e+00 1.92307119781060e-02 2.79051036444373e-04
7.01118181818182e+00 1.89310652375499e-02 2.75536663213104e-04
7.05354545454546e+00 1.86360874955379e-02 2.72061583225667e-04
7.09590909090909e+00 1.83457060016542e-02 2.68625485819367e-04
7.13827272727273e+00 1.80598491382396e-02 2.65228058870155e-04
7.18063636363636e+00 1.77784464039694e-02 2.61868988680800e-04
7.22300000000000e+00 1.75014283964276e-02 2.58547960695467e-04
7.26536363636364e+00 1.72287267938381e-02 2.55264659298201e-04
7.30772727272727e+00 1.69602743397411e-02 2.52018768032530e-04
7.35009090909091e+00 1.66960048249144e-02 2.48809969850538e-04
7.39245454545455e+00 1.64358530721547e-02 2.45637946904515e-04
7.43481818181818e+00 1.61797549201687e-02 2.42502381182028e-04
7.47718181818182e+00 1.59276472067182e-02 2.39402954384930e-04
7.51954545454546e+00 1.56794677540832e-02 2.36339347810915e-04
7.56190909090909e+00 1.54351553536972e-02 2.33311242946819e-04
7.60427272727273e+00 1.51946497500812e-02 2.30318321346199e-04
7.64663636363636e+00 1.49578916269619e-02 2.27360264509497e-04
7.68900000000000e+00 1.47248225926134e-02 2.24436754438502e-04
7.73136363636364e+00 1.44953851645455e-02 2.21547473444890e-04
7.77372727272727e+00 1.42695227565330e-02 2.18692104302955e-04
7.81609090909091e+00 1.40471796634813e-02 2.15870330426881e-04
7.85845454545455e+00 1.38283010485654e-02 2.13081835675758e-04
7.90081818181818e+00 1.36128329296794e-02 2.10326304847347e-04
7.94318181818182e+00 1.34007221653064e-02 2.07603423555600e-04
7.98554545454546e+00 1.31919164422363e-02 2.04912878110897e-04
8.02790909090909e+00 1.29863642626400e-02 2.02254355981802e-04
8.07027272727273e+00 1.27840149306008e-02 1.99627545673201e-04
8.11263636363636e+00 1.25848185403860e-02 1.97032136607126e-04
8.15500000000000e+00 1.23887259641160e-02 1.94467819554705e-04
8.19736363636364e+00 1.21956888389263e-02 1.91934286459521e-04
8.23972727272727e+00 1.20056595559958e-02 1.89431230542676e-04
8.28209090909091e+00 1.18185912478703e-02 1.86958346428308e-04
8.32445454545455e+00 1.16344377776000e-02 1.84515329965518e-04
8.36681818181818e+00 1.14531537273400e-02 1.82101878613616e-04
8.40918181818182e+00 1.12746943865005e-02 1.79717691324152e-04
8.45154545454545e+00 1.10990157413747e-02 1.77362468425635e-04
8.49390909090909e+00 1.09260744642643e-02 1.75035911984109e-04
8.53627272727273e+00 1.07558279021836e-02 1.72737725686942e-04
8.57863636363636e+00 1.05882340669564e-02 1.70467614729228e-04
8.62100000000000e+00 1.04232516248417e-02 1.68225286151366e-04
8.66336363636364e+00 1.02608398857660e-02 1.66010448679156e-04
8.70572727272727e+00 1.01009587940486e-02 1.63822812794862e-04
8.74809090909091e+00 9.94356891777846e-03 1.61662090825214e-04
8.79045454545455e+00 9.78863143964380e-03 1.59527996781394e-04
8.83281818181818e+00 9.63610814734194e-03 1.57420246660471e-04
8.87518181818182e+00 9.48596142363848e-03 1.55338558335196e-04
8.91754545454546e+00 9.33815423761143e-03 1.53282651446334e-04
8.95990909090909e+00 9.19265013550328e-03 1.51252247684966e-04
9.00227272727273e+00 9.04941323124370e-03 1.49247070684642e-04
9.04463636363636e+00 8.90840819809037e-03 1.47266845915974e-04
9.08700000000000e+00 8.76960025990190e-03 1.45311300951074e-04
9.12936363636364e+00 8.63295518210296e-03 1.43380165320752e-04
9.17172727272727e+00 8.49843926384828e-03 1.41473170561253e-04
9.21409090909091e+00 8.36601932911684e-03 1.39590050275073e-04
9.25645454545455e+00 8.23566271897241e-03 1.37730539988802e-04
9.29881818181818e+00 8.10733728349595e-03 1.35894377389475e-04
9.34118181818182e+00 7.98101137344358e-03 1.34081302223726e-04
9.38354545454546e+00 7.85665383285785e-03 1.32291056199227e-04
9.42590909090909e+00 7.73423399137170e-03 1.30523383206143e-04
9.46827272727273e+00 7.61372165625527e-03 1.28778029218867e-04
9.51063636363636e+00 7.49508710536221e-03 1.27054742199990e-04
9.55300000000000e+00 7.37830107978792e-03 1.25353272307834e-04
9.59536363636364e+00 7.26333477628695e-03 1.23673371770119e-04
9.63772727272727e+00 7.15015984065518e-03 1.22014794913386e-04
9.68009090909091e+00 7.03874836026123e-03 1.20377298204094e-04
9.72245454545455e+00 6.92907285751680e-03 1.18760640123400e-04
9.76481818181818e+00 6.82110628308959e-03 1.17164581352780e-04
9.80718181818182e+00 6.71482200890140e-03 1.15588884683023e-04
9.84954545454545e+00 6.61019382189476e-03 1.14033314925302e-04
9.89190909090909e+00 6.50719591755849e-03 1.12497639085179e-04
9.93427272727273e+00 6.40580289325169e-03 1.10981626274217e-04
9.97663636363636e+00 6.30598974225356e-03 1.09485047623619e-04
1.00190000000000e+01 6.20773184758685e-03 1.08007676396310e-04
1.00613636363636e+01 6.11100497584158e-03 1.06549288206804e-04
1.01037272727273e+01 6.01578527036441e-03 1.05109660301476e-04
1.01460909090909e+01 5.92204924791249e-03 1.03688572040080e-04
1.01884545454545e+01 5.82977379020154e-03 1.02285805576245e-04
1.02308181818182e+01 5.73893613829683e-03 1.00901144386789e-04
1.02731818181818e+01 5.64951388965318e-03 9.95343740210957e-05
1.03155454545455e+01 5.56148498989999e-03 9.81852828179602e-05
1.03579090909091e+01 5.47482772749041e-03 9.68536604591067e-05
1.04002727272727e+01 5.38952073084312e-03 9.55392986774688e-05
1.04426363636364e+01 5.30554296054035e-03 9.42419919347289e-05
1.04850000000000e+01 5.22287370422059e-03 9.29615360495932e-05
1.05273636363636e+01 5.14149257382175e-03 9.16977290732668e-05
1.05697272727273e+01 5.06137949742412e-03 9.04503711007435e-05
1.06120909090909e+01 4.98251471737173e-03 8.92192640058450e-05
1.06544545454545e+01 4.90487878310256e-03 8.80042122891401e-05
1.06968181818182e+01 4.82845254642514e-03 8.68050218179181e-05
1.07391818181818e+01 4.75321715893073e-03 8.56215004374279e-05
1.07815454545455e+01 4.67915406518076e-03 8.44534585558035e-05
1.08239090909091e+01 4.60624499820099e-03 8.33007079489181e-05
1.08662727272727e+01 4.53447197698619e-03 8.21630623383163e-05
1.09086363636364e+01 4.46381730002801e-03 8.10403379442636e-05
1.09510000000000e+01 4.39426354101444e-03 7.99323523520622e-05
1.09933636363636e+01 4.32579354642605e-03 7.88389252281443e-05
1.10357272727273e+01 4.25839042878522e-03 7.77598781602973e-05
1.10780909090909e+01 4.19203756496573e-03 7.66950344352040e-05
1.11204545454545e+01 4.12671859024256e-03 7.56442197323452e-05
1.11628181818182e+01 4.06241739431471e-03 7.46072610823403e-05
1.12051818181818e+01 3.99911811905277e-03 7.35839873661121e-05
1.12475454545455e+01 3.93680515284362e-03 7.25742297927031e-05
1.12899090909091e+01 3.87546312679638e-03 7.15778209110085e-05
1.13322727272727e+01 3.81507691257312e-03 7.05945950818818e-05
1.13746363636364e+01 3.75563161701464e-03 6.96243889300579e-05
1.14170000000000e+01 3.69711257851940e-03 6.86670404064775e-05
1.14593636363636e+01 3.63950536495611e-03 6.77223893746341e-05
1.15017272727273e+01 3.58279576807054e-03 6.67902774753873e-05
1.15440909090909e+01 3.52696980197851e-03 6.58705479401858e-05
1.15864545454545e+01 3.47201369822302e-03 6.49630461595131e-05
1.16288181818182e+01 3.41791390242581e-03 6.40676188210966e-05
1.16711818181818e+01 3.36465707233394e-03 6.31841143179769e-05
1.17135454545455e+01 3.31223007312096e-03 6.23123831392278e-05
1.17559090909091e+01 3.26061997419245e-03 6.14522770521389e-05
1.17982727272727e+01 3.20981404730673e-03 6.06036494882782e-05
1.18406363636364e+01 3.15979976210830e-03 5.97663559131445e-05
1.18830000000000e+01 3.11056478307924e-03 5.89402530500375e-05
1.19253636363636e+01 3.06209696773238e-03 5.81251993606432e-05
1.19677272727273e+01 3.01438436197278e-03 5.73210549306968e-05
1.20100909090909e+01 2.96741519876385e-03 5.65276813131579e-05
1.20524545454545e+01 2.92117789401802e-03 5.57449419943279e-05
1.20948181818182e+01 2.87566104377756e-03 5.49727016803561e-05
1.21371818181818e+01 2.83085342252602e-03 5.42108266311500e-05
1.21795454545455e+01 2.78674397928069e-03 5.34591849801756e-05
1.22219090909091e+01 2.74332183490320e-03 5.27176460572223e-05
1.22642727272727e+01 2.70057628047636e-03 5.19860807043935e-05
1.23066363636364e+01 2.65849677358890e-03 5.12643615787370e-05
1.23490000000000e+01 2.61707293576898e-03 5.05523625093953e-05
1.23913636363636e+01 2.57629455092478e-03 4.98499588918446e-05
1.24337272727273e+01 2.53615156149405e-03 4.91570275912360e-05
1.24760909090909e+01 2.49663406727075e-03 4.84734468107124e-05
1.25184545454545e+01 2.45773232198588e-03 4.77990964739352e-05
1.25608181818182e+01 2.41943673093418e-03 4.71338576339808e-05
1.26031818181818e+01 2.38173784951826e-03 4.64776127468065e-05
1.26455454545455e+01 2.34462637999675e-03 4.58302459332195e-05
1.26879090909091e+01 2.30809316922025e-03 4.51916424176984e-05
1.27302727272727e+01 2.27212920723281e-03 4.45616887872455e-05
1.27726363636364e+01 2.23672562417952e-03 4.39402732393494e-05
1.28150000000000e+01 2.20187368814588e-03 4.33272850491894e-05
1.28573636363636e+01 2.16756480381521e-03 4.27226148933024e-05
1.28997272727273e+01 2.13379050926984e-03 4.21261547678930e-05
1.29420909090909e+01 2.10054247496390e-03 4.15377978782498e-05
1.29844545454545e+01 2.06781250087655e-03 4.09574389529224e-05
1.30268181818182e+01 2.03559251451406e-03 4.03849737537013e-05
1.30691818181818e+01 2.00387456965746e-03 3.98202992997606e-05
1.31115454545455e+01 1.97265084365451e-03 3.92633140824231e-05
1.31539090909091e+01 1.94191363551376e-03 3.87139175998606e-05
1.31962727272727e+01 1.91165536470235e-03 3.81720105693049e-05
1.32386363636364e+01 1.88186856857017e-03 3.76374951303718e-05
1.32810000000000e+01 1.85254590053110e-03 3.71102744032146e-05
1.33233636363636e+01 1.82368012890949e-03 3.65902527544482e-05
1.33657272727273e+01 1.79526413428067e-03 3.60773357281249e-05
