Energy (eV)          EEDF (eV^-(3/2))     First Anisotropy
4.26250000000000e-02 3.62033621762026e-02 2.14553859672805e-05
1.27875000000000e-01 3.58921679093176e-02 3.53956650123729e-05
2.13125000000000e-01 3.55836485838743e-02 4.66382195553254e-05
2.98375000000000e-01 3.52777812067591e-02 5.51258641872914e-05
3.83625000000000e-01 3.49745429825362e-02 6.21606000557857e-05
4.68875000000000e-01 3.46739113117187e-02 6.82359499624770e-05
5.54125000000000e-01 3.43758637890804e-02 7.36079296793418e-05
6.39375000000000e-01 3.40803782019846e-02 7.84315038920911e-05
7.24625000000000e-01 3.37874325287292e-02 8.28096867639318e-05
8.09875000000000e-01 3.34970049369045e-02 8.68154542530515e-05
8.95125000000000e-01 3.32090737817662e-02 9.05029504077959e-05
9.80375000000000e-01 3.29236176046228e-02 9.39137896898809e-05
1.06562500000000e+00 3.26406151312356e-02 9.70808601632802e-05
1.15087500000000e+00 3.23600452702337e-02 1.00030747301437e-04
1.23612500000000e+00 3.20818871115416e-02 1.02785347594017e-04
1.32137500000000e+00 3.18061199248215e-02 1.05362981875653e-04
1.40662500000000e+00 3.15327231579277e-02 1.07779186772400e-04
1.49187500000000e+00 3.12616764353753e-02 1.10047291777231e-04
1.57712500000000e+00 3.09929595568215e-02 1.12178849299190e-04
1.66237500000000e+00 3.07265524955602e-02 1.14183961286040e-04
1.74762500000000e+00 3.04624353970293e-02 1.16071531464807e-04
1.83287500000000e+00 3.02005885773314e-02 1.17849463037289e-04
1.91812500000000e+00 2.99409925217662e-02 1.19524815680583e-04
2.00337500000000e+00 2.96836278833766e-02 1.21103931713681e-04
2.08862500000000e+00 2.94284754815069e-02 1.22592538575086e-04
2.17387500000000e+00 2.91755163003726e-02 1.23995832870919e-04
2.25912500000000e+00 2.89247314876443e-02 1.25318549920682e-04
2.34437500000000e+00 2.86761023530418e-02 1.26565021771397e-04
2.42962500000000e+00 2.84296103669414e-02 1.27739225954342e-04
2.51487500000000e+00 2.81852371589951e-02 1.28844826744427e-04
2.60012500000000e+00 2.79429645167616e-02 1.29885210298123e-04
2.68537500000000e+00 2.77027743843485e-02 1.30863514755589e-04
2.77062500000000e+00 2.74646488610672e-02 1.31782656171046e-04
2.85587500000000e+00 2.72285702000984e-02 1.32645350964608e-04
2.94112500000000e+00 2.69945208071696e-02 1.33454135455905e-04
3.02637500000000e+00 2.67624832392441e-02 1.34211382935588e-04
3.11162500000000e+00 2.65324402032205e-02 1.34919318648376e-04
3.19687500000000e+00 2.63043745546445e-02 1.35580032995705e-04
3.28212500000000e+00 2.60782692964308e-02 1.36195493213368e-04
3.36737500000000e+00 2.58541075775962e-02 1.36767553737087e-04
3.45262500000000e+00 2.56318726920043e-02 1.37297965434445e-04
3.53787500000000e+00 2.54115480771200e-02 1.37788383853373e-04
3.62312500000000e+00 2.51931173127750e-02 1.38240376614352e-04
3.70837500000000e+00 2.49765641199447e-02 1.38655430054258e-04
3.79362500000000e+00 2.47618723595343e-02 1.39034955213982e-04
3.87887500000000e+00 2.45490260311764e-02 1.39380293248749e-04
3.96412500000000e+00 2.43380092720384e-02 1.39692720328946e-04
4.04937500000000e+00 2.41288063556402e-02 1.39973452090036e-04
4.13462500000000e+00 2.39214016906825e-02 1.40223647682208e-04
4.21987500000000e+00 2.37157798198842e-02 1.40444413463790e-04
4.30512500000000e+00 2.35119254188311e-02 1.40636806376764e-04
4.39037500000000e+00 2.33098232948334e-02 1.40801837037947e-04
4.47562500000000e+00 2.31094583857935e-02 1.40940472575192e-04
4.56087500000000e+00 2.29108157590835e-02 1.41053639234425e-04
4.64612500000000e+00 2.27138806104324e-02 1.41142224780297e-04
4.73137500000000e+00 2.25186382628227e-02 1.41207080710546e-04
4.81662500000000e+00 2.23250741653963e-02 1.41249024301837e-04
4.90187500000000e+00 2.21331738923707e-02 1.41268840502923e-04
4.98712500000000e+00 2.19429231419632e-02 1.41267283689199e-04
5.07237500000000e+00 2.17543077353255e-02 1.41245079291133e-04
5.15762500000000e+00 2.15673136154867e-02 1.41202925307818e-04
5.24287500000000e+00 2.13819268463060e-02 1.41141493715640e-04
5.32812500000000e+00 2.11981336114338e-02 1.41061431781104e-04
5.41337500000000e+00 2.10159202132820e-02 1.40963363285857e-04
5.49862500000000e+00 2.08352730720033e-02 1.40847889671215e-04
5.58387500000000e+00 2.06561787244791e-02 1.40715591108758e-04
5.66912500000000e+00 2.04786238233160e-02 1.40567027502911e-04
5.75437500000000e+00 2.03025951358515e-02 1.40402739430907e-04
5.83962500000000e+00 2.01280795431670e-02 1.40223249024983e-04
5.92487500000000e+00 1.99550640391110e-02 1.40029060801217e-04
6.01012500000000e+00 1.97835357293289e-02 1.39820662439083e-04
6.09537500000000e+00 1.96134818303029e-02 1.39598525515297e-04
6.18062500000000e+00 1.94448896683986e-02 1.39363106195379e-04
6.26587500000000e+00 1.92777466789207e-02 1.39114845885921e-04
6.35112500000000e+00 1.91120404051769e-02 1.38854171850356e-04
6.43637500000000e+00 1.89477584975488e-02 1.38581497790819e-04
6.52162500000000e+00 1.87848887125723e-02 1.38297224398377e-04
6.60687500000000e+00 1.86234189120246e-02 1.38001739873862e-04
6.69212500000000e+00 1.84633370620200e-02 1.37695420421176e-04
6.77737500000000e+00 1.83046312321125e-02 1.37378630714983e-04
6.86262500000000e+00 1.81472895944072e-02 1.37051724344412e-04
6.94787500000000e+00 1.79913004226786e-02 1.36715044234277e-04
7.03312500000000e+00 1.78366520914964e-02 1.36368923045344e-04
7.11837500000000e+00 1.76833330753595e-02 1.36013683554874e-04
7.20362500000000e+00 1.75313319478370e-02 1.35649639018668e-04
7.28887500000000e+00 1.73806373807163e-02 1.35277093515798e-04
7.37412500000000e+00 1.72312381431591e-02 1.34896342277006e-04
7.45937500000000e+00 1.70831231008644e-02 1.34507671997771e-04
7.54462500000000e+00 1.69362812152385e-02 1.34111361136941e-04
7.62987500000000e+00 1.67907015425725e-02 1.33707680201776e-04
7.71512500000000e+00 1.66463732332267e-02 1.33296892020200e-04
7.80037500000000e+00 1.65032855308220e-02 1.32879252000890e-04
7.88562500000000e+00 1.63614277714381e-02 1.32455008382021e-04
7.97087500000000e+00 1.62207893828188e-02 1.32024402469199e-04
8.05612500000000e+00 1.60813598835844e-02 1.31587668863201e-04
8.14137500000000e+00 1.59431288824500e-02 1.31145035678084e-04
8.22662500000000e+00 1.58060860774516e-02 1.30696724750140e-04
8.31187500000000e+00 1.56702212551779e-02 1.30242951838238e-04
8.39712500000000e+00 1.55355242900094e-02 1.29783926815943e-04
8.48237500000000e+00 1.54019851433638e-02 1.29319853855874e-04
8.56762500000000e+00 1.52695938629474e-02 1.28850931606677e-04
8.65287500000000e+00 1.51383405820141e-02 1.28377353363021e-04
8.73812500000000e+00 1.50082155186293e-02 1.27899307228914e-04
8.82337500000000e+00 1.48792089749415e-02 1.27416976274688e-04
8.90862500000000e+00 1.47513113364593e-02 1.26930538687991e-04
8.99387500000000e+00 1.46245130713346e-02 1.26440167919037e-04
9.07912500000000e+00 1.44988047296529e-02 1.25946032820395e-04
9.16437500000000e+00 1.43741769427281e-02 1.25448297781609e-04
9.24962500000000e+00 1.42506204224052e-02 1.24947122858858e-04
9.33487500000000e+00 1.41281259603675e-02 1.24442663899876e-04
9.42012500000000e+00 1.40066844274504e-02 1.23935072664374e-04
9.50537500000000e+00 1.38862867729612e-02 1.23424496940184e-04
9.59062500000000e+00 1.37669240240046e-02 1.22911080655276e-04
9.67587500000000e+00 1.36485872848137e-02 1.22394963985840e-04
9.76112500000000e+00 1.35312677360872e-02 1.21876283460615e-04
9.84637500000000e+00 1.34149566343323e-02 1.21355172061679e-04
9.93162500000000e+00 1.32996453112128e-02 1.20831759321755e-04
1.00168750000000e+01 1.31853251729030e-02 1.20306171418232e-04
1.01021250000000e+01 1.30719876994476e-02 1.19778531264058e-04
1.01873750000000e+01 1.29596244441264e-02 1.19248958595615e-04
1.02726250000000e+01 1.28482270328250e-02 1.18717570057715e-04
1.03578750000000e+01 1.27377871634106e-02 1.18184479285792e-04
1.04431250000000e+01 1.26282966051133e-02 1.17649796985463e-04
1.05283750000000e+01 1.25197471979124e-02 1.17113631009537e-04
1.06136250000000e+01 1.24121308519290e-02 1.16576086432564e-04
1.06988750000000e+01 1.23054395468221e-02 1.16037265623048e-04
1.07841250000000e+01 1.21996653311918e-02 1.15497268313399e-04
1.08693750000000e+01 1.20948003219859e-02 1.14956191667707e-04
1.09546250000000e+01 1.19908367039131e-02 1.14414130347433e-04
1.10398750000000e+01 1.18877667288600e-02 1.13871176575110e-04
1.11251250000000e+01 1.17855827153141e-02 1.13327420196077e-04
1.12103750000000e+01 1.16842770477907e-02 1.12782948738404e-04
1.12956250000000e+01 1.15838421762662e-02 1.12237847470987e-04
1.13808750000000e+01 1.14842706156147e-02 1.11692199459946e-04
1.14661250000000e+01 1.13855549450504e-02 1.11146085623362e-04
1.15513750000000e+01 1.12876878075746e-02 1.10599584784403e-04
1.16366250000000e+01 1.11906619094274e-02 1.10052773722939e-04
1.17218750000000e+01 1.10944700195441e-02 1.09505727225634e-04
1.18071250000000e+01 1.09991049690161e-02 1.08958518134626e-04
1.18923750000000e+01 1.09045596505570e-02 1.08411217394838e-04
1.19776250000000e+01 1.08108270179726e-02 1.07863894099934e-04
1.20628750000000e+01 1.07179000856358e-02 1.07316615536992e-04
1.21481250000000e+01 1.06257719279663e-02 1.06769447229956e-04
1.22333750000000e+01 1.05344356789139e-02 1.06222452981846e-04
1.23186250000000e+01 1.04438845314474e-02 1.05675694915846e-04
1.24038750000000e+01 1.03541117370466e-02 1.05129233515268e-04
1.24891250000000e+01 1.02651106052002e-02 1.04583127662411e-04
1.25743750000000e+01 1.01768745029064e-02 1.04037434676389e-04
1.26596250000000e+01 1.00893968541790e-02 1.03492210349950e-04
1.27448750000000e+01 1.00026711395571e-02 1.02947508985300e-04
1.28301250000000e+01 9.91669089561953e-03 1.02403383428983e-04
1.29153750000000e+01 9.83144971450271e-03 1.01859885105862e-04
1.30006250000000e+01 9.74694124342342e-03 1.01317064052195e-04
1.30858750000000e+01 9.66315918420519e-03 1.00774968947851e-04
1.31711250000000e+01 9.58009729280901e-03 1.00233647147694e-04
1.32563750000000e+01 9.49774937886790e-03 9.96931447121763e-05
1.33416250000000e+01 9.41610930522560e-03 9.91535064371172e-05
1.34268750000000e+01 9.33517098747920e-03 9.86147758827543e-05
1.35121250000000e+01 9.25492839352564e-03 9.80769954020578e-05
1.35973750000000e+01 9.17537554311218e-03 9.75402061683117e-05
1.36826250000000e+01 9.09650650739072e-03 9.70044482020227e-05
1.37678750000000e+01 9.01831540847593e-03 9.64697603971565e-05
1.38531250000000e+01 8.94079641900716e-03 9.59361805467175e-05
1.39383750000000e+01 8.86394376171421e-03 9.54037453677063e-05
1.40236250000000e+01 8.78775170898669e-03 9.48724905254586e-05
1.41088750000000e+01 8.71221458244720e-03 9.43424506573993e-05
1.41941250000000e+01 8.63732675252816e-03 9.38136593962077e-05
1.42793750000000e+01 8.56308263805217e-03 9.32861493924285e-05
1.43646250000000e+01 8.48947670581616e-03 9.27599523365359e-05
1.44498750000000e+01 8.41650347017895e-03 9.22350989804754e-05
1.45351250000000e+01 8.34415749265245e-03 9.17116191586907e-05
1.46203750000000e+01 8.27243338149632e-03 9.11895418086446e-05
1.47056250000000e+01 8.20132579131618e-03 9.06688949908629e-05
1.47908750000000e+01 8.13082942266518e-03 9.01497059084955e-05
1.48761250000000e+01 8.06093902164910e-03 8.96320009264281e-05
1.49613750000000e+01 7.99164937953476e-03 8.91158055899545e-05
1.50466250000000e+01 7.92295533236184e-03 8.86011446430069e-05
1.51318750000000e+01 7.85485176055800e-03 8.80880420459508e-05
1.52171250000000e+01 7.78733358855738e-03 8.75765209929850e-05
1.53023750000000e+01 7.72039578442228e-03 8.70666039291529e-05
1.53876250000000e+01 7.65403335946819e-03 8.65583125669430e-05
1.54728750000000e+01 7.58824136789196e-03 8.60516679025092e-05
1.55581250000000e+01 7.52301490640325e-03 8.55466902315502e-05
1.56433750000000e+01 7.45834911385903e-03 8.50433991648079e-05
1.57286250000000e+01 7.39423917090137e-03 8.45418136432129e-05
1.58138750000000e+01 7.33068029959821e-03 8.40419519527042e-05
1.58991250000000e+01 7.26766776308730e-03 8.35438317387047e-05
1.59843750000000e+01 7.20519686522319e-03 8.30474700202888e-05
1.60696250000000e+01 7.14326295022720e-03 8.25528832040236e-05
1.61548750000000e+01 7.08186140234046e-03 8.20600870975010e-05
1.62401250000000e+01 7.02098764547992e-03 8.15690969225832e-05
1.63253750000000e+01 6.96063714289728e-03 8.10799273283363e-05
1.64106250000000e+01 6.90080539684091e-03 8.05925924037033e-05
1.64958750000000e+01 6.84148794822064e-03 8.01071056898968e-05
1.65811250000000e+01 6.78268037627541e-03 7.96234801924972e-05
1.66663750000000e+01 6.72437829824382e-03 7.91417283933101e-05
1.67516250000000e+01 6.66657736903751e-03 7.86618622619662e-05
1.68368750000000e+01 6.60927328091730e-03 7.81838932672622e-05
1.69221250000000e+01 6.55246176317220e-03 7.77078323882630e-05
1.70073750000000e+01 6.49613858180105e-03 7.72336901251552e-05
1.70926250000000e+01 6.44029953919705e-03 7.67614765098783e-05
1.71778750000000e+01 6.38494047383486e-03 7.62912011165328e-05
1.72631250000000e+01 6.33005725996050e-03 7.58228730715512e-05
1.73483750000000e+01 6.27564580728385e-03 7.53565010636601e-05
1.74336250000000e+01 6.22170206067379e-03 7.48920933536309e-05
1.75188750000000e+01 6.16822199985602e-03 7.44296577838278e-05
1.76041250000000e+01 6.11520163911344e-03 7.39692017875482e-05
1.76893750000000e+01 6.06263702698908e-03 7.35107323981651e-05
1.77746250000000e+01 6.01052424599160e-03 7.30542562580858e-05
1.78598750000000e+01 5.95885941230339e-03 7.25997796275194e-05
1.79451250000000e+01 5.90763867549106e-03 7.21473083930473e-05
1.80303750000000e+01 5.85685821821849e-03 7.16968480760385e-05
1.81156250000000e+01 5.80651425596237e-03 7.12484038408776e-05
1.82008750000000e+01 5.75660303673010e-03 7.08019805030119e-05
1.82861250000000e+01 5.70712084078021e-03 7.03575825368470e-05
1.83713750000000e+01 5.65806398034510e-03 6.99152140834673e-05
1.84566250000000e+01 5.60942879935622e-03 6.94748789582099e-05
1.85418750000000e+01 5.56121167317161e-03 6.90365806580693e-05
1.86271250000000e+01 5.51340900830573e-03 6.86003223689566e-05
1.87123750000000e+01 5.46601724216166e-03 6.81661069728072e-05
1.87976250000000e+01 5.41903284276563e-03 6.77339370545419e-05
1.88828750000000e+01 5.37245230850371e-03 6.73038149088917e-05
1.89681250000000e+01 5.32627216786093e-03 6.68757425470682e-05
1.90533750000000e+01 5.28048897916250e-03 6.64497217033088e-05
1.91386250000000e+01 5.23509933031734e-03 6.60257538412920e-05
1.92238750000000e+01 5.19009983856377e-03 6.56038401604163e-05
1.93091250000000e+01 5.14548715021741e-03 6.51839816019468e-05
1.93943750000000e+01 5.10125794042125e-03 6.47661788550394e-05
1.94796250000000e+01 5.05740891289785e-03 6.43504323626539e-05
1.95648750000000e+01 5.01393679970366e-03 6.39367423273331e-05
1.96501250000000e+01 4.97083836098549e-03 6.35251087168699e-05
1.97353750000000e+01 4.92811038473906e-03 6.31155312698623e-05
1.98206250000000e+01 4.88574968656959e-03 6.27080095011494e-05
1.99058750000000e+01 4.84375310945450e-03 6.23025427071462e-05
1.99911250000000e+01 4.80211752350812e-03 6.18991299710687e-05
2.00763750000000e+01 4.76083982574844e-03 6.14977701680528e-05
2.01616250000000e+01 4.71991693986580e-03 6.10984619701655e-05
2.02468750000000e+01 4.67934581599370e-03 6.07012038513163e-05
2.03321250000000e+01 4.63912343048146e-03 6.03059940920839e-05
2.04173750000000e+01 4.59924678566885e-03 5.99128307844287e-05
2.05026250000000e+01 4.55971290966276e-03 5.95217118363149e-05
2.05878750000000e+01 4.52051885611562e-03 5.91326349762542e-05
2.06731250000000e+01 4.48166170400590e-03 5.87455977577366e-05
2.07583750000000e+01 4.44313855742036e-03 5.83605975635874e-05
2.08436250000000e+01 4.40494654533823e-03 5.79776316102328e-05
2.09288750000000e+01 4.36708282141728e-03 5.75966969518746e-05
2.10141250000000e+01 4.32954456378166e-03 5.72177904845980e-05
2.10993750000000e+01 4.29232897481159e-03 5.68409089503855e-05
2.11846250000000e+01 4.25543328093486e-03 5.64660489410401e-05
2.12698750000000e+01 4.21885473242017e-03 5.60932069020559e-05
2.13551250000000e+01 4.18259060317211e-03 5.57223791363908e-05
2.14403750000000e+01 4.14663819052810e-03 5.53535618081697e-05
2.15256250000000e+01 4.11099481505687e-03 5.49867509463205e-05
2.16108750000000e+01 4.07565782035883e-03 5.46219424481304e-05
2.16961250000000e+01 4.04062457286810e-03 5.42591320827382e-05
2.17813750000000e+01 4.00589246165618e-03 5.38983154945416e-05
2.18666250000000e+01 3.97145889823743e-03 5.35394882065540e-05
2.19518750000000e+01 3.93732131637610e-03 5.31826456236913e-05
2.20371250000000e+01 3.90347717189515e-03 5.28277830359832e-05
2.21223750000000e+01 3.86992394248656e-03 5.24748956217334e-05
2.22076250000000e+01 3.83665912752338e-03 5.21239784506067e-05
2.22928750000000e+01 3.80368024787340e-03 5.17750264866578e-05
2.23781250000000e+01 3.77098484571433e-03 5.14280345913037e-05
2.24633750000000e+01 3.73857048435068e-03 5.10829975262352e-05
2.25486250000000e+01 3.70643474803210e-03 5.07399099562668e-05
2.26338750000000e+01 3.67457524177339e-03 5.03987664521290e-05
2.27191250000000e+01 3.64298959117600e-03 5.00595614932122e-05
2.28043750000000e+01 3.61167544225105e-03 4.97222894702488e-05
2.28896250000000e+01 3.58063046124392e-03 4.93869446879486e-05
2.29748750000000e+01 3.54985233446031e-03 4.90535213675780e-05
2.30601250000000e+01 3.51933876809380e-03 4.87220136494778e-05
2.31453750000000e+01 3.48908748805491e-03 4.83924155955512e-05
2.32306250000000e+01 3.45909623980162e-03 4.80647211916879e-05
2.33158750000000e+01 3.42936278817134e-03 4.77389243501356e-05
2.34011250000000e+01 3.39988491721431e-03 4.74150189118397e-05
2.34863750000000e+01 3.37066043002851e-03 4.70929986487258e-05
2.35716250000000e+01 3.34168714859586e-03 4.67728572659335e-05
2.36568750000000e+01 3.31296291361996e-03 4.64545884040180e-05
2.37421250000000e+01 3.28448558436511e-03 4.61381856410939e-05
2.38273750000000e+01 3.25625303849680e-03 4.58236424949368e-05
2.39126250000000e+01 3.22826317192353e-03 4.55109524250580e-05
2.39978750000000e+01 3.20051389864002e-03 4.52001088347211e-05
2.40831250000000e+01 3.17300315057170e-03 4.48911050729201e-05
2.41683750000000e+01 3.14572887742060e-03 4.45839344363248e-05
2.42536250000000e+01 3.11868904651259e-03 4.42785901711823e-05
2.43388750000000e+01 3.09188164264582e-03 4.39750654751802e-05
2.44241250000000e+01 3.06530466794058e-03 4.36733534992689e-05
2.45093750000000e+01 3.03895614169040e-03 4.33734473494546e-05
2.45946250000000e+01 3.01283410021442e-03 4.30753400885504e-05
2.46798750000000e+01 2.98693659671104e-03 4.27790247378902e-05
2.47651250000000e+01 2.96126170111284e-03 4.24844942790170e-05
2.48503750000000e+01 2.93580749994273e-03 4.21917416553213e-05
2.49356250000000e+01 2.91057209617137e-03 4.19007597736550e-05
2.50208750000000e+01 2.88555360907576e-03 4.16115415059185e-05
2.51061250000000e+01 2.86075017409906e-03 4.13240796906046e-05
2.51913750000000e+01 2.83615994271168e-03 4.10383671343110e-05
2.52766250000000e+01 2.81178108227350e-03 4.07543966132298e-05
2.53618750000000e+01 2.78761177589723e-03 4.04721608746036e-05
2.54471250000000e+01 2.76365022231310e-03 4.01916526381389e-05
2.55323750000000e+01 2.73989463573454e-03 3.99128645974122e-05
2.56176250000000e+01 2.71634324572512e-03 3.96357894212289e-05
2.57028750000000e+01 2.69299429706659e-03 3.93604197549591e-05
2.57881250000000e+01 2.66984604962810e-03 3.90867482218522e-05
2.58733750000000e+01 2.64689677823648e-03 3.88147674243125e-05
2.59586250000000e+01 2.62414477254768e-03 3.85444699451572e-05
2.60438750000000e+01 2.60158833691930e-03 3.82758483488431e-05
2.61291250000000e+01 2.57922579028424e-03 3.80088951826718e-05
2.62143750000000e+01 2.55705546602538e-03 3.77436029779637e-05
2.62996250000000e+01 2.53507571185138e-03 3.74799642512088e-05
2.63848750000000e+01 2.51328488967357e-03 3.72179715051971e-05
2.64701250000000e+01 2.49168137548382e-03 3.69576172301222e-05
2.65553750000000e+01 2.47026355923356e-03 3.66988939046615e-05
2.66406250000000e+01 2.44902984471373e-03 3.64417939970281e-05
2.67258750000000e+01 2.42797864943589e-03 3.61863099660105e-05
2.68111250000000e+01 2.40710840451419e-03 3.59324342619821e-05
2.68963750000000e+01 2.38641755454854e-03 3.56801593278908e-05
