Energy (eV)          EEDF (eV^-(3/2))     First Anisotropy
5.31481481481481e-02 4.68673520351379e-02 3.37474790288302e-05
1.59444444444444e-01 4.62710901824612e-02 5.55589718437137e-05
2.65740740740741e-01 4.56824141661850e-02 7.29011897199303e-05
3.72037037037037e-01 4.51012274812109e-02 8.58097413514157e-05
4.78333333333333e-01 4.45274348447051e-02 9.63573636981992e-05
5.84629629629630e-01 4.39609421869080e-02 1.05334704797252e-04
6.90925925925926e-01 4.34016566341940e-02 1.13154380803019e-04
7.97222222222222e-01 4.28494864963384e-02 1.20067603184675e-04
9.03518518518518e-01 4.23043412485908e-02 1.26242320787145e-04
1.00981481481481e+00 4.17661315174069e-02 1.31798175669977e-04
1.11611111111111e+00 4.12347690688524e-02 1.36824422436603e-04
1.22240740740741e+00 4.07101667862602e-02 1.41390028443617e-04
1.32870370370370e+00 4.01922386647423e-02 1.45549782403122e-04
1.43500000000000e+00 3.96808997975321e-02 1.49348198067446e-04
1.54129629629630e+00 3.91760663501218e-02 1.52822117044963e-04
1.64759259259259e+00 3.86776555616912e-02 1.56002509591702e-04
1.75388888888889e+00 3.81855857179855e-02 1.58915758013244e-04
1.86018518518519e+00 3.76997761475019e-02 1.61584593349744e-04
1.96648148148148e+00 3.72201472076361e-02 1.64028797183381e-04
2.07277777777778e+00 3.67466202638696e-02 1.66265734228388e-04
2.17907407407407e+00 3.62791176846547e-02 1.68310764497464e-04
2.28537037037037e+00 3.58175628282400e-02 1.70177568869817e-04
2.39166666666667e+00 3.53618800236445e-02 1.71878406535653e-04
2.49796296296296e+00 3.49119945665769e-02 1.73424323137806e-04
2.60425925925926e+00 3.44678326994667e-02 1.74825320417066e-04
2.71055555555556e+00 3.40293216049630e-02 1.76090494788935e-04
2.81685185185185e+00 3.35963893936981e-02 1.77228153913772e-04
2.92314814814815e+00 3.31689650877321e-02 1.78245912861463e-04
3.02944444444444e+00 3.27469786137077e-02 1.79150775084315e-04
3.13574074074074e+00 3.23303607911477e-02 1.79949202457633e-04
3.24203703703704e+00 3.19190433169469e-02 1.80647173852360e-04
3.34833333333333e+00 3.15129587583591e-02 1.81250235401652e-04
3.45462962962963e+00 3.11120405417403e-02 1.81763545155667e-04
3.56092592592593e+00 3.07162229379958e-02 1.82191910573654e-04
3.66722222222222e+00 3.03254410565567e-02 1.82539821804874e-04
3.77351851851852e+00 2.99396308302383e-02 1.82811480944362e-04
3.87981481481481e+00 2.95587290080272e-02 1.83010827123488e-04
3.98611111111111e+00 2.91826731445770e-02 1.83141559870152e-04
4.09240740740741e+00 2.88114015870534e-02 1.83207158825782e-04
4.19870370370370e+00 2.84448534679599e-02 1.83210901269444e-04
4.30500000000000e+00 2.80829686950390e-02 1.83155878764620e-04
4.41129629629630e+00 2.77256879388116e-02 1.83045011033671e-04
4.51759259259259e+00 2.73729526262657e-02 1.82881058899214e-04
4.62388888888889e+00 2.70247049279915e-02 1.82666636012245e-04
4.73018518518519e+00 2.66808877510978e-02 1.82404218920112e-04
4.83648148148148e+00 2.63414447297603e-02 1.82096157162175e-04
4.94277777777778e+00 2.60063202138284e-02 1.81744681611189e-04
5.04907407407407e+00 2.56754592618673e-02 1.81351912052002e-04
5.15537037037037e+00 2.53488076320715e-02 1.80919864915944e-04
5.26166666666667e+00 2.50263117714199e-02 1.80450459491336e-04
5.36796296296296e+00 2.47079188094565e-02 1.79945524009753e-04
5.47425925925926e+00 2.43935765471636e-02 1.79406801282914e-04
5.58055555555556e+00 2.40832334502184e-02 1.78835953450302e-04
5.68685185185185e+00 2.37768386404772e-02 1.78234567163519e-04
5.79314814814815e+00 2.34743418859932e-02 1.77604157678268e-04
5.89944444444444e+00 2.31756935944330e-02 1.76946172628284e-04
6.00574074074074e+00 2.28808448048924e-02 1.76261996203703e-04
6.11203703703704e+00 2.25897471783633e-02 1.75552952372353e-04
6.21833333333333e+00 2.23023529913248e-02 1.74820307863699e-04
6.32462962962963e+00 2.20186151278652e-02 1.74065275588171e-04
6.43092592592593e+00 2.17384870705800e-02 1.73289017138503e-04
6.53722222222222e+00 2.14619228947603e-02 1.72492645439583e-04
6.64351851851852e+00 2.11888772591121e-02 1.71677227258165e-04
6.74981481481481e+00 2.09193053996165e-02 1.70843785203552e-04
6.85611111111111e+00 2.06531631221493e-02 1.69993300243664e-04
6.96240740740741e+00 2.03904067940513e-02 1.69126713508507e-04
7.06870370370370e+00 2.01309933381672e-02 1.68244927976756e-04
7.17500000000000e+00 1.98748802257445e-02 1.67348810603873e-04
7.28129629629630e+00 1.96220254683692e-02 1.66439193742590e-04
7.38759259259259e+00 1.93723876125209e-02 1.65516876749449e-04
7.49388888888889e+00 1.91259257313839e-02 1.64582627526197e-04
7.60018518518519e+00 1.88825994191688e-02 1.63637183680182e-04
7.70648148148148e+00 1.86423687844553e-02 1.62681254166070e-04
7.81277777777778e+00 1.84051944427048e-02 1.61715520363110e-04
7.91907407407407e+00 1.81710375107579e-02 1.60740637089823e-04
8.02537037037037e+00 1.79398596004299e-02 1.59757234027308e-04
8.13166666666667e+00 1.77116228113395e-02 1.58765916571022e-04
8.23796296296296e+00 1.74862897258525e-02 1.57767266868833e-04
8.34425925925926e+00 1.72638234018250e-02 1.56761844828121e-04
8.45055555555555e+00 1.70441873673792e-02 1.55750188821577e-04
8.55685185185185e+00 1.68273456148988e-02 1.54732816824982e-04
8.66314814814815e+00 1.66132625943570e-02 1.53710227092013e-04
8.76944444444444e+00 1.64019032082625e-02 1.52682898793338e-04
8.87574074074074e+00 1.61932328058826e-02 1.51651293021661e-04
8.98203703703704e+00 1.59872171768471e-02 1.50615853363049e-04
9.08833333333333e+00 1.57838225462602e-02 1.49577006438869e-04
9.19462962962963e+00 1.55830155691413e-02 1.48535162798810e-04
9.30092592592593e+00 1.53847633242929e-02 1.47490717367859e-04
9.40722222222222e+00 1.51890333097825e-02 1.46444050061978e-04
9.51351851851852e+00 1.49957934367591e-02 1.45395526393456e-04
9.61981481481481e+00 1.48050120248269e-02 1.44345497845293e-04
9.72611111111111e+00 1.46166577968331e-02 1.43294302610854e-04
9.83240740740741e+00 1.44306998731521e-02 1.42242265968289e-04
9.93870370370370e+00 1.42471077672154e-02 1.41189700637127e-04
1.00450000000000e+01 1.40658513804960e-02 1.40136907276807e-04
1.01512962962963e+01 1.38869009978966e-02 1.39084175314318e-04
1.02575925925926e+01 1.37102272807872e-02 1.38031782943296e-04
1.03638888888889e+01 1.35358012646847e-02 1.36979997279023e-04
1.04701851851852e+01 1.33635943536016e-02 1.35929075225704e-04
1.05764814814815e+01 1.31935783153577e-02 1.34879263662937e-04
1.06827777777778e+01 1.30257252769518e-02 1.33830799794630e-04
1.07890740740741e+01 1.28600077199922e-02 1.32783911484194e-04
1.08953703703704e+01 1.26963984761848e-02 1.31738817576666e-04
1.10016666666667e+01 1.25348707228797e-02 1.30695728208390e-04
1.11079629629630e+01 1.23753979786732e-02 1.29654845104837e-04
1.12142592592593e+01 1.22179540990668e-02 1.28616361867101e-04
1.13205555555556e+01 1.20625132721806e-02 1.27580464247611e-04
1.14268518518519e+01 1.19090500145222e-02 1.26547330415537e-04
1.15331481481481e+01 1.17575391668080e-02 1.25517131212462e-04
1.16394444444444e+01 1.16079558898387e-02 1.24490030398263e-04
1.17457407407407e+01 1.14602756604278e-02 1.23466184888267e-04
1.18520370370370e+01 1.13144742673811e-02 1.22445744982093e-04
1.19583333333333e+01 1.11705278075268e-02 1.21428854583820e-04
1.20646296296296e+01 1.10284126817971e-02 1.20415651414446e-04
1.21709259259259e+01 1.08881055913593e-02 1.19406267216786e-04
1.22772222222222e+01 1.07495835337959e-02 1.18400827953138e-04
1.23835185185185e+01 1.06128237993338e-02 1.17399453996039e-04
1.24898148148148e+01 1.04778039671210e-02 1.16402260312370e-04
1.25961111111111e+01 1.03445019015508e-02 1.15409356641096e-04
1.27024074074074e+01 1.02128957486330e-02 1.14420847664895e-04
1.28087037037037e+01 1.00829639324109e-02 1.13436833175921e-04
1.29150000000000e+01 9.95468515142435e-03 1.12457408025477e-04
1.30212962962963e+01 9.82803837618469e-03 1.11482662916217e-04
1.31275925925926e+01 9.70300284279253e-03 1.10512684123870e-04
1.32338888888889e+01 9.57955805250129e-03 1.09547553204377e-04
1.33401851851852e+01 9.45768376735611e-03 1.08587347794119e-04
1.34464814814815e+01 9.33736000687599e-03 1.07632141522670e-04
1.35527777777778e+01 9.21856704477813e-03 1.06682004143456e-04
1.36590740740741e+01 9.10128540574393e-03 1.05737001660143e-04
1.37653703703704e+01 8.98549586222612e-03 1.04797196448899e-04
1.38716666666667e+01 8.87117943129660e-03 1.03862647376694e-04
1.39779629629630e+01 8.75831737153424e-03 1.02933409915795e-04
1.40842592592593e+01 8.64689117995238e-03 1.02009536254554e-04
1.41905555555556e+01 8.53688258896542e-03 1.01091075404677e-04
1.42968518518519e+01 8.42827356339393e-03 1.00178073305073e-04
1.44031481481481e+01 8.32104629750792e-03 9.92705729224687e-05
1.45094444444444e+01 8.21518321210742e-03 9.83686143486313e-05
1.46157407407407e+01 8.11066695164108e-03 9.74722348946862e-05
1.47220370370370e+01 8.00748038136057e-03 9.65814691826123e-05
1.48283333333333e+01 7.90560658451139e-03 9.56963492336557e-05
1.49346296296296e+01 7.80502885955953e-03 9.48169045540666e-05
1.50409259259259e+01 7.70573071745335e-03 9.39431622181803e-05
1.51472222222222e+01 7.60769587892032e-03 9.30751469489287e-05
1.52535185185185e+01 7.51090827179812e-03 9.22128811958629e-05
1.53598148148148e+01 7.41535202839974e-03 9.13563852107808e-05
1.54661111111111e+01 7.32101148291207e-03 9.05056771210401e-05
1.55724074074074e+01 7.22787116882758e-03 8.96607730006213e-05
1.56787037037037e+01 7.13591581640873e-03 8.88216869390374e-05
1.57850000000000e+01 7.04513035018455e-03 8.79884309733815e-05
1.58912962962963e+01 6.95549988703984e-03 8.71610155612295e-05
1.59975925925926e+01 6.86700973207526e-03 8.63394493697119e-05
1.61038888888889e+01 6.77964537791632e-03 8.55237390563534e-05
1.62101851851852e+01 6.69339250175609e-03 8.47138897509372e-05
1.63164814814815e+01 6.60823696300704e-03 8.39099049705362e-05
1.64227777777778e+01 6.52416480098287e-03 8.31117866751230e-05
1.65290740740741e+01 6.44116223260964e-03 8.23195353215009e-05
1.66353703703704e+01 6.35921565016621e-03 8.15331499156298e-05
1.67416666666667e+01 6.27831161905331e-03 8.07526280633956e-05
1.68479629629630e+01 6.19843687559104e-03 7.99779660198643e-05
1.69542592592593e+01 6.11957832484436e-03 7.92091587370726e-05
1.70605555555556e+01 6.04172303847628e-03 7.84461999104016e-05
1.71668518518519e+01 5.96485825262835e-03 7.76890820235762e-05
1.72731481481481e+01 5.88897136582810e-03 7.69377963923676e-05
1.73794444444444e+01 5.81404993692294e-03 7.61923332068950e-05
1.74857407407407e+01 5.74008168304089e-03 7.54526815727454e-05
1.75920370370370e+01 5.66705447757665e-03 7.47188295509673e-05
1.76983333333333e+01 5.59495634820357e-03 7.39907641967636e-05
1.78046296296296e+01 5.52377547491088e-03 7.32684715970816e-05
1.79109259259259e+01 5.45350018806581e-03 7.25519369070988e-05
1.80172222222222e+01 5.38411896650051e-03 7.18411443856384e-05
1.81235185185185e+01 5.31562043562318e-03 7.11360774295372e-05
1.82298148148148e+01 5.24799336555333e-03 7.04367186070049e-05
1.83361111111111e+01 5.18122666928064e-03 6.97430496900114e-05
1.84424074074074e+01 5.11530940084739e-03 6.90550516857058e-05
1.85487037037037e+01 5.05023075355391e-03 6.83727048669213e-05
1.86550000000000e+01 4.98598005818691e-03 6.76959887140397e-05
1.87612962962963e+01 4.92254678160623e-03 6.70248822094344e-05
1.88675925925926e+01 4.85992052399990e-03 6.63593636871874e-05
1.89738888888889e+01 4.79809101820784e-03 6.56994106777864e-05
1.90801851851852e+01 4.73704812769212e-03 6.50450002096065e-05
1.91864814814815e+01 4.67678184487520e-03 6.43961087418016e-05
1.92927777777778e+01 4.61728228949917e-03 6.37527121890590e-05
1.93990740740741e+01 4.55853970700604e-03 6.31147859456206e-05
1.95053703703704e+01 4.50054446693846e-03 6.24823049086023e-05
1.96116666666667e+01 4.44328706136095e-03 6.18552435006167e-05
1.97179629629630e+01 4.38675810330107e-03 6.12335756917316e-05
1.98242592592593e+01 4.33094832521052e-03 6.06172750207817e-05
1.99305555555556e+01 4.27584857744578e-03 6.00063146160361e-05
2.00368518518518e+01 4.22144982676811e-03 5.94006672152709e-05
2.01431481481481e+01 4.16774315486257e-03 5.88003051852584e-05
2.02494444444444e+01 4.11471975687588e-03 5.82052005406046e-05
2.03557407407407e+01 4.06237093997306e-03 5.76153249620813e-05
2.04620370370370e+01 4.01068812191221e-03 5.70306498144495e-05
2.05683333333333e+01 3.95966282963755e-03 5.64511461636817e-05
2.06746296296296e+01 3.90928669789027e-03 5.58767847936954e-05
2.07809259259259e+01 3.85955146783713e-03 5.53075362225772e-05
2.08872222222222e+01 3.81044898571647e-03 5.47433707183236e-05
2.09935185185185e+01 3.76197120150146e-03 5.41842583141058e-05
2.10998148148148e+01 3.71411016758034e-03 5.36301688230737e-05
2.12061111111111e+01 3.66685803745346e-03 5.30810718527082e-05
2.13124074074074e+01 3.62020706444694e-03 5.25369368187397e-05
2.14187037037037e+01 3.57414960044261e-03 5.19977329586441e-05
2.15250000000000e+01 3.52867809462415e-03 5.14634292868949e-05
2.16312962962963e+01 3.48378509244532e-03 5.09339947827191e-05
2.17375925925926e+01 3.43946323378329e-03 5.04093982850147e-05
2.18438888888889e+01 3.39570525236284e-03 4.98896083840793e-05
2.19501851851852e+01 3.35250397435269e-03 4.93745936144580e-05
2.20564814814815e+01 3.30985231718939e-03 4.88643224051218e-05
2.21627777777778e+01 3.26774328841621e-03 4.83587630903024e-05
2.22690740740741e+01 3.22616998453670e-03 4.78578839199836e-05
2.23753703703704e+01 3.18512558988298e-03 4.73616530700665e-05
2.24816666666667e+01 3.14460337549832e-03 4.68700386522065e-05
2.25879629629630e+01 3.10459669803400e-03 4.63830087233492e-05
2.26942592592593e+01 3.06509899866014e-03 4.59005312949546e-05
2.28005555555556e+01 3.02610380199043e-03 4.54225743419237e-05
2.29068518518519e+01 2.98760471502058e-03 4.49491058112433e-05
2.30131481481481e+01 2.94959542608018e-03 4.44800936303618e-05
2.31194444444444e+01 2.91206970379792e-03 4.40155057152562e-05
2.32257407407407e+01 2.87502139608005e-03 4.35553099782536e-05
2.33320370370370e+01 2.83844442910183e-03 4.30994743356296e-05
2.34383333333333e+01 2.80233280631167e-03 4.26479667149132e-05
2.35446296296296e+01 2.76668060744807e-03 4.22007550619606e-05
2.36509259259259e+01 2.73148198756907e-03 4.17578073477913e-05
2.37572222222222e+01 2.69673117609394e-03 4.13190915751962e-05
2.38635185185185e+01 2.66242247585720e-03 4.08845757851227e-05
2.39698148148148e+01 2.62855026217456e-03 4.04542280628356e-05
2.40761111111111e+01 2.59510898192080e-03 4.00280165438720e-05
2.41824074074074e+01 2.56209315261940e-03 3.96059094197850e-05
2.42887037037037e+01 2.52949736154369e-03 3.91878749436896e-05
2.43950000000000e+01 2.49731626482948e-03 3.87738813971683e-05
2.45012962962963e+01 2.46554458672773e-03 3.83638972118183e-05
2.46075925925926e+01 2.43417711834955e-03 3.79578908962114e-05
2.47138888888889e+01 2.40320871720619e-03 3.75558309607851e-05
2.48201851851852e+01 2.37263430623332e-03 3.71576860429874e-05
2.49264814814815e+01 2.34244887295870e-03 3.67634248711769e-05
2.50327777777778e+01 2.31264746868039e-03 3.63730162689086e-05
2.51390740740741e+01 2.28322520765545e-03 3.59864291590551e-05
2.52453703703704e+01 2.25417726629899e-03 3.56036325677755e-05
2.53516666666667e+01 2.22549888239334e-03 3.52245956283286e-05
2.54579629629630e+01 2.19718535430730e-03 3.48492875847402e-05
2.55642592592593e+01 2.16923204022538e-03 3.44776777953276e-05
2.56705555555556e+01 2.14163435738681e-03 3.41097357360808e-05
2.57768518518519e+01 2.11438778133417e-03 3.37454310039082e-05
2.58831481481481e+01 2.08748784517169e-03 3.33847333197583e-05
2.59894444444444e+01 2.06093013883288e-03 3.30276125315915e-05
2.60957407407407e+01 2.03471030835759e-03 3.26740386172396e-05
2.62020370370370e+01 2.00882405517818e-03 3.23239816871589e-05
2.63083333333333e+01 1.98326713541479e-03 3.19774119870415e-05
2.64146296296296e+01 1.95803535917960e-03 3.16342999003241e-05
2.65209259259259e+01 1.93312458988991e-03 3.12946159505794e-05
2.66272222222222e+01 1.90853074358999e-03 3.09583308037983e-05
2.67335185185185e+01 1.88424978828152e-03 3.06254152705710e-05
2.68398148148148e+01 1.86027774326259e-03 3.02958403081638e-05
2.69461111111111e+01 1.83661067847510e-03 2.99695770224937e-05
2.70524074074074e+01 1.81324471386042e-03 2.96465966700077e-05
2.71587037037037e+01 1.79017601872329e-03 2.93268706594699e-05
2.72650000000000e+01 1.76740081110385e-03 2.90103705279141e-05
2.73712962962963e+01 1.74491535723906e-03 2.86970680201648e-05
2.74775925925926e+01 1.72271597070368e-03 2.83869350381364e-05
2.75838888888889e+01 1.70079901205523e-03 2.80799435887691e-05
2.76901851851852e+01 1.67916088815344e-03 2.77760658660647e-05
2.77964814814815e+01 1.65779805157114e-03 2.74752742252153e-05
2.79027777777778e+01 1.63670700001268e-03 2.71775411837989e-05
2.80090740740741e+01 1.61588427573979e-03 2.68828394229019e-05
2.81153703703704e+01 1.59532646500465e-03 2.65911417881686e-05
2.82216666666667e+01 1.57503019749028e-03 2.63024212907781e-05
2.83279629629630e+01 1.55499214575797e-03 2.60166511083538e-05
2.84342592592593e+01 1.53520902470177e-03 2.57338045858077e-05
2.85405555555556e+01 1.51567759100995e-03 2.54538552361184e-05
2.86468518518518e+01 1.49639464263322e-03 2.51767767410491e-05
2.87531481481481e+01 1.47735701825983e-03 2.49025429518072e-05
2.88594444444444e+01 1.45856159679727e-03 2.46311278896306e-05
2.89657407407407e+01 1.44000529686060e-03 2.43625057463288e-05
2.90720370370370e+01 1.42168507626725e-03 2.40966508847758e-05
2.91783333333333e+01 1.40359793153832e-03 2.38335378393359e-05
2.92846296296296e+01 1.38574089740615e-03 2.35731413162412e-05
2.93909259259259e+01 1.36811104632818e-03 2.33154361939207e-05
2.94972222222222e+01 1.35070548800700e-03 2.30603975232791e-05
2.96035185185185e+01 1.33352136891653e-03 2.28080005279261e-05
2.97098148148148e+01 1.31655587183417e-03 2.25582206043621e-05
2.98161111111111e+01 1.29980621537895e-03 2.23110333221201e-05
2.99224074074074e+01 1.28326965355556e-03 2.20664144238614e-05
3.00287037037037e+01 1.26694347530412e-03 2.18243398254317e-05
3.01350000000000e+01 1.25082500405576e-03 2.15847855985491e-05
3.02412962962963e+01 1.23491159734600e-03 2.13477280232299e-05
3.03475925925926e+01 1.21920064622340e-03 2.11131435525781e-05
3.04538888888889e+01 1.20368957498151e-03 2.08810087766717e-05
3.05601851851852e+01 1.18837584068289e-03 2.06513004767369e-05
3.06664814814815e+01 1.17325693274215e-03 2.04239956067097e-05
3.07727777777778e+01 1.15833037251442e-03 2.01990712930329e-05
3.08790740740741e+01 1.14359371288893e-03 1.99765048344221e-05
3.09853703703704e+01 1.12904453788789e-03 1.97562737016006e-05
3.10916666666667e+01 1.11468046227036e-03 1.95383555370020e-05
3.11979629629630e+01 1.10049913114120e-03 1.93227281544471e-05
3.13042592592593e+01 1.08649821956504e-03 1.91093695387894e-05
3.14105555555556e+01 1.07267543218511e-03 1.88982578455353e-05
3.15168518518519e+01 1.05902850284688e-03 1.86893714004395e-05
3.16231481481481e+01 1.04555519422661e-03 1.84826886990745e-05
3.17294444444444e+01 1.03225329746453e-03 1.82781884063688e-05
3.18357407407407e+01 1.01912063180270e-03 1.80758493561302e-05
3.19420370370370e+01 1.00615504422749e-03 1.78756505505479e-05
3.20483333333333e+01 9.93354409116629e-04 1.76775711596654e-05
3.21546296296296e+01 9.80716627890709e-04 1.74815905208366e-05
3.22609259259259e+01 9.68239628669133e-04 1.72876881381606e-05
3.23672222222222e+01 9.55921365930451e-04 1.70958436818973e-05
3.24735185185185e+01 9.43759820177009e-04 1.69060369878639e-05
3.25798148148148e+01 9.31752997603862e-04 1.67182480568139e-05
3.26861111111111e+01 9.19898929771908e-04 1.65324570537992e-05
3.27924074074074e+01 9.08195673285172e-04 1.63486443075144e-05
3.28987037037037e+01 8.96641309472200e-04 1.61667903096250e-05
3.30050000000000e+01 8.85233944071507e-04 1.59868757023638e-05
3.31112962962963e+01 8.73971706954772e-04 1.58088813133010e-05
3.32175925925926e+01 8.62852751718032e-04 1.56327881308601e-05
3.33238888888889e+01 8.51875255482169e-04 1.54585772792326e-05
3.34301851851852e+01 8.41037418559332e-04 1.52862300543635e-05
3.35364814814815e+01 8.30337464157887e-04 1.51157279108440e-05
