Energy (eV)          EEDF (eV^-(3/2))     First Anisotropy
2.39473684210526e-02 9.30389642246703e-02 5.65354270533278e-05
7.18421052631579e-02 9.21960452548344e-02 9.32466402107016e-05
1.19736842105263e-01 9.13607630028922e-02 1.22806603269785e-04
1.67631578947368e-01 9.05330482786195e-02 1.45088104516279e-04
2.15526315789474e-01 8.97128325297515e-02 1.63526534657700e-04
2.63421052631579e-01 8.89000478110389e-02 1.79424984474611e-04
3.11315789473684e-01 8.80946267986879e-02 1.93459881718556e-04
3.59210526315789e-01 8.72965027787095e-02 2.06040928089953e-04
4.07105263157895e-01 8.65056096415474e-02 2.17440649490764e-04
4.55000000000000e-01 8.57218818765776e-02 2.27852226263003e-04
5.02894736842105e-01 8.49452545683008e-02 2.37419076491956e-04
5.50789473684210e-01 8.41756633859212e-02 2.46251497142851e-04
5.98684210526316e-01 8.34130445832469e-02 2.54436708706679e-04
6.46578947368421e-01 8.26573349915994e-02 2.62045258874863e-04
6.94473684210526e-01 8.19084720145882e-02 2.69135286345705e-04
7.42368421052632e-01 8.11663936229467e-02 2.75755463427156e-04
7.90263157894737e-01 8.04310383503335e-02 2.81947088740854e-04
8.38157894736842e-01 7.97023452853161e-02 2.87745613096554e-04
8.86052631578947e-01 7.89802540693189e-02 2.93181776849173e-04
9.33947368421053e-01 7.82647048906033e-02 2.98282474362808e-04
9.81842105263158e-01 7.75556384793045e-02 3.03071421180985e-04
1.02973684210526e+00 7.68529961052310e-02 3.07569678447795e-04
1.07763157894737e+00 7.61567195628642e-02 3.11796067617702e-04
1.12552631578947e+00 7.54667511788376e-02 3.15767503336018e-04
1.17342105263158e+00 7.47830338083039e-02 3.19499268322907e-04
1.22131578947368e+00 7.41055108120976e-02 3.23005234231988e-04
1.26921052631579e+00 7.34341260702247e-02 3.26298043960760e-04
1.31710526315789e+00 7.27688239762654e-02 3.29389269442575e-04
1.36500000000000e+00 7.21095494172407e-02 3.32289539024784e-04
1.41289473684211e+00 7.14562477846900e-02 3.35008645647720e-04
1.46078947368421e+00 7.08088649648922e-02 3.37555641435410e-04
1.50868421052632e+00 7.01673473387588e-02 3.39938918680820e-04
1.55657894736842e+00 6.95316417641495e-02 3.42166277560457e-04
1.60447368421053e+00 6.89016955848194e-02 3.44244984068501e-04
1.65236842105263e+00 6.82774566254539e-02 3.46181825255252e-04
1.70026315789474e+00 6.76588731756484e-02 3.47983152965039e-04
1.74815789473684e+00 6.70458939973860e-02 3.49654922090240e-04
1.79605263157895e+00 6.64384683203172e-02 3.51202728775608e-04
1.84394736842105e+00 6.58365458271323e-02 3.52631839972886e-04
1.89184210526316e+00 6.52400766598487e-02 3.53947219551929e-04
1.93973684210526e+00 6.46490114152993e-02 3.55153555754611e-04
1.98763157894737e+00 6.40633011316836e-02 3.56255281752168e-04
2.03552631578947e+00 6.34828972938978e-02 3.57256593962306e-04
2.08342105263158e+00 6.29077518291732e-02 3.58161472441551e-04
2.13131578947368e+00 6.23378170946653e-02 3.58973695525778e-04
2.17921052631579e+00 6.17730458819796e-02 3.59696852974506e-04
2.22710526315789e+00 6.12133914129494e-02 3.60334361561763e-04
2.27500000000000e+00 6.06588073281276e-02 3.60889475708916e-04
2.32289473684211e+00 6.01092476906330e-02 3.61365297469879e-04
2.37078947368421e+00 5.95646669797646e-02 3.61764787250902e-04
2.41868421052632e+00 5.90250200894936e-02 3.62090773541398e-04
2.46657894736842e+00 5.84902623178867e-02 3.62345960422396e-04
2.51447368421053e+00 5.79603493702927e-02 3.62532934023929e-04
2.56236842105263e+00 5.74352373554384e-02 3.62654171711062e-04
2.61026315789474e+00 5.69148827755278e-02 3.62712047413553e-04
2.65815789473684e+00 5.63992425289386e-02 3.62708836489277e-04
2.70605263157895e+00 5.58882739064530e-02 3.62646723289795e-04
2.75394736842105e+00 5.53819345819612e-02 3.62527805201511e-04
2.80184210526316e+00 5.48801826147381e-02 3.62354096340620e-04
2.84973684210526e+00 5.43829764457982e-02 3.62127533891418e-04
2.89763157894737e+00 5.38902748891430e-02 3.61849981191665e-04
2.94552631578947e+00 5.34020371336817e-02 3.61523230559524e-04
2.99342105263158e+00 5.29182227396912e-02 3.61149008684631e-04
3.04131578947368e+00 5.24387916305641e-02 3.60728978993284e-04
3.08921052631579e+00 5.19637040944182e-02 3.60264743822044e-04
3.13710526315789e+00 5.14929207806573e-02 3.59757849064617e-04
3.18500000000000e+00 5.10264026921747e-02 3.59209785989052e-04
3.23289473684211e+00 5.05641111866904e-02 3.58621993181062e-04
3.28078947368421e+00 5.01060079720170e-02 3.57995859520671e-04
3.32868421052632e+00 4.96520551042624e-02 3.57332726922988e-04
3.37657894736842e+00 4.92022149805344e-02 3.56633891898456e-04
3.42447368421053e+00 4.87564503400066e-02 3.55900606724156e-04
3.47236842105263e+00 4.83147242607108e-02 3.55134082893060e-04
3.52026315789474e+00 4.78770001526124e-02 3.54335492085654e-04
3.56815789473684e+00 4.74432417584676e-02 3.53505967063306e-04
3.61605263157895e+00 4.70134131507139e-02 3.52646604746277e-04
3.66394736842105e+00 4.65874787248872e-02 3.51758466951398e-04
3.71184210526316e+00 4.61654032002964e-02 3.50842581066670e-04
3.75973684210526e+00 4.57471516170065e-02 3.49899942819977e-04
3.80763157894737e+00 4.53326893295723e-02 3.48931516831055e-04
3.85552631578947e+00 4.49219820075548e-02 3.47938237113966e-04
3.90342105263158e+00 4.45149956325885e-02 3.46921009585022e-04
3.95131578947368e+00 4.41116964924118e-02 3.45880712465982e-04
3.99921052631579e+00 4.37120511812439e-02 3.44818196650353e-04
4.04710526315789e+00 4.33160265969326e-02 3.43734287989014e-04
4.09500000000000e+00 4.29235899352615e-02 3.42629787574573e-04
4.14289473684210e+00 4.25347086902030e-02 3.41505472198422e-04
4.19078947368421e+00 4.21493506502291e-02 3.40362095644483e-04
4.23868421052632e+00 4.17674838965473e-02 3.39200389878640e-04
4.28657894736842e+00 4.13890767977251e-02 3.38021065420715e-04
4.33447368421053e+00 4.10140980098200e-02 3.36824811483284e-04
4.38236842105263e+00 4.06425164737114e-02 3.35612297859366e-04
4.43026315789474e+00 4.02743014099603e-02 3.34384175010057e-04
4.47815789473684e+00 3.99094223188423e-02 3.33141074136825e-04
4.52605263157895e+00 3.95478489777568e-02 3.31883608929606e-04
4.57394736842105e+00 3.91895514363080e-02 3.30612375598516e-04
4.62184210526316e+00 3.88345000162512e-02 3.29327952892432e-04
4.66973684210526e+00 3.84826653089781e-02 3.28030903723964e-04
4.71763157894737e+00 3.81340181708027e-02 3.26721775155529e-04
4.76552631578947e+00 3.77885297228363e-02 3.25401098375348e-04
4.81342105263158e+00 3.74461713485396e-02 3.24069390212913e-04
4.86131578947368e+00 3.71069146892070e-02 3.22727153087594e-04
4.90921052631579e+00 3.67707316437754e-02 3.21374874950934e-04
4.95710526315789e+00 3.64375943664431e-02 3.20013030703965e-04
5.00500000000000e+00 3.61074752623401e-02 3.18642082115740e-04
5.05289473684210e+00 3.57803469872790e-02 3.17262477890695e-04
5.10078947368421e+00 3.54561824448061e-02 3.15874654387520e-04
5.14868421052632e+00 3.51349547845825e-02 3.14479036275961e-04
5.19657894736842e+00 3.48166373982724e-02 3.13076036584684e-04
5.24447368421053e+00 3.45012039192387e-02 3.11666056584761e-04
5.29236842105263e+00 3.41886282203134e-02 3.10249487020149e-04
5.34026315789474e+00 3.38788844098486e-02 3.08826707975634e-04
5.38815789473684e+00 3.35719468313669e-02 3.07398088743769e-04
5.43605263157895e+00 3.32677900613947e-02 3.05963988984652e-04
5.48394736842105e+00 3.29663889056672e-02 3.04524758580801e-04
5.53184210526316e+00 3.26677183987392e-02 3.03080737491035e-04
5.57973684210526e+00 3.23717538018795e-02 3.01632256845787e-04
5.62763157894737e+00 3.20784705994213e-02 3.00179638791549e-04
5.67552631578947e+00 3.17878444983403e-02 2.98723196335086e-04
5.72342105263158e+00 3.14998514262054e-02 2.97263234379537e-04
5.77131578947368e+00 3.12144675276696e-02 2.95800049560540e-04
5.81921052631579e+00 3.09316691640180e-02 2.94333930083475e-04
5.86710526315789e+00 3.06514329111749e-02 2.92865156704974e-04
5.91500000000000e+00 3.03737355563267e-02 2.91394002562839e-04
5.96289473684211e+00 3.00985540974450e-02 2.89920733126161e-04
6.01078947368421e+00 2.98258657408962e-02 2.88445606653753e-04
6.05868421052632e+00 2.95556478999996e-02 2.86968874610136e-04
6.10657894736842e+00 2.92878781918094e-02 2.85490781614209e-04
6.15447368421053e+00 2.90225344366165e-02 2.84011565264608e-04
6.20236842105263e+00 2.87595946560803e-02 2.82531457013301e-04
6.25026315789474e+00 2.84990370701292e-02 2.81050681986304e-04
6.29815789473684e+00 2.82408400964429e-02 2.79569458806798e-04
6.34605263157895e+00 2.79849823486367e-02 2.78088000426173e-04
6.39394736842105e+00 2.77314426332746e-02 2.76606513943966e-04
6.44184210526316e+00 2.74801999493352e-02 2.75125200429856e-04
6.48973684210526e+00 2.72312334864467e-02 2.73644255715063e-04
6.53763157894737e+00 2.69845226220070e-02 2.72163870212166e-04
6.58552631578947e+00 2.67400469206374e-02 2.70684228737173e-04
6.63342105263158e+00 2.64977861324650e-02 2.69205511263895e-04
6.68131578947368e+00 2.62577201903461e-02 2.67727892744057e-04
6.72921052631579e+00 2.60198292093099e-02 2.66251542930433e-04
6.77710526315789e+00 2.57840934848862e-02 2.64776627096453e-04
6.82500000000000e+00 2.55504934904288e-02 2.63303305857345e-04
6.87289473684211e+00 2.53190098765494e-02 2.61831735087237e-04
6.92078947368421e+00 2.50896234691625e-02 2.60362066235655e-04
6.96868421052632e+00 2.48623152682222e-02 2.58894446613144e-04
7.01657894736842e+00 2.46370664451655e-02 2.57429019312042e-04
7.06447368421053e+00 2.44138583423421e-02 2.55965923032229e-04
7.11236842105263e+00 2.41926724714478e-02 2.54505292730427e-04
7.16026315789474e+00 2.39734905110558e-02 2.53047259444912e-04
7.20815789473684e+00 2.37562943060416e-02 2.51591950123466e-04
7.25605263157895e+00 2.35410658660596e-02 2.50139488244208e-04
7.30394736842105e+00 2.33277873631596e-02 2.48689993643256e-04
7.35184210526316e+00 2.31164411312078e-02 2.47243582345141e-04
7.39973684210526e+00 2.29070096644057e-02 2.45800367156902e-04
7.44763157894737e+00 2.26994756149876e-02 2.44360457498697e-04
7.49552631578947e+00 2.24938217926406e-02 2.42923959237168e-04
7.54342105263158e+00 2.22900311630623e-02 2.41490975254299e-04
7.59131578947368e+00 2.20880868457383e-02 2.40061605280961e-04
7.63921052631579e+00 2.18879721133602e-02 2.38635945733564e-04
7.68710526315789e+00 2.16896703904233e-02 2.37214090258956e-04
7.73500000000000e+00 2.14931652510786e-02 2.35796129571112e-04
7.78289473684211e+00 2.12984404185522e-02 2.34382151364291e-04
7.83078947368421e+00 2.11054797635350e-02 2.32972240542333e-04
7.87868421052632e+00 2.09142673030892e-02 2.31566479424554e-04
7.92657894736842e+00 2.07247871985933e-02 2.30164947663856e-04
7.97447368421053e+00 2.05370237551657e-02 2.28767722090353e-04
8.02236842105263e+00 2.03509614203493e-02 2.27374877207056e-04
8.07026315789474e+00 2.01665847821254e-02 2.25986485033787e-04
8.11815789473684e+00 1.99838785683389e-02 2.24602614954149e-04
8.16605263157895e+00 1.98028276454192e-02 2.23223334191092e-04
8.21394736842105e+00 1.96234170164599e-02 2.21848707654549e-04
8.26184210526316e+00 1.94456318206466e-02 2.20478797791818e-04
8.30973684210526e+00 1.92694573320133e-02 2.19113665044037e-04
8.35763157894737e+00 1.90948789575847e-02 2.17753367697469e-04
8.40552631578947e+00 1.89218822368085e-02 2.16397961737485e-04
8.45342105263158e+00 1.87504528403448e-02 2.15047501286810e-04
8.50131578947368e+00 1.85805765682698e-02 2.13702038460368e-04
8.54921052631579e+00 1.84122393495125e-02 2.12361623222961e-04
8.59710526315789e+00 1.82454272406767e-02 2.11026303810192e-04
8.64500000000000e+00 1.80801264243032e-02 2.09696126586790e-04
8.69289473684210e+00 1.79163232083121e-02 2.08371135966159e-04
8.74078947368421e+00 1.77540040246715e-02 2.07051374581615e-04
8.78868421052631e+00 1.75931554284563e-02 2.05736883439565e-04
8.83657894736842e+00 1.74337640961834e-02 2.04427701843884e-04
8.88447368421053e+00 1.72758168252628e-02 2.03123867261250e-04
8.93236842105263e+00 1.71193005328928e-02 2.01825415706153e-04
8.98026315789474e+00 1.69642022544487e-02 2.00532381606996e-04
9.02815789473684e+00 1.68105091429396e-02 1.99244797674865e-04
9.07605263157895e+00 1.66582084679336e-02 1.97962695273686e-04
9.12394736842105e+00 1.65072876139990e-02 1.96686104289980e-04
9.17184210526316e+00 1.63577340801660e-02 1.95415053005020e-04
9.21973684210526e+00 1.62095354788824e-02 1.94149568450850e-04
9.26763157894737e+00 1.60626795345034e-02 1.92889676283552e-04
9.31552631578947e+00 1.59171540827614e-02 1.91635400658865e-04
9.36342105263158e+00 1.57729470697482e-02 1.90386764574674e-04
9.41131578947368e+00 1.56300465504545e-02 1.89143789747631e-04
9.45921052631579e+00 1.54884406882457e-02 1.87906496492240e-04
9.50710526315789e+00 1.53481177538716e-02 1.86674904050430e-04
9.55500000000000e+00 1.52090661240529e-02 1.85449030471456e-04
9.60289473684210e+00 1.50712742809633e-02 1.84228892540983e-04
9.65078947368421e+00 1.49347308111263e-02 1.83014505911583e-04
9.69868421052631e+00 1.47994244046088e-02 1.81805885219130e-04
9.74657894736842e+00 1.46653438536645e-02 1.80603044016178e-04
9.79447368421053e+00 1.45324780522280e-02 1.79405994658232e-04
9.84236842105263e+00 1.44008159949863e-02 1.78214748606273e-04
9.89026315789474e+00 1.42703467760653e-02 1.77029316313903e-04
9.93815789473684e+00 1.41410595885307e-02 1.75849707116730e-04
9.98605263157895e+00 1.40129437234854e-02 1.74675929523678e-04
1.00339473684211e+01 1.38859885687965e-02 1.73507990939977e-04
1.00818421052632e+01 1.37601836090983e-02 1.72345898355584e-04
1.01297368421053e+01 1.36355184225654e-02 1.71189657245916e-04
1.01776315789474e+01 1.35119826842517e-02 1.70039272043023e-04
1.02255263157895e+01 1.33895661615123e-02 1.68894747582853e-04
1.02734210526316e+01 1.32682587132417e-02 1.67756086632510e-04
1.03213157894737e+01 1.31480502925678e-02 1.66623291545815e-04
1.03692105263158e+01 1.30289309413136e-02 1.65496363919702e-04
1.04171052631579e+01 1.29108907938215e-02 1.64375304168900e-04
1.04650000000000e+01 1.27939200726545e-02 1.63260113144059e-04
1.05128947368421e+01 1.26780090878669e-02 1.62150789791068e-04
1.05607894736842e+01 1.25631482395067e-02 1.61047332346816e-04
1.06086842105263e+01 1.24493280134831e-02 1.59949739497693e-04
1.06565789473684e+01 1.23365389808556e-02 1.58858008119743e-04
1.07044736842105e+01 1.22247718002217e-02 1.57772134789711e-04
1.07523684210526e+01 1.21140172127225e-02 1.56692115469441e-04
1.08002631578947e+01 1.20042660454455e-02 1.55617945115657e-04
1.08481578947368e+01 1.18955092075433e-02 1.54549619157349e-04
1.08960526315789e+01 1.17877376895501e-02 1.53487131355982e-04
1.09439473684211e+01 1.16809425656033e-02 1.52430474896425e-04
1.09918421052632e+01 1.15751149897082e-02 1.51379643444392e-04
1.10397368421053e+01 1.14702461950747e-02 1.50334629079993e-04
1.10876315789474e+01 1.13663274962358e-02 1.49295423350869e-04
1.11355263157895e+01 1.12633502854562e-02 1.48262018293083e-04
1.11834210526316e+01 1.11613060320835e-02 1.47234404435325e-04
1.12313157894737e+01 1.10601862845725e-02 1.46212572130414e-04
1.12792105263158e+01 1.09599826661484e-02 1.45196511275452e-04
1.13271052631579e+01 1.08606868777067e-02 1.44186210966180e-04
1.13750000000000e+01 1.07622906944345e-02 1.43181660799412e-04
1.14228947368421e+01 1.06647859651897e-02 1.42182848982476e-04
1.14707894736842e+01 1.05681646143846e-02 1.41189763294934e-04
1.15186842105263e+01 1.04724186387338e-02 1.40202392021320e-04
1.15665789473684e+01 1.03775401066501e-02 1.39220722124763e-04
1.16144736842105e+01 1.02835211600422e-02 1.38244740464192e-04
1.16623684210526e+01 1.01903540103938e-02 1.37274433537189e-04
1.17102631578947e+01 1.00980309413506e-02 1.36309787162647e-04
1.17581578947368e+01 1.00065443056608e-02 1.35350787671750e-04
1.18060526315789e+01 9.91588652459480e-03 1.34397420177458e-04
1.18539473684211e+01 9.82605008962093e-03 1.33449669453340e-04
1.19018421052632e+01 9.73702755945858e-03 1.32507520786249e-04
1.19497368421053e+01 9.64881155951422e-03 1.31570958304184e-04
1.19976315789474e+01 9.56139478348125e-03 1.30639965825222e-04
1.20455263157895e+01 9.47476999050359e-03 1.29714527681268e-04
1.20934210526316e+01 9.38893000462443e-03 1.28794627102182e-04
1.21413157894737e+01 9.30386771631615e-03 1.27880247290645e-04
1.21892105263158e+01 9.21957607906281e-03 1.26971371193929e-04
1.22371052631579e+01 9.13604811157210e-03 1.26067981222448e-04
1.22850000000000e+01 9.05327689510349e-03 1.25170060301890e-04
1.23328947368421e+01 8.97125557294101e-03 1.24277590341584e-04
1.23807894736842e+01 8.88997735181834e-03 1.23390553010886e-04
1.24286842105263e+01 8.80943549934480e-03 1.22508930492840e-04
1.24765789473684e+01 8.72962334349169e-03 1.21632704003776e-04
1.25244736842105e+01 8.65053427395460e-03 1.20761854777231e-04
1.25723684210526e+01 8.57216173905536e-03 1.19896363854097e-04
1.26202631578947e+01 8.49449924772033e-03 1.19036211824042e-04
1.26681578947368e+01 8.41754036705526e-03 1.18181379788859e-04
1.27160526315789e+01 8.34127872185289e-03 1.17331847958931e-04
1.27639473684211e+01 8.26570799586322e-03 1.16487596363638e-04
1.28118421052632e+01 8.19082192945570e-03 1.15648605541248e-04
1.28597368421053e+01 8.11661431914051e-03 1.14814855182059e-04
1.29076315789474e+01 8.04307901878259e-03 1.13986324815015e-04
1.29555263157895e+01 7.97020993734908e-03 1.13162994474535e-04
1.30034210526316e+01 7.89800103844185e-03 1.12344843388686e-04
1.30513157894737e+01 7.82644634145928e-03 1.11531850849623e-04
1.30992105263158e+01 7.75553991888817e-03 1.10723996027145e-04
1.31471052631579e+01 7.68527589800008e-03 1.09921257739096e-04
1.31950000000000e+01 7.61564845872682e-03 1.09123615303883e-04
1.32428947368421e+01 7.54665183321353e-03 1.08331047296379e-04
1.32907894736842e+01 7.47828030690191e-03 1.07543532176647e-04
1.33386842105263e+01 7.41052821648193e-03 1.06761048900710e-04
1.33865789473684e+01 7.34338994945632e-03 1.05983575717535e-04
1.34344736842105e+01 7.27685994517697e-03 1.05211090966713e-04
1.34823684210526e+01 7.21093269238492e-03 1.04443572906925e-04
1.35302631578947e+01 7.14560273073044e-03 1.03680999504874e-04
1.35781578947368e+01 7.08086464884085e-03 1.02923349216709e-04
1.36260526315789e+01 7.01671308390332e-03 1.02170599846863e-04
1.36739473684211e+01 6.95314272263214e-03 1.01422729124012e-04
1.37218421052632e+01 6.89014829940466e-03 1.00679715260794e-04
1.37697368421053e+01 6.82772459585566e-03 9.99415358501209e-05
1.38176315789474e+01 6.76586644180244e-03 9.92081684221160e-05
1.38655263157895e+01 6.70456871344721e-03 9.84795909853618e-05
1.39134210526316e+01 6.64382633298132e-03 9.77557809593946e-05
1.39613157894737e+01 6.58363426947096e-03 9.70367158814918e-05
1.40092105263158e+01 6.52398753670102e-03 9.63223732541317e-05
1.40571052631579e+01 6.46488119448180e-03 9.56127303573540e-05
1.41050000000000e+01 6.40631034695198e-03 9.49077649413366e-05
1.41528947368421e+01 6.34827014220009e-03 9.42074542135322e-05
1.42007894736842e+01 6.29075577309121e-03 9.35117753491497e-05
1.42486842105263e+01 6.23376247562947e-03 9.28207059874268e-05
1.42965789473684e+01 6.17728552858940e-03 9.21342232518075e-05
1.43444736842105e+01 6.12132025430723e-03 9.14523043982634e-05
1.43923684210526e+01 6.06586201671881e-03 9.07749266748796e-05
1.44402631578947e+01 6.01090622253247e-03 9.01020671492697e-05
1.44881578947368e+01 5.95644831968288e-03 8.94337033439705e-05
1.45360526315789e+01 5.90248379697799e-03 8.87698123065893e-05
1.45839473684211e+01 5.84900818483818e-03 8.81103710779280e-05
1.46318421052632e+01 5.79601705380353e-03 8.74553571471794e-05
1.46797368421053e+01 5.74350601419063e-03 8.68047475522692e-05
1.47276315789474e+01 5.69147071679980e-03 8.61585193326935e-05
1.47755263157895e+01 5.63990685147470e-03 8.55166499698755e-05
1.48234210526316e+01 5.58881014676742e-03 8.48791165166838e-05
1.48713157894737e+01 5.53817637061613e-03 8.42458961726456e-05
1.49192105263158e+01 5.48800132862112e-03 8.36169661589506e-05
1.49671052631579e+01 5.43828086505542e-03 8.29923035648766e-05
1.50150000000000e+01 5.38901086150360e-03 8.23718859116855e-05
1.50628947368421e+01 5.34018723654161e-03 8.17556903263389e-05
1.51107894736842e+01 5.29180594636965e-03 8.11436939569393e-05
