Energy (eV)          EEDF (eV^-(3/2))     First Anisotropy
6.08823529411765e-04 1.47563775487304e+01 7.18412339991218e-03
1.82647058823529e-03 1.46567515829205e+01 1.18628643666614e-02
3.04411764705882e-03 1.45577982301976e+01 1.56598873753898e-02
4.26176470588235e-03 1.44595129495387e+01 1.85442496571649e-02
5.47941176470588e-03 1.43618912305208e+01 2.09496241410140e-02
6.69705882352941e-03 1.42649285933247e+01 2.30399462909145e-02
7.91470588235294e-03 1.41686205880691e+01 2.49000377815522e-02
9.13235294117647e-03 1.40729627950883e+01 2.65811109829808e-02
1.03500000000000e-02 1.39779508245531e+01 2.81171249501457e-02
1.15676470588235e-02 1.38835803164747e+01 2.95320771298336e-02
1.27852941176471e-02 1.37898469396155e+01 3.08437285534880e-02
1.40029411764706e-02 1.36967463930866e+01 3.20656969406205e-02
1.52205882352941e-02 1.36042744038312e+01 3.32087184942260e-02
1.64382352941176e-02 1.35124267282341e+01 3.42814511282998e-02
1.76558823529412e-02 1.34211991518172e+01 3.52910090237744e-02
1.88735294117647e-02 1.33305874875850e+01 3.62433307824590e-02
2.00911764705882e-02 1.32405875776924e+01 3.71434410195323e-02
2.13088235294118e-02 1.31511952915624e+01 3.79956409429979e-02
2.25264705882353e-02 1.30624065269004e+01 3.88036500677996e-02
2.37441176470588e-02 1.29742172094537e+01 3.95707140402273e-02
2.49617647058824e-02 1.28866232917903e+01 4.02996875506713e-02
2.61794117647059e-02 1.27996207544420e+01 4.09930993717411e-02
2.73970588235294e-02 1.27132056044838e+01 4.16532039753198e-02
2.86147058823529e-02 1.26273738762433e+01 4.22820228247146e-02
2.98323529411765e-02 1.25421216310828e+01 4.28813781394876e-02
3.10500000000000e-02 1.24574449564337e+01 4.34529203160217e-02
3.22676470588235e-02 1.23733399666358e+01 4.39981507019949e-02
3.34852941176471e-02 1.22898028017976e+01 4.45184405649433e-02
3.47029411764706e-02 1.22068296285274e+01 4.50150470028580e-02
3.59205882352941e-02 1.21244166388966e+01 4.54891264284903e-02
3.71382352941176e-02 1.20425600508936e+01 4.59417459220601e-02
3.83558823529412e-02 1.19612561082298e+01 4.63738931630630e-02
3.95735294117647e-02 1.18805010795987e+01 4.67864847705763e-02
4.07911764705882e-02 1.18002912592460e+01 4.71803736103433e-02
4.20088235294118e-02 1.17206229660921e+01 4.75563551549501e-02
4.32264705882353e-02 1.16414925440813e+01 4.79151729293977e-02
4.44441176470588e-02 1.15628963619988e+01 4.82575234812212e-02
4.56617647058824e-02 1.14848308128309e+01 4.85840605679868e-02
4.68794117647059e-02 1.14072923142182e+01 4.88953989426601e-02
4.80970588235294e-02 1.13302773076973e+01 4.91921177180549e-02
4.93147058823529e-02 1.12537822589742e+01 4.94747632633661e-02
5.05323529411765e-02 1.11778036577496e+01 4.97438519678142e-02
5.17500000000000e-02 1.11023380171562e+01 4.99998725431171e-02
5.29676470588235e-02 1.10273818741259e+01 5.02432881697837e-02
5.41852941176471e-02 1.09529317887226e+01 5.04745384196851e-02
5.54029411764706e-02 1.08789843444740e+01 5.06940409833697e-02
5.66205882352941e-02 1.08055361477427e+01 5.09021932556619e-02
5.78382352941176e-02 1.07325838279185e+01 5.10993736898218e-02
5.90558823529412e-02 1.06601240372551e+01 5.12859431851047e-02
6.02735294117647e-02 1.05881534503927e+01 5.14622461997243e-02
6.14911764705882e-02 1.05166687646309e+01 5.16286118371696e-02
6.27088235294118e-02 1.04456666993652e+01 5.17853548454640e-02
6.39264705882353e-02 1.03751439962404e+01 5.19327764555462e-02
6.51441176470588e-02 1.03050974189944e+01 5.20711652958613e-02
6.63617647058824e-02 1.02355237530252e+01 5.22007980936782e-02
6.75794117647059e-02 1.01664198056171e+01 5.23219403865827e-02
6.87970588235294e-02 1.00977824054322e+01 5.24348471840501e-02
7.00147058823530e-02 1.00296084026319e+01 5.25397635074297e-02
7.12323529411765e-02 9.96189466872703e+00 5.26369250241396e-02
7.24500000000000e-02 9.89463809618304e+00 5.27265585055362e-02
7.36676470588235e-02 9.82783559860793e+00 5.28088823130595e-02
7.48852941176471e-02 9.76148411028916e+00 5.28841068421787e-02
7.61029411764706e-02 9.69558058636571e+00 5.29524349304300e-02
7.73205882352941e-02 9.63012200238395e+00 5.30140622545220e-02
7.85382352941176e-02 9.56510535438442e+00 5.30691776371185e-02
7.97558823529412e-02 9.50052765875903e+00 5.31179634540096e-02
8.09735294117647e-02 9.43638595190195e+00 5.31605958979954e-02
8.21911764705882e-02 9.37267729035338e+00 5.31972452811316e-02
8.34088235294118e-02 9.30939875039189e+00 5.32280763218775e-02
8.46264705882353e-02 9.24654742810221e+00 5.32532483549899e-02
8.58441176470588e-02 9.18412043923801e+00 5.32729156413907e-02
8.70617647058824e-02 9.12211491889858e+00 5.32872275501203e-02
8.82794117647059e-02 9.06052802164920e+00 5.32963287812932e-02
8.94970588235294e-02 8.99935692114487e+00 5.33003595795987e-02
9.07147058823529e-02 8.93859881018282e+00 5.32994558799755e-02
9.19323529411765e-02 8.87825090057000e+00 5.32937495506318e-02
9.31500000000000e-02 8.81831042282283e+00 5.32833685199653e-02
9.43676470588235e-02 8.75877462626768e+00 5.32684369452100e-02
9.55852941176471e-02 8.69964077869228e+00 5.32490753653426e-02
9.68029411764706e-02 8.64090616643756e+00 5.32254008421195e-02
9.80205882352941e-02 8.58256809406081e+00 5.31975271067979e-02
9.92382352941177e-02 8.52462388436966e+00 5.31655646488470e-02
1.00455882352941e-01 8.46707087829619e+00 5.31296209054156e-02
1.01673529411765e-01 8.40990643457662e+00 5.30898003107044e-02
1.02891176470588e-01 8.35312792997537e+00 5.30462044242421e-02
1.04108823529412e-01 8.29673275886834e+00 5.29989320833680e-02
1.05326470588235e-01 8.24071833322254e+00 5.29480794450211e-02
1.06544117647059e-01 8.18508208247836e+00 5.28937400997654e-02
1.07761764705882e-01 8.12982145343103e+00 5.28360051622115e-02
1.08979411764706e-01 8.07493391011349e+00 5.27749633569174e-02
1.10197058823529e-01 8.02041693367998e+00 5.27107011004296e-02
1.11414705882353e-01 7.96626802229049e+00 5.26433025795978e-02
1.12632352941176e-01 7.91248469099591e+00 5.25728498263494e-02
1.13850000000000e-01 7.85906447162401e+00 5.24994228697745e-02
1.15067647058824e-01 7.80600491227076e+00 5.24230995607821e-02
1.16285294117647e-01 7.75330357838386e+00 5.23439558010738e-02
1.17502941176471e-01 7.70095805144489e+00 5.22620657705390e-02
1.18720588235294e-01 7.64896592926383e+00 5.21775017380461e-02
1.19938235294118e-01 7.59732482586876e+00 5.20903342024608e-02
1.21155882352941e-01 7.54603237139642e+00 5.20006319476521e-02
1.22373529411765e-01 7.49508621198342e+00 5.19084620952228e-02
1.23591176470588e-01 7.44448400965825e+00 5.18138901551113e-02
1.24808823529412e-01 7.39422344223395e+00 5.17169800742253e-02
1.26026470588235e-01 7.34430220320127e+00 5.16177942829552e-02
1.27244117647059e-01 7.29471800162343e+00 5.15163937399918e-02
1.28461764705882e-01 7.24546856203065e+00 5.14128379755186e-02
1.29679411764706e-01 7.19655162431574e+00 5.13071851325567e-02
1.30897058823529e-01 7.14796494363039e+00 5.11994920068107e-02
1.32114705882353e-01 7.09970629028212e+00 5.10898140850019e-02
1.33332352941176e-01 7.05177344963201e+00 5.09782055817826e-02
1.34550000000000e-01 7.00416422199300e+00 5.08647195414084e-02
1.35767647058824e-01 6.95687642223057e+00 5.07494076722439e-02
1.36985294117647e-01 6.90990788056464e+00 5.06323205137589e-02
1.38202941176471e-01 6.86325644156075e+00 5.05135076036750e-02
1.39420588235294e-01 6.81691996433659e+00 5.03930173044254e-02
1.40638235294118e-01 6.77089632246382e+00 5.02708969013441e-02
1.41855882352941e-01 6.72518340387043e+00 5.01471926312552e-02
1.43073529411765e-01 6.67977911074384e+00 5.00219497100823e-02
1.44291176470588e-01 6.63468135943462e+00 4.98952123595171e-02
1.45508823529412e-01 6.58988808036088e+00 4.97670238328217e-02
1.46726470588235e-01 6.54539721791308e+00 4.96374264396527e-02
1.47944117647059e-01 6.50120673036012e+00 4.95064615701337e-02
1.49161764705882e-01 6.45731458975542e+00 4.93741697182282e-02
1.50379411764706e-01 6.41371878184384e+00 4.92405905042295e-02
1.51597058823529e-01 6.37041730596928e+00 4.91057626965508e-02
1.52814705882353e-01 6.32740817498284e+00 4.89697242328254e-02
1.54032352941176e-01 6.28468941515164e+00 4.88325122403440e-02
1.55250000000000e-01 6.24225906606824e+00 4.86941631107130e-02
1.56467647058824e-01 6.20011518033001e+00 4.85547123533272e-02
1.57685294117647e-01 6.15825582414680e+00 4.84141947249925e-02
1.58902941176471e-01 6.11667907655001e+00 4.82726443603100e-02
1.60120588235294e-01 6.07538302954026e+00 4.81300946196864e-02
1.61338235294118e-01 6.03436578799980e+00 4.79865781631273e-02
1.62555882352941e-01 5.99362546960557e+00 4.78421269666615e-02
1.63773529411765e-01 5.95316020474279e+00 4.76967723382891e-02
1.64991176470588e-01 5.91296813641921e+00 4.75505449334468e-02
1.66208823529412e-01 5.87304742017982e+00 4.74034747700614e-02
1.67426470588235e-01 5.83339622402213e+00 4.72555912430768e-02
1.68644117647059e-01 5.79401272831235e+00 4.71069231386102e-02
1.69861764705882e-01 5.75489512570174e+00 4.69574986477851e-02
1.71079411764706e-01 5.71604162104366e+00 4.68073453800742e-02
1.72297058823529e-01 5.67745043131122e+00 4.66564903762885e-02
1.73514705882353e-01 5.63911978551543e+00 4.65049601212172e-02
1.74732352941176e-01 5.60104792462394e+00 4.63527805559124e-02
1.75950000000000e-01 5.56323310148029e+00 4.61999771355829e-02
1.77167647058824e-01 5.52567358054230e+00 4.60465747025119e-02
1.78385294117647e-01 5.48836763835062e+00 4.58925975902500e-02
1.79602941176471e-01 5.45131356289753e+00 4.57380697287726e-02
1.80820588235294e-01 5.41450965373377e+00 4.55830145133248e-02
1.82038235294118e-01 5.37795422189046e+00 4.54274548624291e-02
1.83255882352941e-01 5.34164558980160e+00 4.52714132280493e-02
1.84473529411765e-01 5.30558209122709e+00 4.51149116054749e-02
1.85691176470588e-01 5.26976207117627e+00 4.49579715429476e-02
1.86908823529412e-01 5.23418388583196e+00 4.48006141510781e-02
1.88126470588235e-01 5.19884590247493e+00 4.46428601119300e-02
1.89344117647059e-01 5.16374649940918e+00 4.44847296879409e-02
1.90561764705882e-01 5.12888406588738e+00 4.43262427306541e-02
1.91779411764706e-01 5.09425700203701e+00 4.41674186891569e-02
1.92997058823529e-01 5.05986371878689e+00 4.40082766183457e-02
1.94214705882353e-01 5.02570263779428e+00 4.38488351869746e-02
1.95432352941176e-01 4.99177219137244e+00 4.36891126855087e-02
1.96650000000000e-01 4.95807082241870e+00 4.35291270725270e-02
1.97867647058824e-01 4.92459698419822e+00 4.33688958652738e-02
1.99085294117647e-01 4.89134914071022e+00 4.32084362252137e-02
2.00302941176471e-01 4.85832576617736e+00 4.30477650445725e-02
2.01520588235294e-01 4.82552534512335e+00 4.28868988336788e-02
2.02738235294118e-01 4.79294637230354e+00 4.27258537678660e-02
2.03955882352941e-01 4.76058735263571e+00 4.25646456941036e-02
2.05173529411765e-01 4.72844680113155e+00 4.24032901374636e-02
2.06391176470588e-01 4.69652324282846e+00 4.22418023074343e-02
2.07608823529412e-01 4.66481521272191e+00 4.20801971041270e-02
2.08826470588235e-01 4.63332125569810e+00 4.19184891242652e-02
2.10044117647059e-01 4.60203992646733e+00 4.17566926670732e-02
2.11261764705882e-01 4.57096978949762e+00 4.15948217400800e-02
2.12479411764706e-01 4.54010941894882e+00 4.14328900647264e-02
2.13697058823529e-01 4.50945739860717e+00 4.12709110818728e-02
2.14914705882353e-01 4.47901232182031e+00 4.11088979571689e-02
2.16132352941176e-01 4.44877279143277e+00 4.09468635863193e-02
2.17350000000000e-01 4.41873741972177e+00 4.07848206330700e-02
2.18567647058824e-01 4.38890482821685e+00 4.06227814351192e-02
2.19785294117647e-01 4.35927364798914e+00 4.04607580753537e-02
2.21002941176471e-01 4.32984251923366e+00 4.02987624540077e-02
2.22220588235294e-01 4.30061009132601e+00 4.01368061919828e-02
2.23438235294118e-01 4.27157502276037e+00 3.99749006694555e-02
2.24655882352941e-01 4.24273598108794e+00 3.98130570303781e-02
2.25873529411765e-01 4.21409164285580e+00 3.96512861868934e-02
2.27091176470588e-01 4.18564069354618e+00 3.94895988236530e-02
2.28308823529412e-01 4.15738182751612e+00 3.93280054020573e-02
2.29526470588235e-01 4.12931374793750e+00 3.91665161643624e-02
2.30744117647059e-01 4.10143516673767e+00 3.90051411377305e-02
2.31961764705882e-01 4.07374480454022e+00 3.88438901382245e-02
2.33179411764706e-01 4.04624139060632e+00 3.86827727746774e-02
2.34397058823529e-01 4.01892366277639e+00 3.85217984524948e-02
2.35614705882353e-01 3.99179036741217e+00 3.83609763773780e-02
2.36832352941176e-01 3.96484025933921e+00 3.82003155589753e-02
2.38050000000000e-01 3.93807210178969e+00 3.80398248424263e-02
2.39267647058824e-01 3.91148466625067e+00 3.78795128274592e-02
2.40485294117647e-01 3.88507673269460e+00 3.77193879282706e-02
2.41702941176471e-01 3.85884708923460e+00 3.75594584342708e-02
2.42920588235294e-01 3.83279453216569e+00 3.73997324270248e-02
2.44138235294118e-01 3.80691786590959e+00 3.72402178124339e-02
2.45355882352941e-01 3.78121590295980e+00 3.70809223238975e-02
2.46573529411765e-01 3.75568746382717e+00 3.69218535254212e-02
2.47791176470588e-01 3.73033137698571e+00 3.67630188146557e-02
2.49008823529412e-01 3.70514647881886e+00 3.66044254258848e-02
2.50226470588235e-01 3.68013161356605e+00 3.64460804329318e-02
2.51444117647059e-01 3.65528563326974e+00 3.62879907520228e-02
2.52661764705882e-01 3.63060739772267e+00 3.61301631446193e-02
2.53879411764706e-01 3.60609577441560e+00 3.59726042201612e-02
2.55097058823529e-01 3.58174963848526e+00 3.58153204387747e-02
2.56314705882353e-01 3.55756787266277e+00 3.56583181139195e-02
2.57532352941176e-01 3.53354936722239e+00 3.55016034149895e-02
2.58750000000000e-01 3.50969301993053e+00 3.53451823937763e-02
2.59967647058824e-01 3.48599773591728e+00 3.51890609148259e-02
2.61185294117647e-01 3.46246242786144e+00 3.50332447061326e-02
2.62402941176471e-01 3.43908601570382e+00 3.48777394106122e-02
2.63620588235294e-01 3.41586742667717e+00 3.47225505146508e-02
2.64838235294118e-01 3.39280559525686e+00 3.45676833751691e-02
2.66055882352941e-01 3.36989946311206e+00 3.44131432219014e-02
2.67273529411765e-01 3.34714797905714e+00 3.42589351596335e-02
2.68491176470588e-01 3.32455009900341e+00 3.41050641703915e-02
2.69708823529412e-01 3.30210478591123e+00 3.39515351156033e-02
2.70926470588235e-01 3.27981100974241e+00 3.37983527381964e-02
2.72144117647059e-01 3.25766774741294e+00 3.36455216646704e-02
2.73361764705882e-01 3.23567398274606e+00 3.34930464071510e-02
2.74579411764706e-01 3.21382870642562e+00 3.33409313653799e-02
2.75797058823529e-01 3.19213091594973e+00 3.31891808286801e-02
2.77014705882353e-01 3.17057961558479e+00 3.30377989778840e-02
2.78232352941176e-01 3.14917381631979e+00 3.28867898872194e-02
2.79450000000000e-01 3.12791253582090e+00 3.27361575466853e-02
2.80667647058824e-01 3.10679479832208e+00 3.25859058020038e-02
2.81885294117647e-01 3.08581963477446e+00 3.24360383977654e-02
2.83102941176471e-01 3.06498608260650e+00 3.22865590212849e-02
2.84320588235294e-01 3.04429318574538e+00 3.21374712410201e-02
2.85538235294118e-01 3.02373999457307e+00 3.19887785294965e-02
2.86755882352941e-01 3.00332556588280e+00 3.18404842649762e-02
2.87973529411765e-01 2.98304896283573e+00 3.16925917330964e-02
2.89191176470588e-01 2.96290925491799e+00 3.15451041284814e-02
2.90408823529412e-01 2.94290551789798e+00 3.13980245563294e-02
2.91626470588235e-01 2.92303683378390e+00 3.12513560339549e-02
2.92844117647059e-01 2.90330229078169e+00 3.11051014923170e-02
2.94061764705882e-01 2.88370098325319e+00 3.09592637775323e-02
2.95279411764706e-01 2.86423201167453e+00 3.08138456523449e-02
2.96497058823529e-01 2.84489448259486e+00 3.06688497975779e-02
2.97714705882353e-01 2.82568750859539e+00 3.05242788135531e-02
2.98932352941176e-01 2.80661020824861e+00 3.03801352214938e-02
3.00150000000000e-01 2.78766170607790e+00 3.02364214825359e-02
3.01367647058824e-01 2.76884113246389e+00 3.00931399458800e-02
3.02585294117647e-01 2.75014762376574e+00 2.99502928856720e-02
3.03802941176471e-01 2.73158032211938e+00 2.98078825385123e-02
3.05020588235294e-01 2.71313837545254e+00 2.96659110503038e-02
3.06238235294118e-01 2.69482093744557e+00 2.95243804957610e-02
3.07455882352941e-01 2.67662716749270e+00 2.93832928796526e-02
3.08673529411765e-01 2.65855623066337e+00 2.92426501380190e-02
3.09891176470588e-01 2.64060729766399e+00 2.91024541393744e-02
3.11108823529412e-01 2.62277954479983e+00 2.89627066858891e-02
3.12326470588235e-01 2.60507215393724e+00 2.88234095145412e-02
3.13544117647059e-01 2.58748431246611e+00 2.86845642982545e-02
3.14761764705882e-01 2.57001521326257e+00 2.85461726470295e-02
3.15979411764706e-01 2.55266405465197e+00 2.84082361090441e-02
3.17197058823529e-01 2.53543004037205e+00 2.82707561717333e-02
3.18414705882353e-01 2.51831237953646e+00 2.81337342628554e-02
3.19632352941176e-01 2.50131028659839e+00 2.79971717515435e-02
3.20850000000000e-01 2.48442298131458e+00 2.78610699645381e-02
3.22067647058824e-01 2.46764968866498e+00 2.77254301413394e-02
3.23285294117647e-01 2.45098963895149e+00 2.75902534658481e-02
3.24502941176471e-01 2.43444206762756e+00 2.74555410985560e-02
3.25720588235294e-01 2.41800621530837e+00 2.73212941305848e-02
3.26938235294118e-01 2.40168132773601e+00 2.71875136003662e-02
3.28155882352941e-01 2.38546665574485e+00 2.70542004945711e-02
3.29373529411765e-01 2.36936145522717e+00 2.69213557490305e-02
3.30591176470588e-01 2.35336498709900e+00 2.67889802496357e-02
3.31808823529412e-01 2.33747651726621e+00 2.66570748332308e-02
3.33026470588235e-01 2.32169531659083e+00 2.65256402884815e-02
3.34244117647059e-01 2.30602066085756e+00 2.63946773567289e-02
3.35461764705882e-01 2.29045183074059e+00 2.62641867328465e-02
3.36679411764706e-01 2.27498811177053e+00 2.61341690660656e-02
3.37897058823529e-01 2.25962879430165e+00 2.60046249607959e-02
3.39114705882353e-01 2.24437317347934e+00 2.58755549774296e-02
3.40332352941176e-01 2.22922054920770e+00 2.57469596331308e-02
3.41550000000000e-01 2.21417022611745e+00 2.56188394157506e-02
3.42767647058824e-01 2.19922151349677e+00 2.54911947449815e-02
3.43985294117647e-01 2.18437372537202e+00 2.53640259995705e-02
3.45202941176471e-01 2.16962618036317e+00 2.52373335450302e-02
3.46420588235294e-01 2.15497820169042e+00 2.51111176938338e-02
3.47638235294118e-01 2.14042911714322e+00 2.49853787197195e-02
3.48855882352941e-01 2.12597825904934e+00 2.48601168583965e-02
3.50073529411765e-01 2.11162496424425e+00 2.47353323082389e-02
3.51291176470588e-01 2.09736857404074e+00 2.46110252309733e-02
3.52508823529412e-01 2.08320843419862e+00 2.44871957523546e-02
3.53726470588235e-01 2.06914389489472e+00 2.43638439628210e-02
3.54944117647059e-01 2.05517431069309e+00 2.42409699181486e-02
3.56161764705882e-01 2.04129904051537e+00 2.41185736400978e-02
3.57379411764706e-01 2.02751744761138e+00 2.39966551170423e-02
3.58597058823529e-01 2.01382889952985e+00 2.38752143045910e-02
3.59814705882353e-01 2.00023276808945e+00 2.37542511261981e-02
3.61032352941176e-01 1.98672842934996e+00 2.36337654737691e-02
3.62250000000000e-01 1.97331526358360e+00 2.35137572196146e-02
3.63467647058824e-01 1.95999265521529e+00 2.33942261827537e-02
3.64685294117647e-01 1.94675999288891e+00 2.32751721523881e-02
3.65902941176471e-01 1.93361666934419e+00 2.31565949118060e-02
3.67120588235294e-01 1.92056208142071e+00 2.30384942038558e-02
3.68338235294118e-01 1.90759563003020e+00 2.29208697432520e-02
3.69555882352941e-01 1.89471672012908e+00 2.28037212171152e-02
3.70773529411765e-01 1.88192476069114e+00 2.26870482854979e-02
3.71991176470588e-01 1.86921916468041e+00 2.25708505819097e-02
3.73208823529412e-01 1.85659934902423e+00 2.24551277138315e-02
3.74426470588235e-01 1.84406473458648e+00 2.23398792632175e-02
3.75644117647059e-01 1.83161474614101e+00 2.22251047869902e-02
3.76861764705882e-01 1.81924881234524e+00 2.21108038175346e-02
3.78079411764706e-01 1.80696636571397e+00 2.19969758631815e-02
3.79297058823529e-01 1.79476684259329e+00 2.18836204086781e-02
3.80514705882353e-01 1.78264968313472e+00 2.17707369156561e-02
3.81732352941176e-01 1.77061433126957e+00 2.16583248230920e-02
3.82950000000000e-01 1.75866023468335e+00 2.15463835576100e-02
3.84167647058824e-01 1.74678684476407e+00 2.14349125042138e-02
