Energy (eV)          EEDF (eV^-(3/2))     First Anisotropy
2.74358974358974e-02 7.27878027697667e-02 4.36422428193244e-05
8.23076923076923e-02 7.21463165265420e-02 7.19902029870291e-05
1.37179487179487e-01 7.15104837643392e-02 9.48353064894589e-05
1.92051282051282e-01 7.08802546608319e-02 1.12069714888977e-04
2.46923076923077e-01 7.02555798330692e-02 1.26343476083168e-04
3.01794871794872e-01 6.96364103270683e-02 1.38661416635474e-04
3.56666666666667e-01 6.90226976240147e-02 1.49544953175688e-04
4.11538461538462e-01 6.84143936326401e-02 1.59309791154950e-04
4.66410256410256e-01 6.78114506854733e-02 1.68165860975621e-04
5.21282051282051e-01 6.72138215351123e-02 1.76261922502087e-04
5.76153846153846e-01 6.66214593505684e-02 1.83708379239920e-04
6.31025641025641e-01 6.60343177135676e-02 1.90590110277103e-04
6.85897435897436e-01 6.54523506158021e-02 1.96974214990828e-04
7.40769230769231e-01 6.48755124526023e-02 2.02914949103320e-04
7.95641025641026e-01 6.43037580221700e-02 2.08457011106020e-04
8.50512820512821e-01 6.37370425210711e-02 2.13637810365644e-04
9.05384615384615e-01 6.31753215407232e-02 2.18489079429914e-04
9.60256410256410e-01 6.26185510639185e-02 2.23038049818395e-04
1.01512820512821e+00 6.20666874613806e-02 2.27308328195052e-04
1.07000000000000e+00 6.15196874898599e-02 2.31320562759264e-04
1.12487179487180e+00 6.09775082816363e-02 2.35092956000152e-04
1.17974358974359e+00 6.04401073557609e-02 2.38641668923086e-04
1.23461538461538e+00 5.99074425961063e-02 2.41981140655442e-04
1.28948717948718e+00 5.93794722667718e-02 2.45124345653855e-04
1.34435897435897e+00 5.88561549910926e-02 2.48083002835712e-04
1.39923076923077e+00 5.83374497652183e-02 2.50867746847989e-04
1.45410256410256e+00 5.78233159389043e-02 2.53488270063895e-04
1.50897435897436e+00 5.73137132275622e-02 2.55953440800004e-04
1.56384615384615e+00 5.68086016945694e-02 2.58271402921770e-04
1.61871794871795e+00 5.63079417620234e-02 2.60449659914385e-04
1.67358974358974e+00 5.58116941943595e-02 2.62495146710420e-04
1.72846153846154e+00 5.53198201079965e-02 2.64414291020182e-04
1.78333333333333e+00 5.48322809560929e-02 2.66213066373487e-04
1.83820512820513e+00 5.43490385372337e-02 2.67897037856137e-04
1.89307692307692e+00 5.38700549811882e-02 2.69471402096605e-04
1.94794871794872e+00 5.33952927567604e-02 2.70941022034865e-04
2.00282051282051e+00 5.29247146584353e-02 2.72310457618683e-04
2.05769230769231e+00 5.24582838134947e-02 2.73583992685630e-04
2.11256410256410e+00 5.19959636694562e-02 2.74765658908676e-04
2.16743589743590e+00 5.15377180005406e-02 2.75859256586137e-04
2.22230769230769e+00 5.10835108978766e-02 2.76868374826889e-04
2.27717948717949e+00 5.06333067671587e-02 2.77796406491173e-04
2.33205128205128e+00 5.01870703317468e-02 2.78646564550691e-04
2.38692307692308e+00 4.97447666220525e-02 2.79421895411738e-04
2.44179487179487e+00 4.93063609804037e-02 2.80125291093218e-04
2.49666666666667e+00 4.88718190509572e-02 2.80759500357647e-04
2.55153846153846e+00 4.84411067841553e-02 2.81327138673348e-04
2.60641025641026e+00 4.80141904271217e-02 2.81830697380649e-04
2.66128205128205e+00 4.75910365277494e-02 2.82272551918563e-04
2.71615384615385e+00 4.71716119255408e-02 2.82654969442581e-04
2.77102564102564e+00 4.67558837553613e-02 2.82980115677071e-04
2.82589743589744e+00 4.63438194386910e-02 2.83250061299656e-04
2.88076923076923e+00 4.59353866870731e-02 2.83466787694248e-04
2.93564102564103e+00 4.55305534937469e-02 2.83632192343426e-04
2.99051282051282e+00 4.51292881368187e-02 2.83748093693665e-04
3.04538461538462e+00 4.47315591712486e-02 2.83816235742535e-04
3.10025641025641e+00 4.43373354317682e-02 2.83838292180994e-04
3.15512820512821e+00 4.39465860251972e-02 2.83815870321555e-04
3.21000000000000e+00 4.35592803331283e-02 2.83750514647041e-04
3.26487179487179e+00 4.31753880045524e-02 2.83643710195225e-04
3.31974358974359e+00 4.27948789583305e-02 2.83496885616670e-04
3.37461538461538e+00 4.24177233761073e-02 2.83311416107913e-04
3.42948717948718e+00 4.20438917045866e-02 2.83088626060489e-04
3.48435897435897e+00 4.16733546487169e-02 2.82829791616445e-04
3.53923076923077e+00 4.13060831737849e-02 2.82536142974810e-04
3.59410256410256e+00 4.09420484988566e-02 2.82208866629290e-04
3.64897435897436e+00 4.05812220987039e-02 2.81849107385821e-04
3.70384615384615e+00 4.02235756974860e-02 2.81457970331248e-04
3.75871794871795e+00 3.98690812705217e-02 2.81036522605962e-04
3.81358974358974e+00 3.95177110381974e-02 2.80585795143471e-04
3.86846153846154e+00 3.91694374675970e-02 2.80106784234322e-04
3.92333333333333e+00 3.88242332666242e-02 2.79600453069675e-04
3.97820512820513e+00 3.84820713855001e-02 2.79067733126327e-04
4.03307692307692e+00 3.81429250110886e-02 2.78509525541783e-04
4.08794871794872e+00 3.78067675682715e-02 2.77926702345347e-04
4.14282051282051e+00 3.74735727144661e-02 2.77320107687549e-04
4.19769230769231e+00 3.71433143408869e-02 2.76690558938214e-04
4.25256410256410e+00 3.68159665672456e-02 2.76038847789552e-04
4.30743589743590e+00 3.64915037429073e-02 2.75365741083401e-04
4.36230769230769e+00 3.61699004425002e-02 2.74671982426712e-04
4.41717948717949e+00 3.58511314640229e-02 2.73958292144770e-04
4.47205128205128e+00 3.55351718290252e-02 2.73225368774138e-04
4.52692307692308e+00 3.52219967777809e-02 2.72473889750539e-04
4.58179487179487e+00 3.49115817701584e-02 2.71704512163571e-04
4.63666666666667e+00 3.46039024809439e-02 2.70917873529562e-04
4.69153846153846e+00 3.42989348006338e-02 2.70114592473716e-04
4.74641025641026e+00 3.39966548309011e-02 2.69295269432982e-04
4.80128205128205e+00 3.36970388853139e-02 2.68460487274133e-04
4.85615384615385e+00 3.34000634849399e-02 2.67610811934632e-04
4.91102564102564e+00 3.31057053589954e-02 2.66746792984006e-04
4.96589743589744e+00 3.28139414405820e-02 2.65868964209625e-04
5.02076923076923e+00 3.25247488672716e-02 2.64977844127743e-04
5.07564102564103e+00 3.22381049769681e-02 2.64073936520211e-04
5.13051282051282e+00 3.19539873084334e-02 2.63157730900702e-04
5.18538461538462e+00 3.16723735972697e-02 2.62229703007497e-04
5.24025641025641e+00 3.13932417763890e-02 2.61290315229728e-04
5.29512820512821e+00 3.11165699721120e-02 2.60340017060851e-04
5.35000000000000e+00 3.08423365045853e-02 2.59379245489057e-04
5.40487179487180e+00 3.05705198839906e-02 2.58408425415414e-04
5.45974358974359e+00 3.03010988109139e-02 2.57427970012113e-04
5.51461538461538e+00 3.00340521726617e-02 2.56438281108820e-04
5.56948717948718e+00 2.97693590435837e-02 2.55439749521990e-04
5.62435897435897e+00 2.95069986814925e-02 2.54432755412436e-04
5.67923076923077e+00 2.92469505279431e-02 2.53417668588615e-04
5.73410256410256e+00 2.89891942047516e-02 2.52394848838161e-04
5.78897435897436e+00 2.87337095142354e-02 2.51364646207600e-04
5.84384615384615e+00 2.84804764358258e-02 2.50327401310278e-04
5.89871794871795e+00 2.82294751262716e-02 2.49283445584774e-04
5.95358974358974e+00 2.79806859163439e-02 2.48233101581326e-04
6.00846153846154e+00 2.77340893110035e-02 2.47176683200896e-04
6.06333333333333e+00 2.74896659861951e-02 2.46114495962067e-04
6.11820512820513e+00 2.72473967889815e-02 2.45046837222453e-04
6.17307692307692e+00 2.70072627344232e-02 2.43973996427791e-04
6.22794871794872e+00 2.67692450056822e-02 2.42896255317338e-04
6.28282051282051e+00 2.65333249509832e-02 2.41813888156550e-04
6.33769230769231e+00 2.62994840836896e-02 2.40727161927918e-04
6.39256410256410e+00 2.60677040793439e-02 2.39636336548692e-04
6.44743589743590e+00 2.58379667757164e-02 2.38541664958363e-04
6.50230769230769e+00 2.56102541702717e-02 2.37443393683248e-04
6.55717948717949e+00 2.53845484187942e-02 2.36341762463469e-04
6.61205128205128e+00 2.51608318350185e-02 2.35237004790967e-04
6.66692307692308e+00 2.49390868878743e-02 2.34129347999886e-04
6.72179487179487e+00 2.47192962014588e-02 2.33019013415534e-04
6.77666666666667e+00 2.45014425523514e-02 2.31906216528363e-04
6.83153846153846e+00 2.42855088695659e-02 2.30791167133064e-04
6.88641025641026e+00 2.40714782319322e-02 2.29674069492218e-04
6.94128205128205e+00 2.38593338680302e-02 2.28555122466302e-04
6.99615384615385e+00 2.36490591536361e-02 2.27434519667787e-04
7.05102564102564e+00 2.34406376116388e-02 2.26312449582747e-04
7.10589743589744e+00 2.32340529095499e-02 2.25189095716144e-04
7.16076923076923e+00 2.30292888594030e-02 2.24064636705677e-04
7.21564102564103e+00 2.28263294153250e-02 2.22939246458875e-04
7.27051282051282e+00 2.26251586734203e-02 2.21813094259773e-04
7.32538461538462e+00 2.24257608694016e-02 2.20686344898429e-04
7.38025641025641e+00 2.22281203784593e-02 2.19559158770952e-04
7.43512820512821e+00 2.20322217129498e-02 2.18431692001932e-04
7.49000000000000e+00 2.18380495222523e-02 2.17304096538371e-04
7.54487179487180e+00 2.16455885905124e-02 2.16176520265485e-04
7.59974358974359e+00 2.14548238364864e-02 2.15049107094934e-04
7.65461538461538e+00 2.12657403113394e-02 2.13921997074519e-04
7.70948717948718e+00 2.10783231984778e-02 2.12795326471125e-04
7.76435897435897e+00 2.08925578114001e-02 2.11669227874660e-04
7.81923076923077e+00 2.07084295935191e-02 2.10543830276052e-04
7.87410256410256e+00 2.05259241160629e-02 2.09419259165873e-04
7.92897435897436e+00 2.03450270778877e-02 2.08295636607776e-04
7.98384615384615e+00 2.01657243034287e-02 2.07173081332072e-04
8.03871794871795e+00 1.99880017425031e-02 2.06051708804912e-04
8.09358974358974e+00 1.98118454683093e-02 2.04931631317169e-04
8.14846153846154e+00 1.96372416772216e-02 2.03812958049652e-04
8.20333333333333e+00 1.94641766868362e-02 2.02695795157593e-04
8.25820512820513e+00 1.92926369357581e-02 2.01580245832110e-04
8.31307692307692e+00 1.91226089816921e-02 2.00466410380617e-04
8.36794871794872e+00 1.89540795012232e-02 1.99354386284793e-04
8.42282051282051e+00 1.87870352879514e-02 1.98244268277088e-04
8.47769230769231e+00 1.86214632522654e-02 1.97136148395498e-04
8.53256410256410e+00 1.84573504195206e-02 1.96030116056401e-04
8.58743589743590e+00 1.82946839298067e-02 1.94926258051091e-04
8.64230769230769e+00 1.81334510363531e-02 1.93824658836483e-04
8.69717948717949e+00 1.79736391045468e-02 1.92725400253575e-04
8.75205128205128e+00 1.78152356114917e-02 1.91628561806799e-04
8.80692307692308e+00 1.76582281442958e-02 1.90534220670488e-04
8.86179487179487e+00 1.75026043998193e-02 1.89442451733937e-04
8.91666666666667e+00 1.73483521830003e-02 1.88353327662938e-04
8.97153846153846e+00 1.71954594065991e-02 1.87266918942453e-04
9.02641025641026e+00 1.70439140895611e-02 1.86183293935346e-04
9.08128205128205e+00 1.68937043567579e-02 1.85102518922746e-04
9.13615384615385e+00 1.67448184373869e-02 1.84024658160189e-04
9.19102564102564e+00 1.65972446647087e-02 1.82949773915809e-04
9.24589743589744e+00 1.64509714744828e-02 1.81877926523975e-04
9.30076923076923e+00 1.63059874047023e-02 1.80809174421475e-04
9.35564102564103e+00 1.61622810940639e-02 1.79743574198831e-04
9.41051282051282e+00 1.60198412817001e-02 1.78681180634545e-04
9.46538461538462e+00 1.58786568056837e-02 1.77622046744160e-04
9.52025641025641e+00 1.57387166027571e-02 1.76566223812773e-04
9.57512820512821e+00 1.56000097068702e-02 1.75513761441947e-04
9.63000000000000e+00 1.54625252489078e-02 1.74464707580530e-04
9.68487179487179e+00 1.53262524552594e-02 1.73419108569583e-04
9.73974358974359e+00 1.51911806475451e-02 1.72377009171597e-04
9.79461538461539e+00 1.50572992412170e-02 1.71338452613514e-04
9.84948717948718e+00 1.49245977452837e-02 1.70303480614450e-04
9.90435897435897e+00 1.47930657609420e-02 1.69272133426925e-04
9.95923076923077e+00 1.46626929813005e-02 1.68244449863136e-04
1.00141025641026e+01 1.45334691900412e-02 1.67220467497534e-04
1.00689743589744e+01 1.44053842606342e-02 1.66200222199327e-04
1.01238461538462e+01 1.42784281565636e-02 1.65183748539888e-04
1.01787179487179e+01 1.41525909293796e-02 1.64171079638915e-04
1.02335897435897e+01 1.40278627195211e-02 1.63162248000351e-04
1.02884615384615e+01 1.39042337518796e-02 1.62157284875040e-04
1.03433333333333e+01 1.37816943387244e-02 1.61156219483133e-04
1.03982051282051e+01 1.36602348777039e-02 1.60159080256209e-04
1.04530769230769e+01 1.35398458510928e-02 1.59165894456888e-04
1.05079487179487e+01 1.34205178250465e-02 1.58176688205352e-04
1.05628205128205e+01 1.33022414488616e-02 1.57191486505278e-04
1.06176923076923e+01 1.31850074542437e-02 1.56210313269202e-04
1.06725641025641e+01 1.30688066545805e-02 1.55233191343341e-04
1.07274358974359e+01 1.29536299442223e-02 1.54260142531958e-04
1.07823076923077e+01 1.28394682977678e-02 1.53291187620821e-04
1.08371794871795e+01 1.27263127693582e-02 1.52326346400425e-04
1.08920512820513e+01 1.26141544919751e-02 1.51365637688960e-04
1.09469230769231e+01 1.25029846767462e-02 1.50409079354389e-04
1.10017948717949e+01 1.23927946122562e-02 1.49456688336157e-04
1.10566666666667e+01 1.22835756638645e-02 1.48508480666454e-04
1.11115384615385e+01 1.21753192730284e-02 1.47564471491010e-04
1.11664102564103e+01 1.20680169566324e-02 1.46624675089450e-04
1.12212820512821e+01 1.19616603063235e-02 1.45689104579350e-04
1.12761538461538e+01 1.18562409887818e-02 1.44757772889473e-04
1.13310256410256e+01 1.17517507422586e-02 1.43830692140293e-04
1.13858974358974e+01 1.16481813787589e-02 1.42907873013925e-04
1.14407692307692e+01 1.15455247824491e-02 1.41989325749682e-04
1.14956410256410e+01 1.14437729090211e-02 1.41075059834017e-04
1.15505128205128e+01 1.13429177850624e-02 1.40165084018020e-04
1.16053846153846e+01 1.12429515074307e-02 1.39259406334534e-04
1.16602564102564e+01 1.11438662426350e-02 1.38358034114915e-04
1.17151282051282e+01 1.10456542262215e-02 1.37460974005436e-04
1.17700000000000e+01 1.09483077621654e-02 1.36568231983406e-04
1.18248717948718e+01 1.08518192222675e-02 1.35679813372840e-04
1.18797435897436e+01 1.07561810455567e-02 1.34795722859738e-04
1.19346153846154e+01 1.06613857376976e-02 1.33915964507271e-04
1.19894871794872e+01 1.05674258704031e-02 1.33040541770592e-04
1.20443589743590e+01 1.04742940808524e-02 1.32169457511214e-04
1.20992307692308e+01 1.03819830711139e-02 1.31302714011171e-04
1.21541025641026e+01 1.02904856075734e-02 1.30440312986851e-04
1.22089743589744e+01 1.01997945203672e-02 1.29582255602573e-04
1.22638461538462e+01 1.01099027028203e-02 1.28728542483861e-04
1.23187179487179e+01 1.00208031108896e-02 1.27879173477843e-04
1.23735897435897e+01 9.93248876332121e-03 1.27034148428721e-04
1.24284615384615e+01 9.84495273895981e-03 1.26193466679652e-04
1.24833333333333e+01 9.75818817836550e-03 1.25357126566124e-04
1.25382051282051e+01 9.67218828255132e-03 1.24525126209432e-04
1.25930769230769e+01 9.58694631245047e-03 1.23697463266168e-04
1.26479487179487e+01 9.50245558838816e-03 1.22874134939702e-04
1.27028205128205e+01 9.41870948955827e-03 1.22055137991415e-04
1.27576923076923e+01 9.33570145350446e-03 1.21240468751704e-04
1.28125641025641e+01 9.25342497560597e-03 1.20430123130748e-04
1.28674358974359e+01 9.17187360856790e-03 1.19624096629147e-04
1.29223076923077e+01 9.09104096191579e-03 1.18822384348113e-04
1.29771794871795e+01 9.01092070149526e-03 1.18024980999601e-04
1.30320512820513e+01 8.93150654897547e-03 1.17231880916382e-04
1.30869230769231e+01 8.85279228135711e-03 1.16443078061674e-04
1.31417948717949e+01 8.77477173048478e-03 1.15658566038672e-04
1.31966666666667e+01 8.69743878256362e-03 1.14878338099864e-04
1.32515384615385e+01 8.62078737768027e-03 1.14102387156163e-04
1.33064102564103e+01 8.54481150932798e-03 1.13330705785856e-04
1.33612820512821e+01 8.46950522393590e-03 1.12563286038384e-04
1.34161538461538e+01 8.39486262095542e-03 1.11800120061853e-04
1.34710256410256e+01 8.32087785072749e-03 1.11041199697141e-04
1.35258974358974e+01 8.24754511570653e-03 1.10286516065123e-04
1.35807692307692e+01 8.17485866944128e-03 1.09536060208876e-04
1.36356410256410e+01 8.10281281612453e-03 1.08789822888812e-04
1.36905128205128e+01 8.03140191014677e-03 1.08047794590428e-04
1.37453846153846e+01 7.96062035565379e-03 1.07309965531879e-04
1.38002564102564e+01 7.89046260610823e-03 1.06576325671423e-04
1.38551282051282e+01 7.82092316385487e-03 1.05846864714699e-04
1.39100000000000e+01 7.75199657968987e-03 1.05121572121866e-04
1.39648717948718e+01 7.68367745243371e-03 1.04400437114570e-04
1.40197435897436e+01 7.61596042850798e-03 1.03683448682738e-04
1.40746153846154e+01 7.54884020151595e-03 1.02970595591328e-04
1.41294871794872e+01 7.48231151182672e-03 1.02261866386924e-04
1.41843589743590e+01 7.41636914616300e-03 1.01557249404135e-04
1.42392307692308e+01 7.35100793719264e-03 1.00856732771901e-04
1.42941025641026e+01 7.28622276312370e-03 1.00160304419663e-04
1.43489743589744e+01 7.22200854730309e-03 9.94679520834042e-05
1.44038461538462e+01 7.15836025781877e-03 9.87796633115698e-05
1.44587179487179e+01 7.09527290710544e-03 9.80954253057618e-05
1.45135897435897e+01 7.03274155198175e-03 9.74152254249219e-05
1.45684615384615e+01 6.97076129196973e-03 9.67390508572495e-05
1.46233333333333e+01 6.90932727021318e-03 9.60668882865086e-05
1.46782051282051e+01 6.84843467265986e-03 9.53987244081145e-05
1.47330769230769e+01 6.78807872768425e-03 9.47345457630150e-05
1.47879487179487e+01 6.72825470571363e-03 9.40743387427993e-05
1.48428205128205e+01 6.66895791885746e-03 9.34180895947177e-05
1.48976923076923e+01 6.61018372054007e-03 9.27657844265955e-05
1.49525641025641e+01 6.55192750513649e-03 9.21174092116490e-05
1.50074358974359e+01 6.49418470761159e-03 9.14729497932271e-05
1.50623076923077e+01 6.43695080316223e-03 9.08323918893389e-05
1.51171794871795e+01 6.38022130686293e-03 9.01957210971931e-05
1.51720512820513e+01 6.32399177331429e-03 8.95629228976921e-05
1.52269230769231e+01 6.26825779629466e-03 8.89339826597224e-05
1.52817948717949e+01 6.21301500841485e-03 8.83088856444069e-05
1.53366666666667e+01 6.15825908077590e-03 8.76876170092521e-05
1.53915384615385e+01 6.10398572262988e-03 8.70701618122207e-05
1.54464102564103e+01 6.05019068104362e-03 8.64565050157125e-05
1.55012820512821e+01 5.99686974056549e-03 8.58466313557060e-05
1.55561538461538e+01 5.94401872323251e-03 8.52405257524398e-05
1.56110256410256e+01 5.89163348722350e-03 8.46381730418586e-05
1.56658974358974e+01 5.83970992756115e-03 8.40395577024624e-05
1.57207692307692e+01 5.78824397544573e-03 8.34446642757386e-05
1.57756410256410e+01 5.73723159793623e-03 8.28534772298310e-05
1.58305128205128e+01 5.68666879763434e-03 8.22659809629554e-05
1.58853846153846e+01 5.63655161237122e-03 8.16821598067685e-05
1.59402564102564e+01 5.58687611489703e-03 8.11019980296651e-05
1.59951282051282e+01 5.53763841257315e-03 8.05254798399899e-05
1.60500000000000e+01 5.48883464706720e-03 7.99525893892079e-05
1.61048717948718e+01 5.44046099405058e-03 7.93833107749650e-05
1.61597435897436e+01 5.39251366289892e-03 7.88176280440831e-05
1.62146153846154e+01 5.34498889639501e-03 7.82555251955513e-05
1.62694871794872e+01 5.29788297043438e-03 7.76969861834160e-05
1.63243589743590e+01 5.25119219373346e-03 7.71419949196038e-05
1.63792307692308e+01 5.20491290754031e-03 7.65905352766848e-05
1.64341025641026e+01 5.15904148534797e-03 7.60425910905804e-05
1.64889743589744e+01 5.11357433261021e-03 7.54981461632126e-05
1.65438461538462e+01 5.06850788645989e-03 7.49571842650877e-05
1.65987179487180e+01 5.02383861542981e-03 7.44196890287235e-05
1.66535897435897e+01 4.97956301943998e-03 7.38856442805543e-05
1.67084615384615e+01 4.93567762872569e-03 7.33550338228966e-05
1.67633333333333e+01 4.89217900436886e-03 7.28278412121874e-05
1.68182051282051e+01 4.84906373775894e-03 7.23040500987991e-05
1.68730769230769e+01 4.80632845032578e-03 7.17836441160946e-05
1.69279487179487e+01 4.76396979327492e-03 7.12666068826323e-05
1.69828205128205e+01 4.72198444732516e-03 7.07529220043355e-05
1.70376923076923e+01 4.68036912244843e-03 7.02425730766156e-05
1.70925641025641e+01 4.63912055761203e-03 6.97355436864368e-05
1.71474358974359e+01 4.59823552052306e-03 6.92318174143701e-05
1.72023076923077e+01 4.55771080737506e-03 6.87313778365206e-05
1.72571794871795e+01 4.51754324259711e-03 6.82342085264599e-05
1.73120512820513e+01 4.47772967860491e-03 6.77402930571662e-05
