Energy (eV)          EEDF (eV^-(3/2))     First Anisotropy
1.18500000000000e-01 6.16333287116247e-02 7.20692365970793e-05
3.55500000000000e-01 5.95418502196943e-02 1.17382208924415e-04
5.92500000000000e-01 5.75213444039705e-02 1.50712779913144e-04
8.29500000000000e-01 5.55694028625564e-02 1.73587898283608e-04
1.06650000000000e+00 5.36836989207773e-02 1.90737088286884e-04
1.30350000000000e+00 5.18619848578319e-02 2.04027688198795e-04
1.54050000000000e+00 5.01020892275551e-02 2.14464979657132e-04
1.77750000000000e+00 4.84019142700978e-02 2.22678476628285e-04
2.01450000000000e+00 4.67594334114402e-02 2.29099824856736e-04
2.25150000000000e+00 4.51726888477564e-02 2.34043494272476e-04
2.48850000000000e+00 4.36397892117523e-02 2.37748718789701e-04
2.72550000000000e+00 4.21589073181939e-02 2.40403468825873e-04
2.96250000000000e+00 4.07282779859397e-02 2.42159156856497e-04
3.19950000000000e+00 3.93461959338809e-02 2.43140166477230e-04
3.43650000000000e+00 3.80110137482805e-02 2.43450304189613e-04
3.67350000000000e+00 3.67211399190900e-02 2.43177327868015e-04
3.91050000000000e+00 3.54750369429014e-02 2.42396222477809e-04
4.14750000000000e+00 3.42712194902747e-02 2.41171631029983e-04
4.38450000000000e+00 3.31082526352550e-02 2.39559698786605e-04
4.62150000000000e+00 3.19847501449702e-02 2.37609499375267e-04
4.85850000000000e+00 3.08993728272694e-02 2.35364156263191e-04
5.09550000000000e+00 2.98508269344333e-02 2.32861737842299e-04
5.33250000000000e+00 2.88378626210529e-02 2.30135981306113e-04
5.56950000000000e+00 2.78592724542391e-02 2.27216885005187e-04
5.80650000000000e+00 2.69138899743878e-02 2.24131198332988e-04
6.04350000000000e+00 2.60005883047830e-02 2.20902830750893e-04
6.28050000000000e+00 2.51182788083830e-02 2.17553196258806e-04
6.51750000000000e+00 2.42659097901873e-02 2.14101505780063e-04
6.75450000000000e+00 2.34424652436373e-02 2.10565017110481e-04
6.99150000000000e+00 2.26469636395569e-02 2.06959249983227e-04
7.22850000000000e+00 2.18784567561904e-02 2.03298172219993e-04
7.46550000000000e+00 2.11360285489405e-02 1.99594361733877e-04
7.70250000000000e+00 2.04187940584624e-02 1.95859148221093e-04
7.93950000000000e+00 1.97258983558101e-02 1.92102737656630e-04
8.17650000000000e+00 1.90565155233782e-02 1.88334322142225e-04
8.41350000000000e+00 1.84098476704252e-02 1.84562177206362e-04
8.65050000000000e+00 1.77851239820037e-02 1.80793748297994e-04
8.88750000000000e+00 1.71815998001649e-02 1.77035727927772e-04
9.12450000000000e+00 1.65985557363411e-02 1.73294124677542e-04
9.36150000000000e+00 1.60352968138496e-02 1.69574325108884e-04
9.59850000000000e+00 1.54911516394941e-02 1.65881149445602e-04
9.83550000000000e+00 1.49654716032781e-02 1.62218901776571e-04
1.00725000000000e+01 1.44576301052745e-02 1.58591415418644e-04
1.03095000000000e+01 1.39670218087316e-02 1.55002093990316e-04
1.05465000000000e+01 1.34930619185240e-02 1.51453948672259e-04
1.07835000000000e+01 1.30351854840882e-02 1.47949632067992e-04
1.10205000000000e+01 1.25928467260137e-02 1.44491469024733e-04
1.12575000000000e+01 1.21655183854843e-02 1.41081484729271e-04
1.14945000000000e+01 1.17526910957969e-02 1.37721430355109e-04
1.17315000000000e+01 1.13538727752065e-02 1.34412806504041e-04
1.19685000000000e+01 1.09685880403746e-02 1.31156884656856e-04
1.22055000000000e+01 1.05963776397222e-02 1.27954726823328e-04
1.24425000000000e+01 1.02367979060110e-02 1.24807203560335e-04
1.26795000000000e+01 9.88942022750140e-03 1.21715010508436e-04
1.29165000000000e+01 9.55383053705546e-03 1.18678683581136e-04
1.31535000000000e+01 9.22962881857783e-03 1.15698612926927e-04
1.33905000000000e+01 8.91642863020440e-03 1.12775055771792e-04
1.36275000000000e+01 8.61385664367151e-03 1.09908148238983e-04
1.38645000000000e+01 8.32155219931625e-03 1.07097916233278e-04
1.41015000000000e+01 8.03916687617746e-03 1.04344285468392e-04
1.43385000000000e+01 7.76636407668501e-03 1.01647090708690e-04
1.45755000000000e+01 7.50281862544234e-03 9.90060842896617e-05
1.48125000000000e+01 7.24821638162400e-03 9.64209439756109e-05
1.50495000000000e+01 7.00225386452617e-03 9.38912802077279e-05
1.52865000000000e+01 6.76463789182380e-03 9.14166427909012e-05
1.55235000000000e+01 6.53508523010325e-03 8.89965270633737e-05
1.57605000000000e+01 6.31332225725380e-03 8.66303795894935e-05
1.59975000000000e+01 6.09908463631567e-03 8.43176034123672e-05
1.62345000000000e+01 5.89211700039573e-03 8.20575629000826e-05
1.64715000000000e+01 5.69217264827534e-03 7.98495882163670e-05
1.67085000000000e+01 5.49901325034749e-03 7.76929794440049e-05
1.69455000000000e+01 5.31240856453281e-03 7.55870103870060e-05
1.71825000000000e+01 5.13213616183561e-03 7.35309320754419e-05
1.74195000000000e+01 4.95798116121309e-03 7.15239759949557e-05
1.76565000000000e+01 4.78973597344148e-03 6.95653570612103e-05
1.78935000000000e+01 4.62720005367390e-03 6.76542763579710e-05
1.81305000000000e+01 4.47017966239498e-03 6.57899236560613e-05
1.83675000000000e+01 4.31848763448730e-03 6.39714797291232e-05
1.86045000000000e+01 4.17194315613436e-03 6.21981184809061e-05
1.88415000000000e+01 4.03037154929417e-03 6.04690088976962e-05
1.90785000000000e+01 3.89360406348660e-03 5.87833168384901e-05
1.93155000000000e+01 3.76147767464624e-03 5.71402066745836e-05
1.95525000000000e+01 3.63383489080098e-03 5.55388427893932e-05
1.97895000000000e+01 3.51052356434482e-03 5.39783909485376e-05
2.00265000000000e+01 3.39139671068099e-03 5.24580195494869e-05
2.02635000000000e+01 3.27631233301930e-03 5.09769007594148e-05
2.05005000000000e+01 3.16513325311888e-03 4.95342115492737e-05
2.07375000000000e+01 3.05772694777446e-03 4.81291346315473e-05
2.09745000000000e+01 2.95396539085140e-03 4.67608593086083e-05
2.12115000000000e+01 2.85372490068120e-03 4.54285822381155e-05
2.14485000000000e+01 2.75688599263538e-03 4.41315081214484e-05
2.16855000000000e+01 2.66333323670228e-03 4.28688503207506e-05
2.19225000000000e+01 2.57295511989683e-03 4.16398314097708e-05
2.21595000000000e+01 2.48564391333931e-03 4.04436836633326e-05
2.23965000000000e+01 2.40129554384474e-03 3.92796494899298e-05
2.26335000000000e+01 2.31980946986973e-03 3.81469818116397e-05
2.28705000000000e+01 2.24108856166905e-03 3.70449443952586e-05
2.31075000000000e+01 2.16503898551887e-03 3.59728121382947e-05
2.33445000000000e+01 2.09157009186895e-03 3.49298713132111e-05
2.35815000000000e+01 2.02059430729016e-03 3.39154197730798e-05
2.38185000000000e+01 1.95202703008875e-03 3.29287671215873e-05
2.40555000000000e+01 1.88578652946285e-03 3.19692348501440e-05
2.42925000000000e+01 1.82179384808102e-03 3.10361564446558e-05
2.45295000000000e+01 1.75997270796669e-03 3.01288774643438e-05
2.47665000000000e+01 1.70024941957640e-03 2.92467555948385e-05
2.50035000000000e+01 1.64255279396333e-03 2.83891606776216e-05
2.52405000000000e+01 1.58681405792151e-03 2.75554747177550e-05
2.54775000000000e+01 1.53296677200962e-03 2.67450918716946e-05
2.57145000000000e+01 1.48094675135644e-03 2.59574184168727e-05
2.59515000000000e+01 1.43069198915385e-03 2.51918727046143e-05
2.61885000000000e+01 1.38214258274593e-03 2.44478850978492e-05
2.64255000000000e+01 1.33524066222627e-03 2.37248978949774e-05
2.66625000000000e+01 1.28993032145814e-03 2.30223652411569e-05
2.68995000000000e+01 1.24615755143557e-03 2.23397530281928e-05
2.71365000000000e+01 1.20387017590569e-03 2.16765387841265e-05
2.73735000000000e+01 1.16301778917570e-03 2.10322115535474e-05
2.76105000000000e+01 1.12355169603030e-03 2.04062717695788e-05
2.78475000000000e+01 1.08542485368799e-03 1.97982311184214e-05
2.80845000000000e+01 1.04859181572702e-03 1.92076123972796e-05
2.83215000000000e+01 1.01300867791421e-03 1.86339493664324e-05
2.85585000000000e+01 9.78633025871953e-04 1.80767865961605e-05
2.87955000000000e+01 9.45423884521155e-04 1.75356793091878e-05
2.90325000000000e+01 9.13341669239785e-04 1.70101932192497e-05
2.92695000000000e+01 8.82348138678794e-04 1.64999043663548e-05
2.95065000000000e+01 8.52406349179212e-04 1.60043989492644e-05
2.97435000000000e+01 8.23480610736053e-04 1.55232731556769e-05
2.99805000000000e+01 7.95536444456555e-04 1.50561329905681e-05
3.02175000000000e+01 7.68540541462039e-04 1.46025941031010e-05
3.04545000000000e+01 7.42460723184406e-04 1.41622816124894e-05
3.06915000000000e+01 7.17265903009931e-04 1.37348299331716e-05
3.09285000000000e+01 6.92926049224657e-04 1.33198825996172e-05
3.11655000000000e+01 6.69412149217197e-04 1.29170920910689e-05
3.14025000000000e+01 6.46696174896293e-04 1.25261196564954e-05
3.16395000000000e+01 6.24751049281903e-04 1.21466351400067e-05
3.18765000000000e+01 6.03550614229984e-04 1.17783168069653e-05
3.21135000000000e+01 5.83069599252520e-04 1.14208511710028e-05
3.23505000000000e+01 5.63283591395614e-04 1.10739328221380e-05
3.25875000000000e+01 5.44169006139742e-04 1.07372642561700e-05
3.28245000000000e+01 5.25703059287482e-04 1.04105557055070e-05
3.30615000000000e+01 5.07863739805218e-04 1.00935249715755e-05
3.32985000000000e+01 4.90629783586431e-04 9.78589725893934e-06
3.35355000000000e+01 4.73980648105319e-04 9.48740501124769e-06
3.37725000000000e+01 4.57896487930520e-04 9.19778774911534e-06
3.40095000000000e+01 4.42358131069766e-04 8.91679191002987e-06
3.42465000000000e+01 4.27347056117251e-04 8.64417069036883e-06
3.44835000000000e+01 4.12845370176497e-04 8.37968388959996e-06
3.47205000000000e+01 3.98835787532382e-04 8.12309775672831e-06
3.49575000000000e+01 3.85301609046919e-04 7.87418483904565e-06
3.51945000000000e+01 3.72226702254224e-04 7.63272383322997e-06
3.54315000000000e+01 3.59595482130943e-04 7.39849943883536e-06
3.56685000000000e+01 3.47392892519219e-04 7.17130221420485e-06
3.59055000000000e+01 3.35604388180063e-04 6.95092843483384e-06
3.61425000000000e+01 3.24215917455718e-04 6.73717995420491e-06
3.63795000000000e+01 3.13213905520373e-04 6.52986406710971e-06
3.66165000000000e+01 3.02585238199246e-04 6.32879337546870e-06
3.68535000000000e+01 2.92317246336749e-04 6.13378565665472e-06
3.70905000000000e+01 2.82397690695119e-04 5.94466373432204e-06
3.73275000000000e+01 2.72814747365491e-04 5.76125535173884e-06
3.75645000000000e+01 2.63556993674039e-04 5.58339304761715e-06
3.78015000000000e+01 2.54613394566381e-04 5.41091403443159e-06
3.80385000000000e+01 2.45973289454020e-04 5.24366007921458e-06
3.82755000000000e+01 2.37626379507136e-04 5.08147738681241e-06
3.85125000000000e+01 2.29562715378593e-04 4.92421648558606e-06
3.87495000000000e+01 2.21772685344517e-04 4.77173211553608e-06
3.89865000000000e+01 2.14247003847318e-04 4.62388311882990e-06
3.92235000000000e+01 2.06976700427493e-04 4.48053233270816e-06
3.94605000000000e+01 1.99953109031021e-04 4.34154648474421e-06
3.96975000000000e+01 1.93167857679600e-04 4.20679609043006e-06
3.99345000000000e+01 1.86612858491424e-04 4.07615535306051e-06
4.01715000000000e+01 1.80280298040589e-04 3.94950206588571e-06
4.04085000000000e+01 1.74162628043646e-04 3.82671751650172e-06
4.06455000000000e+01 1.68252556362206e-04 3.70768639344739e-06
4.08825000000000e+01 1.62543038310854e-04 3.59229669497515e-06
4.11195000000000e+01 1.57027268260028e-04 3.48043963996270e-06
4.13565000000000e+01 1.51698671523851e-04 3.37200958093177e-06
4.15935000000000e+01 1.46550896523232e-04 3.26690391913978e-06
4.18305000000000e+01 1.41577807214919e-04 3.16502302170973e-06
4.20675000000000e+01 1.36773475777456e-04 3.06627014076351e-06
4.23045000000000e+01 1.32132175545342e-04 2.97055133452302e-06
4.25415000000000e+01 1.27648374182963e-04 2.87777539034400e-06
4.27785000000000e+01 1.23316727090158e-04 2.78785374964712e-06
4.30155000000000e+01 1.19132071031564e-04 2.70070043471040e-06
4.32525000000000e+01 1.15089417982148e-04 2.61623197728761e-06
4.34895000000000e+01 1.11183949181578e-04 2.53436734901713e-06
4.37265000000000e+01 1.07411009390362e-04 2.45502789358578e-06
4.39635000000000e+01 1.03766101340893e-04 2.37813726061244e-06
4.42005000000000e+01 1.00244880376804e-04 2.30362134121625e-06
4.44375000000000e+01 9.68431492742170e-05 2.23140820523463e-06
4.46745000000000e+01 9.35568532387461e-05 2.16142804005657e-06
4.49115000000000e+01 9.03820750722591e-05 2.09361309103684e-06
4.51485000000000e+01 8.73150305036591e-05 2.02789760345697e-06
4.53855000000000e+01 8.43520636781100e-05 1.96421776599984e-06
4.56225000000000e+01 8.14896427993317e-05 1.90251165570401e-06
4.58595000000000e+01 7.87243559197704e-05 1.84271918436541e-06
4.60965000000000e+01 7.60529068736269e-05 1.78478204635363e-06
4.63335000000000e+01 7.34721113478935e-05 1.72864366781084e-06
4.65705000000000e+01 7.09788930867176e-05 1.67424915720187e-06
4.68075000000000e+01 6.85702802245677e-05 1.62154525718406e-06
4.70445000000000e+01 6.62434017438292e-05 1.57048029776627e-06
4.72815000000000e+01 6.39954840526105e-05 1.52100415072697e-06
4.75185000000000e+01 6.18238476786773e-05 1.47306818526141e-06
4.77555000000000e+01 5.97259040755763e-05 1.42662522482882e-06
4.79925000000000e+01 5.76991525371406e-05 1.38162950517073e-06
4.82295000000000e+01 5.57411772166983e-05 1.33803663347227e-06
4.84665000000000e+01 5.38496442474325e-05 1.29580354863845e-06
4.87035000000000e+01 5.20222989604596e-05 1.25488848265842e-06
4.89405000000000e+01 5.02569631973097e-05 1.21525092303070e-06
4.91775000000000e+01 4.85515327136060e-05 1.17685157622329e-06
4.94145000000000e+01 4.69039746708480e-05 1.13965233214274e-06
4.96515000000000e+01 4.53123252133095e-05 1.10361622958705e-06
4.98885000000000e+01 4.37746871271625e-05 1.06870742265747e-06
5.01255000000000e+01 4.22892275790366e-05 1.03489114810506e-06
5.03625000000000e+01 4.08541759313192e-05 1.00213369358824e-06
5.05995000000000e+01 3.94678216315911e-05 9.70402366817926e-07
5.08365000000000e+01 3.81285121736829e-05 9.39665465567607e-07
5.10735000000000e+01 3.68346511279214e-05 9.09892248525899e-07
5.13105000000000e+01 3.55846962382174e-05 8.81052906969854e-07
5.15475000000000e+01 3.43771575837282e-05 8.53118537237608e-07
5.17845000000000e+01 3.32105958029019e-05 8.26061113979516e-07
5.20215000000000e+01 3.20836203777878e-05 7.99853464167299e-07
5.22585000000000e+01 3.09948879765672e-05 7.74469241841241e-07
5.24955000000000e+01 2.99431008523295e-05 7.49882903575979e-07
5.27325000000000e+01 2.89270052961835e-05 7.26069684645772e-07
5.29695000000000e+01 2.79453901428626e-05 7.03005575870539e-07
5.32065000000000e+01 2.69970853270399e-05 6.80667301124586e-07
5.34435000000000e+01 2.60809604886344e-05 6.59032295490176e-07
5.36805000000000e+01 2.51959236254447e-05 6.38078684038619e-07
5.39175000000000e+01 2.43409197915042e-05 6.17785261221902e-07
5.41545000000000e+01 2.35149298396076e-05 5.98131470858333e-07
5.43915000000000e+01 2.27169692065073e-05 5.79097386696103e-07
5.46285000000000e+01 2.19460867393349e-05 5.60663693538913e-07
5.48655000000000e+01 2.12013635618455e-05 5.42811668918423e-07
5.51025000000000e+01 2.04819119791364e-05 5.25523165298452e-07
5.53395000000000e+01 1.97868744195326e-05 5.08780592796318e-07
5.55765000000000e+01 1.91154224123788e-05 4.92566902407130e-07
5.58135000000000e+01 1.84667556005192e-05 4.76865569717029e-07
5.60505000000000e+01 1.78401007862881e-05 4.61660579091912e-07
5.62875000000000e+01 1.72347110098737e-05 4.46936408328418e-07
5.65245000000000e+01 1.66498646589578e-05 4.32678013754277e-07
5.67615000000000e+01 1.60848646085678e-05 4.18870815765484e-07
5.69985000000000e+01 1.55390373901185e-05 4.05500684788094e-07
5.72355000000000e+01 1.50117323886507e-05 3.92553927652724e-07
5.74725000000000e+01 1.45023210673121e-05 3.80017274370156e-07
5.77095000000000e+01 1.40101962181534e-05 3.67877865296727e-07
5.79465000000000e+01 1.35347712383490e-05 3.56123238678547e-07
5.81835000000000e+01 1.30754794309787e-05 3.44741318563791e-07
5.84205000000000e+01 1.26317733295359e-05 3.33720403072637e-07
5.86575000000000e+01 1.22031240453591e-05 3.23049153014707e-07
5.88945000000000e+01 1.17890206372071e-05 3.12716580844097e-07
5.91315000000000e+01 1.13889695022277e-05 3.02712039942379e-07
5.93685000000000e+01 1.10024937875925e-05 2.93025214220227e-07
5.96055000000000e+01 1.06291328220990e-05 2.83646108028516e-07
5.98425000000000e+01 1.02684415670589e-05 2.74565036370026e-07
6.00795000000000e+01 9.91999008582152e-06 2.65772615403138e-07
6.03165000000000e+01 9.58336303129817e-06 2.57259753229082e-07
6.05535000000000e+01 9.25815915087648e-06 2.49017640954600e-07
6.07905000000000e+01 8.94399080813565e-06 2.41037744022051e-07
6.10275000000000e+01 8.64048352079170e-06 2.33311793799232e-07
6.12645000000000e+01 8.34727551432211e-06 2.25831779421371e-07
6.15015000000000e+01 8.06401729073806e-06 2.18589939878015e-07
6.17385000000000e+01 7.79037121198981e-06 2.11578756337667e-07
6.19755000000000e+01 7.52601109750906e-06 2.04790944703244e-07
6.22125000000000e+01 7.27062183540832e-06 1.98219448391661e-07
6.24495000000000e+01 7.02389900687396e-06 1.91857431330974e-07
6.26865000000000e+01 6.78554852330514e-06 1.85698271168731e-07
6.29235000000000e+01 6.55528627576617e-06 1.79735552685339e-07
6.31605000000000e+01 6.33283779633447e-06 1.73963061406458e-07
6.33975000000000e+01 6.11793793094033e-06 1.68374777408553e-07
6.36345000000000e+01 5.91033052330867e-06 1.62964869311955e-07
6.38715000000000e+01 5.70976810962596e-06 1.57727688455875e-07
6.41085000000000e+01 5.51601162356838e-06 1.52657763250051e-07
6.43455000000000e+01 5.32883011133961e-06 1.47749793697787e-07
6.45825000000000e+01 5.14800045637861e-06 1.42998646085323e-07
6.48195000000000e+01 4.97330711340920e-06 1.38399347832633e-07
6.50565000000000e+01 4.80454185151445e-06 1.33947082500847e-07
6.52935000000000e+01 4.64150350592970e-06 1.29637184951666e-07
6.55305000000000e+01 4.48399773825820e-06 1.25465136654260e-07
6.57675000000000e+01 4.33183680482373e-06 1.21426561135262e-07
6.60045000000000e+01 4.18483933288393e-06 1.17517219567589e-07
6.62415000000000e+01 4.04283010443765e-06 1.13733006493977e-07
6.64785000000000e+01 3.90563984736870e-06 1.10069945681188e-07
6.67155000000000e+01 3.77310503367691e-06 1.06524186101012e-07
6.69525000000000e+01 3.64506768455604e-06 1.03091998034256e-07
6.71895000000000e+01 3.52137518208629e-06 9.97697692940496e-08
6.74265000000000e+01 3.40188008731683e-06 9.65540015648941e-08
6.76635000000000e+01 3.28643996452155e-06 9.34413068539780e-08
6.79005000000000e+01 3.17491721141861e-06 9.04284040514038e-08
6.81375000000000e+01 3.06717889515125e-06 8.75121155960409e-08
6.83745000000000e+01 2.96309659383457e-06 8.46893642438361e-08
6.86115000000000e+01 2.86254624347925e-06 8.19571699354963e-08
6.88485000000000e+01 2.76540799010976e-06 7.93126467605534e-08
6.90855000000000e+01 2.67156604690092e-06 7.67530000149014e-08
6.93225000000000e+01 2.58090855616227e-06 7.42755233489824e-08
6.95595000000000e+01 2.49332745600606e-06 7.18775960038928e-08
6.97965000000000e+01 2.40871835153960e-06 6.95566801327455e-08
7.00335000000000e+01 2.32698039042873e-06 6.73103182047056e-08
7.02705000000000e+01 2.24801614268384e-06 6.51361304892016e-08
7.05075000000000e+01 2.17173148452534e-06 6.30318126178817e-08
7.07445000000000e+01 2.09803548618999e-06 6.09951332219521e-08
7.09815000000000e+01 2.02684030354449e-06 5.90239316426141e-08
7.12185000000000e+01 1.95806107337706e-06 5.71161157123763e-08
7.14555000000000e+01 1.89161581224219e-06 5.52696596050839e-08
7.16925000000000e+01 1.82742531873807e-06 5.34826017525801e-08
7.19295000000000e+01 1.76541307910010e-06 5.17530428259671e-08
7.21665000000000e+01 1.70550517599807e-06 5.00791437794953e-08
7.24035000000000e+01 1.64763020042818e-06 4.84591239551757e-08
7.26405000000000e+01 1.59171916659493e-06 4.68912592462560e-08
7.28775000000000e+01 1.53770542968151e-06 4.53738803177664e-08
7.31145000000000e+01 1.48552460641052e-06 4.39053708823911e-08
7.33515000000000e+01 1.43511449830036e-06 4.24841660299671e-08
7.35885000000000e+01 1.38641501752598e-06 4.11087506089765e-08
7.38255000000000e+01 1.33936811529532e-06 3.97776576584333e-08
7.40625000000000e+01 1.29391771265643e-06 3.84894668886215e-08
7.42995000000000e+01 1.25000963365244e-06 3.72428032091886e-08
7.45365000000000e+01 1.20759154074490e-06 3.60363353031364e-08
7.47735000000000e+01 1.16661287242856e-06 3.48687742453042e-08
