Energy (eV)          EEDF (eV^-(3/2))     First Anisotropy
1.15322580645161e-02 1.33869228603370e-01 6.37598758874072e-05
3.45967741935484e-02 1.33124415613273e-01 1.05346942593510e-04
5.76612903225806e-02 1.32383746564240e-01 1.39232297623273e-04
8.07258064516129e-02 1.31647198402914e-01 1.65074353726102e-04
1.03790322580645e-01 1.30914748201110e-01 1.86709132500657e-04
1.26854838709677e-01 1.30186373155836e-01 2.05584218247894e-04
1.49919354838710e-01 1.29462050598004e-01 2.22447383040875e-04
1.72983870967742e-01 1.28741757980224e-01 2.37749388212074e-04
1.96048387096774e-01 1.28025472880706e-01 2.51788664868524e-04
2.19112903225806e-01 1.27313173002478e-01 2.64775771785609e-04
2.42177419354839e-01 1.26604836172744e-01 2.76866305612574e-04
2.65241935483871e-01 1.25900440342092e-01 2.88179379638411e-04
2.88306451612903e-01 1.25199963581297e-01 2.98808756218162e-04
3.11370967741935e-01 1.24503384088402e-01 3.08829931420268e-04
3.34435483870968e-01 1.23810680179969e-01 3.18304844240901e-04
3.57500000000000e-01 1.23121830293221e-01 3.27285119497805e-04
3.80564516129032e-01 1.22436812985345e-01 3.35814370384040e-04
4.03629032258065e-01 1.21755606932845e-01 3.43929874496642e-04
4.26693548387097e-01 1.21078190930879e-01 3.51663820874396e-04
4.49758064516129e-01 1.20404543892588e-01 3.59044255803966e-04
4.72822580645161e-01 1.19734644847003e-01 3.66095811331005e-04
4.95887096774194e-01 1.19068472942792e-01 3.72840276169982e-04
5.18951612903226e-01 1.18406007443101e-01 3.79297048427504e-04
5.42016129032258e-01 1.17747227726457e-01 3.85483497905758e-04
5.65080645161290e-01 1.17092113286113e-01 3.91415260578162e-04
5.88145161290323e-01 1.16440643729427e-01 3.97106479537157e-04
6.11209677419355e-01 1.15792798777217e-01 4.02570004032580e-04
6.34274193548387e-01 1.15148558263132e-01 4.07817555376048e-04
6.57338709677419e-01 1.14507902132044e-01 4.12859865531966e-04
6.80403225806452e-01 1.13870810442409e-01 4.17706794909306e-04
7.03467741935484e-01 1.13237263362606e-01 4.22367432544118e-04
7.26532258064516e-01 1.12607241171353e-01 4.26850181023233e-04
7.49596774193548e-01 1.11980724257088e-01 4.31162830080681e-04
7.72661290322581e-01 1.11357693117370e-01 4.35312620067221e-04
7.95725806451613e-01 1.10738128358264e-01 4.39306297204739e-04
8.18790322580645e-01 1.10122010692983e-01 4.43150161262209e-04
8.41854838709677e-01 1.09509320943586e-01 4.46850107951663e-04
8.64919354838710e-01 1.08900040038051e-01 4.50411666246465e-04
8.87983870967742e-01 1.08294149010464e-01 4.53840030672224e-04
9.11048387096774e-01 1.07691629000434e-01 4.57140090421081e-04
9.34112903225806e-01 1.07092461252502e-01 4.60316455106581e-04
9.57177419354839e-01 1.06496627115565e-01 4.63373477731284e-04
9.80241935483871e-01 1.05904108042288e-01 4.66315275345147e-04
1.00330645161290e+00 1.05314885587941e-01 4.69145747122042e-04
1.02637096774194e+00 1.04728941411611e-01 4.71868591622263e-04
1.04943548387097e+00 1.04146257271558e-01 4.74487319936353e-04
1.07250000000000e+00 1.03566815035391e-01 4.77005272197799e-04
1.09556451612903e+00 1.02990596660544e-01 4.79425627579237e-04
1.11862903225806e+00 1.02417584215526e-01 4.81751415871126e-04
1.14169354838710e+00 1.01847759858276e-01 4.83985528871642e-04
1.16475806451613e+00 1.01281105851165e-01 4.86130725277873e-04
1.18782258064516e+00 1.00717604560077e-01 4.88189645442666e-04
1.21088709677419e+00 1.00157238439359e-01 4.90164814993972e-04
1.23395161290323e+00 9.95999900503266e-02 4.92058652777546e-04
1.25701612903226e+00 9.90458420422490e-02 4.93873478520816e-04
1.28008064516129e+00 9.84947771654732e-02 4.95611514829610e-04
1.30314516129032e+00 9.79467782705651e-02 4.97274898550916e-04
1.32620967741935e+00 9.74018282950001e-02 4.98865682986840e-04
1.34927419354839e+00 9.68599102754356e-02 5.00385839757717e-04
1.37233870967742e+00 9.63210073469004e-02 5.01837268800059e-04
1.39540322580645e+00 9.57851027302607e-02 5.03221798750785e-04
1.41846774193548e+00 9.52521797475176e-02 5.04541191489772e-04
1.44153225806452e+00 9.47222218059000e-02 5.05797146665904e-04
1.46459677419355e+00 9.41952124087305e-02 5.06991301373523e-04
1.48766129032258e+00 9.36711351546889e-02 5.08125238423347e-04
1.51072580645161e+00 9.31499737265653e-02 5.09200485767877e-04
1.53379032258065e+00 9.26317119048915e-02 5.10218519878223e-04
1.55685483870968e+00 9.21163335536595e-02 5.11180769171096e-04
1.57991935483871e+00 9.16038226300307e-02 5.12088612995232e-04
1.60298387096774e+00 9.10941631836310e-02 5.12943388690820e-04
1.62604838709677e+00 9.05873393464116e-02 5.13746391212329e-04
1.64911290322581e+00 9.00833353418214e-02 5.14498872654672e-04
1.67217741935484e+00 8.95821354841179e-02 5.15202048782841e-04
1.69524193548387e+00 8.90837241687490e-02 5.15857097639752e-04
1.71830645161290e+00 8.85880858839252e-02 5.16465161814261e-04
1.74137096774194e+00 8.80952051983590e-02 5.17027350803192e-04
1.76443548387097e+00 8.76050667695186e-02 5.17544739410902e-04
1.78750000000000e+00 8.71176553429892e-02 5.18018373522478e-04
1.81056451612903e+00 8.66329557437130e-02 5.18449268479089e-04
1.83362903225806e+00 8.61509528864541e-02 5.18838410907170e-04
1.85669354838710e+00 8.56716317646355e-02 5.19186760654485e-04
1.87975806451613e+00 8.51949774578093e-02 5.19495249030331e-04
1.90282258064516e+00 8.47209751310504e-02 5.19764783989236e-04
1.92588709677419e+00 8.42496100269494e-02 5.19996248379001e-04
1.94895161290323e+00 8.37808674751174e-02 5.20190501453781e-04
1.97201612903226e+00 8.33147328819754e-02 5.20348380495338e-04
1.99508064516129e+00 8.28511917375504e-02 5.20470698976855e-04
2.01814516129032e+00 8.23902296148902e-02 5.20558251273196e-04
2.04120967741935e+00 8.19318321627196e-02 5.20611811468709e-04
2.06427419354839e+00 8.14759851119071e-02 5.20632132151131e-04
2.08733870967742e+00 8.10226742748992e-02 5.20619948900893e-04
2.11040322580645e+00 8.05718855386935e-02 5.20575978450704e-04
2.13346774193548e+00 8.01236048731074e-02 5.20500919854422e-04
2.15653225806452e+00 7.96778183218067e-02 5.20395455764773e-04
2.17959677419355e+00 7.92345120082123e-02 5.20260250553927e-04
2.20266129032258e+00 7.87936721349654e-02 5.20095954449317e-04
2.22572580645161e+00 7.83552849774411e-02 5.19903201699894e-04
2.24879032258064e+00 7.79193368913277e-02 5.19682611589278e-04
2.27185483870968e+00 7.74858143043488e-02 5.19434789554167e-04
2.29491935483871e+00 7.70547037216823e-02 5.19160325328353e-04
2.31798387096774e+00 7.66259917254428e-02 5.18859796777449e-04
2.34104838709677e+00 7.61996649686831e-02 5.18533768629392e-04
2.36411290322581e+00 7.57757101805754e-02 5.18182791206647e-04
2.38717741935484e+00 7.53541141659027e-02 5.17807404116572e-04
2.41024193548387e+00 7.49348637993022e-02 5.17408134452820e-04
2.43330645161290e+00 7.45179460319348e-02 5.16985497630204e-04
2.45637096774194e+00 7.41033478841285e-02 5.16539998316917e-04
2.47943548387097e+00 7.36910564501442e-02 5.16072128632310e-04
2.50250000000000e+00 7.32810588976936e-02 5.15582371594896e-04
2.52556451612903e+00 7.28733424625869e-02 5.15071199371716e-04
2.54862903225806e+00 7.24678944548900e-02 5.14539074025046e-04
2.57169354838710e+00 7.20647022520902e-02 5.13986448353062e-04
2.59475806451613e+00 7.16637533034955e-02 5.13413764140576e-04
2.61782258064516e+00 7.12650351297704e-02 5.12821455392599e-04
2.64088709677419e+00 7.08685353179524e-02 5.12209946636433e-04
2.66395161290323e+00 7.04742415271475e-02 5.11579653596770e-04
2.68701612903226e+00 7.00821414821673e-02 5.10930983958956e-04
2.71008064516129e+00 6.96922229776006e-02 5.10264335677678e-04
2.73314516129032e+00 6.93044738773623e-02 5.09580100019011e-04
2.75620967741935e+00 6.89188821100465e-02 5.08878660367148e-04
2.77927419354839e+00 6.85354356728327e-02 5.08160391039529e-04
2.80233870967742e+00 6.81541226310460e-02 5.07425660234745e-04
2.82540322580645e+00 6.77749311136768e-02 5.06674828416272e-04
2.84846774193548e+00 6.73978493184550e-02 5.05908248898418e-04
2.87153225806452e+00 6.70228655061273e-02 5.05126268514594e-04
2.89459677419355e+00 6.66499680040795e-02 5.04329226011274e-04
2.91766129032258e+00 6.62791452059148e-02 5.03517454831733e-04
2.94072580645161e+00 6.59103855672602e-02 5.02691281559453e-04
2.96379032258065e+00 6.55436776104831e-02 5.01851026456894e-04
2.98685483870968e+00 6.51790099193381e-02 5.00997004081897e-04
3.00991935483871e+00 6.48163711423348e-02 5.00129521742681e-04
3.03298387096774e+00 6.44557499923283e-02 4.99248882132252e-04
3.05604838709677e+00 6.40971352425904e-02 4.98355382226588e-04
3.07911290322581e+00 6.37405157300484e-02 4.97449312192213e-04
3.10217741935484e+00 6.33858803548837e-02 4.96530957946082e-04
3.12524193548387e+00 6.30332180767368e-02 4.95600599684104e-04
3.14830645161290e+00 6.26825179189371e-02 4.94658512360507e-04
3.17137096774194e+00 6.23337689636572e-02 4.93704966238130e-04
3.19443548387097e+00 6.19869603549287e-02 4.92740225430715e-04
3.21750000000000e+00 6.16420812982568e-02 4.91764550331606e-04
3.24056451612903e+00 6.12991210570537e-02 4.90778196199839e-04
3.26362903225806e+00 6.09580689565857e-02 4.89781413606298e-04
3.28669354838710e+00 6.06189143794234e-02 4.88774448947456e-04
3.30975806451613e+00 6.02816467682550e-02 4.87757543044938e-04
3.33282258064516e+00 5.99462556255136e-02 4.86730933453187e-04
3.35588709677419e+00 5.96127305100215e-02 4.85694853101006e-04
3.37895161290323e+00 5.92810610406796e-02 4.84649530708577e-04
3.40201612903226e+00 5.89512368921884e-02 4.83595191268177e-04
3.42508064516129e+00 5.86232477976768e-02 4.82532054699863e-04
3.44814516129032e+00 5.82970835483402e-02 4.81460338046725e-04
3.47120967741935e+00 5.79727339902808e-02 4.80380254506594e-04
3.49427419354839e+00 5.76501890270419e-02 4.79292012473180e-04
3.51733870967742e+00 5.73294386192534e-02 4.78195817674591e-04
3.54040322580645e+00 5.70104727815725e-02 4.77091871894409e-04
3.56346774193548e+00 5.66932815860160e-02 4.75980373350024e-04
3.58653225806452e+00 5.63778551580592e-02 4.74861517130298e-04
3.60959677419355e+00 5.60641836790067e-02 4.73735493930113e-04
3.63266129032258e+00 5.57522573856507e-02 4.72602492088003e-04
3.65572580645161e+00 5.54420665673832e-02 4.71462696358676e-04
3.67879032258065e+00 5.51336015693196e-02 4.70316288268978e-04
3.70185483870968e+00 5.48268527886193e-02 4.69163446530058e-04
3.72491935483871e+00 5.45218106767079e-02 4.68004345823036e-04
3.74798387096774e+00 5.42184657389445e-02 4.66839158742432e-04
3.77104838709677e+00 5.39168085318949e-02 4.65668054917960e-04
3.79411290322581e+00 5.36168296654765e-02 4.64491200145339e-04
3.81717741935484e+00 5.33185198026326e-02 4.63308758281692e-04
3.84024193548387e+00 5.30218696566879e-02 4.62120890090377e-04
3.86330645161290e+00 5.27268699941825e-02 4.60927753567431e-04
3.88637096774194e+00 5.24335116315032e-02 4.59729504319636e-04
3.90943548387097e+00 5.21417854368963e-02 4.58526294422570e-04
3.93250000000000e+00 5.18516823301518e-02 4.57318274230548e-04
3.95556451612903e+00 5.15631932801023e-02 4.56105591267949e-04
3.97862903225806e+00 5.12763093072854e-02 4.54888390537755e-04
4.00169354838710e+00 5.09910214807591e-02 4.53666814879713e-04
4.02475806451613e+00 5.07073209199917e-02 4.52441003874048e-04
4.04782258064516e+00 5.04251987945562e-02 4.51211095570958e-04
4.07088709677419e+00 5.01446463217614e-02 4.49977225425949e-04
4.09395161290323e+00 4.98656547691569e-02 4.48739526592541e-04
4.11701612903226e+00 4.95882154515185e-02 4.47498130261524e-04
4.14008064516129e+00 4.93123197326256e-02 4.46253164608613e-04
4.16314516129032e+00 4.90379590249640e-02 4.45004756448428e-04
4.18620967741936e+00 4.87651247874813e-02 4.43753030469848e-04
4.20927419354839e+00 4.84938085273048e-02 4.42498108479432e-04
4.23233870967742e+00 4.82240017994509e-02 4.41240111016438e-04
4.25540322580645e+00 4.79556962046449e-02 4.39979156351207e-04
4.27846774193548e+00 4.76888833916042e-02 4.38715360755707e-04
4.30153225806452e+00 4.74235550542660e-02 4.37448838817679e-04
4.32459677419355e+00 4.71597029334032e-02 4.36179702450308e-04
4.34766129032258e+00 4.68973188163438e-02 4.34908062438097e-04
4.37072580645161e+00 4.66363945349015e-02 4.33634027475070e-04
4.39379032258064e+00 4.63769219675277e-02 4.32357704421764e-04
4.41685483870968e+00 4.61188930366826e-02 4.31079198603971e-04
4.43991935483871e+00 4.58622997103577e-02 4.29798612861911e-04
4.46298387096774e+00 4.56071340018025e-02 4.28516049030439e-04
4.48604838709677e+00 4.53533879675602e-02 4.27231607246817e-04
4.50911290322581e+00 4.51010537089416e-02 4.25945385265950e-04
4.53217741935484e+00 4.48501233717568e-02 4.24657479906625e-04
4.55524193548387e+00 4.46005891444056e-02 4.23367986146081e-04
4.57830645161290e+00 4.43524432598451e-02 4.22076997359058e-04
4.60137096774194e+00 4.41056779931641e-02 4.20784605595176e-04
4.62443548387097e+00 4.38602856629729e-02 4.19490900684237e-04
4.64750000000000e+00 4.36162586311429e-02 4.18195971622139e-04
4.67056451612903e+00 4.33735893009918e-02 4.16899905701193e-04
4.69362903225806e+00 4.31322701191409e-02 4.15602788737792e-04
4.71669354838710e+00 4.28922935732113e-02 4.14304705336934e-04
4.73975806451613e+00 4.26536521931344e-02 4.13005738032425e-04
4.76282258064516e+00 4.24163385509003e-02 4.11705968615728e-04
4.78588709677419e+00 4.21803452588307e-02 4.10405477300017e-04
4.80895161290323e+00 4.19456649713342e-02 4.09104342937430e-04
4.83201612903226e+00 4.17122903827158e-02 4.07802643271479e-04
4.85508064516129e+00 4.14802142284153e-02 4.06500454110814e-04
4.87814516129032e+00 4.12494292847613e-02 4.05197850603730e-04
4.90120967741935e+00 4.10199283673286e-02 4.03894906635121e-04
4.92427419354839e+00 4.07917043321376e-02 4.02591694229802e-04
4.94733870967742e+00 4.05647500754135e-02 4.01288284798730e-04
4.97040322580645e+00 4.03390585319874e-02 3.99984748351690e-04
4.99346774193548e+00 4.01146226769061e-02 3.98681153700086e-04
5.01653225806452e+00 3.98914355234051e-02 3.97377568692540e-04
5.03959677419355e+00 3.96694901240414e-02 3.96074059436564e-04
5.06266129032258e+00 3.94487795704604e-02 3.94770691494555e-04
5.08572580645161e+00 3.92292969918727e-02 3.93467529126903e-04
5.10879032258064e+00 3.90110355565772e-02 3.92164635485866e-04
5.13185483870968e+00 3.87939884700313e-02 3.90862072840634e-04
5.15491935483871e+00 3.85781489759218e-02 3.89559901829021e-04
5.17798387096774e+00 3.83635103559392e-02 3.88258182605791e-04
5.20104838709677e+00 3.81500659283250e-02 3.86956974295754e-04
5.22411290322581e+00 3.79378090489108e-02 3.85656334452892e-04
5.24717741935484e+00 3.77267331108962e-02 3.84356320183524e-04
5.27024193548387e+00 3.75168315434344e-02 3.83056987432893e-04
5.29330645161290e+00 3.73080978130329e-02 3.81758391166631e-04
5.31637096774194e+00 3.71005254217631e-02 3.80460585581230e-04
5.33943548387097e+00 3.68941079082432e-02 3.79163623398973e-04
5.36250000000000e+00 3.66888388474227e-02 3.77867556946740e-04
5.38556451612903e+00 3.64847118492331e-02 3.76572437469802e-04
5.40862903225806e+00 3.62817205599153e-02 3.75278315305525e-04
5.43169354838710e+00 3.60798586603125e-02 3.73985240084967e-04
5.45475806451613e+00 3.58791198668010e-02 3.72693260054368e-04
5.47782258064516e+00 3.56794979310806e-02 3.71402423111828e-04
5.50088709677419e+00 3.54809866388872e-02 3.70112776146997e-04
5.52395161290323e+00 3.52835798112510e-02 3.68824365207545e-04
5.54701612903226e+00 3.50872713028682e-02 3.67537235692129e-04
5.57008064516129e+00 3.48920550029832e-02 3.66251431697612e-04
5.59314516129032e+00 3.46979248351840e-02 3.64966997015523e-04
5.61620967741935e+00 3.45048747561737e-02 3.63683974654191e-04
5.63927419354839e+00 3.43128987566259e-02 3.62402406366081e-04
5.66233870967742e+00 3.41219908609844e-02 3.61122333622847e-04
5.68540322580645e+00 3.39321451262656e-02 3.59843796992649e-04
5.70846774193548e+00 3.37433556432177e-02 3.58566836296173e-04
5.73153225806452e+00 3.35556165348073e-02 3.57291490787753e-04
5.75459677419355e+00 3.33689219570292e-02 3.56017798539650e-04
5.77766129032258e+00 3.31832660987131e-02 3.54745797379566e-04
5.80072580645161e+00 3.29986431803787e-02 3.53475524291311e-04
5.82379032258064e+00 3.28150474553362e-02 3.52207015564398e-04
5.84685483870968e+00 3.26324732082406e-02 3.50940306967685e-04
5.86991935483871e+00 3.24509147558605e-02 3.49675433156750e-04
5.89298387096774e+00 3.22703664468893e-02 3.48412428575522e-04
5.91604838709677e+00 3.20908226608514e-02 3.47151327022157e-04
5.93911290322581e+00 3.19122778088487e-02 3.45892161219658e-04
5.96217741935484e+00 3.17347263333747e-02 3.44634963698498e-04
5.98524193548387e+00 3.15581627072484e-02 3.43379766230931e-04
6.00830645161290e+00 3.13825814346296e-02 3.42126599971756e-04
6.03137096774194e+00 3.12079770496726e-02 3.40875495621237e-04
6.05443548387097e+00 3.10343441172344e-02 3.39626482865851e-04
6.07750000000000e+00 3.08616772326945e-02 3.38379591227567e-04
6.10056451612903e+00 3.06899710209351e-02 3.37134849519166e-04
6.12362903225806e+00 3.05192201373056e-02 3.35892285979195e-04
6.14669354838710e+00 3.03494192663358e-02 3.34651928428469e-04
6.16975806451613e+00 3.01805631224080e-02 3.33413803731443e-04
6.19282258064516e+00 3.00126464495822e-02 3.32177938613531e-04
6.21588709677419e+00 2.98456640206198e-02 3.30944359136367e-04
6.23895161290323e+00 2.96796106379008e-02 3.29713090827465e-04
6.26201612903226e+00 2.95144811321933e-02 3.28484158830504e-04
6.28508064516129e+00 2.93502703632914e-02 3.27257587386508e-04
6.30814516129032e+00 2.91869732198454e-02 3.26033400620513e-04
6.33120967741935e+00 2.90245846184275e-02 3.24811622161113e-04
6.35427419354839e+00 2.88630995041514e-02 3.23592274764071e-04
6.37733870967742e+00 2.87025128505059e-02 3.22375381082620e-04
6.40040322580645e+00 2.85428196584427e-02 3.21160963172083e-04
6.42346774193548e+00 2.83840149572252e-02 3.19949042611863e-04
6.44653225806452e+00 2.82260938032794e-02 3.18739640646815e-04
6.46959677419355e+00 2.80690512807833e-02 3.17532777697239e-04
6.49266129032258e+00 2.79128825015047e-02 3.16328474100627e-04
6.51572580645161e+00 2.77575826039279e-02 3.15126749634319e-04
6.53879032258064e+00 2.76031467540609e-02 3.13927623632723e-04
6.56185483870968e+00 2.74495701443360e-02 3.12731115123171e-04
6.58491935483871e+00 2.72968479941697e-02 3.11537242353820e-04
6.60798387096774e+00 2.71449755498048e-02 3.10346023507888e-04
6.63104838709677e+00 2.69939480834743e-02 3.09157476357261e-04
6.65411290322581e+00 2.68437608939452e-02 3.07971617919935e-04
6.67717741935484e+00 2.66944093063636e-02 3.06788465159535e-04
6.70024193548387e+00 2.65458886714383e-02 3.05608034534316e-04
6.72330645161290e+00 2.63981943661882e-02 3.04430342107668e-04
6.74637096774194e+00 2.62513217929151e-02 3.03255403675935e-04
6.76943548387097e+00 2.61052663797208e-02 3.02083234322442e-04
6.79250000000000e+00 2.59600235803566e-02 3.00913849091422e-04
6.81556451612903e+00 2.58155888734413e-02 2.99747262553309e-04
6.83862903225806e+00 2.56719577631721e-02 2.98583488910988e-04
6.86169354838710e+00 2.55291257783410e-02 2.97422542122725e-04
6.88475806451613e+00 2.53870884728265e-02 2.96264435472255e-04
6.90782258064516e+00 2.52458414254476e-02 2.95109182218114e-04
6.93088709677419e+00 2.51053802392136e-02 2.93956795174444e-04
6.95395161290323e+00 2.49657005420015e-02 2.92807286813304e-04
6.97701612903226e+00 2.48267979856135e-02 2.91660669382908e-04
7.00008064516129e+00 2.46886682462446e-02 2.90516954493108e-04
7.02314516129032e+00 2.45513070243410e-02 2.89376153741138e-04
7.04620967741935e+00 2.44147100438802e-02 2.88238278407156e-04
7.06927419354839e+00 2.42788730528259e-02 2.87103339153145e-04
7.09233870967742e+00 2.41437918229887e-02 2.85971346635895e-04
7.11540322580645e+00 2.40094621493235e-02 2.84842311110819e-04
7.13846774193548e+00 2.38758798505573e-02 2.83716242528386e-04
7.16153225806452e+00 2.37430407683080e-02 2.82593150645610e-04
7.18459677419355e+00 2.36109407675164e-02 2.81473044634119e-04
7.20766129032258e+00 2.34795757363109e-02 2.80355933671067e-04
7.23072580645161e+00 2.33489415853339e-02 2.79241826557055e-04
7.25379032258065e+00 2.32190342483399e-02 2.78130731808905e-04
7.27685483870968e+00 2.30898496813501e-02 2.77022657767032e-04
