Energy (eV)          EEDF (eV^-(3/2))     First Anisotropy
5.25806451612903e-04 3.87779943235099e+01 2.22581382461208e-02
1.57741935483871e-03 3.83477193401136e+01 3.66738917999744e-02
2.62903225806452e-03 3.79222186239396e+01 4.82005836835965e-02
3.68064516129032e-03 3.75014392026346e+01 5.68288878689774e-02
4.73225806451613e-03 3.70853286887957e+01 6.39193509116164e-02
5.78387096774194e-03 3.66738352762539e+01 6.99896483819145e-02
6.83548387096774e-03 3.62669077349814e+01 7.53092953449471e-02
7.88709677419355e-03 3.58644954026374e+01 8.00420006681366e-02
8.93870967741935e-03 3.54665481787436e+01 8.42969664965639e-02
9.99032258064516e-03 3.50730165194830e+01 8.81518148735075e-02
1.10419354838710e-02 3.46838514310996e+01 9.16643292832457e-02
1.20935483870968e-02 3.42990044619208e+01 9.48790669387651e-02
1.31451612903226e-02 3.39184276987232e+01 9.78313544961334e-02
1.41967741935484e-02 3.35420737599219e+01 1.00549838129040e-01
1.52483870967742e-02 3.31698957896712e+01 1.03058183425196e-01
1.63000000000000e-02 3.28018474520311e+01 1.05376249945982e-01
1.73516129032258e-02 3.24378829236362e+01 1.07520927080491e-01
1.84032258064516e-02 3.20779568928081e+01 1.09506744663114e-01
1.94548387096774e-02 3.17220245489518e+01 1.11346328673604e-01
2.05064516129032e-02 3.13700415786866e+01 1.13050747509320e-01
2.15580645161290e-02 3.10219641603281e+01 1.14629780029094e-01
2.26096774193548e-02 3.06777489584326e+01 1.16092125879726e-01
2.36612903225806e-02 3.03373531184010e+01 1.17445572772545e-01
2.47129032258065e-02 3.00007342611438e+01 1.18697131107674e-01
2.57645161290323e-02 2.96678504778045e+01 1.19853143486014e-01
2.68161290322581e-02 2.93386603245417e+01 1.20919374663644e-01
2.78677419354839e-02 2.90131228173694e+01 1.21901086099794e-01
2.89193548387097e-02 2.86911974270545e+01 1.22803098241152e-01
2.99709677419355e-02 2.83728440740706e+01 1.23629842950372e-01
3.10225806451613e-02 2.80580231236085e+01 1.24385407943867e-01
3.20741935483871e-02 2.77466953806410e+01 1.25073574698115e-01
3.31258064516129e-02 2.74388220850439e+01 1.25697850976904e-01
3.41774193548387e-02 2.71343649067685e+01 1.26261498897187e-01
3.52290322580645e-02 2.68332859410725e+01 1.26767559270987e-01
3.62806451612903e-02 2.65355477037989e+01 1.27218872819566e-01
3.73322580645161e-02 2.62411131267098e+01 1.27618098745364e-01
3.83838709677419e-02 2.59499455528711e+01 1.27967731060268e-01
3.94354838709677e-02 2.56620087320887e+01 1.28270112998879e-01
4.04870967741935e-02 2.53772668163959e+01 1.28527449789489e-01
4.15387096774193e-02 2.50956843555893e+01 1.28741820010332e-01
4.25903225806452e-02 2.48172262928165e+01 1.28915185722033e-01
4.36419354838710e-02 2.45418579602104e+01 1.29049401537126e-01
4.46935483870968e-02 2.42695450745738e+01 1.29146222762790e-01
4.57451612903226e-02 2.40002537331109e+01 1.29207312732692e-01
4.67967741935484e-02 2.37339504092065e+01 1.29234249426845e-01
4.78483870967742e-02 2.34706019482518e+01 1.29228531464264e-01
4.89000000000000e-02 2.32101755635168e+01 1.29191583570188e-01
4.99516129032258e-02 2.29526388316924e+01 1.29124761435610e-01
5.10032258064516e-02 2.26979596899980e+01 1.29029356287604e-01
5.20548387096774e-02 2.24461064310281e+01 1.28906599070549e-01
5.31064516129032e-02 2.21970476991983e+01 1.28757664128850e-01
5.41580645161290e-02 2.19507524868409e+01 1.28583672700345e-01
5.52096774193548e-02 2.17071901303452e+01 1.28385696099197e-01
5.62612903225806e-02 2.14663303063392e+01 1.28164758647117e-01
5.73129032258064e-02 2.12281430279148e+01 1.27921840377571e-01
5.83645161290323e-02 2.09925986408943e+01 1.27657879534817e-01
5.94161290322581e-02 2.07596678201385e+01 1.27373774887107e-01
6.04677419354839e-02 2.05293215658958e+01 1.27070387871211e-01
6.15193548387097e-02 2.03015312001915e+01 1.26748544583599e-01
6.25709677419355e-02 2.00762683632577e+01 1.26409037631928e-01
6.36225806451613e-02 1.98535050100022e+01 1.26052627859057e-01
6.46741935483871e-02 1.96332134065174e+01 1.25680045950545e-01
6.57258064516129e-02 1.94153661266268e+01 1.25291993935454e-01
6.67774193548387e-02 1.91999360484709e+01 1.24889146589292e-01
6.78290322580645e-02 1.89868963511303e+01 1.24472152747125e-01
6.88806451612903e-02 1.87762205112871e+01 1.24041636534059e-01
6.99322580645161e-02 1.85678822999218e+01 1.23598198519506e-01
7.09838709677419e-02 1.83618557790486e+01 1.23142416801264e-01
7.20354838709677e-02 1.81581152984858e+01 1.22674848024701e-01
7.30870967741935e-02 1.79566354926624e+01 1.22196028341918e-01
7.41387096774194e-02 1.77573912774599e+01 1.21706474315355e-01
7.51903225806452e-02 1.75603578470899e+01 1.21206683769856e-01
7.62419354838710e-02 1.73655106710052e+01 1.20697136596880e-01
7.72935483870968e-02 1.71728254908459e+01 1.20178295514253e-01
7.83451612903226e-02 1.69822783174196e+01 1.19650606784541e-01
7.93967741935484e-02 1.67938454277145e+01 1.19114500894872e-01
8.04483870967742e-02 1.66075033619455e+01 1.18570393200813e-01
8.15000000000000e-02 1.64232289206344e+01 1.18018684552464e-01
8.25516129032258e-02 1.62409991615604e+01 1.17459761825509e-01
8.36032258064516e-02 1.60607913973908e+01 1.16893998503042e-01
8.46548387096774e-02 1.58825831923641e+01 1.16321755230897e-01
8.57064516129032e-02 1.57063523596626e+01 1.15743380263910e-01
8.67580645161290e-02 1.55320769586503e+01 1.15159209955128e-01
8.78096774193548e-02 1.53597352921414e+01 1.14569569205413e-01
8.88612903225806e-02 1.51893059036990e+01 1.13974771891765e-01
8.99129032258064e-02 1.50207675749634e+01 1.13375121275581e-01
9.09645161290323e-02 1.48540993230112e+01 1.12770910392079e-01
9.20161290322581e-02 1.46892803977421e+01 1.12162422421945e-01
9.30677419354839e-02 1.45262902792961e+01 1.11549931046242e-01
9.41193548387097e-02 1.43651086754985e+01 1.10933700785510e-01
9.51709677419355e-02 1.42057155193337e+01 1.10313987323958e-01
9.62225806451613e-02 1.40480909664467e+01 1.09691037819544e-01
9.72741935483871e-02 1.38922153926726e+01 1.09065091200734e-01
9.83258064516129e-02 1.37380693915935e+01 1.08436378450654e-01
9.93774193548387e-02 1.35856337721221e+01 1.07805122879286e-01
1.00429032258065e-01 1.34348895561127e+01 1.07171540419473e-01
1.01480645161290e-01 1.32858179756765e+01 1.06535839782038e-01
1.02532258064516e-01 1.31384004717161e+01 1.05898222743499e-01
1.03583870967742e-01 1.29926186908437e+01 1.05258884339953e-01
1.04635483870968e-01 1.28484544843185e+01 1.04618013336904e-01
1.05687096774194e-01 1.27058899027545e+01 1.03975792242197e-01
1.06738709677419e-01 1.25649071969500e+01 1.03332397275856e-01
1.07790322580645e-01 1.24254888146455e+01 1.02687998918774e-01
1.08841935483871e-01 1.22876173983390e+01 1.02042761982770e-01
1.09893548387097e-01 1.21512757831237e+01 1.01396845792005e-01
1.10945161290323e-01 1.20164469945523e+01 1.00750404357611e-01
1.11996774193548e-01 1.18831142465240e+01 1.00103586546127e-01
1.13048387096774e-01 1.17512609391939e+01 9.94565362415139e-02
1.14100000000000e-01 1.16208706569064e+01 9.88093924068281e-02
1.15151612903226e-01 1.14919271669641e+01 9.81622895207352e-02
1.16203225806452e-01 1.13644144151449e+01 9.75153575315177e-02
1.17254838709677e-01 1.12383165261899e+01 9.68687217970852e-02
1.18306451612903e-01 1.11136178009896e+01 9.62225035202221e-02
1.19358064516129e-01 1.09903027146297e+01 9.55768197776588e-02
1.20409677419355e-01 1.08683559144575e+01 9.49317836457374e-02
1.21461290322581e-01 1.07477622181705e+01 9.42875043215895e-02
1.22512903225806e-01 1.06285066119278e+01 9.36440872403909e-02
1.23564516129032e-01 1.05105742484794e+01 9.30016341886833e-02
1.24616129032258e-01 1.03939504453184e+01 9.23602433329517e-02
1.25667741935484e-01 1.02786206835179e+01 9.17200095699875e-02
1.26719354838710e-01 1.01645706039083e+01 9.10810244659140e-02
1.27770967741935e-01 1.00517860073248e+01 9.04433761838280e-02
1.28822580645161e-01 9.94025285215407e+00 8.98071498364219e-02
1.29874193548387e-01 9.82995725258679e+00 8.91724274919203e-02
1.30925806451613e-01 9.72088547688828e+00 8.85392882636868e-02
1.31977419354839e-01 9.61302394568845e+00 8.79078083966746e-02
1.33029032258065e-01 9.50635923029261e+00 8.72780613512992e-02
1.34080645161290e-01 9.40087805100880e+00 8.66501178848410e-02
1.35132258064516e-01 9.29656727549454e+00 8.60240461300056e-02
1.36183870967742e-01 9.19341391712185e+00 8.53999116027747e-02
1.37235483870968e-01 9.09140513389942e+00 8.47777774833222e-02
1.38287096774194e-01 8.99052822524126e+00 8.41577045495502e-02
1.39338709677419e-01 8.89077063203382e+00 8.35397511012961e-02
1.40390322580645e-01 8.79211993451762e+00 8.29239732452662e-02
1.41441935483871e-01 8.69456385074093e+00 8.23104248869698e-02
1.42493548387097e-01 8.59809023503037e+00 8.16991577938662e-02
1.43545161290323e-01 8.50268707647935e+00 8.10902216566329e-02
1.44596774193548e-01 8.40834249745263e+00 8.04836641487448e-02
1.45648387096774e-01 8.31504475210747e+00 7.98795309841899e-02
1.46700000000000e-01 8.22278222493123e+00 7.92778659145703e-02
1.47751612903226e-01 8.13154342974272e+00 7.86787109618003e-02
1.48803225806452e-01 8.04131700690709e+00 7.80821063521012e-02
1.49854838709677e-01 7.95209172328959e+00 7.74880904420871e-02
1.50906451612903e-01 7.86385647039665e+00 7.68966999560808e-02
1.51958064516129e-01 7.77660026299286e+00 7.63079699712856e-02
1.53009677419355e-01 7.69031223773322e+00 7.57219339646921e-02
1.54061290322581e-01 7.60498165181066e+00 7.51386238585773e-02
1.55112903225806e-01 7.52059788161895e+00 7.45580700648041e-02
1.56164516129032e-01 7.43715042142984e+00 7.39803015278882e-02
1.57216129032258e-01 7.35462888208504e+00 7.34053457159059e-02
1.58267741935484e-01 7.27302299007624e+00 7.28332288151104e-02
1.59319354838710e-01 7.19232258513538e+00 7.22639756669111e-02
1.60370967741935e-01 7.11251762011098e+00 7.16976096980709e-02
1.61422580645161e-01 7.03359815933324e+00 7.11341531200571e-02
1.62474193548387e-01 6.95555437737710e+00 7.05736269107714e-02
1.63525806451613e-01 6.87837655783892e+00 7.00160508498504e-02
1.64577419354839e-01 6.80205509212653e+00 6.94614435528708e-02
1.65629032258064e-01 6.72658047826359e+00 6.89098225047013e-02
1.66680645161290e-01 6.65194331970629e+00 6.83612040920276e-02
1.67732258064516e-01 6.57813432417344e+00 6.78156036348602e-02
1.68783870967742e-01 6.50514430248965e+00 6.72730353737923e-02
1.69835483870968e-01 6.43296416774913e+00 6.67335126313749e-02
1.70887096774194e-01 6.36158493325223e+00 6.61970477536961e-02
1.71938709677419e-01 6.29099771232738e+00 6.56636520461757e-02
1.72990322580645e-01 6.22119371690823e+00 6.51333359395186e-02
1.74041935483871e-01 6.15216425643947e+00 6.46061089699252e-02
1.75093548387097e-01 6.08390073679477e+00 6.40819798050960e-02
1.76145161290323e-01 6.01639465920700e+00 6.35609562695747e-02
1.77196774193548e-01 5.94963761921021e+00 6.30430453694787e-02
1.78248387096774e-01 5.88362130559314e+00 6.25282533165230e-02
1.79300000000000e-01 5.81833749936449e+00 6.20165855137229e-02
1.80351612903226e-01 5.75377807298888e+00 6.15080466922442e-02
1.81403225806452e-01 5.68993498859028e+00 6.10026408577314e-02
1.82454838709677e-01 5.62680029774320e+00 6.05003712316223e-02
1.83506451612903e-01 5.56436614021667e+00 6.00012403922928e-02
1.84558064516129e-01 5.50262474299568e+00 5.95052502551155e-02
1.85609677419355e-01 5.44156841931339e+00 5.90124020923934e-02
1.86661290322581e-01 5.38118956769412e+00 5.85226965527273e-02
1.87712903225806e-01 5.32148067100716e+00 5.80361336799382e-02
1.88764516129032e-01 5.26243429553079e+00 5.75527129315113e-02
1.89816129032258e-01 5.20404309002673e+00 5.70724331637659e-02
1.90867741935484e-01 5.14629978504395e+00 5.65952927484438e-02
1.91919354838710e-01 5.08919719135078e+00 5.61212895238519e-02
1.92970967741935e-01 5.03272819970866e+00 5.56504207416352e-02
1.94022580645161e-01 4.97688577976211e+00 5.51826831873305e-02
1.95074193548387e-01 4.92166297916341e+00 5.47180731609621e-02
1.96125806451613e-01 4.86705292270708e+00 5.42565864923823e-02
1.97177419354839e-01 4.81304881147374e+00 5.37982185561554e-02
1.98229032258065e-01 4.75964392198398e+00 5.33429642860897e-02
1.99280645161290e-01 4.70683160536110e+00 5.28908181894491e-02
2.00332258064516e-01 4.65460528650339e+00 5.24417743607321e-02
2.01383870967742e-01 4.60295846326546e+00 5.19958264669870e-02
2.02435483870968e-01 4.55188470583145e+00 5.15529678460589e-02
2.03487096774194e-01 4.50137765536162e+00 5.11131914627912e-02
2.04538709677419e-01 4.45143102375851e+00 5.06764898614635e-02
2.05590322580645e-01 4.40203859269648e+00 5.02428552676203e-02
2.06641935483871e-01 4.35319421284748e+00 4.98122795697103e-02
2.07693548387097e-01 4.30489180311545e+00 4.93847543305659e-02
2.08745161290323e-01 4.25712534987928e+00 4.89602707985949e-02
2.09796774193548e-01 4.20988890624418e+00 4.85388199187301e-02
2.10848387096774e-01 4.16317659130122e+00 4.81203923430655e-02
2.11900000000000e-01 4.11698258939516e+00 4.77049784166947e-02
2.12951612903226e-01 4.07130114955568e+00 4.72925682620347e-02
2.14003225806452e-01 4.02612658431149e+00 4.68831517393736e-02
2.15054838709677e-01 3.98145326945629e+00 4.64767184041376e-02
2.16106451612903e-01 3.93727564318917e+00 4.60732575944538e-02
2.17158064516129e-01 3.89358820542212e+00 4.56727584139433e-02
2.18209677419355e-01 3.85038551709528e+00 4.52752097405886e-02
2.19261290322581e-01 3.80766219949974e+00 4.48806002353537e-02
2.20312903225806e-01 3.76541293360805e+00 4.44889183506078e-02
2.21364516129032e-01 3.72363245941187e+00 4.41001523383454e-02
2.22416129032258e-01 3.68231557526717e+00 4.37142902367660e-02
2.23467741935484e-01 3.64145713737884e+00 4.33313199428244e-02
2.24519354838710e-01 3.60105205876004e+00 4.29512291768158e-02
2.25570967741935e-01 3.56109530900267e+00 4.25740054440771e-02
2.26622580645161e-01 3.52158191351530e+00 4.21996361104557e-02
2.27674193548387e-01 3.48250695290384e+00 4.18281083863532e-02
2.28725806451613e-01 3.44386556235908e+00 4.14594093335632e-02
2.29777419354839e-01 3.40565293105090e+00 4.10935258718947e-02
2.30829032258065e-01 3.36786430152956e+00 4.07304447856498e-02
2.31880645161290e-01 3.33049496913328e+00 4.03701527299561e-02
2.32932258064516e-01 3.29354028140248e+00 4.00126362368932e-02
2.33983870967742e-01 3.25699563750063e+00 3.96578817030161e-02
2.35035483870968e-01 3.22085648775264e+00 3.93058754510563e-02
2.36087096774194e-01 3.18511833274178e+00 3.89566036985089e-02
2.37138709677419e-01 3.14977672308909e+00 3.86100525237267e-02
2.38190322580645e-01 3.11482725878532e+00 3.82662079302078e-02
2.39241935483871e-01 3.08026558864302e+00 3.79250558320247e-02
2.40293548387097e-01 3.04608740975488e+00 3.75865820589116e-02
2.41345161290323e-01 3.01228846695801e+00 3.72507723612171e-02
2.42396774193548e-01 2.97886455230421e+00 3.69176124147478e-02
2.43448387096774e-01 2.94581150453605e+00 3.65870878254696e-02
2.44500000000000e-01 2.91312520856881e+00 3.62591841179323e-02
2.45551612903226e-01 2.88080159507336e+00 3.59338867885922e-02
2.46603225806452e-01 2.84883663968141e+00 3.56111812777183e-02
2.47654838709677e-01 2.81722636277510e+00 3.52910529391067e-02
2.48706451612903e-01 2.78596682889381e+00 3.49734870957166e-02
2.49758064516129e-01 2.75505414624425e+00 3.46584690263323e-02
2.50809677419355e-01 2.72448446621586e+00 3.43459839694461e-02
2.51861290322581e-01 2.69425398290167e+00 3.40360171270208e-02
2.52912903225806e-01 2.66435893262453e+00 3.37285536681677e-02
2.53964516129032e-01 2.63479559346853e+00 3.34235787327275e-02
2.55016129032258e-01 2.60556028481555e+00 3.31210774205955e-02
2.56067741935484e-01 2.57664936696874e+00 3.28210348378900e-02
2.57119354838710e-01 2.54805924045231e+00 3.25234360718496e-02
2.58170967741935e-01 2.51978634581255e+00 3.22282661638022e-02
2.59222580645161e-01 2.49182716309094e+00 3.19355101573953e-02
2.60274193548387e-01 2.46417821138592e+00 3.16451530864345e-02
2.61325806451613e-01 2.43683604841948e+00 3.13571799778184e-02
2.62377419354839e-01 2.40979727010858e+00 3.10715758543664e-02
2.63429032258065e-01 2.38305851014144e+00 3.07883257375836e-02
2.64480645161290e-01 2.35661643955837e+00 3.05074146503620e-02
2.65532258064516e-01 2.33046776633733e+00 3.02288276195748e-02
2.66583870967742e-01 2.30460923498408e+00 2.99525496663730e-02
2.67635483870968e-01 2.27903762619598e+00 2.96785658456722e-02
2.68687096774194e-01 2.25374975625206e+00 2.94068612239785e-02
2.69738709677419e-01 2.22874247682759e+00 2.91374208555416e-02
2.70790322580645e-01 2.20401267453117e+00 2.88702298236600e-02
2.71841935483871e-01 2.17955727051716e+00 2.86052732297293e-02
2.72893548387097e-01 2.15537322010228e+00 2.83425361953512e-02
2.73945161290323e-01 2.13145751238667e+00 2.80820038643744e-02
2.74996774193548e-01 2.10780716987893e+00 2.78236614048890e-02
2.76048387096774e-01 2.08441924812551e+00 2.75674940111576e-02
2.77100000000000e-01 2.06129083534406e+00 2.73134868947429e-02
2.78151612903226e-01 2.03841905212042e+00 2.70616253187902e-02
2.79203225806452e-01 2.01580105087019e+00 2.68118945782482e-02
2.80254838709677e-01 1.99343401566569e+00 2.65642799786123e-02
2.81306451612903e-01 1.97131516182436e+00 2.63187668718261e-02
2.82358064516129e-01 1.94944173556205e+00 2.60753406463546e-02
2.83409677419355e-01 1.92781101365020e+00 2.58339867287220e-02
2.84461290322581e-01 1.90642030307679e+00 2.55946905849891e-02
2.85512903225806e-01 1.88526694071107e+00 2.53574377221963e-02
2.86564516129032e-01 1.86434829297201e+00 2.51222136897616e-02
2.87616129032258e-01 1.84366175550041e+00 2.48890040713971e-02
2.88667741935484e-01 1.82320475288589e+00 2.46577945149139e-02
2.89719354838710e-01 1.80297473819124e+00 2.44285707145777e-02
2.90770967741935e-01 1.78296919279167e+00 2.42013183921684e-02
2.91822580645161e-01 1.76318562600867e+00 2.39760233282235e-02
2.92874193548387e-01 1.74362157479997e+00 2.37526713530520e-02
2.93925806451613e-01 1.72427460345280e+00 2.35312483478250e-02
2.94977419354839e-01 1.70514230328073e+00 2.33117402456128e-02
2.96029032258064e-01 1.68622229232375e+00 2.30941330323927e-02
2.97080645161290e-01 1.66751221505174e+00 2.28784127480291e-02
2.98132258064516e-01 1.64900974207120e+00 2.26645654872032e-02
2.99183870967742e-01 1.63071256983525e+00 2.24525773921381e-02
3.00235483870968e-01 1.61261842040038e+00 2.22424346781913e-02
3.01287096774194e-01 1.59472504101105e+00 2.20341236182912e-02
3.02338709677419e-01 1.57703020395218e+00 2.18276305262483e-02
3.03390322580645e-01 1.55953170622705e+00 2.16229417836141e-02
3.04441935483871e-01 1.54222736928311e+00 2.14200438316423e-02
3.05493548387097e-01 1.52511503874067e+00 2.12189231719862e-02
3.06545161290323e-01 1.50819258412475e+00 2.10195663673660e-02
3.07596774193548e-01 1.49145789859979e+00 2.08219600422182e-02
3.08648387096774e-01 1.47490889870739e+00 2.06260908833076e-02
3.09700000000000e-01 1.45854352410688e+00 2.04319456331299e-02
3.10751612903226e-01 1.44235973735651e+00 2.02395111122011e-02
3.11803225806452e-01 1.42635552354581e+00 2.00487742051871e-02
3.12854838709677e-01 1.41052889015969e+00 1.98597218460407e-02
3.13906451612903e-01 1.39487786679169e+00 1.96723410414155e-02
3.14958064516129e-01 1.37940050489868e+00 1.94866188634119e-02
3.16009677419355e-01 1.36409487755832e+00 1.93025424500103e-02
3.17061290322581e-01 1.34895907922906e+00 1.91200990054757e-02
3.18112903225806e-01 1.33399122551301e+00 1.89392758007469e-02
3.19164516129032e-01 1.31918945292125e+00 1.87600601738036e-02
3.20216129032258e-01 1.30455191864190e+00 1.85824395236875e-02
3.21267741935484e-01 1.29007680034317e+00 1.84064013299383e-02
3.22319354838710e-01 1.27576229584805e+00 1.82319331402296e-02
3.23370967741935e-01 1.26160662300923e+00 1.80590225571276e-02
3.24422580645161e-01 1.24760801945384e+00 1.78876572585261e-02
3.25474193548387e-01 1.23376474236406e+00 1.77178249911061e-02
3.26525806451613e-01 1.22007506826009e+00 1.75495135705620e-02
3.27577419354839e-01 1.20653729278563e+00 1.73827108818029e-02
3.28629032258065e-01 1.19314973049566e+00 1.72174048791412e-02
3.29680645161290e-01 1.17991071464663e+00 1.70535835864687e-02
3.30732258064516e-01 1.16681859698890e+00 1.68912350974079e-02
3.31783870967742e-01 1.15387174756160e+00 1.67303475699604e-02
