Energy (eV)          EEDF (eV^-(3/2))     First Anisotropy
3.03333333333333e-01 8.81441396849629e-02 1.81056569184004e-04
9.10000000000000e-01 7.85366349220231e-02 2.83635550242952e-04
1.51666666666667e+00 6.99763256978646e-02 3.35877266246713e-04
2.12333333333333e+00 6.23490701110244e-02 3.56797759314937e-04
2.73000000000000e+00 5.55531675060133e-02 3.61584633435175e-04
3.33666666666667e+00 4.94980023823874e-02 3.56727072068148e-04
3.94333333333333e+00 4.41028360680176e-02 3.45840213138362e-04
4.55000000000000e+00 3.92957302401647e-02 3.31184108754443e-04
5.15666666666667e+00 3.50125876937824e-02 3.14259307420825e-04
5.76333333333333e+00 3.11962976494871e-02 2.96095706004112e-04
6.37000000000000e+00 2.77959742787488e-02 2.77412396869531e-04
6.97666666666667e+00 2.47662781936570e-02 2.58714370750059e-04
7.58333333333333e+00 2.20668118836737e-02 2.40354834992708e-04
8.19000000000000e+00 1.96615810771684e-02 2.22577274685475e-04
8.79666666666667e+00 1.75185147962685e-02 2.05544838694646e-04
9.40333333333333e+00 1.56090377192653e-02 1.89361410649191e-04
1.00100000000000e+01 1.39076891702737e-02 1.74087019228138e-04
1.06166666666667e+01 1.23917836328351e-02 1.59749278724527e-04
1.12233333333333e+01 1.10411082436679e-02 1.46351975232390e-04
1.18300000000000e+01 9.83765330465587e-03 1.33881562636518e-04
1.24366666666667e+01 8.76537214107575e-03 1.22312105254725e-04
1.30433333333333e+01 7.80996710991689e-03 1.11609045856558e-04
1.36500000000000e+01 6.95869898711944e-03 1.01732081314091e-04
1.42566666666667e+01 6.20021709939833e-03 9.26373556895346e-05
1.48633333333333e+01 5.52440795910148e-03 8.42791225576005e-05
1.54700000000000e+01 4.92226043078163e-03 7.66109975065253e-05
1.60766666666667e+01 4.38574557488451e-03 6.95868932585564e-05
1.66833333333333e+01 3.90770958049795e-03 6.31617050506257e-05
1.72900000000000e+01 3.48177838892844e-03 5.72918026299175e-05
1.78966666666667e+01 3.10227270099613e-03 5.19353726913848e-05
1.85033333333333e+01 2.76413224342570e-03 4.70526436093317e-05
1.91100000000000e+01 2.46284830314719e-03 4.26060200418872e-05
1.97166666666667e+01 2.19440360756298e-03 3.85601490004881e-05
2.03233333333333e+01 1.95521875456237e-03 3.48819327204109e-05
2.09300000000000e+01 1.74210448993512e-03 3.15405021204366e-05
2.15366666666667e+01 1.55221918155422e-03 2.85071616206850e-05
2.21433333333333e+01 1.38303092672033e-03 2.57553126439784e-05
2.27500000000000e+01 1.23228379513772e-03 2.32603626758306e-05
2.33566666666667e+01 1.09796774817809e-03 2.09996251855762e-05
2.39633333333333e+01 9.78291835532720e-04 1.89522137487482e-05
2.45700000000000e+01 8.71660316893517e-04 1.70989336964193e-05
2.51766666666667e+01 7.76651384267849e-04 1.54221737849909e-05
2.57833333333333e+01 6.91998202629525e-04 1.39057992358712e-05
2.63900000000000e+01 6.16572019403839e-04 1.25350476369247e-05
2.69966666666667e+01 5.49367113639578e-04 1.12964287565265e-05
2.76033333333333e+01 4.89487385103597e-04 1.01776286443905e-05
2.82100000000000e+01 4.36134406653367e-04 9.16741857469857e-06
2.88166666666667e+01 3.88596777991335e-04 8.25556915654988e-06
2.94233333333333e+01 3.46240639448713e-04 7.43276953316667e-06
3.00300000000000e+01 3.08501220750765e-04 6.69055176398604e-06
3.06366666666667e+01 2.74875310363860e-04 6.02122036737237e-06
3.12433333333333e+01 2.44914545408733e-04 5.41778676012530e-06
3.18500000000000e+01 2.18219433625972e-04 4.87390847746079e-06
3.24566666666667e+01 1.94434026546065e-04 4.38383300234312e-06
3.30633333333333e+01 1.73241173099481e-04 3.94234588855895e-06
3.36700000000000e+01 1.54358291017932e-04 3.54472298116284e-06
3.42766666666667e+01 1.37533598884875e-04 3.18668651580972e-06
3.48833333333333e+01 1.22542758768431e-04 2.86436479247605e-06
3.54900000000000e+01 1.09185885097715e-04 2.57425521239509e-06
3.60966666666667e+01 9.72848793920028e-05 2.31319046166069e-06
3.67033333333333e+01 8.66810554207144e-05 2.07830757421983e-06
3.73100000000000e+01 7.72330234155377e-05 1.86701967851307e-06
3.79166666666667e+01 6.88148047826699e-05 1.67699023466432e-06
3.85233333333333e+01 6.13141522548118e-05 1.50610953963670e-06
3.91300000000000e+01 5.46310532773191e-05 1.35247333183417e-06
3.97366666666667e+01 4.86763964438655e-05 1.21436333259405e-06
4.03433333333333e+01 4.33707832522453e-05 1.09022954526192e-06
4.09500000000000e+01 3.86434694668269e-05 9.78674172981121e-07
4.15566666666667e+01 3.44314218175018e-05 8.78437023182822e-07
4.21633333333333e+01 3.06784774923842e-05 7.88382257567687e-07
4.27700000000000e+01 2.73345953052212e-05 7.07486376390680e-07
4.33766666666667e+01 2.43551884483118e-05 6.34827332419672e-07
4.39833333333333e+01 2.17005299576246e-05 5.69574665167229e-07
4.45900000000000e+01 1.93352230223941e-05 5.10980568150539e-07
4.51966666666667e+01 1.72277290057019e-05 4.58371807694099e-07
4.58033333333333e+01 1.53499468987269e-05 4.11142409553936e-07
4.64100000000000e+01 1.36768386417008e-05 3.68747045917912e-07
4.70166666666667e+01 1.21860952677022e-05 3.30695060149446e-07
4.76233333333333e+01 1.08578394285252e-05 2.96545065813589e-07
4.82300000000000e+01 9.67436036369811e-06 2.65900068436731e-07
4.88366666666667e+01 8.61987774618435e-06 2.38403062345409e-07
4.94433333333333e+01 7.68033126325908e-06 2.13733054844525e-07
5.00500000000000e+01 6.84319314562376e-06 1.91601478687461e-07
5.06566666666667e+01 6.09730112287129e-06 1.71748956871891e-07
5.12633333333333e+01 5.43270958294303e-06 1.53942384069238e-07
5.18700000000000e+01 4.84055696374841e-06 1.37972295322319e-07
5.24766666666667e+01 4.31294759365122e-06 1.23650495044092e-07
5.30833333333333e+01 3.84284640869535e-06 1.10807919768637e-07
5.36900000000000e+01 3.42398515147518e-06 9.92927127004750e-08
5.42966666666667e+01 3.05077879060447e-06 8.89684899519935e-08
5.49033333333333e+01 2.71825104864615e-06 7.97127788054950e-08
5.55100000000000e+01 2.42196805147061e-06 7.14156116676621e-08
5.61166666666667e+01 2.15797920728363e-06 6.39782607876762e-08
5.67233333333333e+01 1.92276452859208e-06 5.73120992281061e-08
5.73300000000000e+01 1.71318769878921e-06 5.13375759890263e-08
5.79366666666667e+01 1.52645425273405e-06 4.59832942458036e-08
5.85433333333333e+01 1.36007431478917e-06 4.11851820255388e-08
5.91500000000000e+01 1.21182940026829e-06 3.68857463902229e-08
5.97566666666667e+01 1.07974283432651e-06 3.30334029900990e-08
6.03633333333333e+01 9.62053394600493e-07 2.95818731553900e-08
6.09700000000000e+01 8.57191828071417e-07 2.64896419530467e-08
6.15766666666667e+01 7.63759926765844e-07 2.37194712288919e-08
6.21833333333333e+01 6.80511883797978e-07 2.12379619028816e-08
6.27900000000000e+01 6.06337682473892e-07 1.90151606928755e-08
6.33966666666667e+01 5.40248295416816e-07 1.70242068834660e-08
6.40033333333333e+01 4.81362496706976e-07 1.52410149530824e-08
6.46100000000000e+01 4.28895112095228e-07 1.36439895266086e-08
6.52166666666667e+01 3.82146549553496e-07 1.22137694472912e-08
6.58233333333333e+01 3.40493470801429e-07 1.09329979156468e-08
6.64300000000000e+01 3.03380480046440e-07 9.78611611393716e-09
6.70366666666667e+01 2.70312718382542e-07 8.75917797567360e-09
6.76433333333333e+01 2.40849265265854e-07 7.83968387863598e-09
6.82500000000000e+01 2.14597259510785e-07 7.01643137862279e-09
6.88566666666667e+01 1.91206660912519e-07 6.27938127834777e-09
6.94633333333333e+01 1.70365582760133e-07 5.61953741703490e-09
7.00700000000000e+01 1.51796133299313e-07 5.02883880977575e-09
7.06766666666667e+01 1.35250710347925e-07 4.50006289572665e-09
7.12833333333333e+01 1.20508699734516e-07 4.02673872345495e-09
7.18900000000000e+01 1.07373533740138e-07 3.60306907669116e-09
7.24966666666667e+01 9.56700700818615e-08 3.22386063892308e-09
7.31033333333333e+01 8.52422565428103e-08 2.88446134751303e-09
7.37100000000000e+01 7.59510502491604e-08 2.58070421363574e-09
7.43166666666667e+01 6.76725636850541e-08 2.30885695387260e-09
7.49233333333333e+01 6.02964127612230e-08 2.06557681850569e-09
7.55300000000000e+01 5.37242450072597e-08 1.84787009170252e-09
7.61366666666667e+01 4.78684281488385e-08 1.65305578949601e-09
7.67433333333333e+01 4.26508816087719e-08 1.47873311074897e-09
7.73500000000000e+01 3.80020354179625e-08 1.32275226095389e-09
7.79566666666667e+01 3.38599025759489e-08 1.18318830564436e-09
7.85633333333333e+01 3.01692525094202e-08 1.05831773197837e-09
7.91700000000000e+01 2.68808746537604e-08 9.46597443413333e-10
7.97766666666667e+01 2.39509222840571e-08 8.46645939239725e-10
8.03833333333333e+01 2.13403278583109e-08 7.57226446886981e-10
8.09900000000000e+01 1.90142821089427e-08 6.77231808139073e-10
8.15966666666667e+01 1.69417698993745e-08 6.05670939890831e-10
8.22033333333333e+01 1.50951566651518e-08 5.41656702007039e-10
8.28100000000000e+01 1.34498199472791e-08 4.84395028646981e-10
8.34166666666667e+01 1.19838210787574e-08 4.33175193554269e-10
8.40233333333333e+01 1.06776126523634e-08 3.87361088603461e-10
8.46300000000000e+01 9.51377788431716e-09 3.46383411938788e-10
8.52366666666667e+01 8.47679838060947e-09 3.09732672281626e-10
8.58433333333333e+01 7.55284721337932e-09 2.76952922445731e-10
8.64500000000000e+01 6.72960455879055e-09 2.47636147300374e-10
8.70566666666667e+01 5.99609342573364e-09 2.21417238832908e-10
8.76633333333333e+01 5.34253328772205e-09 1.97969495702275e-10
8.82700000000000e+01 4.76020967363005e-09 1.77000593406358e-10
8.88766666666667e+01 4.24135796981671e-09 1.58248976544638e-10
8.94833333333333e+01 3.77905988616555e-09 1.41480628127313e-10
9.00900000000000e+01 3.36715121058961e-09 1.26486177128574e-10
9.06966666666667e+01 3.00013961605797e-09 1.13078309352669e-10
9.13033333333333e+01 2.67313142550681e-09 1.01089449216718e-10
9.19100000000000e+01 2.38176636163362e-09 9.03696845217827e-11
9.25166666666667e+01 2.12215940741019e-09 8.07849090777759e-11
9.31233333333333e+01 1.89084900299969e-09 7.22151598973710e-11
9.37300000000000e+01 1.68475089077335e-09 6.45531288684087e-11
9.43366666666667e+01 1.50111699014099e-09 5.77028308295822e-11
9.49433333333333e+01 1.33749875446814e-09 5.15784113215014e-11
9.55500000000000e+01 1.19171452317211e-09 4.61030795686328e-11
9.61566666666667e+01 1.06182043168940e-09 4.12081537001628e-11
9.67633333333333e+01 9.46084491868956e-10 3.68322061979610e-11
9.73700000000000e+01 8.42963498352819e-10 3.29202991916508e-11
9.79766666666667e+01 7.51082451639688e-10 2.94233002670728e-11
9.85833333333333e+01 6.69216223764551e-10 2.62972701665493e-11
9.91900000000000e+01 5.96273222939143e-10 2.35029149252805e-11
9.97966666666667e+01 5.31280838383900e-10 2.10050957413801e-11
1.00403333333333e+02 4.73372471485062e-10 1.87723904047577e-11
1.01010000000000e+02 4.21775980770835e-10 1.67767008559554e-11
1.01616666666667e+02 3.75803386986684e-10 1.49929022780513e-11
1.02223333333333e+02 3.34841698096022e-10 1.33985290101777e-11
1.02830000000000e+02 2.98344737232660e-10 1.19734934778424e-11
1.03436666666667e+02 2.65825859822636e-10 1.06998350916747e-11
1.04043333333333e+02 2.36851463778853e-10 9.56149533740137e-12
1.04650000000000e+02 2.11035208955588e-10 8.54411660328754e-12
1.05256666666667e+02 1.88032865581813e-10 7.63486245668754e-12
1.05863333333333e+02 1.67537723686100e-10 6.82225668561287e-12
1.06470000000000e+02 1.49276504194530e-10 6.09603934090060e-12
1.07076666666667e+02 1.33005714953786e-10 5.44703813538715e-12
1.07683333333333e+02 1.18508403579607e-10 4.86705328328010e-12
1.08290000000000e+02 1.05591265148690e-10 4.34875451161325e-12
1.08896666666667e+02 9.40820646201001e-11 3.88558906378997e-12
1.09503333333333e+02 8.38273399565989e-11 3.47169932661367e-12
1.10110000000000e+02 7.46903562343009e-11 3.10184916980810e-12
1.10716666666667e+02 6.65492823842770e-11 2.77135815121151e-12
1.11323333333333e+02 5.92955664910295e-11 2.47604261064046e-12
1.11930000000000e+02 5.28324886206350e-11 2.21216299825864e-12
1.12536666666667e+02 4.70738711331036e-11 1.97637682997228e-12
1.13143333333333e+02 4.19429294465625e-11 1.76569657251961e-12
1.13750000000000e+02 3.73712483723242e-11 1.57745198870733e-12
1.14356666666667e+02 3.32978698502076e-11 1.40925650716874e-12
1.14963333333333e+02 2.96684800342657e-11 1.25897711900830e-12
1.15570000000000e+02 2.64346851978581e-11 1.12470746443255e-12
1.16176666666667e+02 2.35533664403015e-11 1.00474379708674e-12
1.16783333333333e+02 2.09861046702804e-11 8.97563471028887e-13
1.17390000000000e+02 1.86986684134250e-11 8.01805708704789e-13
1.17996666666667e+02 1.66605573619821e-11 7.16254426137892e-13
1.18603333333333e+02 1.48445956356161e-11 6.39822862028113e-13
1.19210000000000e+02 1.32265694793876e-11 5.71539837510537e-13
1.19816666666667e+02 1.17849043921374e-11 5.10537486255411e-13
1.20423333333333e+02 1.05003774186377e-11 4.56040274227781e-13
1.21030000000000e+02 9.35586087335825e-12 4.07355184931987e-13
1.21636666666667e+02 8.33609395618162e-12 3.63862955324522e-13
1.22243333333333e+02 7.42747924162469e-12 3.25010233534744e-13
1.22850000000000e+02 6.61790140051393e-12 2.90302569420615e-13
1.23456666666667e+02 5.89656565161941e-12 2.59298155754185e-13
1.24063333333333e+02 5.25385380785001e-12 2.31602228147445e-13
1.24670000000000e+02 4.68119604809842e-12 2.06862059987811e-13
1.25276666666667e+02 4.17095664547764e-12 1.84762493542842e-13
1.25883333333333e+02 3.71633214126968e-12 1.65021941717372e-13
1.26490000000000e+02 3.31126064208664e-12 1.47388814826455e-13
1.27096666666667e+02 2.95034098936525e-12 1.31638330278688e-13
1.27703333333333e+02 2.62876073247409e-12 1.17569658462776e-13
1.28310000000000e+02 2.34223196960224e-12 1.05003372166697e-13
1.28916666666667e+02 2.08693417203640e-12 9.37791694070109e-14
1.29523333333333e+02 1.85946323576920e-12 8.37538363747714e-14
1.30130000000000e+02 1.65678609823042e-12 7.47994271158335e-14
1.30736666666667e+02 1.47620029485158e-12 6.68016384009625e-14
1.31343333333333e+02 1.31529792059981e-12 5.96583560565010e-14
1.31950000000000e+02 1.17193352789718e-12 5.32783560253465e-14
1.32556666666667e+02 1.04419551882353e-12 4.75801447523751e-14
1.33163333333333e+02 9.30380653220445e-13 4.24909219838095e-14
1.33770000000000e+02 8.28971341126316e-13 3.79456540127586e-14
1.34376666666667e+02 7.38615406956585e-13 3.38862463571344e-14
1.34983333333333e+02 6.58108057748801e-13 3.02608038201416e-14
1.35590000000000e+02 5.86375820855465e-13 2.70229693743597e-14
1.36196666666667e+02 5.22462230070047e-13 2.41313339972310e-14
1.36803333333333e+02 4.65515070820498e-13 2.15489088726527e-14
1.37410000000000e+02 4.14775018418306e-13 1.92426538389353e-14
1.38016666666667e+02 3.69565513092302e-13 1.71830564575811e-14
1.38623333333333e+02 3.29283737844382e-13 1.53437555866404e-14
1.39230000000000e+02 2.93392581660199e-13 1.37012050839310e-14
1.39836666666667e+02 2.61413477580716e-13 1.22343736208434e-14
1.40443333333333e+02 2.32920020865631e-13 1.09244762499177e-14
1.41050000000000e+02 2.07532284131980e-13 9.75473459956662e-15
1.41656666666667e+02 1.84911751340232e-13 8.71016282484065e-15
1.42263333333333e+02 1.64756803585878e-13 7.77737621103601e-15
1.42870000000000e+02 1.46798697885683e-13 6.94442019598210e-15
1.43476666666667e+02 1.30797983715881e-13 6.20061776045864e-15
1.44083333333333e+02 1.16541309875191e-13 5.53643297666315e-15
1.44690000000000e+02 1.03838580060282e-13 4.94334911859126e-15
1.45296666666667e+02 9.25204180921017e-14 4.41375987008123e-15
1.45903333333333e+02 8.24359092421139e-14 3.94087205666655e-15
1.46510000000000e+02 7.34505882152448e-14 3.51861876113191e-15
1.47116666666667e+02 6.54446461692557e-14 3.14158177736531e-15
1.47723333333333e+02 5.83113330359191e-14 2.80492228182539e-15
1.48330000000000e+02 5.19555343113647e-14 2.50431890840427e-15
1.48936666666667e+02 4.62925027852310e-14 2.23591248043588e-15
1.49543333333333e+02 4.12467284183121e-14 1.99625660192777e-15
1.50150000000000e+02 3.67509316286061e-14 1.78227352663289e-15
1.50756666666667e+02 3.27451661756785e-14 1.59121477234458e-15
1.51363333333333e+02 2.91760197655939e-14 1.42062591234632e-15
1.51970000000000e+02 2.59959019471585e-14 1.26831512895561e-15
1.52576666666667e+02 2.31624095341622e-14 1.13232514907893e-15
1.53183333333333e+02 2.06377611511234e-14 1.01090815738437e-15
1.53790000000000e+02 1.83882935234287e-14 9.02503390819907e-16
1.54396666666667e+02 1.63840126066230e-14 8.05717143285266e-16
1.55003333333333e+02 1.45981936108060e-14 7.19304892603285e-16
1.55610000000000e+02 1.30070246991652e-14 6.42155338344024e-16
1.56216666666667e+02 1.15892894777670e-14 5.73276157031413e-16
1.56823333333333e+02 1.03260840717206e-14 5.11781269849882e-16
1.57430000000000e+02 9.20056509371759e-15 4.56879471965723e-16
1.58036666666667e+02 8.19772505211540e-15 4.07864285459660e-16
1.58643333333333e+02 7.30419222398303e-15 3.64104890055017e-16
1.59250000000000e+02 6.50805237950894e-15 3.25038023987828e-16
1.59856666666667e+02 5.79868991615116e-15 2.90160756593308e-16
1.60463333333333e+02 5.16664629828133e-15 2.59024028839142e-16
1.61070000000000e+02 4.60349395314345e-15 2.31226885007685e-16
1.61676666666667e+02 4.10172389655812e-15 2.06411325338041e-16
1.62283333333333e+02 3.65464559980993e-15 1.84257705786045e-16
1.62890000000000e+02 3.25629778938981e-15 1.64480630123550e-16
1.63496666666667e+02 2.90136895865673e-15 1.46825284330341e-16
1.64103333333333e+02 2.58512653839953e-15 1.31064160736806e-16
1.64710000000000e+02 2.30335380063753e-15 1.16994132849970e-16
1.65316666666667e+02 2.05229363227519e-15 1.04433845182595e-16
1.65923333333333e+02 1.82859843369913e-15 9.32213807021343e-17
1.66530000000000e+02 1.62928548740177e-15 8.32121780407158e-17
1.67136666666667e+02 1.45169718608540e-15 7.42771730313052e-17
1.67743333333333e+02 1.29346559329247e-15 6.63011379739129e-17
1.68350000000000e+02 1.15248087320466e-15 5.91811987683332e-17
1.68956666666667e+02 1.02686315785722e-15 5.28255117841329e-17
1.69563333333333e+02 9.14937478999725e-16 4.71520815474796e-17
1.70170000000000e+02 8.15211436775683e-16 4.20877050836965e-17
1.70776666666667e+02 7.26355299901032e-16 3.75670299949357e-17
1.71383333333333e+02 6.47184273643934e-16 3.35317128139261e-17
1.71990000000000e+02 5.76642703667544e-16 2.99296675392333e-17
1.72596666666667e+02 5.13789999823619e-16 2.67143951446061e-17
1.73203333333333e+02 4.57788093356890e-16 2.38443844889309e-17
1.73810000000000e+02 4.07890263424394e-16 2.12825774318327e-17
1.74416666666667e+02 3.63431180242965e-16 1.89958915942707e-17
1.75023333333333e+02 3.23818032906414e-16 1.69547939548904e-17
1.75630000000000e+02 2.88522625775459e-16 1.51329201544526e-17
1.76236666666667e+02 2.57074335464183e-16 1.35067348340950e-17
1.76843333333333e+02 2.29053835075690e-16 1.20552281645828e-17
1.77450000000000e+02 2.04087503549335e-16 1.07596449125641e-17
1.78056666666667e+02 1.81842443761079e-16 9.60324271392117e-18
1.78663333333333e+02 1.62022043343233e-16 8.57107611011388e-18
1.79270000000000e+02 1.44362020112123e-16 7.64980374395811e-18
1.79876666666667e+02 1.28626898104379e-16 6.82751634285928e-18
1.80483333333333e+02 1.14606867509740e-16 6.09358304028905e-18
1.81090000000000e+02 1.02114987387335e-16 5.43851418059130e-18
1.81696666666667e+02 9.09846929779118e-17 5.13361491346251e-18
