Energy (eV)          EEDF (eV^-(3/2))     First Anisotropy
2.20769230769231e-02 4.70457090699414e-02 2.19146339969022e-05
6.62307692307692e-02 4.67961604831253e-02 3.62130550364620e-05
1.10384615384615e-01 4.65479355984058e-02 4.78736420450673e-05
1.54538461538462e-01 4.63010273948128e-02 5.67739791835752e-05
1.98692307692308e-01 4.60554288861888e-02 6.42315702649086e-05
2.42846153846154e-01 4.58111331271256e-02 7.07434116669581e-05
2.87000000000000e-01 4.55681332072047e-02 7.65661444027680e-05
3.31153846153846e-01 4.53264222527142e-02 8.18544199052028e-05
3.75307692307692e-01 4.50859934264405e-02 8.67105920696592e-05
4.19461538461538e-01 4.48468399274633e-02 9.12068526108364e-05
4.63615384615385e-01 4.46089549904056e-02 9.53965309773834e-05
5.07769230769231e-01 4.43723318869140e-02 9.93204383947129e-05
5.51923076923077e-01 4.41369639237168e-02 1.03010689655569e-04
5.96076923076923e-01 4.39028444430512e-02 1.06493134378409e-04
6.40230769230769e-01 4.36699668224667e-02 1.09788972982235e-04
6.84384615384615e-01 4.34383244746511e-02 1.12915869713077e-04
7.28538461538462e-01 4.32079108472352e-02 1.15888742567292e-04
7.72692307692308e-01 4.29787194223059e-02 1.18720338126001e-04
8.16846153846154e-01 4.27507437171485e-02 1.21421659366815e-04
8.61000000000000e-01 4.25239772831103e-02 1.24002290043498e-04
9.05153846153846e-01 4.22984137057439e-02 1.26470644579329e-04
9.49307692307692e-01 4.20740466046282e-02 1.28834163715069e-04
9.93461538461539e-01 4.18508696331883e-02 1.31099469546929e-04
1.03761538461538e+00 4.16288764787248e-02 1.33272490139326e-04
1.08176923076923e+00 4.14080608607597e-02 1.35358559753793e-04
1.12592307692308e+00 4.11884165352350e-02 1.37362502278190e-04
1.17007692307692e+00 4.09699372871926e-02 1.39288699171485e-04
1.21423076923077e+00 4.07526169366340e-02 1.41141145161489e-04
1.25838461538462e+00 4.05364493381448e-02 1.42923497679623e-04
1.30253846153846e+00 4.03214283753211e-02 1.44639115945126e-04
1.34669230769231e+00 4.01075479676063e-02 1.46291095383014e-04
1.39084615384615e+00 3.98948020634626e-02 1.47882297207089e-04
1.43500000000000e+00 3.96831846450671e-02 1.49415372456563e-04
1.47915384615385e+00 3.94726897279827e-02 1.50892785316480e-04
1.52330769230769e+00 3.92633113565870e-02 1.52316831200475e-04
1.56746153846154e+00 3.90550436083093e-02 1.53689652431407e-04
1.61161538461538e+00 3.88478805933264e-02 1.55013254169650e-04
1.65576923076923e+00 3.86418164503888e-02 1.56289516108486e-04
1.69992307692308e+00 3.84368453518996e-02 1.57520203857796e-04
1.74407692307692e+00 3.82329614987177e-02 1.58706979137300e-04
1.78823076923077e+00 3.80301591236853e-02 1.59851407638221e-04
1.83238461538462e+00 3.78284324913714e-02 1.60954968246123e-04
1.87653846153846e+00 3.76277758945033e-02 1.62019059178570e-04
1.92069230769231e+00 3.74281836582627e-02 1.63045004463472e-04
1.96484615384615e+00 3.72296501358303e-02 1.64034059856072e-04
2.00900000000000e+00 3.70321697113909e-02 1.64987417086972e-04
2.05315384615385e+00 3.68357367998930e-02 1.65906209728010e-04
2.09730769230769e+00 3.66403458439593e-02 1.66791516757673e-04
2.14146153846154e+00 3.64459913166656e-02 1.67644365748454e-04
2.18561538461538e+00 3.62526677213110e-02 1.68465737522818e-04
2.22976923076923e+00 3.60603695885352e-02 1.69256568524065e-04
2.27392307692308e+00 3.58690914797498e-02 1.70017753858685e-04
2.31807692307692e+00 3.56788279835110e-02 1.70750150152504e-04
2.36223076923077e+00 3.54895737179287e-02 1.71454577208391e-04
2.40638461538462e+00 3.53013233304606e-02 1.72131821333499e-04
2.45053846153846e+00 3.51140714953591e-02 1.72782636663737e-04
2.49469230769231e+00 3.49278129166764e-02 1.73407747198889e-04
2.53884615384615e+00 3.47425423250511e-02 1.74007848743226e-04
2.58300000000000e+00 3.45582544798257e-02 1.74583609811942e-04
2.62715384615385e+00 3.43749441688484e-02 1.75135674145671e-04
2.67130769230769e+00 3.41926062061990e-02 1.75664661583760e-04
2.71546153846154e+00 3.40112354341734e-02 1.76171168844197e-04
2.75961538461538e+00 3.38308267230913e-02 1.76655771705739e-04
2.80376923076923e+00 3.36513749691487e-02 1.77119025471334e-04
2.84792307692308e+00 3.34728750969137e-02 1.77561466140634e-04
2.89207692307692e+00 3.32953220566113e-02 1.77983611554854e-04
2.93623076923077e+00 3.31187108258840e-02 1.78385961666983e-04
2.98038461538462e+00 3.29430364096141e-02 1.78769000308420e-04
3.02453846153846e+00 3.27682938379826e-02 1.79133195376183e-04
3.06869230769231e+00 3.25944781686997e-02 1.79478999702356e-04
3.11284615384615e+00 3.24215844845524e-02 1.79806851915069e-04
3.15700000000000e+00 3.22496078949804e-02 1.80117176501179e-04
3.20115384615385e+00 3.20785435359050e-02 1.80410385283299e-04
3.24530769230769e+00 3.19083865679674e-02 1.80686877568385e-04
3.28946153846154e+00 3.17391321780195e-02 1.80947040267314e-04
3.33361538461538e+00 3.15707755789560e-02 1.81191249244092e-04
3.37776923076923e+00 3.14033120080378e-02 1.81419869251441e-04
3.42192307692308e+00 3.12367367287932e-02 1.81633254506050e-04
3.46607692307692e+00 3.10710450288938e-02 1.81831749270611e-04
3.51023076923077e+00 3.09062322214969e-02 1.82015687725038e-04
3.55438461538462e+00 3.07422936450882e-02 1.82185395138891e-04
3.59853846153846e+00 3.05792246619455e-02 1.82341187722694e-04
3.64269230769231e+00 3.04170206598606e-02 1.82483373086427e-04
3.68684615384615e+00 3.02556770501960e-02 1.82612250709318e-04
3.73100000000000e+00 3.00951892691017e-02 1.82728111747524e-04
3.77515384615385e+00 2.99355527773625e-02 1.82831240071195e-04
3.81930769230769e+00 2.97767630589875e-02 1.82921912178620e-04
3.86346153846154e+00 2.96188156223673e-02 1.83000397100476e-04
3.90761538461538e+00 2.94617060001243e-02 1.83066957374225e-04
3.95176923076923e+00 2.93054297477629e-02 1.83121848815654e-04
3.99592307692308e+00 2.91499824451616e-02 1.83165320853848e-04
4.04007692307692e+00 2.89953596948623e-02 1.83197616880873e-04
4.08423076923077e+00 2.88415571231240e-02 1.83218973999622e-04
4.12838461538462e+00 2.86885703797800e-02 1.83229623904223e-04
4.17253846153846e+00 2.85363951369897e-02 1.83229792626992e-04
4.21669230769231e+00 2.83850270906034e-02 1.83219700819721e-04
4.26084615384615e+00 2.82344619585818e-02 1.83199564050439e-04
4.30500000000000e+00 2.80846954819600e-02 1.83169592534060e-04
4.34915384615385e+00 2.79357234247088e-02 1.83129991935831e-04
4.39330769230769e+00 2.77875415725784e-02 1.83080963205742e-04
4.43746153846154e+00 2.76401457340187e-02 1.83022702409968e-04
4.48161538461538e+00 2.74935317400427e-02 1.82955401497529e-04
4.52576923076923e+00 2.73476954431164e-02 1.82879248025336e-04
4.56992307692308e+00 2.72026327183554e-02 1.82794425379040e-04
4.61407692307692e+00 2.70583394621173e-02 1.82701113009399e-04
4.65823076923077e+00 2.69148115928463e-02 1.82599486148684e-04
4.70238461538462e+00 2.67720450509426e-02 1.82489716518812e-04
4.74653846153846e+00 2.66300357977277e-02 1.82371972053010e-04
4.79069230769231e+00 2.64887798165474e-02 1.82246417088286e-04
4.83484615384615e+00 2.63482731114622e-02 1.82113212573238e-04
4.87900000000000e+00 2.62085117080246e-02 1.81972515783981e-04
4.92315384615385e+00 2.60694916531529e-02 1.81824480981976e-04
4.96730769230769e+00 2.59312090141658e-02 1.81669259225342e-04
5.01146153846154e+00 2.57936598795270e-02 1.81506998179811e-04
5.05561538461538e+00 2.56568403587208e-02 1.81337842752009e-04
5.09976923076923e+00 2.55207465813223e-02 1.81161934810870e-04
5.14392307692308e+00 2.53853746979741e-02 1.80979413346620e-04
5.18807692307692e+00 2.52507208792088e-02 1.80790414644418e-04
5.23223076923077e+00 2.51167813161365e-02 1.80595072003211e-04
5.27638461538462e+00 2.49835522203252e-02 1.80393516328284e-04
5.32053846153846e+00 2.48510298229294e-02 1.80185875857155e-04
5.36469230769231e+00 2.47192103755955e-02 1.79972276301919e-04
5.40884615384615e+00 2.45880901493602e-02 1.79752841005694e-04
5.45300000000000e+00 2.44576654352867e-02 1.79527690667212e-04
5.49715384615385e+00 2.43279325443485e-02 1.79296943897237e-04
5.54130769230769e+00 2.41988878066130e-02 1.79060717029213e-04
5.58546153846154e+00 2.40705275718517e-02 1.78819123930679e-04
5.62961538461539e+00 2.39428482094263e-02 1.78572276541791e-04
5.67376923076923e+00 2.38158461074998e-02 1.78320284609248e-04
5.71792307692308e+00 2.36895176738440e-02 1.78063255808259e-04
5.76207692307692e+00 2.35638593348420e-02 1.77801295877663e-04
5.80623076923077e+00 2.34388675360545e-02 1.77534508353929e-04
5.85038461538462e+00 2.33145387421100e-02 1.77262995079177e-04
5.89453846153846e+00 2.31908694359623e-02 1.76986855942429e-04
5.93869230769231e+00 2.30678561196419e-02 1.76706188990885e-04
5.98284615384615e+00 2.29454953133195e-02 1.76421090553809e-04
6.02700000000000e+00 2.28237835558314e-02 1.76131654984392e-04
6.07115384615385e+00 2.27027174045737e-02 1.75837975140083e-04
6.11530769230769e+00 2.25822934348024e-02 1.75540142201729e-04
6.15946153846154e+00 2.24625082401405e-02 1.75238245493922e-04
6.20361538461538e+00 2.23433584324728e-02 1.74932372951485e-04
6.24776923076923e+00 2.22248406412688e-02 1.74622610871734e-04
6.29192307692308e+00 2.21069515142581e-02 1.74309044012277e-04
6.33607692307692e+00 2.19896877165765e-02 1.73991755700508e-04
6.38023076923077e+00 2.18730459312370e-02 1.73670827587122e-04
6.42438461538462e+00 2.17570228590286e-02 1.73346340088534e-04
6.46853846153846e+00 2.16416152178775e-02 1.73018372147274e-04
6.51269230769231e+00 2.15268197434770e-02 1.72687001322406e-04
6.55684615384615e+00 2.14126331884829e-02 1.72352303891148e-04
6.60100000000000e+00 2.12990523229530e-02 1.72014354610750e-04
6.64515384615385e+00 2.11860739342479e-02 1.71673227138717e-04
6.68930769230769e+00 2.10736948264285e-02 1.71328993863946e-04
6.73346153846154e+00 2.09619118206787e-02 1.70981725739254e-04
6.77761538461538e+00 2.08507217552090e-02 1.70631492690409e-04
6.82176923076923e+00 2.07401214846710e-02 1.70278363388298e-04
6.86592307692308e+00 2.06301078807261e-02 1.69922405329857e-04
6.91007692307692e+00 2.05206778313086e-02 1.69563684929360e-04
6.95423076923077e+00 2.04118282410210e-02 1.69202267292251e-04
6.99838461538462e+00 2.03035560310404e-02 1.68838216604608e-04
7.04253846153846e+00 2.01958581385640e-02 1.68471595913293e-04
7.08669230769231e+00 2.00887315173423e-02 1.68102467201526e-04
7.13084615384615e+00 1.99821731369813e-02 1.67730891474337e-04
7.17500000000000e+00 1.98761799833133e-02 1.67356928540505e-04
7.21915384615385e+00 1.97707490583050e-02 1.66980637383769e-04
7.26330769230769e+00 1.96658773795329e-02 1.66602076006898e-04
7.30746153846154e+00 1.95615619805401e-02 1.66221301277224e-04
7.35161538461538e+00 1.94577999107465e-02 1.65838369288541e-04
7.39576923076923e+00 1.93545882349392e-02 1.65453335152694e-04
7.43992307692308e+00 1.92519240337550e-02 1.65066253068110e-04
7.48407692307692e+00 1.91498044030397e-02 1.64677176397556e-04
7.52823076923077e+00 1.90482264541822e-02 1.64286157461576e-04
7.57238461538462e+00 1.89471873140275e-02 1.63893247883923e-04
7.61653846153846e+00 1.88466841243930e-02 1.63498498390815e-04
7.66069230769231e+00 1.87467140425214e-02 1.63101958875372e-04
7.70484615384615e+00 1.86472742404735e-02 1.62703678470800e-04
7.74900000000000e+00 1.85483619054413e-02 1.62303705351458e-04
7.79315384615385e+00 1.84499742396634e-02 1.61902087062915e-04
7.83730769230769e+00 1.83521084599656e-02 1.61498870378924e-04
7.88146153846154e+00 1.82547617980635e-02 1.61094101159744e-04
7.92561538461538e+00 1.81579315004794e-02 1.60687824674332e-04
7.96976923076923e+00 1.80616148280955e-02 1.60280085410322e-04
8.01392307692308e+00 1.79658090565656e-02 1.59870927133035e-04
8.05807692307692e+00 1.78705114757554e-02 1.59460392952622e-04
8.10223076923077e+00 1.77757193900259e-02 1.59048525135871e-04
8.14638461538462e+00 1.76814301181529e-02 1.58635365414419e-04
8.19053846153846e+00 1.75876409929019e-02 1.58220954801781e-04
8.23469230769231e+00 1.74943493614161e-02 1.57805333649084e-04
8.27884615384615e+00 1.74015525846838e-02 1.57388541708635e-04
8.32300000000000e+00 1.73092480378052e-02 1.56970617952722e-04
8.36715384615385e+00 1.72174331099135e-02 1.56551600868628e-04
8.41130769230769e+00 1.71261052037713e-02 1.56131528327818e-04
8.45546153846154e+00 1.70352617360281e-02 1.55710437456384e-04
8.49961538461539e+00 1.69449001371427e-02 1.55288364923287e-04
8.54376923076923e+00 1.68550178509906e-02 1.54865346767319e-04
8.58792307692308e+00 1.67656123352167e-02 1.54441418448516e-04
8.63207692307692e+00 1.66766810607432e-02 1.54016614906851e-04
8.67623076923077e+00 1.65882215120119e-02 1.53590970390909e-04
8.72038461538462e+00 1.65002311869091e-02 1.53164518734064e-04
8.76453846153846e+00 1.64127075963907e-02 1.52737293187889e-04
8.80869230769231e+00 1.63256482648158e-02 1.52309326470911e-04
8.85284615384615e+00 1.62390507294773e-02 1.51880650824358e-04
8.89700000000000e+00 1.61529125408304e-02 1.51451297847202e-04
8.94115384615385e+00 1.60672312624194e-02 1.51021298760944e-04
8.98530769230769e+00 1.59820044705206e-02 1.50590684290140e-04
9.02946153846154e+00 1.58972297543627e-02 1.50159484544118e-04
9.07361538461539e+00 1.58129047160552e-02 1.49727729275841e-04
9.11776923076923e+00 1.57290269702404e-02 1.49295447724371e-04
9.16192307692308e+00 1.56455941443978e-02 1.48862668660106e-04
9.20607692307692e+00 1.55626038784095e-02 1.48429420436481e-04
9.25023076923077e+00 1.54800538247678e-02 1.47995730834059e-04
9.29438461538462e+00 1.53979416485054e-02 1.47561627308899e-04
9.33853846153846e+00 1.53162650268636e-02 1.47127136840838e-04
9.38269230769231e+00 1.52350216495796e-02 1.46692285976569e-04
9.42684615384615e+00 1.51542092184719e-02 1.46257100878861e-04
9.47100000000000e+00 1.50738254476361e-02 1.45821607176395e-04
9.51515384615385e+00 1.49938680633775e-02 1.45385830202198e-04
9.55930769230769e+00 1.49143348038931e-02 1.44949794884611e-04
9.60346153846154e+00 1.48352234194621e-02 1.44513525639324e-04
9.64761538461538e+00 1.47565316723786e-02 1.44077046602591e-04
9.69176923076923e+00 1.46782573366426e-02 1.43640381487793e-04
9.73592307692308e+00 1.46003981982237e-02 1.43203553625535e-04
9.78007692307692e+00 1.45229520546753e-02 1.42766586009499e-04
9.82423076923077e+00 1.44459167153139e-02 1.42329501154487e-04
9.86838461538462e+00 1.43692900011536e-02 1.41892321320456e-04
9.91253846153846e+00 1.42930697446112e-02 1.41455068374306e-04
9.95669230769231e+00 1.42172537897551e-02 1.41017763828145e-04
1.00008461538462e+01 1.41418399919373e-02 1.40580428952348e-04
1.00450000000000e+01 1.40668262178129e-02 1.40143084293070e-04
1.00891538461538e+01 1.39922103460217e-02 1.39705750610046e-04
1.01333076923077e+01 1.39179902651997e-02 1.39268447960266e-04
1.01774615384615e+01 1.38441638766499e-02 1.38831196162169e-04
1.02216153846154e+01 1.37707290913533e-02 1.38394014728716e-04
1.02657692307692e+01 1.36976838328131e-02 1.37956922838526e-04
1.03099230769231e+01 1.36250260341188e-02 1.37519939373938e-04
1.03540769230769e+01 1.35527536407387e-02 1.37083082567349e-04
1.03982307692308e+01 1.34808646083261e-02 1.36646371341144e-04
1.04423846153846e+01 1.34093569027002e-02 1.36209823330828e-04
1.04865384615385e+01 1.33382285018378e-02 1.35773456196211e-04
1.05306923076923e+01 1.32674773930860e-02 1.35337287322341e-04
1.05748461538462e+01 1.31971015758110e-02 1.34901333792104e-04
1.06190000000000e+01 1.31270990586601e-02 1.34465612421824e-04
1.06631538461538e+01 1.30574678621624e-02 1.34030139734162e-04
1.07073076923077e+01 1.29882060160398e-02 1.33594931993106e-04
1.07514615384615e+01 1.29193115617607e-02 1.33160005177196e-04
1.07956153846154e+01 1.28507825498984e-02 1.32725375013933e-04
1.08397692307692e+01 1.27826170426394e-02 1.32291056953335e-04
1.08839230769231e+01 1.27148131111875e-02 1.31857066201781e-04
1.09280769230769e+01 1.26473688382280e-02 1.31423417400491e-04
1.09722307692308e+01 1.25802823159863e-02 1.30990125842057e-04
1.10163846153846e+01 1.25135516462077e-02 1.30557205674362e-04
1.10605384615385e+01 1.24471749419160e-02 1.30124671091183e-04
1.11046923076923e+01 1.23811503249453e-02 1.29692536060012e-04
1.11488461538462e+01 1.23154759282808e-02 1.29260814296897e-04
1.11930000000000e+01 1.22501498936327e-02 1.28829519298156e-04
1.12371538461538e+01 1.21851703737364e-02 1.28398664315584e-04
1.12813076923077e+01 1.21205355299681e-02 1.27968262387669e-04
1.13254615384615e+01 1.20562435346043e-02 1.27538326315029e-04
1.13696153846154e+01 1.19922925684790e-02 1.27108868691143e-04
1.14137692307692e+01 1.19286808232033e-02 1.26679901878132e-04
1.14579230769231e+01 1.18654064988628e-02 1.26251438036986e-04
1.15020769230769e+01 1.18024678061988e-02 1.25823488834903e-04
1.15462307692308e+01 1.17398629648853e-02 1.25396066551381e-04
1.15903846153846e+01 1.16775902035075e-02 1.24969182444261e-04
1.16345384615385e+01 1.16156477611199e-02 1.24542847832369e-04
1.16786923076923e+01 1.15540338850539e-02 1.24117073847480e-04
1.17228461538462e+01 1.14927468329926e-02 1.23691871411281e-04
1.17670000000000e+01 1.14317848708151e-02 1.23267251263793e-04
1.18111538461538e+01 1.13711462746357e-02 1.22843223940600e-04
1.18553076923077e+01 1.13108293286852e-02 1.22419799800839e-04
1.18994615384615e+01 1.12508323273143e-02 1.21996989004704e-04
1.19436153846154e+01 1.11911535729110e-02 1.21574801540960e-04
1.19877692307692e+01 1.11317913778694e-02 1.21153247204780e-04
1.20319230769231e+01 1.10727440625429e-02 1.20732335624816e-04
1.20760769230769e+01 1.10140099571781e-02 1.20312075996560e-04
1.21202307692308e+01 1.09555874003835e-02 1.19892478089327e-04
1.21643846153846e+01 1.08974747391065e-02 1.19473550757930e-04
1.22085384615385e+01 1.08396703300172e-02 1.19055302928454e-04
1.22526923076923e+01 1.07821725375563e-02 1.18637743372003e-04
1.22968461538462e+01 1.07249797357783e-02 1.18220880683632e-04
1.23410000000000e+01 1.06680903064323e-02 1.17804723307829e-04
1.23851538461538e+01 1.06115026407733e-02 1.17389279517681e-04
1.24293076923077e+01 1.05552151376754e-02 1.16974557440002e-04
1.24734615384615e+01 1.04992262054124e-02 1.16560565034757e-04
1.25176153846154e+01 1.04435342598020e-02 1.16147310119790e-04
1.25617692307692e+01 1.03881377259566e-02 1.15734800350491e-04
1.26059230769231e+01 1.03330350364584e-02 1.15323043244183e-04
1.26500769230769e+01 1.02782246330805e-02 1.14912045936881e-04
1.26942307692308e+01 1.02237049654198e-02 1.14501816101127e-04
1.27383846153846e+01 1.01694744908756e-02 1.14092360588842e-04
1.27825384615385e+01 1.01155316758794e-02 1.13683686329954e-04
1.28266923076923e+01 1.00618749941547e-02 1.13275800125816e-04
1.28708461538462e+01 1.00085029283568e-02 1.12868708629889e-04
1.29150000000000e+01 9.95541396836043e-03 1.12462418370724e-04
1.29591538461538e+01 9.90260661287294e-03 1.12056935732864e-04
1.30033076923077e+01 9.85007936774971e-03 1.11652266979484e-04
1.30474615384615e+01 9.79783074758015e-03 1.11248418233535e-04
1.30916153846154e+01 9.74585927403108e-03 1.10845395500023e-04
1.31357692307692e+01 9.69416347740610e-03 1.10443204647404e-04
1.31799230769231e+01 9.64274189501610e-03 1.10041851429544e-04
1.32240769230769e+01 9.59159307271265e-03 1.09641341263672e-04
1.32682307692308e+01 9.54071556366706e-03 1.09241680067841e-04
1.33123846153846e+01 9.49010792834835e-03 1.08842873022116e-04
1.33565384615385e+01 9.43976873562040e-03 1.08444925388626e-04
1.34006923076923e+01 9.38969656118555e-03 1.08047842322806e-04
1.34448461538462e+01 9.33988998904783e-03 1.07651628855698e-04
1.34890000000000e+01 9.29034760998171e-03 1.07256289914681e-04
1.35331538461538e+01 9.24106802297119e-03 1.06861830305971e-04
1.35773076923077e+01 9.19204983370338e-03 1.06468254735069e-04
1.36214615384615e+01 9.14329165598380e-03 1.06075567789497e-04
1.36656153846154e+01 9.09479211025434e-03 1.05683773958913e-04
1.37097692307692e+01 9.04654982498530e-03 1.05292877618064e-04
1.37539230769231e+01 8.99856343521717e-03 1.04902883046637e-04
1.37980769230769e+01 8.95083158392990e-03 1.04513794226335e-04
1.38422307692308e+01 8.90335292094973e-03 1.04125615605761e-04
1.38863846153846e+01 8.85612610292757e-03 1.03738350968609e-04
1.39305384615385e+01 8.80914979431897e-03 1.03352004182702e-04
