Energy (eV)          EEDF (eV^-(3/2))     First Anisotropy
8.81355932203390e-05 2.15150719381913e+02 3.96480649056419e-02
2.64406779661017e-04 2.13895551092397e+02 6.54994471937203e-02
4.40677966101695e-04 2.12647705332275e+02 8.65441434619568e-02
6.16949152542373e-04 2.11407139382785e+02 1.02579197102557e-01
7.93220338983051e-04 2.10173810773808e+02 1.15991788797478e-01
9.69491525423729e-04 2.08947677283645e+02 1.27683110228243e-01
1.14576271186441e-03 2.07728696936269e+02 1.38118857323095e-01
1.32203389830508e-03 2.06516828000714e+02 1.47579855175345e-01
1.49830508474576e-03 2.05312028991142e+02 1.56252092733515e-01
1.67457627118644e-03 2.04114258660951e+02 1.64266841296610e-01
1.85084745762712e-03 2.02923476006547e+02 1.71721140818954e-01
2.02711864406780e-03 2.01739640261557e+02 1.78689303655419e-01
2.20338983050847e-03 2.00562710898417e+02 1.85229847617417e-01
2.37966101694915e-03 1.99392647626748e+02 1.91389906587500e-01
2.55593220338983e-03 1.98229410389715e+02 1.97208163645562e-01
2.73220338983051e-03 1.97072959364912e+02 2.02716872144232e-01
2.90847457627119e-03 1.95923254962858e+02 2.07943289170669e-01
3.08474576271186e-03 1.94780257823830e+02 2.12910720226349e-01
3.26101694915254e-03 1.93643928818321e+02 2.17639296787095e-01
3.43728813559322e-03 1.92514229045600e+02 2.22146564893820e-01
3.61355932203390e-03 1.91391119830883e+02 2.26447939970002e-01
3.78983050847458e-03 1.90274562725507e+02 2.30557062885870e-01
3.96610169491525e-03 1.89164519505537e+02 2.34486081296442e-01
4.14237288135593e-03 1.88060952169185e+02 2.38245876365958e-01
4.31864406779661e-03 1.86963822937155e+02 2.41846246259923e-01
4.49491525423729e-03 1.85873094249811e+02 2.45296056278504e-01
4.67118644067797e-03 1.84788728767005e+02 2.48603363463275e-01
4.84745762711864e-03 1.83710689366755e+02 2.51775519426900e-01
5.02372881355932e-03 1.82638939142992e+02 2.54819257406929e-01
5.20000000000000e-03 1.81573441405279e+02 2.57740765883711e-01
5.37627118644068e-03 1.80514159677516e+02 2.60545750368934e-01
5.55254237288136e-03 1.79461057695824e+02 2.63239486981529e-01
5.72881355932203e-03 1.78414099408171e+02 2.65826868580482e-01
5.90508474576271e-03 1.77373248973108e+02 2.68312443883914e-01
6.08135593220339e-03 1.76338470757763e+02 2.70700452139587e-01
6.25762711864407e-03 1.75309729337403e+02 2.72994853421536e-01
6.43389830508475e-03 1.74286989494193e+02 2.75199354459333e-01
6.61016949152542e-03 1.73270216215286e+02 2.77317432093236e-01
6.78644067796610e-03 1.72259374692544e+02 2.79352353664365e-01
6.96271186440678e-03 1.71254430320470e+02 2.81307195024644e-01
7.13898305084746e-03 1.70255348695665e+02 2.83184856947467e-01
7.31525423728814e-03 1.69262095615633e+02 2.84988079053023e-01
7.49152542372881e-03 1.68274637077017e+02 2.86719452863365e-01
7.66779661016949e-03 1.67292939275031e+02 2.88381433545052e-01
7.84406779661017e-03 1.66316968602283e+02 2.89976349862647e-01
8.02033898305085e-03 1.65346691647081e+02 2.91506413727540e-01
8.19661016949153e-03 1.64382075192834e+02 2.92973728859157e-01
8.37288135593220e-03 1.63423086216902e+02 2.94380298052224e-01
8.54915254237288e-03 1.62469691888959e+02 2.95728030325762e-01
8.72542372881356e-03 1.61521859570378e+02 2.97018747454774e-01
8.90169491525424e-03 1.60579556813094e+02 2.98254189372317e-01
9.07796610169492e-03 1.59642751358035e+02 2.99436019691496e-01
9.25423728813559e-03 1.58711411134621e+02 3.00565830496668e-01
9.43050847457627e-03 1.57785504259080e+02 3.01645146707021e-01
9.60677966101695e-03 1.56864999033795e+02 3.02675430394131e-01
9.78305084745763e-03 1.55949863946200e+02 3.03658084191352e-01
9.95932203389831e-03 1.55040067667302e+02 3.04594455082905e-01
1.01355932203390e-02 1.54135579051393e+02 3.05485837184157e-01
1.03118644067797e-02 1.53236367133578e+02 3.06333474949302e-01
1.04881355932203e-02 1.52342401130123e+02 3.07138566298667e-01
1.06644067796610e-02 1.51453650436881e+02 3.07902264561261e-01
1.08406779661017e-02 1.50570084628246e+02 3.08625681053241e-01
1.10169491525424e-02 1.49691673456117e+02 3.09309887766460e-01
1.11932203389831e-02 1.48818386849967e+02 3.09955917922354e-01
1.13694915254237e-02 1.47950194912451e+02 3.10564768858855e-01
1.15457627118644e-02 1.47087067921775e+02 3.11137404837512e-01
1.17220338983051e-02 1.46228976329542e+02 3.11674757181538e-01
1.18983050847458e-02 1.45375890759731e+02 3.12177726339675e-01
1.20745762711864e-02 1.44527782007701e+02 3.12647183343989e-01
1.22508474576271e-02 1.43684621039189e+02 3.13083971173753e-01
1.24271186440678e-02 1.42846378989314e+02 3.13488906485763e-01
1.26033898305085e-02 1.42013027162536e+02 3.13862779474110e-01
1.27796610169492e-02 1.41184537028813e+02 3.14206355890777e-01
1.29559322033898e-02 1.40360880225509e+02 3.14520379032486e-01
1.31322033898305e-02 1.39542028555450e+02 3.14805569376166e-01
1.33084745762712e-02 1.38727953985960e+02 3.15062625983789e-01
1.34847457627119e-02 1.37918628647907e+02 3.15292227395523e-01
1.36610169491525e-02 1.37114024834740e+02 3.15495032883200e-01
1.38372881355932e-02 1.36314115002375e+02 3.15671682017520e-01
1.40135593220339e-02 1.35518871765752e+02 3.15822796238298e-01
1.41898305084746e-02 1.34728267900411e+02 3.15948980408730e-01
1.43661016949153e-02 1.33942276340717e+02 3.16050822241925e-01
1.45423728813559e-02 1.33160870178931e+02 3.16128893361556e-01
1.47186440677966e-02 1.32384022664293e+02 3.16183749911654e-01
1.48949152542373e-02 1.31611707202105e+02 3.16215933510964e-01
1.50711864406780e-02 1.30843897353544e+02 3.16225970671029e-01
1.52474576271186e-02 1.30080566832566e+02 3.16214374070177e-01
1.54237288135593e-02 1.29321689507216e+02 3.16181643819585e-01
1.56000000000000e-02 1.28567239397989e+02 3.16128266789912e-01
1.57762711864407e-02 1.27817190676939e+02 3.16054717445311e-01
1.59525423728814e-02 1.27071517666802e+02 3.15961458274474e-01
1.61288135593220e-02 1.26330194840109e+02 3.15848940200031e-01
1.63050847457627e-02 1.25593196818318e+02 3.15717603314629e-01
1.64813559322034e-02 1.24860498371576e+02 3.15567876219769e-01
1.66576271186441e-02 1.24132074415943e+02 3.15400177070943e-01
1.68338983050847e-02 1.23407900014456e+02 3.15214914618885e-01
1.70101694915254e-02 1.22687950375635e+02 3.15012487489577e-01
1.71864406779661e-02 1.21972200852628e+02 3.14793284846993e-01
1.73627118644068e-02 1.21260626942372e+02 3.14557686692122e-01
1.75389830508475e-02 1.20553204284754e+02 3.14306064467594e-01
1.77152542372881e-02 1.19849908662337e+02 3.14038780374661e-01
1.78915254237288e-02 1.19150715997831e+02 3.13756188274153e-01
1.80677966101695e-02 1.18455602354982e+02 3.13458634584876e-01
1.82440677966102e-02 1.17764543937179e+02 3.13146457559022e-01
1.84203389830509e-02 1.17077517086637e+02 3.12819987838237e-01
1.85966101694915e-02 1.16394498283587e+02 3.12479548677434e-01
1.87728813559322e-02 1.15715464145474e+02 3.12125456454932e-01
1.89491525423729e-02 1.15040391426660e+02 3.11758019990022e-01
1.91254237288136e-02 1.14369257016101e+02 3.11377541333996e-01
1.93016949152542e-02 1.13702037938093e+02 3.10984316558925e-01
1.94779661016949e-02 1.13038711350971e+02 3.10578635045891e-01
1.96542372881356e-02 1.12379254546323e+02 3.10160779961079e-01
1.98305084745763e-02 1.11723644948219e+02 3.09731028427107e-01
2.00067796610170e-02 1.11071860112433e+02 3.09289651687094e-01
2.01830508474576e-02 1.10423877725677e+02 3.08836915535638e-01
2.03593220338983e-02 1.09779675605287e+02 3.08373079652264e-01
2.05355932203390e-02 1.09139231697103e+02 3.07898398295593e-01
2.07118644067797e-02 1.08502524076084e+02 3.07413120995251e-01
2.08881355932203e-02 1.07869530945097e+02 3.06917491864229e-01
2.10644067796610e-02 1.07240230634171e+02 3.06411750007706e-01
2.12406779661017e-02 1.06614601599757e+02 3.05896129651156e-01
2.14169491525424e-02 1.05992622423986e+02 3.05370860517594e-01
2.15932203389831e-02 1.05374271814350e+02 3.04836167183917e-01
2.17694915254237e-02 1.04759528601736e+02 3.04292269706473e-01
2.19457627118644e-02 1.04148371740944e+02 3.03739384244071e-01
2.21220338983051e-02 1.03540780309549e+02 3.03177722398578e-01
2.22983050847458e-02 1.02936733507186e+02 3.02607491576308e-01
2.24745762711864e-02 1.02336210654836e+02 3.02028895089781e-01
2.26508474576271e-02 1.01739191194120e+02 3.01442132255508e-01
2.28271186440678e-02 1.01145654686594e+02 3.00847398724486e-01
2.30033898305085e-02 1.00555580813417e+02 3.00244885867458e-01
2.31796610169492e-02 9.99689493735488e+01 2.99634781336670e-01
2.33559322033898e-02 9.93857402841719e+01 2.99017269624664e-01
2.35322033898305e-02 9.88059335796286e+01 2.98392531438428e-01
2.37084745762712e-02 9.82295094107388e+01 2.97760744018387e-01
2.38847457627119e-02 9.76564480441210e+01 2.97122081217279e-01
2.40610169491525e-02 9.70867298615163e+01 2.96476713796421e-01
2.42372881355932e-02 9.65203353594490e+01 2.95824808839445e-01
2.44135593220339e-02 9.59572451475565e+01 2.95166530266494e-01
2.45898305084746e-02 9.53974399489338e+01 2.94502039345181e-01
2.47661016949153e-02 9.48409005991353e+01 2.93831494095551e-01
2.49423728813559e-02 9.42876080455186e+01 2.93155049578260e-01
2.51186440677966e-02 9.37375433465929e+01 2.92472857959038e-01
2.52949152542373e-02 9.31906876713701e+01 2.91785068776554e-01
2.54711864406780e-02 9.26470222990235e+01 2.91091828384808e-01
2.56474576271186e-02 9.21065286173321e+01 2.90393280426259e-01
2.58237288135593e-02 9.15691881229633e+01 2.89689566301258e-01
2.60000000000000e-02 9.10349824205312e+01 2.88980824603905e-01
2.61762711864407e-02 9.05038932219665e+01 2.88267191383758e-01
2.63525423728814e-02 8.99759023458907e+01 2.87548800199069e-01
2.65288135593220e-02 8.94509917169940e+01 2.86825782168171e-01
2.67050847457627e-02 8.89291433654160e+01 2.86098266211032e-01
2.68813559322034e-02 8.84103394264050e+01 2.85366378522982e-01
2.70576271186441e-02 8.78945621388790e+01 2.84630243007480e-01
2.72338983050847e-02 8.73817938456497e+01 2.83889981705077e-01
2.74101694915254e-02 8.68720169925390e+01 2.83145714262417e-01
2.75864406779661e-02 8.63652141277779e+01 2.82397558169104e-01
2.77627118644068e-02 8.58613679014097e+01 2.81645628800642e-01
2.79389830508475e-02 8.53604610646954e+01 2.80890039639577e-01
2.81152542372881e-02 8.48624764697753e+01 2.80130901776702e-01
2.82915254237288e-02 8.43673970683226e+01 2.79368324312452e-01
2.84677966101695e-02 8.38752059117230e+01 2.78602414754284e-01
2.86440677966102e-02 8.33858861502391e+01 2.77833278514223e-01
2.88203389830508e-02 8.28994210324324e+01 2.77061019126500e-01
2.89966101694915e-02 8.24157939045914e+01 2.76285738283816e-01
2.91728813559322e-02 8.19349882101604e+01 2.75507536040908e-01
2.93491525423729e-02 8.14569874894042e+01 2.74726510342022e-01
2.95254237288136e-02 8.09817753781476e+01 2.73942757394250e-01
2.97016949152542e-02 8.05093356079155e+01 2.73156372036635e-01
2.98779661016949e-02 8.00396520051421e+01 2.72367447265090e-01
3.00542372881356e-02 7.95727084906161e+01 2.71576074433118e-01
3.02305084745763e-02 7.91084890789306e+01 2.70782343282589e-01
3.04067796610170e-02 7.86469778779364e+01 2.69986341973407e-01
3.05830508474576e-02 7.81881590881974e+01 2.69188157269918e-01
3.07593220338983e-02 7.77320170026606e+01 2.68387874096563e-01
3.09355932203390e-02 7.72785360054828e+01 2.67585575882836e-01
3.11118644067797e-02 7.68277005721351e+01 2.66781344904001e-01
3.12881355932203e-02 7.63794952686571e+01 2.65975261834735e-01
3.14644067796610e-02 7.59339047511282e+01 2.65167405933493e-01
3.16406779661017e-02 7.54909137651432e+01 2.64357855068009e-01
3.18169491525424e-02 7.50505071452895e+01 2.63546685887862e-01
3.19932203389831e-02 7.46126698148224e+01 2.62733973404040e-01
3.21694915254237e-02 7.41773867845626e+01 2.61919791311263e-01
3.23457627118644e-02 7.37446431529729e+01 2.61104212305990e-01
3.25220338983051e-02 7.33144241054499e+01 2.60287307664509e-01
3.26983050847458e-02 7.28867149138172e+01 2.59469147413985e-01
3.28745762711864e-02 7.24615009358209e+01 2.58649800354453e-01
3.30508474576271e-02 7.20387676146290e+01 2.57829334080095e-01
3.32271186440678e-02 7.16185004783325e+01 2.57007815138544e-01
3.34033898305085e-02 7.12006851396276e+01 2.56185308635453e-01
3.35796610169492e-02 7.07853072947877e+01 2.55361878533776e-01
3.37559322033898e-02 7.03723527237120e+01 2.54537587948548e-01
3.39322033898305e-02 6.99618072892586e+01 2.53712498750766e-01
3.41084745762712e-02 6.95536569367600e+01 2.52886671725338e-01
3.42847457627119e-02 6.91478876935425e+01 2.52060166589457e-01
3.44610169491525e-02 6.87444856684475e+01 2.51233042140974e-01
3.46372881355932e-02 6.83434370515204e+01 2.50405355884324e-01
3.48135593220339e-02 6.79447281130423e+01 2.49577164311027e-01
3.49898305084746e-02 6.75483452035582e+01 2.48748523175865e-01
3.51661016949153e-02 6.71542747532423e+01 2.47919487122216e-01
3.53423728813559e-02 6.67625032714341e+01 2.47090109829464e-01
3.55186440677966e-02 6.63730173461763e+01 2.46260444029081e-01
3.56949152542373e-02 6.59858036437554e+01 2.45430541643083e-01
3.58711864406780e-02 6.56008489083980e+01 2.44600453430029e-01
3.60474576271186e-02 6.52181399613576e+01 2.43770229248335e-01
3.62237288135593e-02 6.48376637009249e+01 2.42939918315295e-01
3.64000000000000e-02 6.44594071018246e+01 2.42109568852795e-01
3.65762711864407e-02 6.40833572147696e+01 2.41279228224962e-01
3.67525423728814e-02 6.37095011660177e+01 2.40448942952318e-01
3.69288135593220e-02 6.33378261569308e+01 2.39618758725424e-01
3.71050847457627e-02 6.29683194635369e+01 2.38788720533506e-01
3.72813559322034e-02 6.26009684362342e+01 2.37958872331550e-01
3.74576271186441e-02 6.22357604989363e+01 2.37129257285828e-01
3.76338983050847e-02 6.18726831490660e+01 2.36299918015254e-01
3.78101694915254e-02 6.15117239569845e+01 2.35470896258485e-01
3.79864406779661e-02 6.11528705655664e+01 2.34642233001803e-01
3.81627118644068e-02 6.07961106897766e+01 2.33813968491207e-01
3.83389830508475e-02 6.04414321162497e+01 2.32986142352797e-01
3.85152542372881e-02 6.00888227030019e+01 2.32158793277647e-01
3.86915254237288e-02 5.97382703786232e+01 2.31331959252838e-01
3.88677966101695e-02 5.93897631422586e+01 2.30505677788309e-01
3.90440677966102e-02 5.90432890630645e+01 2.29679985601909e-01
3.92203389830508e-02 5.86988362798008e+01 2.28854918739256e-01
3.93966101694915e-02 5.83563930004248e+01 2.28030512584424e-01
3.95728813559322e-02 5.80159475016873e+01 2.27206801972936e-01
3.97491525423729e-02 5.76774881288523e+01 2.26383820893304e-01
3.99254237288136e-02 5.73410032949335e+01 2.25561602704593e-01
4.01016949152542e-02 5.70064814806641e+01 2.24740180349907e-01
4.02779661016949e-02 5.66739112339795e+01 2.23919586058350e-01
4.04542372881356e-02 5.63432811696252e+01 2.23099851457434e-01
4.06305084745763e-02 5.60145799687672e+01 2.22281007582591e-01
4.08067796610170e-02 5.56877963786045e+01 2.21463084886354e-01
4.09830508474576e-02 5.53629192119839e+01 2.20646113343704e-01
4.11593220338983e-02 5.50399373471283e+01 2.19830122171320e-01
4.13355932203390e-02 5.47188397269200e+01 2.19015140031112e-01
4.15118644067797e-02 5.43996153588602e+01 2.18201195229743e-01
4.16881355932203e-02 5.40822533145790e+01 2.17388315438284e-01
4.18644067796610e-02 5.37667427294616e+01 2.16576527797232e-01
4.20406779661017e-02 5.34530728022762e+01 2.15765858924676e-01
4.22169491525424e-02 5.31412327948044e+01 2.14956335015314e-01
4.23932203389831e-02 5.28312120315775e+01 2.14147981574490e-01
4.25694915254237e-02 5.25229998991976e+01 2.13340823610142e-01
4.27457627118644e-02 5.22165858462893e+01 2.12534885820926e-01
4.29220338983051e-02 5.19119593830328e+01 2.11730192330740e-01
4.30983050847458e-02 5.16091100808048e+01 2.10926766787424e-01
4.32745762711864e-02 5.13080275718218e+01 2.10124632370140e-01
4.34508474576271e-02 5.10087015487845e+01 2.09323811796401e-01
4.36271186440678e-02 5.07111217645259e+01 2.08524327414669e-01
4.38033898305085e-02 5.04152780317554e+01 2.07726200954034e-01
4.39796610169492e-02 5.01211602224217e+01 2.06929453704044e-01
4.41559322033898e-02 4.98287582676564e+01 2.06134106690795e-01
4.43322033898305e-02 4.95380621573315e+01 2.05340180427236e-01
4.45084745762712e-02 4.92490619397175e+01 2.04547695005420e-01
4.46847457627119e-02 4.89617477211421e+01 2.03756670102850e-01
4.48610169491525e-02 4.86761096656517e+01 2.02967125069657e-01
4.50372881355932e-02 4.83921379947642e+01 2.02179078691329e-01
4.52135593220339e-02 4.81098229868646e+01 2.01392549358594e-01
4.53898305084746e-02 4.78291549771430e+01 2.00607555233635e-01
4.55661016949153e-02 4.75501243571731e+01 1.99824114013434e-01
4.57423728813559e-02 4.72727215745831e+01 1.99042243016748e-01
4.59186440677966e-02 4.69969371327289e+01 1.98261959189840e-01
4.60949152542373e-02 4.67227615903689e+01 1.97483279188655e-01
4.62711864406780e-02 4.64501855614242e+01 1.96706219153794e-01
4.64474576271186e-02 4.61791997144058e+01 1.95930794871118e-01
4.66237288135593e-02 4.59097947723479e+01 1.95157021928755e-01
4.68000000000000e-02 4.56419615124053e+01 1.94384915492796e-01
4.69762711864407e-02 4.53756907655384e+01 1.93614490389263e-01
4.71525423728814e-02 4.51109734161985e+01 1.92845761109258e-01
4.73288135593220e-02 4.48478004020164e+01 1.92078741813980e-01
4.75050847457627e-02 4.45861627134918e+01 1.91313446411747e-01
4.76813559322034e-02 4.43260513937623e+01 1.90549888346066e-01
4.78576271186441e-02 4.40674575380634e+01 1.89788080746338e-01
4.80338983050847e-02 4.38103722936585e+01 1.89028036575144e-01
4.82101694915254e-02 4.35547868594567e+01 1.88269768417069e-01
4.83864406779661e-02 4.33006924857118e+01 1.87513288555525e-01
4.85627118644068e-02 4.30480804737230e+01 1.86758608977257e-01
4.87389830508475e-02 4.27969421755368e+01 1.86005741445041e-01
4.89152542372881e-02 4.25472689937231e+01 1.85254697296615e-01
4.90915254237288e-02 4.22990523808635e+01 1.84505487587318e-01
4.92677966101695e-02 4.20522838394769e+01 1.83758123229357e-01
4.94440677966102e-02 4.18069549216560e+01 1.83012614791490e-01
4.96203389830508e-02 4.15630572287776e+01 1.82268972571592e-01
4.97966101694915e-02 4.13205824112154e+01 1.81527206600720e-01
4.99728813559322e-02 4.10795221680537e+01 1.80787326711807e-01
5.01491525423729e-02 4.08398682468718e+01 1.80049342348895e-01
5.03254237288136e-02 4.06016124432561e+01 1.79313262702094e-01
5.05016949152542e-02 4.03647466007256e+01 1.78579096839349e-01
5.06779661016949e-02 4.01292626103832e+01 1.77846853516446e-01
5.08542372881356e-02 3.98951524106383e+01 1.77116541245510e-01
5.10305084745763e-02 3.96624079869308e+01 1.76388168298754e-01
5.12067796610170e-02 3.94310213714568e+01 1.75661742712041e-01
5.13830508474576e-02 3.92009846428959e+01 1.74937272349345e-01
5.15593220338983e-02 3.89722899262026e+01 1.74214764722928e-01
5.17355932203390e-02 3.87449293921475e+01 1.73494227120248e-01
5.19118644067797e-02 3.85188952572395e+01 1.72775666727775e-01
5.20881355932203e-02 3.82941797833956e+01 1.72059090451914e-01
5.22644067796610e-02 3.80707752776761e+01 1.71344504983353e-01
5.24406779661017e-02 3.78486740920211e+01 1.70631916800327e-01
5.26169491525424e-02 3.76278686229887e+01 1.69921332229566e-01
5.27932203389831e-02 3.74083513115537e+01 1.69212757275580e-01
5.29694915254237e-02 3.71901146426713e+01 1.68506197740903e-01
5.31457627118644e-02 3.69731511451979e+01 1.67801659343297e-01
5.33220338983051e-02 3.67574533915760e+01 1.67099147545805e-01
5.34983050847458e-02 3.65430139975798e+01 1.66398667617613e-01
5.36745762711864e-02 3.63298256220621e+01 1.65700224637013e-01
5.38508474576271e-02 3.61178809667034e+01 1.65003823494263e-01
5.40271186440678e-02 3.59071727757619e+01 1.64309468948882e-01
5.42033898305085e-02 3.56976938358799e+01 1.63617165468671e-01
5.43796610169492e-02 3.54894369756716e+01 1.62926917342823e-01
5.45559322033898e-02 3.52823950656435e+01 1.62238728792162e-01
5.47322033898305e-02 3.50765610178952e+01 1.61552603808911e-01
5.49084745762712e-02 3.48719277858761e+01 1.60868546213883e-01
5.50847457627119e-02 3.46684883641447e+01 1.60186559659097e-01
5.52610169491525e-02 3.44662357881283e+01 1.59506647681996e-01
5.54372881355932e-02 3.42651631339366e+01 1.58828813552535e-01
5.56135593220339e-02 3.40652635179691e+01 1.58153060380423e-01
