Energy (eV)          EEDF (eV^-(3/2))     First Anisotropy
2.10483870967742e-02 5.40603131489638e-02 2.57484680668068e-05
6.31451612903226e-02 5.37603859765275e-02 4.25431156040025e-05
1.05241935483871e-01 5.34621228034239e-02 5.62282042468968e-05
1.47338709677419e-01 5.31655143962950e-02 6.66654319162890e-05
1.89435483870968e-01 5.28705515765165e-02 7.54038497438940e-05
2.31532258064516e-01 5.25772252139382e-02 8.30280041190138e-05
2.73629032258065e-01 5.22855262292560e-02 8.98398450127949e-05
3.15725806451613e-01 5.19954455936886e-02 9.60213857354673e-05
3.57822580645161e-01 5.17069743277290e-02 1.01693127511713e-04
3.99919354838710e-01 5.14201035035280e-02 1.06940088509719e-04
4.42016129032258e-01 5.11348242417700e-02 1.11825093467540e-04
4.84112903225806e-01 5.08511277124051e-02 1.16396235203671e-04
5.26209677419355e-01 5.05690051343918e-02 1.20691370394049e-04
5.68306451612903e-01 5.02884477749062e-02 1.24740979966175e-04
6.10403225806452e-01 5.00094469506474e-02 1.28570070573017e-04
6.52500000000000e-01 4.97319940259243e-02 1.32199484497894e-04
6.94596774193548e-01 4.94560804129565e-02 1.35646829115157e-04
7.36693548387097e-01 4.91816975716127e-02 1.38927153710478e-04
7.78790322580645e-01 4.89088370091481e-02 1.42053453058822e-04
8.20887096774194e-01 4.86374902796039e-02 1.45037049112673e-04
8.62983870967742e-01 4.83676489845696e-02 1.47887885486142e-04
9.05080645161290e-01 4.80993047718700e-02 1.50614757901386e-04
9.47177419354839e-01 4.78324493356682e-02 1.53225496690697e-04
9.89274193548387e-01 4.75670744162116e-02 1.55727113371601e-04
1.03137096774194e+00 4.73031717995740e-02 1.58125919320346e-04
1.07346774193548e+00 4.70407333183626e-02 1.60427623709808e-04
1.11556451612903e+00 4.67797508471368e-02 1.62637412786979e-04
1.15766129032258e+00 4.65202163102871e-02 1.64760017570889e-04
1.19975806451613e+00 4.62621216724209e-02 1.66799769830865e-04
1.24185483870968e+00 4.60054589471589e-02 1.68760649456855e-04
1.28395161290323e+00 4.57502201881370e-02 1.70646324837588e-04
1.32604838709677e+00 4.54963974972325e-02 1.72460186967062e-04
1.36814516129032e+00 4.52439830179841e-02 1.74205380425956e-04
1.41024193548387e+00 4.49929689357963e-02 1.75884827042030e-04
1.45233870967742e+00 4.47433474830456e-02 1.77501249433422e-04
1.49443548387097e+00 4.44951109316857e-02 1.79057190131655e-04
1.53653225806452e+00 4.42482515999647e-02 1.80555028541331e-04
1.57862903225806e+00 4.40027618454213e-02 1.81996995942429e-04
1.62072580645161e+00 4.37586340712282e-02 1.83385188368620e-04
1.66282258064516e+00 4.35158607210421e-02 1.84721579467084e-04
1.70491935483871e+00 4.32744342790537e-02 1.86008029184070e-04
1.74701612903226e+00 4.30343472740326e-02 1.87246294160960e-04
1.78911290322581e+00 4.27955922733866e-02 1.88438035774065e-04
1.83120967741935e+00 4.25581618885035e-02 1.89584827282094e-04
1.87330645161290e+00 4.23220487703526e-02 1.90688161569473e-04
1.91540322580645e+00 4.20872456094791e-02 1.91749455623978e-04
1.95750000000000e+00 4.18537451394547e-02 1.92770057012442e-04
1.99959677419355e+00 4.16215401317468e-02 1.93751248591597e-04
2.04169354838710e+00 4.13906234002920e-02 1.94694252962893e-04
2.08379032258065e+00 4.11609877965804e-02 1.95600236589666e-04
2.12588709677419e+00 4.09326262140260e-02 1.96470313262625e-04
2.16798387096774e+00 4.07055315843104e-02 1.97305548445799e-04
2.21008064516129e+00 4.04796968773276e-02 1.98106961001519e-04
2.25217741935484e+00 4.02551151040399e-02 1.98875526964354e-04
2.29427419354839e+00 4.00317793121600e-02 1.99612181959768e-04
2.33637096774194e+00 3.98096825899565e-02 2.00317823383609e-04
2.37846774193548e+00 3.95888180630300e-02 2.00993313499600e-04
2.42056451612903e+00 3.93691788942306e-02 2.01639480212832e-04
2.46266129032258e+00 3.91507582861652e-02 2.02257119816924e-04
2.50475806451613e+00 3.89335494773635e-02 2.02846998564850e-04
2.54685483870968e+00 3.87175457456237e-02 2.03409854277599e-04
2.58895161290323e+00 3.85027404043150e-02 2.03946397887030e-04
2.63104838709677e+00 3.82891268055964e-02 2.04457314631854e-04
2.67314516129032e+00 3.80766983376445e-02 2.04943266159859e-04
2.71524193548387e+00 3.78654484245549e-02 2.05404890586072e-04
2.75733870967742e+00 3.76553705284719e-02 2.05842804404143e-04
2.79943548387097e+00 3.74464581462728e-02 2.06257603378937e-04
2.84153225806452e+00 3.72387048124271e-02 2.06649863523220e-04
2.88362903225806e+00 3.70321040957877e-02 2.07020142055878e-04
2.92572580645161e+00 3.68266496023485e-02 2.07368978081957e-04
2.96782258064516e+00 3.66223349728343e-02 2.07696894136602e-04
3.00991935483871e+00 3.64191538825844e-02 2.08004395892022e-04
3.05201612903226e+00 3.62171000433884e-02 2.08291973585953e-04
3.09411290322581e+00 3.60161672005839e-02 2.08560102545241e-04
3.13620967741935e+00 3.58163491355269e-02 2.08809243646799e-04
3.17830645161290e+00 3.56176396634039e-02 2.09039844598820e-04
3.22040322580645e+00 3.54200326331109e-02 2.09252339516323e-04
3.26250000000000e+00 3.52235219289023e-02 2.09447150119227e-04
3.30459677419355e+00 3.50281014677497e-02 2.09624686093533e-04
3.34669354838710e+00 3.48337652015678e-02 2.09785345556610e-04
3.38879032258065e+00 3.46405071146500e-02 2.09929515533740e-04
3.43088709677419e+00 3.44483212258226e-02 2.10057572223251e-04
3.47298387096774e+00 3.42572015865071e-02 2.10169882028579e-04
3.51508064516129e+00 3.40671422805944e-02 2.10266801029545e-04
3.55717741935484e+00 3.38781374258849e-02 2.10348675958118e-04
3.59927419354839e+00 3.36901811717424e-02 2.10415844411468e-04
3.64137096774194e+00 3.35032677010456e-02 2.10468635028199e-04
3.68346774193548e+00 3.33173912284108e-02 2.10507368390608e-04
3.72556451612903e+00 3.31325460000624e-02 2.10532356462807e-04
3.76766129032258e+00 3.29487262951414e-02 2.10543903448611e-04
3.80975806451613e+00 3.27659264235481e-02 2.10542305936080e-04
3.85185483870968e+00 3.25841407277178e-02 2.10527853144062e-04
3.89395161290323e+00 3.24033635805212e-02 2.10500827187863e-04
3.93604838709677e+00 3.22235893869877e-02 2.10461503171660e-04
3.97814516129032e+00 3.20448125827108e-02 2.10410149957495e-04
4.02024193548387e+00 3.18670276337193e-02 2.10347029581964e-04
4.06233870967742e+00 3.16902290376316e-02 2.10272397992824e-04
4.10443548387097e+00 3.15144113217182e-02 2.10186505127027e-04
4.14653225806452e+00 3.13395690444757e-02 2.10089595087413e-04
4.18862903225806e+00 3.11656967937383e-02 2.09981906339869e-04
4.23072580645161e+00 3.09927891882071e-02 2.09863671752317e-04
4.27282258064516e+00 3.08208408760132e-02 2.09735119265392e-04
4.31491935483871e+00 3.06498465345876e-02 2.09596471309071e-04
4.35701612903226e+00 3.04798008716872e-02 2.09447945447713e-04
4.39911290322581e+00 3.03106986236443e-02 2.09289754415535e-04
4.44120967741936e+00 3.01425345567699e-02 2.09122106130539e-04
4.48330645161290e+00 2.99753034660185e-02 2.08945204307057e-04
4.52540322580645e+00 2.98090001748593e-02 2.08759247882463e-04
4.56750000000000e+00 2.96436195362173e-02 2.08564431608134e-04
4.60959677419355e+00 2.94791564308466e-02 2.08360946064247e-04
4.65169354838710e+00 2.93156057686206e-02 2.08148977764562e-04
4.69379032258065e+00 2.91529624869441e-02 2.07928709281507e-04
4.73588709677419e+00 2.89912215520089e-02 2.07700319234852e-04
4.77798387096774e+00 2.88303779575801e-02 2.07463982839899e-04
4.82008064516129e+00 2.86704267248694e-02 2.07219871350992e-04
4.86217741935484e+00 2.85113629033763e-02 2.06968152592014e-04
4.90427419354839e+00 2.83531815694083e-02 2.06708990950216e-04
4.94637096774194e+00 2.81958778272390e-02 2.06442547353041e-04
4.98846774193548e+00 2.80394468079751e-02 2.06168979776632e-04
5.03056451612903e+00 2.78838836694301e-02 2.05888442705913e-04
5.07266129032258e+00 2.77291835969012e-02 2.05601087627243e-04
5.11475806451613e+00 2.75753418017860e-02 2.05307063012412e-04
5.15685483870968e+00 2.74223535226536e-02 2.05006514383858e-04
5.19895161290323e+00 2.72702140238925e-02 2.04699584398841e-04
5.24104838709677e+00 2.71189185967544e-02 2.04386412814307e-04
5.28314516129032e+00 2.69684625583165e-02 2.04067136949449e-04
5.32524193548387e+00 2.68188412513592e-02 2.03741891168301e-04
5.36733870967742e+00 2.66700500450642e-02 2.03410807329169e-04
5.40943548387097e+00 2.65220843337484e-02 2.03074014758024e-04
5.45153225806452e+00 2.63749395378313e-02 2.02731640298907e-04
5.49362903225806e+00 2.62286111025961e-02 2.02383808382405e-04
5.53572580645161e+00 2.60830944991330e-02 2.02030640982685e-04
5.57782258064516e+00 2.59383852233868e-02 2.01672258041584e-04
5.61991935483871e+00 2.57944787960376e-02 2.01308776974754e-04
5.66201612903226e+00 2.56513707631300e-02 2.00940313083936e-04
5.70411290322581e+00 2.55090566949116e-02 2.00566979523728e-04
5.74620967741935e+00 2.53675321867082e-02 2.00188887255528e-04
5.78830645161290e+00 2.52267928580291e-02 1.99806145446224e-04
5.83040322580645e+00 2.50868343524493e-02 1.99418860992750e-04
5.87250000000000e+00 2.49476523381934e-02 1.99027138910122e-04
5.91459677419355e+00 2.48092425070439e-02 1.98631082295272e-04
5.95669354838710e+00 2.46716005751551e-02 1.98230792360216e-04
5.99879032258065e+00 2.45347222819834e-02 1.97826368481540e-04
6.04088709677419e+00 2.43986033910824e-02 1.97417908151080e-04
6.08298387096774e+00 2.42632396892771e-02 1.97005507344563e-04
6.12508064516129e+00 2.41286269865499e-02 1.96589260069544e-04
6.16717741935484e+00 2.39947611165695e-02 1.96169258724557e-04
6.20927419354839e+00 2.38616379356840e-02 1.95745594059889e-04
6.25137096774194e+00 2.37292533236615e-02 1.95318355127223e-04
6.29346774193548e+00 2.35976031829113e-02 1.94887629628290e-04
6.33556451612903e+00 2.34666834383720e-02 1.94453503480287e-04
6.37766129032258e+00 2.33364900380038e-02 1.94016061155527e-04
6.41975806451613e+00 2.32070189518387e-02 1.93575385641309e-04
6.46185483870968e+00 2.30782661726719e-02 1.93131558462202e-04
6.50395161290323e+00 2.29502277151300e-02 1.92684659717137e-04
6.54604838709677e+00 2.28228996163467e-02 1.92234768028283e-04
6.58814516129032e+00 2.26962779352415e-02 1.91781960865193e-04
6.63024193548387e+00 2.25703587524113e-02 1.91326314132478e-04
6.67233870967742e+00 2.24451381705778e-02 1.90867902486121e-04
6.71443548387097e+00 2.23206123137088e-02 1.90406799292164e-04
6.75653225806452e+00 2.21967773276487e-02 1.89943076644616e-04
6.79862903225806e+00 2.20736293792561e-02 1.89476805397276e-04
6.84072580645161e+00 2.19511646570206e-02 1.89008055112492e-04
6.88282258064516e+00 2.18293793703942e-02 1.88536894363714e-04
6.92491935483871e+00 2.17082697496854e-02 1.88063390344360e-04
6.96701612903226e+00 2.15878320464674e-02 1.87587609162966e-04
7.00911290322581e+00 2.14680625327628e-02 1.87109615801700e-04
7.05120967741936e+00 2.13489575016204e-02 1.86629474065839e-04
7.09330645161290e+00 2.12305132664820e-02 1.86147246871393e-04
7.13540322580645e+00 2.11127261610790e-02 1.85662995869346e-04
7.17750000000000e+00 2.09955925398133e-02 1.85176781726490e-04
7.21959677419355e+00 2.08791087769861e-02 1.84688664084326e-04
7.26169354838710e+00 2.07632712673372e-02 1.84198701571319e-04
7.30379032258065e+00 2.06480764252883e-02 1.83706951827822e-04
7.34588709677419e+00 2.05335206854711e-02 1.83213471456380e-04
7.38798387096774e+00 2.04196005021377e-02 1.82718316291061e-04
7.43008064516129e+00 2.03063123490613e-02 1.82221541041235e-04
7.47217741935484e+00 2.01936527198835e-02 1.81723199554666e-04
7.51427419354839e+00 2.00816181273974e-02 1.81223344776903e-04
7.55637096774194e+00 1.99702051040420e-02 1.80722028702533e-04
7.59846774193548e+00 1.98594102013436e-02 1.80219302631994e-04
7.64056451612903e+00 1.97492299898179e-02 1.79715216829408e-04
7.68266129032258e+00 1.96396610592955e-02 1.79209820773331e-04
7.72475806451613e+00 1.95307000182416e-02 1.78703163116969e-04
7.76685483870968e+00 1.94223434942199e-02 1.78195291696664e-04
7.80895161290323e+00 1.93145881332247e-02 1.77686253551807e-04
7.85104838709677e+00 1.92074306001356e-02 1.77176094877553e-04
7.89314516129032e+00 1.91008675781955e-02 1.76664861265885e-04
7.93524193548387e+00 1.89948957689164e-02 1.76152597381171e-04
7.97733870967742e+00 1.88895118923777e-02 1.75639347195872e-04
8.01943548387097e+00 1.87847126865909e-02 1.75125153951572e-04
8.06153225806452e+00 1.86804949079276e-02 1.74610060165919e-04
8.10362903225806e+00 1.85768553304949e-02 1.74094107650274e-04
8.14572580645161e+00 1.84737907465547e-02 1.73577337463783e-04
8.18782258064516e+00 1.83712979660357e-02 1.73059790140220e-04
8.22991935483871e+00 1.82693738164423e-02 1.72541505380366e-04
8.27201612903226e+00 1.81680151431279e-02 1.72022522273621e-04
8.31411290322581e+00 1.80672188087023e-02 1.71502879260190e-04
8.35620967741936e+00 1.79669816934248e-02 1.70982614086526e-04
8.39830645161290e+00 1.78673006947405e-02 1.70461764022134e-04
8.44040322580645e+00 1.77681727271910e-02 1.69940365563882e-04
8.48250000000000e+00 1.76695947226709e-02 1.69418454648008e-04
8.52459677419355e+00 1.75715636298643e-02 1.68896066613273e-04
8.56669354838710e+00 1.74740764146141e-02 1.68373236205735e-04
8.60879032258065e+00 1.73771300593687e-02 1.67849997593291e-04
8.65088709677419e+00 1.72807215635439e-02 1.67326384322649e-04
8.69298387096774e+00 1.71848479430889e-02 1.66802429523647e-04
8.73508064516129e+00 1.70895062304001e-02 1.66278165628833e-04
8.77717741935484e+00 1.69946934745566e-02 1.65753624573253e-04
8.81927419354839e+00 1.69004067407930e-02 1.65228837758836e-04
8.86137096774194e+00 1.68066431108402e-02 1.64703836012672e-04
8.90346774193548e+00 1.67133996825117e-02 1.64178649782702e-04
8.94556451612903e+00 1.66206735696197e-02 1.63653308868059e-04
8.98766129032258e+00 1.65284619021961e-02 1.63127842610336e-04
9.02975806451613e+00 1.64367618259903e-02 1.62602279859058e-04
9.07185483870968e+00 1.63455705027901e-02 1.62076648974982e-04
9.11395161290323e+00 1.62548851099287e-02 1.61550977842145e-04
9.15604838709677e+00 1.61647028405988e-02 1.61025293827763e-04
9.19814516129032e+00 1.60750209034649e-02 1.60499623966944e-04
9.24024193548387e+00 1.59858365225819e-02 1.59973994706798e-04
9.28233870967742e+00 1.58971469375990e-02 1.59448432087062e-04
9.32443548387097e+00 1.58089494032884e-02 1.58922961706819e-04
9.36653225806452e+00 1.57212411898423e-02 1.58397608727094e-04
9.40862903225806e+00 1.56340195824103e-02 1.57872397881805e-04
9.45072580645161e+00 1.55472818813899e-02 1.57347353439256e-04
9.49282258064516e+00 1.54610254020625e-02 1.56822499376634e-04
9.53491935483871e+00 1.53752474745149e-02 1.56297859137159e-04
9.57701612903226e+00 1.52899454438266e-02 1.55773455800718e-04
9.61911290322581e+00 1.52051166696284e-02 1.55249312051871e-04
9.66120967741936e+00 1.51207585263765e-02 1.54725450142628e-04
9.70330645161290e+00 1.50368684030046e-02 1.54201892059754e-04
9.74540322580645e+00 1.49534437028480e-02 1.53678659291169e-04
9.78750000000000e+00 1.48704818438190e-02 1.53155772989633e-04
9.82959677419355e+00 1.47879802579862e-02 1.52633253941718e-04
9.87169354838710e+00 1.47059363918328e-02 1.52111122569544e-04
9.91379032258065e+00 1.46243477058427e-02 1.51589398940029e-04
9.95588709677419e+00 1.45432116747539e-02 1.51068102729234e-04
9.99798387096774e+00 1.44625257872315e-02 1.50547253528838e-04
1.00400806451613e+01 1.43822875454748e-02 1.50026869921023e-04
1.00821774193548e+01 1.43024944668948e-02 1.49506970777893e-04
1.01242741935484e+01 1.42231440809300e-02 1.48987574906026e-04
1.01663709677419e+01 1.41442339315203e-02 1.48468699963235e-04
1.02084677419355e+01 1.40657615762322e-02 1.47950363304819e-04
1.02505645161290e+01 1.39877245869424e-02 1.47432582685796e-04
1.02926612903226e+01 1.39101205474744e-02 1.46915375549774e-04
1.03347580645161e+01 1.38329470558208e-02 1.46398758308565e-04
1.03768548387097e+01 1.37562017233015e-02 1.45882747089473e-04
1.04189516129032e+01 1.36798821752194e-02 1.45367358416667e-04
1.04610483870968e+01 1.36039860485853e-02 1.44852608520896e-04
1.05031451612903e+01 1.35285109942550e-02 1.44338512303180e-04
1.05452419354839e+01 1.34534546768276e-02 1.43825085410141e-04
1.05873387096774e+01 1.33788147724352e-02 1.43312343207786e-04
1.06294354838710e+01 1.33045889708176e-02 1.42800300099741e-04
1.06715322580645e+01 1.32307749745306e-02 1.42288970233896e-04
1.07136290322581e+01 1.31573704995600e-02 1.41778368146936e-04
1.07557258064516e+01 1.30843732731926e-02 1.41268508110979e-04
1.07978225806452e+01 1.30117810360123e-02 1.40759403471732e-04
1.08399193548387e+01 1.29395915411372e-02 1.40251067334252e-04
1.08820161290323e+01 1.28678025548094e-02 1.39743513188483e-04
1.09241129032258e+01 1.27964118543442e-02 1.39236754274882e-04
1.09662096774194e+01 1.27254172300502e-02 1.38730802941859e-04
1.10083064516129e+01 1.26548164844953e-02 1.38225671311260e-04
1.10504032258065e+01 1.25846074330725e-02 1.37721371885648e-04
1.10925000000000e+01 1.25147879020236e-02 1.37217916932285e-04
1.11345967741935e+01 1.24453557302882e-02 1.36715317859163e-04
1.11766935483871e+01 1.23763087687953e-02 1.36213585860985e-04
1.12187903225806e+01 1.23076448810075e-02 1.35712732508692e-04
1.12608870967742e+01 1.22393619410162e-02 1.35212769151261e-04
1.13029838709677e+01 1.21714578353213e-02 1.34713706309754e-04
1.13450806451613e+01 1.21039304621489e-02 1.34215554304389e-04
1.13871774193548e+01 1.20367777319737e-02 1.33718323826951e-04
1.14292741935484e+01 1.19699975656828e-02 1.33222025359762e-04
1.14713709677419e+01 1.19035878962902e-02 1.32726668587225e-04
1.15134677419355e+01 1.18375466682779e-02 1.32232263004617e-04
1.15555645161290e+01 1.17718718380986e-02 1.31738818473907e-04
1.15976612903226e+01 1.17065613724049e-02 1.31246344659400e-04
1.16397580645161e+01 1.16416132497010e-02 1.30754850456177e-04
1.16818548387097e+01 1.15770254597068e-02 1.30264344581173e-04
1.17239516129032e+01 1.15127960038415e-02 1.29774836113020e-04
1.17660483870968e+01 1.14489228935158e-02 1.29286333943778e-04
1.18081451612903e+01 1.13854041517229e-02 1.28798845956122e-04
1.18502419354839e+01 1.13222378129556e-02 1.28312380669292e-04
1.18923387096774e+01 1.12594219215461e-02 1.27826946423899e-04
1.19344354838710e+01 1.11969545332112e-02 1.27342550840062e-04
1.19765322580645e+01 1.11348337144541e-02 1.26859201377479e-04
1.20186290322581e+01 1.10730575430175e-02 1.26376905847018e-04
1.20607258064516e+01 1.10116241062811e-02 1.25895671890927e-04
1.21028225806452e+01 1.09505315027515e-02 1.25415506456392e-04
1.21449193548387e+01 1.08897778414844e-02 1.24936416339525e-04
1.21870161290323e+01 1.08293612425207e-02 1.24458408682322e-04
1.22291129032258e+01 1.07692798353401e-02 1.23981490467592e-04
1.22712096774194e+01 1.07095317602971e-02 1.23505668007465e-04
1.23133064516129e+01 1.06501151680634e-02 1.23030947471782e-04
1.23554032258065e+01 1.05910282200477e-02 1.22557335370929e-04
1.23975000000000e+01 1.05322690869026e-02 1.22084838065026e-04
1.24395967741935e+01 1.04738359499097e-02 1.21613461266884e-04
1.24816935483871e+01 1.04157270004408e-02 1.21143210555346e-04
1.25237903225806e+01 1.03579404403621e-02 1.20674091844362e-04
1.25658870967742e+01 1.03004744805929e-02 1.20206110906021e-04
1.26079838709677e+01 1.02433273424410e-02 1.19739272887557e-04
1.26500806451613e+01 1.01864972570828e-02 1.19273582810062e-04
1.26921774193548e+01 1.01299824659517e-02 1.18809046024287e-04
1.27342741935484e+01 1.00737812193472e-02 1.18345667747073e-04
1.27763709677419e+01 1.00178917777226e-02 1.17883452591946e-04
1.28184677419355e+01 9.96231241118250e-03 1.17422405053667e-04
1.28605645161290e+01 9.90704139985739e-03 1.16962529951187e-04
1.29026612903226e+01 9.85207703255982e-03 1.16503831977057e-04
1.29447580645161e+01 9.79741760802705e-03 1.16046315241202e-04
1.29868548387097e+01 9.74306143443533e-03 1.15589983741758e-04
1.30289516129032e+01 9.68900682976067e-03 1.15134841795563e-04
1.30710483870968e+01 9.63525212048091e-03 1.14680893600151e-04
1.31131451612903e+01 9.58179564277468e-03 1.14228142576578e-04
1.31552419354839e+01 9.52863574245424e-03 1.13776592683068e-04
1.31973387096774e+01 9.47577077370174e-03 1.13326247763655e-04
1.32394354838710e+01 9.42319910023555e-03 1.12877111115034e-04
1.32815322580645e+01 9.37091909485179e-03 1.12429185933360e-04
