Energy (eV)          EEDF (eV^-(3/2))     First Anisotropy
8.00000000000000e-05 2.15209558327826e+02 3.77943628177665e-02
2.40000000000000e-04 2.14069633222351e+02 6.24539080970363e-02
4.00000000000000e-04 2.12935746086622e+02 8.25646662466950e-02
5.60000000000000e-04 2.11807864940196e+02 9.79152644038264e-02
7.20000000000000e-04 2.10685957970761e+02 1.10777844743295e-01
8.80000000000000e-04 2.09569993534313e+02 1.22009508676513e-01
1.04000000000000e-03 2.08459940154402e+02 1.32052844909879e-01
1.20000000000000e-03 2.07355766521283e+02 1.41174554083824e-01
1.36000000000000e-03 2.06257441491041e+02 1.49551146559551e-01
1.52000000000000e-03 2.05164934084720e+02 1.57307116388053e-01
1.68000000000000e-03 2.04078213487450e+02 1.64534429047825e-01
1.84000000000000e-03 2.02997249047582e+02 1.71303461937229e-01
2.00000000000000e-03 2.01922010275820e+02 1.77669595075477e-01
2.16000000000000e-03 2.00852466844365e+02 1.83677404208346e-01
2.32000000000000e-03 1.99788588586056e+02 1.89363447525285e-01
2.48000000000000e-03 1.98730345493525e+02 1.94758185110877e-01
2.64000000000000e-03 1.97677707718343e+02 1.99887341120450e-01
2.80000000000000e-03 1.96630645570186e+02 2.04772895296666e-01
2.96000000000000e-03 1.95589129515992e+02 2.09433820598644e-01
3.12000000000000e-03 1.94553130179130e+02 2.13886642463241e-01
3.28000000000000e-03 1.93522618338573e+02 2.18145869953748e-01
3.44000000000000e-03 1.92497564928072e+02 2.22224333083950e-01
3.60000000000000e-03 1.91477941035334e+02 2.26133450231999e-01
3.76000000000000e-03 1.90463717901212e+02 2.29883442653163e-01
3.92000000000000e-03 1.89454866918889e+02 2.33483508402903e-01
4.08000000000000e-03 1.88451359633074e+02 2.36941964723169e-01
4.24000000000000e-03 1.87453167739198e+02 2.40266365644626e-01
4.40000000000000e-03 1.86460263082617e+02 2.43463599907770e-01
4.56000000000000e-03 1.85472617657814e+02 2.46539973105134e-01
4.72000000000000e-03 1.84490203607615e+02 2.49501277061614e-01
4.88000000000000e-03 1.83512993222400e+02 2.52352848808832e-01
5.04000000000000e-03 1.82540958939320e+02 2.55099621010506e-01
5.20000000000000e-03 1.81574073341522e+02 2.57746165315376e-01
5.36000000000000e-03 1.80612309157376e+02 2.60296729820911e-01
5.52000000000000e-03 1.79655639259703e+02 2.62755271603105e-01
5.68000000000000e-03 1.78704036665014e+02 2.65125485089278e-01
5.84000000000000e-03 1.77757474532744e+02 2.67410826909740e-01
6.00000000000000e-03 1.76815926164499e+02 2.69614537751744e-01
6.16000000000000e-03 1.75879365003301e+02 2.71739661649502e-01
6.32000000000000e-03 1.74947764632840e+02 2.73789063071315e-01
6.48000000000000e-03 1.74021098776727e+02 2.75765442106103e-01
6.64000000000000e-03 1.73099341297755e+02 2.77671348003559e-01
6.80000000000000e-03 1.72182466197161e+02 2.79509191282809e-01
6.96000000000000e-03 1.71270447613893e+02 2.81281254591901e-01
7.12000000000000e-03 1.70363259823879e+02 2.82989702473519e-01
7.28000000000000e-03 1.69460877239303e+02 2.84636590169820e-01
7.44000000000000e-03 1.68563274407883e+02 2.86223871580570e-01
7.60000000000000e-03 1.67670426012154e+02 2.87753406473128e-01
7.76000000000000e-03 1.66782306868752e+02 2.89226967029163e-01
7.92000000000000e-03 1.65898891927704e+02 2.90646243802116e-01
8.08000000000000e-03 1.65020156271724e+02 2.92012851149563e-01
8.24000000000000e-03 1.64146075115507e+02 2.93328332196612e-01
8.40000000000000e-03 1.63276623805029e+02 2.94594163379458e-01
8.56000000000000e-03 1.62411777816859e+02 2.95811758612227e-01
8.72000000000000e-03 1.61551512757457e+02 2.96982473114976e-01
8.88000000000000e-03 1.60695804362493e+02 2.98107606936469e-01
9.04000000000000e-03 1.59844628496163e+02 2.99188408201271e-01
9.20000000000000e-03 1.58997961150501e+02 3.00226076107270e-01
9.36000000000000e-03 1.58155778444710e+02 3.01221763697332e-01
9.52000000000000e-03 1.57318056624486e+02 3.02176580425551e-01
9.68000000000000e-03 1.56484772061344e+02 3.03091594536713e-01
9.84000000000000e-03 1.55655901251957e+02 3.03967835275690e-01
1.00000000000000e-02 1.54831420817490e+02 3.04806294941422e-01
1.01600000000000e-02 1.54011307502942e+02 3.05607930799076e-01
1.03200000000000e-02 1.53195538176488e+02 3.06373666862093e-01
1.04800000000000e-02 1.52384089828829e+02 3.07104395555145e-01
1.06400000000000e-02 1.51576939572543e+02 3.07800979267737e-01
1.08000000000000e-02 1.50774064641436e+02 3.08464251807080e-01
1.09600000000000e-02 1.49975442389904e+02 3.09095019758554e-01
1.11200000000000e-02 1.49181050292293e+02 3.09694063760645e-01
1.12800000000000e-02 1.48390865942261e+02 3.10262139701143e-01
1.14400000000000e-02 1.47604867052151e+02 3.10799979840573e-01
1.16000000000000e-02 1.46823031452357e+02 3.11308293868177e-01
1.17600000000000e-02 1.46045337090704e+02 3.11787769895520e-01
1.19200000000000e-02 1.45271762031820e+02 3.12239075392300e-01
1.20800000000000e-02 1.44502284456523e+02 3.12662858068368e-01
1.22400000000000e-02 1.43736882661203e+02 3.13059746705812e-01
1.24000000000000e-02 1.42975535057210e+02 3.13430351944704e-01
1.25600000000000e-02 1.42218220170243e+02 3.13775267025507e-01
1.27200000000000e-02 1.41464916639749e+02 3.14095068491141e-01
1.28800000000000e-02 1.40715603218317e+02 3.14390316851579e-01
1.30400000000000e-02 1.39970258771079e+02 3.14661557213214e-01
1.32000000000000e-02 1.39228862275115e+02 3.14909319875493e-01
1.33600000000000e-02 1.38491392818860e+02 3.15134120896719e-01
1.35200000000000e-02 1.37757829601513e+02 3.15336462631143e-01
1.36800000000000e-02 1.37028151932450e+02 3.15516834239221e-01
1.38400000000000e-02 1.36302339230644e+02 3.15675712172426e-01
1.40000000000000e-02 1.35580371024080e+02 3.15813560634486e-01
1.41600000000000e-02 1.34862226949179e+02 3.15930832020219e-01
1.43200000000000e-02 1.34147886750226e+02 3.16027967333497e-01
1.44800000000000e-02 1.33437330278796e+02 3.16105396585502e-01
1.46400000000000e-02 1.32730537493184e+02 3.16163539174406e-01
1.48000000000000e-02 1.32027488457847e+02 3.16202804247534e-01
1.49600000000000e-02 1.31328163342833e+02 3.16223591047135e-01
1.51200000000000e-02 1.30632542423228e+02 3.16226289240589e-01
1.52800000000000e-02 1.29940606078594e+02 3.16211279235840e-01
1.54400000000000e-02 1.29252334792422e+02 3.16178932483058e-01
1.56000000000000e-02 1.28567709151578e+02 3.16129611763188e-01
1.57600000000000e-02 1.27886709845753e+02 3.16063671464076e-01
1.59200000000000e-02 1.27209317666925e+02 3.15981457844841e-01
1.60800000000000e-02 1.26535513508811e+02 3.15883309289200e-01
1.62400000000000e-02 1.25865278366330e+02 3.15769556548204e-01
1.64000000000000e-02 1.25198593335069e+02 3.15640522973040e-01
1.65600000000000e-02 1.24535439610747e+02 3.15496524738324e-01
1.67200000000000e-02 1.23875798488687e+02 3.15337871056442e-01
1.68800000000000e-02 1.23219651363285e+02 3.15164864383318e-01
1.70400000000000e-02 1.22566979727490e+02 3.14977800616066e-01
1.72000000000000e-02 1.21917765172278e+02 3.14776969282987e-01
1.73600000000000e-02 1.21271989386135e+02 3.14562653726167e-01
1.75200000000000e-02 1.20629634154538e+02 3.14335131277161e-01
1.76800000000000e-02 1.19990681359445e+02 3.14094673425970e-01
1.78400000000000e-02 1.19355112978781e+02 3.13841545983713e-01
1.80000000000000e-02 1.18722911085929e+02 3.13576009239246e-01
1.81600000000000e-02 1.18094057849230e+02 3.13298318110093e-01
1.83200000000000e-02 1.17468535531471e+02 3.13008722287833e-01
1.84800000000000e-02 1.16846326489395e+02 3.12707466378192e-01
1.86400000000000e-02 1.16227413173193e+02 3.12394790036284e-01
1.88000000000000e-02 1.15611778126018e+02 3.12070928096989e-01
1.89600000000000e-02 1.14999403983486e+02 3.11736110700721e-01
1.91200000000000e-02 1.14390273473190e+02 3.11390563414937e-01
1.92800000000000e-02 1.13784369414213e+02 3.11034507351394e-01
1.94400000000000e-02 1.13181674716639e+02 3.10668159279411e-01
1.96000000000000e-02 1.12582172381078e+02 3.10291731735411e-01
1.97600000000000e-02 1.11985845498179e+02 3.09905433128656e-01
1.99200000000000e-02 1.11392677248159e+02 3.09509467843617e-01
2.00800000000000e-02 1.10802650900326e+02 3.09104036338872e-01
2.02400000000000e-02 1.10215749812606e+02 3.08689335242838e-01
2.04000000000000e-02 1.09631957431076e+02 3.08265557446462e-01
2.05600000000000e-02 1.09051257289497e+02 3.07832892192825e-01
2.07200000000000e-02 1.08473633008847e+02 3.07391525163996e-01
2.08800000000000e-02 1.07899068296861e+02 3.06941638565142e-01
2.10400000000000e-02 1.07327546947571e+02 3.06483411206002e-01
2.12000000000000e-02 1.06759052840851e+02 3.06017018579905e-01
2.13600000000000e-02 1.06193569941957e+02 3.05542632940242e-01
2.15200000000000e-02 1.05631082301080e+02 3.05060423374687e-01
2.16800000000000e-02 1.05071574052895e+02 3.04570555877250e-01
2.18400000000000e-02 1.04515029416110e+02 3.04073193418044e-01
2.20000000000000e-02 1.03961432693026e+02 3.03568496011020e-01
2.21600000000000e-02 1.03410768269091e+02 3.03056620779824e-01
2.23200000000000e-02 1.02863020612461e+02 3.02537722021590e-01
2.24800000000000e-02 1.02318174273559e+02 3.02011951268941e-01
2.26400000000000e-02 1.01776213884644e+02 3.01479457350236e-01
2.28000000000000e-02 1.01237124159375e+02 3.00940386448024e-01
2.29600000000000e-02 1.00700889892379e+02 3.00394882155927e-01
2.31200000000000e-02 1.00167495958822e+02 2.99843085533913e-01
2.32800000000000e-02 9.96369273139860e+01 2.99285135161993e-01
2.34400000000000e-02 9.91091689928401e+01 2.98721167192468e-01
2.36000000000000e-02 9.85842061096211e+01 2.98151315400702e-01
2.37600000000000e-02 9.80620238574129e+01 2.97575711234558e-01
2.39200000000000e-02 9.75426075077288e+01 2.96994483862508e-01
2.40800000000000e-02 9.70259424100962e+01 2.96407760220368e-01
2.42400000000000e-02 9.65120139916435e+01 2.95815665056921e-01
2.44000000000000e-02 9.60008077566887e+01 2.95218320978233e-01
2.45600000000000e-02 9.54923092863306e+01 2.94615848490827e-01
2.47200000000000e-02 9.49865042380426e+01 2.94008366043744e-01
2.48800000000000e-02 9.44833783452677e+01 2.93395990069544e-01
2.50400000000000e-02 9.39829174170159e+01 2.92778835024179e-01
2.52000000000000e-02 9.34851073374646e+01 2.92157013425941e-01
2.53600000000000e-02 9.29899340655600e+01 2.91530635893350e-01
2.55200000000000e-02 9.24973836346212e+01 2.90899811182140e-01
2.56800000000000e-02 9.20074421519460e+01 2.90264646221322e-01
2.58400000000000e-02 9.15200957984194e+01 2.89625246148240e-01
2.60000000000000e-02 9.10353308281238e+01 2.88981714342948e-01
2.61600000000000e-02 9.05531335679511e+01 2.88334152461624e-01
2.63200000000000e-02 9.00734904172170e+01 2.87682660469219e-01
2.64800000000000e-02 8.95963878472776e+01 2.87027336671243e-01
2.66400000000000e-02 8.91218124011477e+01 2.86368277744906e-01
2.68000000000000e-02 8.86497506931214e+01 2.85705578769452e-01
2.69600000000000e-02 8.81801894083943e+01 2.85039333255764e-01
2.71200000000000e-02 8.77131153026877e+01 2.84369633175276e-01
2.72800000000000e-02 8.72485152018760e+01 2.83696568988234e-01
2.74400000000000e-02 8.67863760016141e+01 2.83020229671305e-01
2.76000000000000e-02 8.63266846669682e+01 2.82340702744515e-01
2.77600000000000e-02 8.58694282320484e+01 2.81658074297613e-01
2.79200000000000e-02 8.54145937996424e+01 2.80972429015775e-01
2.80800000000000e-02 8.49621685408523e+01 2.80283850204801e-01
2.82400000000000e-02 8.45121396947322e+01 2.79592419815675e-01
2.84000000000000e-02 8.40644945679289e+01 2.78898218468588e-01
2.85600000000000e-02 8.36192205343233e+01 2.78201325476509e-01
2.87200000000000e-02 8.31763050346745e+01 2.77501818868117e-01
2.88800000000000e-02 8.27357355762656e+01 2.76799775410261e-01
2.90400000000000e-02 8.22974997325516e+01 2.76095270630014e-01
2.92000000000000e-02 8.18615851428081e+01 2.75388378836174e-01
2.93600000000000e-02 8.14279795117834e+01 2.74679173140247e-01
2.95200000000000e-02 8.09966706093518e+01 2.73967725477123e-01
2.96800000000000e-02 8.05676462701676e+01 2.73254106625212e-01
2.98400000000000e-02 8.01408943933233e+01 2.72538386226126e-01
3.00000000000000e-02 7.97164029420074e+01 2.71820632804054e-01
3.01600000000000e-02 7.92941599431652e+01 2.71100913784637e-01
3.03200000000000e-02 7.88741534871609e+01 2.70379295513502e-01
3.04800000000000e-02 7.84563717274421e+01 2.69655843274351e-01
3.06400000000000e-02 7.80408028802052e+01 2.68930621306756e-01
3.08000000000000e-02 7.76274352240634e+01 2.68203692823556e-01
3.09600000000000e-02 7.72162570997157e+01 2.67475120027850e-01
3.11200000000000e-02 7.68072569096183e+01 2.66744964129738e-01
3.12800000000000e-02 7.64004231176576e+01 2.66013285362648e-01
3.14400000000000e-02 7.59957442488245e+01 2.65280142999339e-01
3.16000000000000e-02 7.55932088888908e+01 2.64545595367631e-01
3.17600000000000e-02 7.51928056840877e+01 2.63809699865812e-01
3.19200000000000e-02 7.47945233407849e+01 2.63072512977707e-01
3.20800000000000e-02 7.43983506251724e+01 2.62334090287464e-01
3.22400000000000e-02 7.40042763629437e+01 2.61594486494074e-01
3.24000000000000e-02 7.36122894389806e+01 2.60853755425587e-01
3.25600000000000e-02 7.32223787970394e+01 2.60111950053031e-01
3.27200000000000e-02 7.28345334394394e+01 2.59369122504098e-01
3.28800000000000e-02 7.24487424267526e+01 2.58625324076605e-01
3.30400000000000e-02 7.20649948774951e+01 2.57880605251596e-01
3.32000000000000e-02 7.16832799678201e+01 2.57135015706260e-01
3.33600000000000e-02 7.13035869312128e+01 2.56388604326591e-01
3.35200000000000e-02 7.09259050581866e+01 2.55641419219811e-01
3.36800000000000e-02 7.05502236959812e+01 2.54893507726600e-01
3.38400000000000e-02 7.01765322482617e+01 2.54144916433014e-01
3.40000000000000e-02 6.98048201748204e+01 2.53395691182241e-01
3.41600000000000e-02 6.94350769912787e+01 2.52645877086138e-01
3.43200000000000e-02 6.90672922687923e+01 2.51895518536530e-01
3.44800000000000e-02 6.87014556337561e+01 2.51144659216370e-01
3.46400000000000e-02 6.83375567675124e+01 2.50393342110558e-01
3.48000000000000e-02 6.79755854060592e+01 2.49641609516686e-01
3.49600000000000e-02 6.76155313397612e+01 2.48889503055584e-01
3.51200000000000e-02 6.72573844130617e+01 2.48137063681607e-01
3.52800000000000e-02 6.69011345241961e+01 2.47384331692797e-01
3.54400000000000e-02 6.65467716249067e+01 2.46631346740812e-01
3.56000000000000e-02 6.61942857201599e+01 2.45878147840735e-01
3.57600000000000e-02 6.58436668678637e+01 2.45124773380688e-01
3.59200000000000e-02 6.54949051785877e+01 2.44371261131275e-01
3.60800000000000e-02 6.51479908152838e+01 2.43617648254838e-01
3.62400000000000e-02 6.48029139930091e+01 2.42863971314568e-01
3.64000000000000e-02 6.44596649786496e+01 2.42110266283501e-01
3.65600000000000e-02 6.41182340906458e+01 2.41356568553291e-01
3.67200000000000e-02 6.37786116987198e+01 2.40602912942839e-01
3.68800000000000e-02 6.34407882236031e+01 2.39849333706834e-01
3.70400000000000e-02 6.31047541367673e+01 2.39095864544121e-01
3.72000000000000e-02 6.27704999601545e+01 2.38342538605862e-01
3.73600000000000e-02 6.24380162659105e+01 2.37589388503634e-01
3.75200000000000e-02 6.21072936761185e+01 2.36836446317372e-01
3.76800000000000e-02 6.17783228625349e+01 2.36083743603168e-01
3.78400000000000e-02 6.14510945463263e+01 2.35331311400977e-01
3.80000000000000e-02 6.11255994978071e+01 2.34579180242134e-01
3.81600000000000e-02 6.08018285361800e+01 2.33827380156771e-01
3.83200000000000e-02 6.04797725292765e+01 2.33075940681118e-01
3.84800000000000e-02 6.01594223932996e+01 2.32324890864699e-01
3.86400000000000e-02 5.98407690925673e+01 2.31574259277379e-01
3.88000000000000e-02 5.95238036392583e+01 2.30824074016310e-01
3.89600000000000e-02 5.92085170931578e+01 2.30074362712754e-01
3.91200000000000e-02 5.88949005614057e+01 2.29325152538809e-01
3.92800000000000e-02 5.85829451982458e+01 2.28576470214038e-01
3.94400000000000e-02 5.82726422047762e+01 2.27828342011942e-01
3.96000000000000e-02 5.79639828287014e+01 2.27080793766392e-01
3.97600000000000e-02 5.76569583640846e+01 2.26333850877922e-01
3.99200000000000e-02 5.73515601511034e+01 2.25587538319893e-01
4.00800000000000e-02 5.70477795758044e+01 2.24841880644621e-01
4.02400000000000e-02 5.67456080698608e+01 2.24096901989365e-01
4.04000000000000e-02 5.64450371103309e+01 2.23352626082254e-01
4.05600000000000e-02 5.61460582194171e+01 2.22609076248092e-01
4.07200000000000e-02 5.58486629642273e+01 2.21866275414045e-01
4.08800000000000e-02 5.55528429565369e+01 2.21124246115346e-01
4.10400000000000e-02 5.52585898525521e+01 2.20383010500774e-01
4.12000000000000e-02 5.49658953526746e+01 2.19642590338128e-01
4.13600000000000e-02 5.46747512012676e+01 2.18903007019660e-01
4.15200000000000e-02 5.43851491864227e+01 2.18164281567282e-01
4.16800000000000e-02 5.40970811397289e+01 2.17426434637817e-01
4.18400000000000e-02 5.38105389360411e+01 2.16689486528130e-01
4.20000000000000e-02 5.35255144932522e+01 2.15953457180167e-01
4.21600000000000e-02 5.32419997720642e+01 2.15218366185947e-01
4.23200000000000e-02 5.29599867757619e+01 2.14484232792463e-01
4.24800000000000e-02 5.26794675499869e+01 2.13751075906459e-01
4.26400000000000e-02 5.24004341825141e+01 2.13018914099236e-01
4.28000000000000e-02 5.21228788030276e+01 2.12287765611348e-01
4.29600000000000e-02 5.18467935828992e+01 2.11557648357128e-01
4.31200000000000e-02 5.15721707349675e+01 2.10828579929282e-01
4.32800000000000e-02 5.12990025133182e+01 2.10100577603371e-01
4.34400000000000e-02 5.10272812130658e+01 2.09373658342226e-01
4.36000000000000e-02 5.07569991701360e+01 2.08647838800249e-01
4.37600000000000e-02 5.04881487610498e+01 2.07923135327700e-01
4.39200000000000e-02 5.02207224027083e+01 2.07199563974932e-01
4.40800000000000e-02 4.99547125521788e+01 2.06477140496525e-01
4.42400000000000e-02 4.96901117064823e+01 2.05755880355362e-01
4.44000000000000e-02 4.94269124023815e+01 2.05035798726698e-01
4.45600000000000e-02 4.91651072161705e+01 2.04316910502118e-01
4.47200000000000e-02 4.89046887634655e+01 2.03599230293428e-01
4.48800000000000e-02 4.86456496989964e+01 2.02882772436530e-01
4.50400000000000e-02 4.83879827163996e+01 2.02167550995232e-01
4.52000000000000e-02 4.81316805480119e+01 2.01453579764973e-01
4.53600000000000e-02 4.78767359646657e+01 2.00740872276545e-01
4.55200000000000e-02 4.76231417754847e+01 2.00029441799695e-01
4.56800000000000e-02 4.73708908276816e+01 1.99319301346704e-01
4.58400000000000e-02 4.71199760063560e+01 1.98610463676003e-01
4.60000000000000e-02 4.68703902342938e+01 1.97902941295569e-01
4.61600000000000e-02 4.66221264717676e+01 1.97196746466382e-01
4.63200000000000e-02 4.63751777163380e+01 1.96491891205856e-01
4.64800000000000e-02 4.61295370026565e+01 1.95788387291112e-01
4.66400000000000e-02 4.58851974022686e+01 1.95086246262323e-01
4.68000000000000e-02 4.56421520234185e+01 1.94385479425946e-01
4.69600000000000e-02 4.54003940108548e+01 1.93686097857891e-01
4.71200000000000e-02 4.51599165456370e+01 1.92988112406705e-01
4.72800000000000e-02 4.49207128449436e+01 1.92291533696685e-01
4.74400000000000e-02 4.46827761618799e+01 1.91596372130924e-01
4.76000000000000e-02 4.44460997852887e+01 1.90902637894356e-01
4.77600000000000e-02 4.42106770395605e+01 1.90210340956721e-01
4.79200000000000e-02 4.39765012844450e+01 1.89519491075498e-01
4.80800000000000e-02 4.37435659148643e+01 1.88830097798842e-01
4.82400000000000e-02 4.35118643607263e+01 1.88142170468419e-01
4.84000000000000e-02 4.32813900867394e+01 1.87455718222202e-01
4.85600000000000e-02 4.30521365922285e+01 1.86770749997293e-01
4.87200000000000e-02 4.28240974109511e+01 1.86087274532663e-01
4.88800000000000e-02 4.25972661109152e+01 1.85405300371831e-01
4.90400000000000e-02 4.23716362941979e+01 1.84724835865546e-01
4.92000000000000e-02 4.21472015967651e+01 1.84045889174437e-01
4.93600000000000e-02 4.19239556882915e+01 1.83368468271585e-01
4.95200000000000e-02 4.17018922719825e+01 1.82692580945074e-01
4.96800000000000e-02 4.14810050843966e+01 1.82018234800562e-01
4.98400000000000e-02 4.12612878952683e+01 1.81345437263733e-01
5.00000000000000e-02 4.10427345073328e+01 1.80674195582759e-01
5.01600000000000e-02 4.08253387561512e+01 1.80004516830753e-01
5.03200000000000e-02 4.06090945099363e+01 1.79336407908123e-01
5.04800000000000e-02 4.03939956693799e+01 1.78669875544977e-01
