Energy (eV)          EEDF (eV^-(3/2))     First Anisotropy
2.91489361702128e-02 5.03419404730603e-02 2.75401788512495e-05
8.74468085106383e-02 4.99732058210800e-02 4.54629514277463e-05
1.45744680851064e-01 4.96071720015705e-02 5.99799343241085e-05
2.04042553191489e-01 4.92438192355770e-02 7.09865233521252e-05
2.62340425531915e-01 4.88831278842175e-02 8.01479036208871e-05
3.20638297872340e-01 4.85250784523640e-02 8.80940718672417e-05
3.78936170212766e-01 4.81696515903767e-02 9.51512543703424e-05
4.37234042553191e-01 4.78168280887696e-02 1.01516568886792e-04
4.95531914893617e-01 4.74665888781819e-02 1.07320825197326e-04
5.53829787234043e-01 4.71189150305040e-02 1.12656531616946e-04
6.12127659574468e-01 4.67737877553912e-02 1.17592207982576e-04
6.70425531914894e-01 4.64311883996651e-02 1.22180429250379e-04
7.28723404255319e-01 4.60910984478748e-02 1.26462676542285e-04
7.87021276595745e-01 4.57534995195917e-02 1.30472426705232e-04
8.45319148936170e-01 4.54183733686431e-02 1.34237207407614e-04
9.03617021276596e-01 4.50857018833387e-02 1.37780014447812e-04
9.61914893617021e-01 4.47554670842034e-02 1.41120318631141e-04
1.02021276595745e+00 4.44276511231472e-02 1.44274799053454e-04
1.07851063829787e+00 4.41022362840705e-02 1.47257889662499e-04
1.13680851063830e+00 4.37792049796255e-02 1.50082194274571e-04
1.19510638297872e+00 4.34585397486039e-02 1.52758805354858e-04
1.25340425531915e+00 4.31402232632897e-02 1.55297555413742e-04
1.31170212765957e+00 4.28242383199591e-02 1.57707216535679e-04
1.37000000000000e+00 4.25105678409250e-02 1.59995659378078e-04
1.42829787234043e+00 4.21991948714141e-02 1.62169982295952e-04
1.48659574468085e+00 4.18901025853706e-02 1.64236618174553e-04
1.54489361702128e+00 4.15832742776362e-02 1.66201422848803e-04
1.60319148936170e+00 4.12786933654129e-02 1.68069747695794e-04
1.66148936170213e+00 4.09763433855524e-02 1.69846500662017e-04
1.71978723404255e+00 4.06762079992648e-02 1.71536198794333e-04
1.77808510638298e+00 4.03782709854957e-02 1.73143013009233e-04
1.83638297872340e+00 4.00825162419922e-02 1.74670805172236e-04
1.89468085106383e+00 3.97889277844663e-02 1.76123161197123e-04
1.95297872340426e+00 3.94974897442214e-02 1.77503418579997e-04
2.01127659574468e+00 3.92081863718435e-02 1.78814691383136e-04
2.06957446808511e+00 3.89210020317038e-02 1.80059892102872e-04
2.12787234042553e+00 3.86359212027106e-02 1.81241749954993e-04
2.18617021276596e+00 3.83529284761677e-02 1.82362827024086e-04
2.24446808510638e+00 3.80720085588880e-02 1.83425533299691e-04
2.30276595744681e+00 3.77931462683427e-02 1.84432140054600e-04
2.36106382978723e+00 3.75163265332129e-02 1.85384790923691e-04
2.41936170212766e+00 3.72415343914392e-02 1.86285511840248e-04
2.47765957446809e+00 3.69687549928756e-02 1.87136220646820e-04
2.53595744680851e+00 3.66979735949608e-02 1.87938735761451e-04
2.59425531914894e+00 3.64291755631147e-02 1.88694783212730e-04
2.65255319148936e+00 3.61623463689480e-02 1.89406003033491e-04
2.71085106382979e+00 3.58974715925425e-02 1.90073955715736e-04
2.76914893617021e+00 3.56345369185529e-02 1.90700128096832e-04
2.82744680851064e+00 3.53735281364821e-02 1.91285937829436e-04
2.88574468085106e+00 3.51144311399278e-02 1.91832738305420e-04
2.94404255319149e+00 3.48572319249407e-02 1.92341822349928e-04
3.00234042553191e+00 3.46019165919173e-02 1.92814426374301e-04
3.06063829787234e+00 3.43484713421576e-02 1.93251734208824e-04
3.11893617021277e+00 3.40968824780355e-02 1.93654879971438e-04
3.17723404255319e+00 3.38471364014716e-02 1.94024950742632e-04
3.23553191489362e+00 3.35992196155823e-02 1.94362989602981e-04
3.29382978723404e+00 3.33531187215308e-02 1.94669998459366e-04
3.35212765957447e+00 3.31088204186219e-02 1.94946940046042e-04
3.41042553191489e+00 3.28663115028745e-02 1.95194739810865e-04
3.46872340425532e+00 3.26255788684656e-02 1.95414288204465e-04
3.52702127659574e+00 3.23866095048331e-02 1.95606442825694e-04
3.58531914893617e+00 3.21493904967106e-02 1.95772029840428e-04
3.64361702127660e+00 3.19139090227874e-02 1.95911845333959e-04
3.70191489361702e+00 3.16801523569767e-02 1.96026657082254e-04
3.76021276595745e+00 3.14481078657392e-02 1.96117206222425e-04
3.81851063829787e+00 3.12177630080687e-02 1.96184208145494e-04
3.87680851063830e+00 3.09891053348201e-02 1.96228353980930e-04
3.93510638297872e+00 3.07621224874592e-02 1.96250311371116e-04
3.99340425531915e+00 3.05368021991384e-02 1.96250725795805e-04
4.05170212765957e+00 3.03131322922676e-02 1.96230221830737e-04
4.11000000000000e+00 3.00911006784538e-02 1.96189403829302e-04
4.16829787234043e+00 2.98706953573203e-02 1.96128856590890e-04
4.22659574468085e+00 2.96519044174577e-02 1.96049146436536e-04
4.28489361702128e+00 2.94347160341603e-02 1.95950822236222e-04
4.34319148936170e+00 2.92191184693334e-02 1.95834415903518e-04
4.40148936170213e+00 2.90051000703753e-02 1.95700442888218e-04
4.45978723404255e+00 2.87926492710185e-02 1.95549403065557e-04
4.51808510638298e+00 2.85817545892160e-02 1.95381781589463e-04
4.57638297872340e+00 2.83724046270202e-02 1.95198049146209e-04
4.63468085106383e+00 2.81645880699715e-02 1.94998662734725e-04
4.69297872340425e+00 2.79582936860467e-02 1.94784065892305e-04
4.75127659574468e+00 2.77535103263785e-02 1.94554689409285e-04
4.80957446808511e+00 2.75502269233106e-02 1.94310952018342e-04
4.86787234042553e+00 2.73484324902547e-02 1.94053260631715e-04
4.92617021276596e+00 2.71481161206900e-02 1.93782010589275e-04
4.98446808510638e+00 2.69492669888016e-02 1.93497586269084e-04
5.04276595744681e+00 2.67518743476535e-02 1.93200361678629e-04
5.10106382978723e+00 2.65559275290275e-02 1.92890700620973e-04
5.15936170212766e+00 2.63614159424703e-02 1.92568956874489e-04
5.21765957446808e+00 2.61683290758604e-02 1.92235474721039e-04
5.27595744680851e+00 2.59766564936882e-02 1.91890589459104e-04
5.33425531914894e+00 2.57863878368796e-02 1.91534627516060e-04
5.39255319148936e+00 2.55975128218883e-02 1.91167906575696e-04
5.45085106382979e+00 2.54100212411977e-02 1.90790736040067e-04
5.50914893617021e+00 2.52239029616997e-02 1.90403417479645e-04
5.56744680851064e+00 2.50391479245064e-02 1.90006244620985e-04
5.62574468085106e+00 2.48557461444083e-02 1.89599503768106e-04
5.68404255319149e+00 2.46736877090153e-02 1.89183473793038e-04
5.74234042553191e+00 2.44929627791857e-02 1.88758426530296e-04
5.80063829787234e+00 2.43135615875190e-02 1.88324627162782e-04
5.85893617021277e+00 2.41354744381581e-02 1.87882334255833e-04
5.91723404255319e+00 2.39586917059668e-02 1.87431799807912e-04
5.97553191489362e+00 2.37832038369104e-02 1.86973269602652e-04
6.03382978723404e+00 2.36090013466297e-02 1.86506983554041e-04
6.09212765957447e+00 2.34360748202345e-02 1.86033175717473e-04
6.15042553191489e+00 2.32644149115175e-02 1.85552074317577e-04
6.20872340425532e+00 2.30940123432906e-02 1.85063902064694e-04
6.26702127659574e+00 2.29248579060333e-02 1.84568876465870e-04
6.32531914893617e+00 2.27569424576810e-02 1.84067209818149e-04
6.38361702127660e+00 2.25902569228711e-02 1.83559109218488e-04
6.44191489361702e+00 2.24247922932406e-02 1.83044776850179e-04
6.50021276595745e+00 2.22605396261437e-02 1.82524410264787e-04
6.55851063829787e+00 2.20974900444352e-02 1.81998202293984e-04
6.61680851063830e+00 2.19356347359919e-02 1.81466341317181e-04
6.67510638297872e+00 2.17749649529970e-02 1.80929011182681e-04
6.73340425531915e+00 2.16154720121912e-02 1.80386391461579e-04
6.79170212765957e+00 2.14571472936723e-02 1.79838657698486e-04
6.85000000000000e+00 2.12999822406756e-02 1.79285981379116e-04
6.90829787234042e+00 2.11439683588866e-02 1.78728529913679e-04
6.96659574468085e+00 2.09890972166626e-02 1.78166466869563e-04
7.02489361702128e+00 2.08353604438896e-02 1.77599952201329e-04
7.08319148936170e+00 2.06827497317616e-02 1.77029142210687e-04
7.14148936170213e+00 2.05312568321202e-02 1.76454189521774e-04
7.19978723404255e+00 2.03808735576480e-02 1.75875243295250e-04
7.25808510638298e+00 2.02315917807813e-02 1.75292449440338e-04
7.31638297872340e+00 2.00834034334871e-02 1.74705950510661e-04
7.37468085106383e+00 1.99363005068281e-02 1.74115885906892e-04
7.43297872340426e+00 1.97902750503339e-02 1.73522391782617e-04
7.49127659574468e+00 1.96453191721626e-02 1.72925601237812e-04
7.54957446808511e+00 1.95014250380772e-02 1.72325644510673e-04
7.60787234042553e+00 1.93585848712240e-02 1.71722648927213e-04
7.66617021276596e+00 1.92167909515278e-02 1.71116738864954e-04
7.72446808510638e+00 1.90760356158310e-02 1.70508035932455e-04
7.78276595744681e+00 1.89363112569183e-02 1.69896659147626e-04
7.84106382978723e+00 1.87976103232941e-02 1.69282724884334e-04
7.89936170212766e+00 1.86599253186012e-02 1.68666346832573e-04
7.95765957446808e+00 1.85232488017404e-02 1.68047636165657e-04
8.01595744680851e+00 1.83875733859390e-02 1.67426701706444e-04
8.07425531914894e+00 1.82528917385292e-02 1.66803649871830e-04
8.13255319148936e+00 1.81191965803885e-02 1.66178584630316e-04
8.19085106382979e+00 1.79864806860418e-02 1.65551607658139e-04
8.24914893617021e+00 1.78547368827708e-02 1.64922818494682e-04
8.30744680851064e+00 1.77239580503944e-02 1.64292314437209e-04
8.36574468085106e+00 1.75941371208842e-02 1.63660190690234e-04
8.42404255319149e+00 1.74652670778304e-02 1.63026540269740e-04
8.48234042553191e+00 1.73373409565222e-02 1.62391454146485e-04
8.54063829787234e+00 1.72103518431078e-02 1.61755021388818e-04
8.59893617021276e+00 1.70842928743766e-02 1.61117329105376e-04
8.65723404255319e+00 1.69591572372448e-02 1.60478462399661e-04
8.71553191489362e+00 1.68349381688216e-02 1.59838504504588e-04
8.77382978723404e+00 1.67116289556054e-02 1.59197536916707e-04
8.83212765957447e+00 1.65892229332682e-02 1.58555639338602e-04
8.89042553191489e+00 1.64677134861598e-02 1.57912889632678e-04
8.94872340425532e+00 1.63470940473615e-02 1.57269363947777e-04
9.00702127659574e+00 1.62273580979160e-02 1.56625136845547e-04
9.06531914893617e+00 1.61084991666148e-02 1.55980281242898e-04
9.12361702127660e+00 1.59905108295199e-02 1.55334868365398e-04
9.18191489361702e+00 1.58733867100057e-02 1.54688967866624e-04
9.24021276595745e+00 1.57571204780219e-02 1.54042647947317e-04
9.29851063829787e+00 1.56417058498833e-02 1.53395975257870e-04
9.35680851063830e+00 1.55271365879302e-02 1.52749015013295e-04
9.41510638297872e+00 1.54134065000713e-02 1.52101830903909e-04
9.47340425531915e+00 1.53005094398122e-02 1.51454485206022e-04
9.53170212765957e+00 1.51884393055565e-02 1.50807038892644e-04
9.59000000000000e+00 1.50771900404001e-02 1.50159551577378e-04
9.64829787234043e+00 1.49667556316894e-02 1.49512081468290e-04
9.70659574468085e+00 1.48571301110405e-02 1.48864685472631e-04
9.76489361702128e+00 1.47483075536700e-02 1.48217419301570e-04
9.82319148936170e+00 1.46402820781910e-02 1.47570337414903e-04
9.88148936170213e+00 1.45330478461875e-02 1.46923492975257e-04
9.93978723404255e+00 1.44265990622255e-02 1.46276937947266e-04
9.99808510638298e+00 1.43209299732104e-02 1.45630723055091e-04
1.00563829787234e+01 1.42160348686003e-02 1.44984898225782e-04
1.01146808510638e+01 1.41119080785418e-02 1.44339512150971e-04
1.01729787234043e+01 1.40085439754433e-02 1.43694612020826e-04
1.02312765957447e+01 1.39059369729329e-02 1.43050243856230e-04
1.02895744680851e+01 1.38040815265449e-02 1.42406453306791e-04
1.03478723404255e+01 1.37029721304395e-02 1.41763284983336e-04
1.04061702127660e+01 1.36026033201007e-02 1.41120781445667e-04
1.04644680851064e+01 1.35029696719877e-02 1.40478985274443e-04
1.05227659574468e+01 1.34040658003786e-02 1.39837938071751e-04
1.05810638297872e+01 1.33058863599575e-02 1.39197679802428e-04
1.06393617021277e+01 1.32084260445595e-02 1.38558249512505e-04
1.06976595744681e+01 1.31116795877885e-02 1.37919685967116e-04
1.07559574468085e+01 1.30156417600099e-02 1.37282027027836e-04
1.08142553191489e+01 1.29203073708036e-02 1.36645309017726e-04
1.08725531914894e+01 1.28256712677680e-02 1.36009567411656e-04
1.09308510638298e+01 1.27317283370984e-02 1.35374837449366e-04
1.09891489361702e+01 1.26384735007233e-02 1.34741153535443e-04
1.10474468085106e+01 1.25459017186301e-02 1.34108548330825e-04
1.11057446808511e+01 1.24540079885485e-02 1.33477054605649e-04
1.11640425531915e+01 1.23627873431907e-02 1.32846704342559e-04
1.12223404255319e+01 1.22722348524842e-02 1.32217528144167e-04
1.12806382978723e+01 1.21823456224671e-02 1.31589555874622e-04
1.13389361702128e+01 1.20931147958089e-02 1.30962817229581e-04
1.13972340425532e+01 1.20045375491804e-02 1.30337341176118e-04
1.14555319148936e+01 1.19166090953723e-02 1.29713155381829e-04
1.15138297872340e+01 1.18293246822406e-02 1.29090286831621e-04
1.15721276595745e+01 1.17426795931961e-02 1.28468762376001e-04
1.16304255319149e+01 1.16566691446949e-02 1.27848608190846e-04
1.16887234042553e+01 1.15712886882515e-02 1.27229848961473e-04
1.17470212765957e+01 1.14865336101491e-02 1.26612509542750e-04
1.18053191489362e+01 1.14023993290192e-02 1.25996614153068e-04
1.18636170212766e+01 1.13188812977754e-02 1.25382185841254e-04
1.19219148936170e+01 1.12359750026369e-02 1.24769247060584e-04
1.19802127659574e+01 1.11536759635702e-02 1.24157820179131e-04
1.20385106382979e+01 1.10719797319791e-02 1.23547926975523e-04
1.20968085106383e+01 1.09908818925425e-02 1.22939587876643e-04
1.21551063829787e+01 1.09103780629402e-02 1.22332823505613e-04
1.22134042553191e+01 1.08304638916251e-02 1.21727653928891e-04
1.22717021276596e+01 1.07511350595892e-02 1.21124098158366e-04
1.23300000000000e+01 1.06723872794590e-02 1.20522174685993e-04
1.23882978723404e+01 1.05942162958938e-02 1.19921901959349e-04
1.24465957446809e+01 1.05166178834577e-02 1.19323297910371e-04
1.25048936170213e+01 1.04395878482987e-02 1.18726379475220e-04
1.25631914893617e+01 1.03631220272834e-02 1.18131163108869e-04
1.26214893617021e+01 1.02872162883716e-02 1.17537665242943e-04
1.26797872340426e+01 1.02118665285834e-02 1.16945901831160e-04
1.27380851063830e+01 1.01370686755962e-02 1.16355887663213e-04
1.27963829787234e+01 1.00628186874941e-02 1.15767637755374e-04
1.28546808510638e+01 9.98911255080549e-03 1.15181166672658e-04
1.29129787234043e+01 9.91594628203867e-03 1.14596488079955e-04
1.29712765957447e+01 9.84331592687941e-03 1.14013615221875e-04
1.30295744680851e+01 9.77121756052917e-03 1.13432561349800e-04
1.30878723404255e+01 9.69964728582858e-03 1.12853339296940e-04
1.31461702127660e+01 9.62860123471945e-03 1.12275960836696e-04
1.32044680851064e+01 9.55807556800788e-03 1.11700437981444e-04
1.32627659574468e+01 9.48806647355207e-03 1.11126782348440e-04
1.33210638297872e+01 9.41857016766931e-03 1.10555004740229e-04
1.33793617021277e+01 9.34958289439029e-03 1.09985115592358e-04
1.34376595744681e+01 9.28110092576496e-03 1.09417125371991e-04
1.34959574468085e+01 9.21312056012874e-03 1.08851044180335e-04
1.35542553191489e+01 9.14563812344233e-03 1.08286881347757e-04
1.36125531914894e+01 9.07864996857745e-03 1.07724645865069e-04
1.36708510638298e+01 9.01215247560464e-03 1.07164346767564e-04
1.37291489361702e+01 8.94614205013462e-03 1.06605992751518e-04
1.37874468085106e+01 8.88061512459425e-03 1.06049591595541e-04
1.38457446808511e+01 8.81556815800995e-03 1.05495151329848e-04
1.39040425531915e+01 8.75099763440433e-03 1.04942679664579e-04
1.39623404255319e+01 8.68690006402509e-03 1.04392183610862e-04
1.40206382978723e+01 8.62327198268074e-03 1.03843669883618e-04
1.40789361702128e+01 8.56010995200096e-03 1.03297145260378e-04
1.41372340425532e+01 8.49741055790191e-03 1.02752616222265e-04
1.41955319148936e+01 8.43517041175724e-03 1.02210088588436e-04
1.42538297872340e+01 8.37338614976127e-03 1.01669567904253e-04
1.43121276595745e+01 8.31205443317413e-03 1.01131059787137e-04
1.43704255319149e+01 8.25117194685233e-03 1.00594569579990e-04
1.44287234042553e+01 8.19073540036525e-03 1.00060101829104e-04
1.44870212765957e+01 8.13074152779627e-03 9.95276613380618e-05
1.45453191489362e+01 8.07118708632160e-03 9.89972526515776e-05
1.46036170212766e+01 8.01206885728578e-03 9.84688797131842e-05
1.46619148936170e+01 7.95338364560876e-03 9.79425462280785e-05
1.47202127659574e+01 7.89512828000770e-03 9.74182559864684e-05
1.47785106382979e+01 7.83729961163574e-03 9.68960125391066e-05
1.48368085106383e+01 7.77989451510759e-03 9.63758187081545e-05
1.48951063829787e+01 7.72290988831137e-03 9.58576775734922e-05
1.49534042553191e+01 7.66634265109181e-03 9.53415919891869e-05
1.50117021276596e+01 7.61018974623875e-03 9.48275642629160e-05
1.50700000000000e+01 7.55444813893463e-03 9.43155964952822e-05
1.51282978723404e+01 7.49911481695530e-03 9.38056908822932e-05
1.51865957446809e+01 7.44418678940799e-03 9.32978494113580e-05
1.52448936170213e+01 7.38966108767433e-03 9.27920735518277e-05
1.53031914893617e+01 7.33553476488009e-03 9.22883645821798e-05
1.53614893617021e+01 7.28180489608436e-03 9.17867238817388e-05
1.54197872340426e+01 7.22846857706983e-03 9.12871526371686e-05
1.54780851063830e+01 7.17552292524281e-03 9.07896514004052e-05
1.55363829787234e+01 7.12296507946066e-03 9.02942209791186e-05
1.55946808510638e+01 7.07079219886076e-03 8.98008619996635e-05
1.56529787234043e+01 7.01900146372837e-03 8.93095746170296e-05
1.57112765957447e+01 6.96759007500197e-03 8.88203588210461e-05
1.57695744680851e+01 6.91655525444461e-03 8.83332147094451e-05
1.58278723404255e+01 6.86589424352109e-03 8.78481422127809e-05
1.58861702127660e+01 6.81560430422634e-03 8.73651406799910e-05
1.59444680851064e+01 6.76568271892192e-03 8.68842097125951e-05
1.60027659574468e+01 6.71612678924906e-03 8.64053487548357e-05
1.60610638297872e+01 6.66693383692775e-03 8.59285568218733e-05
1.61193617021277e+01 6.61810120329503e-03 8.54538327864396e-05
1.61776595744681e+01 6.56962624946023e-03 8.49811756345662e-05
1.62359574468085e+01 6.52150635526205e-03 8.45105842076351e-05
1.62942553191489e+01 6.47373892003165e-03 8.40420569398399e-05
1.63525531914894e+01 6.42632136214914e-03 8.35755921347462e-05
1.64108510638298e+01 6.37925111918981e-03 8.31111882120359e-05
1.64691489361702e+01 6.33252564692359e-03 8.26488434584301e-05
1.65274468085106e+01 6.28614242004381e-03 8.21885556525935e-05
1.65857446808511e+01 6.24009893201735e-03 8.17303228193468e-05
1.66440425531915e+01 6.19439269411529e-03 8.12741428588170e-05
1.67023404255319e+01 6.14902123611637e-03 8.08200133001805e-05
1.67606382978723e+01 6.10398210589258e-03 8.03679315607568e-05
1.68189361702128e+01 6.05927286954168e-03 7.99178951771981e-05
1.68772340425532e+01 6.01489111045692e-03 7.94699015718213e-05
1.69355319148936e+01 5.97083442999911e-03 7.90239478148300e-05
1.69938297872340e+01 5.92710044709832e-03 7.85800308743084e-05
1.70521276595745e+01 5.88368679837867e-03 7.81381478393824e-05
1.71104255319149e+01 5.84059113726540e-03 7.76982956944491e-05
1.71687234042553e+01 5.79781113462720e-03 7.72604709795912e-05
1.72270212765957e+01 5.75534447863835e-03 7.68246704729957e-05
1.72853191489362e+01 5.71318887391334e-03 7.63908908550300e-05
1.73436170212766e+01 5.67134204212686e-03 7.59591284851143e-05
1.74019148936170e+01 5.62980172164147e-03 7.55293796360602e-05
1.74602127659574e+01 5.58856566762059e-03 7.51016407032482e-05
1.75185106382979e+01 5.54763165119766e-03 7.46759079928213e-05
1.75768085106383e+01 5.50699746006869e-03 7.42521774028730e-05
1.76351063829787e+01 5.46666089836180e-03 7.38304450636382e-05
1.76934042553191e+01 5.42661978583174e-03 7.34107070221554e-05
1.77517021276596e+01 5.38687195843226e-03 7.29929590328693e-05
1.78100000000000e+01 5.34741526796776e-03 7.25771967773361e-05
1.78682978723404e+01 5.30824758219568e-03 7.21634160603972e-05
1.79265957446808e+01 5.26936678405290e-03 7.17516126113436e-05
1.79848936170213e+01 5.23077077220291e-03 7.13417818816013e-05
1.80431914893617e+01 5.19245746070078e-03 7.09339192568460e-05
1.81014893617021e+01 5.15442477908959e-03 7.05280202464213e-05
1.81597872340426e+01 5.11667067165724e-03 7.01240802911928e-05
1.82180851063830e+01 5.07919309795982e-03 6.97220944745546e-05
1.82763829787234e+01 5.04199003270169e-03 6.93220581023656e-05
1.83346808510638e+01 5.00505946501467e-03 6.89239664170666e-05
1.83929787234043e+01 4.96839939896370e-03 6.85278144077072e-05
