Energy (eV)          EEDF (eV^-(3/2))     First Anisotropy
2.40322580645161e-03 1.40176592611794e+00 6.58788725962311e-04
7.20967741935484e-03 1.39398699887873e+00 1.08848828148781e-03
1.20161290322581e-02 1.38625123982706e+00 1.43862658833682e-03
1.68225806451613e-02 1.37855840943772e+00 1.70566590999536e-03
2.16290322580645e-02 1.37090826942316e+00 1.92923972462219e-03
2.64354838709677e-02 1.36330058292786e+00 2.12430405412541e-03
3.12419354838710e-02 1.35573511435734e+00 2.29858451690974e-03
3.60483870967742e-02 1.34821162942640e+00 2.45673806609085e-03
4.08548387096774e-02 1.34072989515071e+00 2.60184782860263e-03
4.56612903225806e-02 1.33328967983920e+00 2.73608907125131e-03
5.04677419354839e-02 1.32589075308711e+00 2.86106922121832e-03
5.52741935483871e-02 1.31853288576839e+00 2.97801878140291e-03
6.00806451612903e-02 1.31121585001632e+00 3.08790635082093e-03
6.48870967741935e-02 1.30393941925440e+00 3.19151181680604e-03
6.96935483870968e-02 1.29670336814994e+00 3.28947500511566e-03
7.45000000000000e-02 1.28950747262073e+00 3.38232918813124e-03
7.93064516129032e-02 1.28235150982811e+00 3.47052487168270e-03
8.41129032258065e-02 1.27523525817006e+00 3.55444711051104e-03
8.89193548387097e-02 1.26815849727443e+00 3.63442839159888e-03
9.37258064516129e-02 1.26112100799200e+00 3.71075840429462e-03
9.85322580645161e-02 1.25412257238268e+00 3.78369157076217e-03
1.03338709677419e-01 1.24716297372340e+00 3.85345293395811e-03
1.08145161290323e-01 1.24024199653769e+00 3.92024285289664e-03
1.12951612903226e-01 1.23335942643790e+00 3.98424073382655e-03
1.17758064516129e-01 1.22651505028979e+00 4.04560805010066e-03
1.22564516129032e-01 1.21970865619793e+00 4.10449087865999e-03
1.27370967741935e-01 1.21294003333059e+00 4.16102193175494e-03
1.32177419354839e-01 1.20620897208181e+00 4.21532224514068e-03
1.36983870967742e-01 1.19951526405873e+00 4.26750266168022e-03
1.41790322580645e-01 1.19285870192508e+00 4.31766501473214e-03
1.46596774193548e-01 1.18623907959008e+00 4.36590316561466e-03
1.51403225806452e-01 1.17965619201662e+00 4.41230389478305e-03
1.56209677419355e-01 1.17310983535011e+00 4.45694763154711e-03
1.61016129032258e-01 1.16659980690820e+00 4.49990915132718e-03
1.65822580645161e-01 1.16012590505171e+00 4.54125811830226e-03
1.70629032258065e-01 1.15368792933838e+00 4.58105958736609e-03
1.75435483870968e-01 1.14728568036371e+00 4.61937444702203e-03
1.80241935483871e-01 1.14091895986701e+00 4.65625977629471e-03
1.85048387096774e-01 1.13458757072199e+00 4.69176921993538e-03
1.89854838709677e-01 1.12829131682796e+00 4.72595326934175e-03
1.94661290322581e-01 1.12203000320660e+00 4.75885951046236e-03
1.99467741935484e-01 1.11580343599291e+00 4.79053289672296e-03
2.04274193548387e-01 1.10961142233491e+00 4.82101593810084e-03
2.09080645161290e-01 1.10345377051141e+00 4.85034889621153e-03
2.13887096774194e-01 1.09733028980683e+00 4.87856996210713e-03
2.18693548387097e-01 1.09124079059303e+00 4.90571538827832e-03
2.23500000000000e-01 1.08518508432128e+00 4.93181966072588e-03
2.28306451612903e-01 1.07916298343502e+00 4.95691560432697e-03
2.33112903225806e-01 1.07317430147087e+00 4.98103450204223e-03
2.37919354838710e-01 1.06721885294962e+00 5.00420620541879e-03
2.42725806451613e-01 1.06129645344658e+00 5.02645920942535e-03
2.47532258064516e-01 1.05540691958418e+00 5.04782076942168e-03
2.52338709677419e-01 1.04955006895521e+00 5.06831696152088e-03
2.57145161290323e-01 1.04372572021049e+00 5.08797275980769e-03
2.61951612903226e-01 1.03793369296281e+00 5.10681210900137e-03
2.66758064516129e-01 1.03217380784824e+00 5.12485796745945e-03
2.71564516129032e-01 1.02644588651899e+00 5.14213239179600e-03
2.76370967741935e-01 1.02074975157534e+00 5.15865657590554e-03
2.81177419354839e-01 1.01508522662287e+00 5.17445088619000e-03
2.85983870967742e-01 1.00945213626554e+00 5.18953493325523e-03
2.90790322580645e-01 1.00385030604154e+00 5.20392759640993e-03
2.95596774193548e-01 9.98279562495291e-01 5.21764706620284e-03
3.00403225806452e-01 9.92739733096756e-01 5.23071088539035e-03
3.05209677419355e-01 9.87230646291813e-01 5.24313596565164e-03
3.10016129032258e-01 9.81752131495863e-01 5.25493864366859e-03
3.14822580645161e-01 9.76304019035973e-01 5.26613469427509e-03
3.19629032258065e-01 9.70886140214853e-01 5.27673936124317e-03
3.24435483870968e-01 9.65498327238175e-01 5.28676738733908e-03
3.29241935483871e-01 9.60140413259383e-01 5.29623302252477e-03
3.34048387096774e-01 9.54812232373513e-01 5.30515006948759e-03
3.38854838709677e-01 9.49513619564840e-01 5.31353189327658e-03
3.43661290322581e-01 9.44244410749104e-01 5.32139142979821e-03
3.48467741935484e-01 9.39004442767459e-01 5.32874122675704e-03
3.53274193548387e-01 9.33793553336709e-01 5.33559344656825e-03
3.58080645161290e-01 9.28611581103332e-01 5.34195988601968e-03
3.62887096774194e-01 9.23458365580808e-01 5.34785199585966e-03
3.67693548387097e-01 9.18333747187417e-01 5.35328088119249e-03
3.72500000000000e-01 9.13237567240515e-01 5.35825733626942e-03
3.77306451612903e-01 9.08169667911038e-01 5.36279184390932e-03
3.82112903225806e-01 9.03129892272184e-01 5.36689459085948e-03
3.86919354838710e-01 8.98118084242176e-01 5.37057548329923e-03
3.91725806451613e-01 8.93134088618308e-01 5.37384414454636e-03
3.96532258064516e-01 8.88177751071447e-01 5.37670994526316e-03
4.01338709677419e-01 8.83248918104288e-01 5.37918200059091e-03
4.06145161290323e-01 8.78347437095411e-01 5.38126918244156e-03
4.10951612903226e-01 8.73473156246783e-01 5.38298013204400e-03
4.15758064516129e-01 8.68625924614561e-01 5.38432325591045e-03
4.20564516129032e-01 8.63805592103772e-01 5.38530675251241e-03
4.25370967741936e-01 8.59012009429886e-01 5.38593861084924e-03
4.30177419354839e-01 8.54245028148064e-01 5.38622660875403e-03
4.34983870967742e-01 8.49504500647962e-01 5.38617833792525e-03
4.39790322580645e-01 8.44790280116903e-01 5.38580119886619e-03
4.44596774193548e-01 8.40102220577986e-01 5.38510240988393e-03
4.49403225806452e-01 8.35440176843760e-01 5.38408901643984e-03
4.54209677419355e-01 8.30804004542787e-01 5.38276788543318e-03
4.59016129032258e-01 8.26193560114672e-01 5.38114572777565e-03
4.63822580645161e-01 8.21608700775944e-01 5.37922909261557e-03
4.68629032258065e-01 8.17049284554854e-01 5.37702437489533e-03
4.73435483870968e-01 8.12515170248512e-01 5.37453782328651e-03
4.78241935483871e-01 8.08006217447127e-01 5.37177553395462e-03
4.83048387096774e-01 8.03522286529186e-01 5.36874347111754e-03
4.87854838709677e-01 7.99063238629782e-01 5.36544746337320e-03
4.92661290322581e-01 7.94628935663739e-01 5.36189319994183e-03
4.97467741935484e-01 7.90219240320867e-01 5.35808625025554e-03
5.02274193548387e-01 7.85834016035516e-01 5.35403205751427e-03
5.07080645161290e-01 7.81473127017027e-01 5.34973594460885e-03
5.11887096774194e-01 7.77136438211473e-01 5.34520312042636e-03
5.16693548387097e-01 7.72823815322811e-01 5.34043867315670e-03
5.21500000000000e-01 7.68535124808319e-01 5.33544758834807e-03
5.26306451612903e-01 7.64270233850205e-01 5.33023474231827e-03
5.31112903225807e-01 7.60029010383601e-01 5.32480490730952e-03
5.35919354838710e-01 7.55811323060925e-01 5.31916275702666e-03
5.40725806451613e-01 7.51617041271298e-01 5.31331285987418e-03
5.45532258064516e-01 7.47446035136132e-01 5.30725969569551e-03
5.50338709677419e-01 7.43298175482600e-01 5.30100764914272e-03
5.55145161290323e-01 7.39173333869431e-01 5.29456101421770e-03
5.59951612903226e-01 7.35071382553640e-01 5.28792399918147e-03
5.64758064516129e-01 7.30992194508393e-01 5.28110071981217e-03
5.69564516129032e-01 7.26935643418731e-01 5.27409521499936e-03
5.74370967741936e-01 7.22901603656727e-01 5.26691144227128e-03
5.79177419354839e-01 7.18889950298590e-01 5.25955327332173e-03
5.83983870967742e-01 7.14900559120468e-01 5.25202450903969e-03
5.88790322580645e-01 7.10933306574463e-01 5.24432887292211e-03
5.93596774193548e-01 7.06988069811486e-01 5.23647001486275e-03
5.98403225806452e-01 7.03064726651208e-01 5.22845151529748e-03
6.03209677419355e-01 6.99163155597818e-01 5.22027687856406e-03
6.08016129032258e-01 6.95283235835975e-01 5.21194954698885e-03
6.12822580645161e-01 6.91424847208283e-01 5.20347289441802e-03
6.17629032258065e-01 6.87587870236454e-01 5.19485022962912e-03
6.22435483870968e-01 6.83772186093112e-01 5.18608480008480e-03
6.27241935483871e-01 6.79977676616369e-01 5.17717978543621e-03
6.32048387096774e-01 6.76204224305891e-01 5.16813831076796e-03
6.36854838709678e-01 6.72451712301717e-01 5.15896344214822e-03
6.41661290322581e-01 6.68720024398240e-01 5.14965818220095e-03
6.46467741935484e-01 6.65009045040331e-01 5.14022548292971e-03
6.51274193548387e-01 6.61318659302865e-01 5.13066823945186e-03
6.56080645161290e-01 6.57648752909570e-01 5.12098929293992e-03
6.60887096774194e-01 6.53999212207414e-01 5.11119143387823e-03
6.65693548387097e-01 6.50369924179537e-01 5.10127739580284e-03
6.70500000000000e-01 6.46760776441515e-01 5.09124986740541e-03
6.75306451612903e-01 6.43171657222044e-01 5.08111148644483e-03
6.80112903225807e-01 6.39602455380468e-01 5.07086484243886e-03
6.84919354838710e-01 6.36053060382659e-01 5.06051247965842e-03
6.89725806451613e-01 6.32523362313010e-01 5.05005689105245e-03
6.94532258064516e-01 6.29013251870811e-01 5.03950052969850e-03
6.99338709677419e-01 6.25522620352017e-01 5.02884580289567e-03
7.04145161290323e-01 6.22051359665563e-01 5.01809507464009e-03
7.08951612903226e-01 6.18599362310624e-01 5.00725066839168e-03
7.13758064516129e-01 6.15166521387745e-01 4.99631486119303e-03
7.18564516129032e-01 6.11752730595327e-01 4.98528989451747e-03
7.23370967741936e-01 6.08357884212403e-01 4.97417797014085e-03
7.28177419354839e-01 6.04981877109333e-01 4.96298124604678e-03
7.32983870967742e-01 6.01624604744360e-01 4.95170184697096e-03
7.37790322580645e-01 5.98285963146898e-01 4.94034185877004e-03
7.42596774193548e-01 5.94965848932176e-01 4.92890333061693e-03
7.47403225806452e-01 5.91664159280427e-01 4.91738827746767e-03
7.52209677419355e-01 5.88380791946835e-01 4.90579867446174e-03
7.57016129032258e-01 5.85115645258188e-01 4.89413646693734e-03
7.61822580645161e-01 5.81868618097064e-01 4.88240356499231e-03
7.66629032258065e-01 5.78639609915497e-01 4.87060184552388e-03
7.71435483870968e-01 5.75428520715294e-01 4.85873315452873e-03
7.76241935483871e-01 5.72235251057302e-01 4.84679930169840e-03
7.81048387096774e-01 5.69059702058155e-01 4.83480206994503e-03
7.85854838709678e-01 5.65901775375287e-01 4.82274321157034e-03
7.90661290322581e-01 5.62761373215850e-01 4.81062444446897e-03
7.95467741935484e-01 5.59638398333520e-01 4.79844746140449e-03
8.00274193548387e-01 5.56532754013941e-01 4.78621392484531e-03
8.05080645161290e-01 5.53444344087047e-01 4.77392546880187e-03
8.09887096774194e-01 5.50373072908976e-01 4.76158370090325e-03
8.14693548387097e-01 5.47318845370374e-01 4.74919019727431e-03
8.19500000000000e-01 5.44281566893303e-01 4.73674651137178e-03
8.24306451612903e-01 5.41261143417425e-01 4.72425416900693e-03
8.29112903225807e-01 5.38257481411531e-01 4.71171467006659e-03
8.33919354838710e-01 5.35270487856396e-01 4.69912949046261e-03
8.38725806451613e-01 5.32300070252524e-01 4.68650007719315e-03
8.43532258064516e-01 5.29346136617153e-01 4.67382785677124e-03
8.48338709677419e-01 5.26408595471123e-01 4.66111423042494e-03
8.53145161290323e-01 5.23487355849679e-01 4.64836057571374e-03
8.57951612903226e-01 5.20582327286202e-01 4.63556824836416e-03
8.62758064516129e-01 5.17693419819441e-01 4.62273857751109e-03
8.67564516129032e-01 5.14820543990602e-01 4.60987287374273e-03
8.72370967741936e-01 5.11963610830868e-01 4.59697242569593e-03
8.77177419354839e-01 5.09122531868380e-01 4.58403849668306e-03
8.81983870967742e-01 5.06297219125368e-01 4.57107233253979e-03
8.86790322580645e-01 5.03487585106021e-01 4.55807515708495e-03
8.91596774193548e-01 5.00693542806257e-01 4.54504817359492e-03
8.96403225806452e-01 4.97915005698711e-01 4.53199256648244e-03
9.01209677419355e-01 4.95151887739245e-01 4.51890949679691e-03
9.06016129032258e-01 4.92404103364171e-01 4.50580010972349e-03
9.10822580645161e-01 4.89671567478701e-01 4.49266553021117e-03
9.15629032258065e-01 4.86954195466120e-01 4.47950686436426e-03
9.20435483870968e-01 4.84251903173508e-01 4.46632520102894e-03
9.25241935483871e-01 4.81564606917833e-01 4.45312160746081e-03
9.30048387096774e-01 4.78892223483250e-01 4.43989713649676e-03
9.34854838709677e-01 4.76234670110104e-01 4.42665282343993e-03
9.39661290322581e-01 4.73591864500813e-01 4.41338968297642e-03
9.44467741935484e-01 4.70963724817209e-01 4.40010871617748e-03
9.49274193548387e-01 4.68350169669835e-01 4.38681090636554e-03
9.54080645161290e-01 4.65751118126267e-01 4.37349722039425e-03
9.58887096774194e-01 4.63166489697899e-01 4.36016861010881e-03
9.63693548387097e-01 4.60596204345447e-01 4.34682600825301e-03
9.68500000000000e-01 4.58040182476364e-01 4.33347033517100e-03
9.73306451612903e-01 4.55498344934640e-01 4.32010249482877e-03
9.78112903225807e-01 4.52970613008622e-01 4.30672337602574e-03
9.82919354838710e-01 4.50456908418429e-01 4.29333385378048e-03
9.87725806451613e-01 4.47957153321102e-01 4.27993478539051e-03
9.92532258064516e-01 4.45471270308103e-01 4.26652701685066e-03
9.97338709677419e-01 4.42999182395574e-01 4.25311137901973e-03
1.00214516129032e+00 4.40540813031701e-01 4.23968869172781e-03
1.00695161290323e+00 4.38096086077623e-01 4.22625975423144e-03
1.01175806451613e+00 4.35664925838317e-01 4.21282535229661e-03
1.01656451612903e+00 4.33247257026887e-01 4.19938626743529e-03
1.02137096774194e+00 4.30843004774221e-01 4.18594326304127e-03
1.02617741935484e+00 4.28452094626704e-01 4.17249709908737e-03
1.03098387096774e+00 4.26074452521535e-01 4.15904850389671e-03
1.03579032258065e+00 4.23710004851888e-01 4.14559819337369e-03
1.04059677419355e+00 4.21358678396794e-01 4.13214689040020e-03
1.04540322580645e+00 4.19020400341619e-01 4.11869529611827e-03
1.05020967741936e+00 4.16695098275780e-01 4.10524409978635e-03
1.05501612903226e+00 4.14382700190552e-01 4.09179397896316e-03
1.05982258064516e+00 4.12083134476819e-01 4.07834560863293e-03
1.06462903225806e+00 4.09796329902043e-01 4.06489963447519e-03
1.06943548387097e+00 4.07522215670828e-01 4.05145669104349e-03
1.07424193548387e+00 4.05260721359607e-01 4.03801742010180e-03
1.07904838709677e+00 4.03011776935607e-01 4.02458244343539e-03
1.08385483870968e+00 4.00775312754705e-01 4.01115237217318e-03
1.08866129032258e+00 3.98551259559268e-01 3.99772781548313e-03
1.09346774193548e+00 3.96339548456403e-01 3.98430935505465e-03
1.09827419354839e+00 3.94140110974937e-01 3.97089756243684e-03
1.10308064516129e+00 3.91952879003857e-01 3.95749301652979e-03
1.10788709677419e+00 3.89777784810115e-01 3.94409627763070e-03
1.11269354838710e+00 3.87614761036542e-01 3.93070789631811e-03
1.11750000000000e+00 3.85463740699770e-01 3.91732842174274e-03
1.12230645161290e+00 3.83324657169680e-01 3.90395837725911e-03
1.12711290322581e+00 3.81197444223043e-01 3.89059827696901e-03
1.13191935483871e+00 3.79082035985463e-01 3.87724864241437e-03
1.13672580645161e+00 3.76978366948095e-01 3.86390997779257e-03
1.14153225806452e+00 3.74886371965627e-01 3.85058277842815e-03
1.14633870967742e+00 3.72805986254275e-01 3.83726753868082e-03
1.15114516129032e+00 3.70737145372348e-01 3.82396472866784e-03
1.15595161290323e+00 3.68679785270788e-01 3.81067481005564e-03
1.16075806451613e+00 3.66633842238364e-01 3.79739825199509e-03
1.16556451612903e+00 3.64599252917401e-01 3.78413550744748e-03
1.17037096774194e+00 3.62575954301810e-01 3.77088702126560e-03
1.17517741935484e+00 3.60563883735161e-01 3.75765323774020e-03
1.17998387096774e+00 3.58562978892294e-01 3.74443457835719e-03
1.18479032258065e+00 3.56573177826960e-01 3.73123145687709e-03
1.18959677419355e+00 3.54594418920063e-01 3.71804429455266e-03
1.19440322580645e+00 3.52626640894455e-01 3.70487349750836e-03
1.19920967741936e+00 3.50669782813024e-01 3.69171946445362e-03
1.20401612903226e+00 3.48723784076837e-01 3.67858258679151e-03
1.20882258064516e+00 3.46788584423248e-01 3.66546325577341e-03
1.21362903225806e+00 3.44864123908675e-01 3.65236184139907e-03
1.21843548387097e+00 3.42950342953061e-01 3.63927870670398e-03
1.22324193548387e+00 3.41047182291463e-01 3.62621422217848e-03
1.22804838709677e+00 3.39154582987811e-01 3.61316874431243e-03
1.23285483870968e+00 3.37272486433101e-01 3.60014262290816e-03
1.23766129032258e+00 3.35400834343578e-01 3.58713620791198e-03
1.24246774193548e+00 3.33539568744416e-01 3.57414982924181e-03
1.24727419354839e+00 3.31688632011683e-01 3.56118381043932e-03
1.25208064516129e+00 3.29847966826565e-01 3.54823848244963e-03
1.25688709677419e+00 3.28017516188321e-01 3.53531416310846e-03
1.26169354838710e+00 3.26197223412536e-01 3.52241116412637e-03
1.26650000000000e+00 3.24387032129361e-01 3.50952979761509e-03
1.27130645161290e+00 3.22586886268050e-01 3.49667035679589e-03
1.27611290322581e+00 3.20796730096589e-01 3.48383312904934e-03
1.28091935483871e+00 3.19016508178384e-01 3.47101840908677e-03
1.28572580645161e+00 3.17246165384475e-01 3.45822647933492e-03
1.29053225806452e+00 3.15485646891833e-01 3.44545761660771e-03
1.29533870967742e+00 3.13734898181669e-01 3.43271209834252e-03
1.30014516129032e+00 3.11993865024766e-01 3.41999018414744e-03
1.30495161290323e+00 3.10262493518927e-01 3.40729212827762e-03
1.30975806451613e+00 3.08540730047970e-01 3.39461819223010e-03
1.31456451612903e+00 3.06828521293251e-01 3.38196862598057e-03
1.31937096774194e+00 3.05125814232001e-01 3.36934367435969e-03
1.32417741935484e+00 3.03432556135709e-01 3.35674358301365e-03
1.32898387096774e+00 3.01748694556192e-01 3.34416858074975e-03
1.33379032258065e+00 3.00074177361004e-01 3.33161889146788e-03
1.33859677419355e+00 2.98408952694600e-01 3.31909474620627e-03
1.34340322580645e+00 2.96752968989200e-01 3.30659636519038e-03
1.34820967741936e+00 2.95106174963185e-01 3.29412396392807e-03
1.35301612903226e+00 2.93468519619527e-01 3.28167775327758e-03
1.35782258064516e+00 2.91839952244200e-01 3.26925794510893e-03
1.36262903225806e+00 2.90220422393101e-01 3.25686473553115e-03
1.36743548387097e+00 2.88609879925195e-01 3.24449831621788e-03
1.37224193548387e+00 2.87008274966071e-01 3.23215888584160e-03
1.37704838709677e+00 2.85415557918084e-01 3.21984663302046e-03
1.38185483870968e+00 2.83831679458835e-01 3.20756174210758e-03
1.38666129032258e+00 2.82256590539630e-01 3.19530439860696e-03
1.39146774193548e+00 2.80690242373069e-01 3.18307477311787e-03
1.39627419354839e+00 2.79132586464398e-01 3.17087303217163e-03
1.40108064516129e+00 2.77583574576973e-01 3.15869934917320e-03
1.40588709677419e+00 2.76043158741826e-01 3.14655388807850e-03
1.41069354838710e+00 2.74511291256190e-01 3.13443680893196e-03
1.41550000000000e+00 2.72987924682024e-01 3.12234827304689e-03
1.42030645161290e+00 2.71473011834205e-01 3.11028842763358e-03
1.42511290322581e+00 2.69966505810225e-01 3.09825741617151e-03
1.42991935483871e+00 2.68468359957419e-01 3.08625538888262e-03
1.43472580645161e+00 2.66978527882016e-01 3.07428248710303e-03
1.43953225806452e+00 2.65496963447700e-01 3.06233884858107e-03
1.44433870967742e+00 2.64023620774185e-01 3.05042461243457e-03
1.44914516129032e+00 2.62558454226002e-01 3.03853990443063e-03
1.45395161290323e+00 2.61101418440613e-01 3.02668484691496e-03
1.45875806451613e+00 2.59652468297322e-01 3.01485956883802e-03
1.46356451612903e+00 2.58211558925827e-01 3.00306419079039e-03
1.46837096774194e+00 2.56778645704822e-01 2.99129883007265e-03
1.47317741935484e+00 2.55353684260629e-01 2.97956360543906e-03
1.47798387096774e+00 2.53936630456526e-01 2.96785862299979e-03
1.48279032258065e+00 2.52527440419392e-01 2.95618398572737e-03
1.48759677419355e+00 2.51126070510195e-01 2.94453980305783e-03
1.49240322580645e+00 2.49732477332072e-01 2.93292617655832e-03
1.49720967741936e+00 2.48346617728980e-01 2.92134320477887e-03
1.50201612903226e+00 2.46968448784372e-01 2.90979098329624e-03
1.50682258064516e+00 2.45597927819862e-01 2.89826960922639e-03
1.51162903225806e+00 2.44235012385173e-01 2.88677916781440e-03
1.51643548387097e+00 2.42879660283143e-01 2.87531974147069e-03
