Energy (eV)          EEDF (eV^-(3/2))     First Anisotropy
3.26136363636364e-02 4.69852399210415e-02 2.65678616817434e-05
9.78409090909091e-02 4.66175278943095e-02 4.38468252670764e-05
1.63068181818182e-01 4.62526936261069e-02 5.78185298675551e-05
2.28295454545455e-01 4.58907145932453e-02 6.83939203169542e-05
2.93522727272727e-01 4.55315684505491e-02 7.71816911685567e-05
3.58750000000000e-01 4.51752330275952e-02 8.47909183098791e-05
4.23977272727273e-01 4.48216863284271e-02 9.15372169284557e-05
4.89204545454546e-01 4.44709065271796e-02 9.76114240407195e-05
5.54431818181818e-01 4.41228719698153e-02 1.03140267367872e-04
6.19659090909091e-01 4.37775611717707e-02 1.08213428677604e-04
6.84886363636364e-01 4.34349528171633e-02 1.12897378528147e-04
7.50113636363636e-01 4.30950257557974e-02 1.17243153443557e-04
8.15340909090909e-01 4.27577590035639e-02 1.21291047110913e-04
8.80568181818182e-01 4.24231317409874e-02 1.25073599229436e-04
9.45795454545455e-01 4.20911233107115e-02 1.28617584195727e-04
1.01102272727273e+00 4.17617132174577e-02 1.31945382546324e-04
1.07625000000000e+00 4.14348811275409e-02 1.35075956325307e-04
1.14147727272727e+00 4.11106068619052e-02 1.38025558443821e-04
1.20670454545455e+00 4.07888704057485e-02 1.40808262241504e-04
1.27193181818182e+00 4.04696518977333e-02 1.43436364026325e-04
1.33715909090909e+00 4.01529316320039e-02 1.45920692465848e-04
1.40238636363636e+00 3.98386900547122e-02 1.48270851085868e-04
1.46761363636364e+00 3.95269077696951e-02 1.50495411682581e-04
1.53284090909091e+00 3.92175655301380e-02 1.52602070000387e-04
1.59806818181818e+00 3.89106442379621e-02 1.54597769951392e-04
1.66329545454545e+00 3.86061249485683e-02 1.56488807520460e-04
1.72852272727273e+00 3.83039888635374e-02 1.58280916532138e-04
1.79375000000000e+00 3.80042173315691e-02 1.59979339209558e-04
1.85897727272727e+00 3.77067918457481e-02 1.61588885514761e-04
1.92420454545455e+00 3.74116940473029e-02 1.63113984126078e-04
1.98943181818182e+00 3.71189057194261e-02 1.64558725880407e-04
2.05465909090909e+00 3.68284087878901e-02 1.65926900117439e-04
2.11988636363636e+00 3.65401853185714e-02 1.67222026031007e-04
2.18511363636364e+00 3.62542175204856e-02 1.68447380514769e-04
2.25034090909091e+00 3.59704877404399e-02 1.69606022599103e-04
2.31556818181818e+00 3.56889784621944e-02 1.70700813131877e-04
2.38079545454545e+00 3.54096723090975e-02 1.71734433653657e-04
2.44602272727273e+00 3.51325520392036e-02 1.72709402873578e-04
2.51125000000000e+00 3.48576005455033e-02 1.73628090498784e-04
2.57647727272727e+00 3.45848008538195e-02 1.74492729552609e-04
2.64170454545455e+00 3.43141361249830e-02 1.75305427966184e-04
2.70693181818182e+00 3.40455896504970e-02 1.76068178958242e-04
2.77215909090909e+00 3.37791448526330e-02 1.76782869658808e-04
2.83738636363636e+00 3.35147852824776e-02 1.77451288899824e-04
2.90261363636364e+00 3.32524946217438e-02 1.78075134810096e-04
2.96784090909091e+00 3.29922566788789e-02 1.78656021844850e-04
3.03306818181818e+00 3.27340553882038e-02 1.79195485811141e-04
3.09829545454545e+00 3.24778748115108e-02 1.79694989733280e-04
3.16352272727273e+00 3.22236991344381e-02 1.80155929061463e-04
3.22875000000000e+00 3.19715126663877e-02 1.80579635825895e-04
3.29397727272727e+00 3.17212998388051e-02 1.80967382469270e-04
3.35920454545455e+00 3.14730452065221e-02 1.81320385869190e-04
3.42443181818182e+00 3.12267334444561e-02 1.81639811045379e-04
3.48965909090909e+00 3.09823493474634e-02 1.81926774015245e-04
3.55488636363636e+00 3.07398778287210e-02 1.82182344456760e-04
3.62011363636364e+00 3.04993039208587e-02 1.82407548642501e-04
3.68534090909091e+00 3.02606127729357e-02 1.82603372285913e-04
3.75056818181818e+00 3.00237896496100e-02 1.82770762067323e-04
3.81579545454545e+00 2.97888199321446e-02 1.82910628130941e-04
3.88102272727273e+00 2.95556891155567e-02 1.83023846293005e-04
3.94625000000000e+00 2.93243828083804e-02 1.83111259601188e-04
4.01147727272727e+00 2.90948867312115e-02 1.83173679815870e-04
4.07670454545455e+00 2.88671867175576e-02 1.83211889221240e-04
4.14193181818182e+00 2.86412687112040e-02 1.83226642327439e-04
4.20715909090909e+00 2.84171187659435e-02 1.83218667000610e-04
4.27238636363636e+00 2.81947230441967e-02 1.83188665547861e-04
4.33761363636364e+00 2.79740678177306e-02 1.83137316136937e-04
4.40284090909091e+00 2.77551394652144e-02 1.83065274239507e-04
4.46806818181818e+00 2.75379244714371e-02 1.82973173054169e-04
4.53329545454545e+00 2.73224094279451e-02 1.82861624818318e-04
4.59852272727273e+00 2.71085810307202e-02 1.82731221948142e-04
4.66375000000000e+00 2.68964260798623e-02 1.82582537696812e-04
4.72897727272727e+00 2.66859314783339e-02 1.82416126799837e-04
4.79420454545455e+00 2.64770842324961e-02 1.82232526449973e-04
4.85943181818182e+00 2.62698714499424e-02 1.82032257226831e-04
4.92465909090909e+00 2.60642803391647e-02 1.81815823585448e-04
4.98988636363636e+00 2.58602982083570e-02 1.81583714341915e-04
5.05511363636364e+00 2.56579124658654e-02 1.81336403477832e-04
5.12034090909091e+00 2.54571106181599e-02 1.81074350996870e-04
5.18556818181818e+00 2.52578802691055e-02 1.80798002943199e-04
5.25079545454545e+00 2.50602091203574e-02 1.80507792200196e-04
5.31602272727273e+00 2.48640849694255e-02 1.80204139167687e-04
5.38125000000000e+00 2.46694957093172e-02 1.79887452051553e-04
5.44647727272727e+00 2.44764293274388e-02 1.79558127160364e-04
5.51170454545455e+00 2.42848739059239e-02 1.79216549502003e-04
5.57693181818182e+00 2.40948176198138e-02 1.78863093358952e-04
5.64215909090909e+00 2.39062487366940e-02 1.78498122502532e-04
5.70738636363636e+00 2.37191556156436e-02 1.78121990417242e-04
5.77261363636364e+00 2.35335267075054e-02 1.77735040811840e-04
5.83784090909091e+00 2.33493505531716e-02 1.77337608187755e-04
5.90306818181818e+00 2.31666157829075e-02 1.76930017699413e-04
5.96829545454545e+00 2.29853111165845e-02 1.76512585694010e-04
6.03352272727273e+00 2.28054253620368e-02 1.76085620157148e-04
6.09875000000000e+00 2.26269474146899e-02 1.75649420834601e-04
6.16397727272727e+00 2.24498662565894e-02 1.75204279366981e-04
6.22920454545455e+00 2.22741709565879e-02 1.74750479690794e-04
6.29443181818182e+00 2.20998506687930e-02 1.74288298428417e-04
6.35965909090909e+00 2.19268946321937e-02 1.73818004973683e-04
6.42488636363636e+00 2.17552921697313e-02 1.73339861591282e-04
6.49011363636364e+00 2.15850326884439e-02 1.72854123769780e-04
6.55534090909091e+00 2.14161056779988e-02 1.72361040629912e-04
6.62056818181818e+00 2.12485007100672e-02 1.71860854725339e-04
6.68579545454546e+00 2.10822074384441e-02 1.71353802435395e-04
6.75102272727273e+00 2.09172155976368e-02 1.70840114281102e-04
6.81625000000000e+00 2.07535150024913e-02 1.70320014964984e-04
6.88147727272727e+00 2.05910955473295e-02 1.69793723425034e-04
6.94670454545455e+00 2.04299472060368e-02 1.69261453123431e-04
7.01193181818182e+00 2.02700600307234e-02 1.68723412329178e-04
7.07715909090909e+00 2.01114241513532e-02 1.68179804139821e-04
7.14238636363636e+00 1.99540297749155e-02 1.67630826517272e-04
7.20761363636364e+00 1.97978671854837e-02 1.67076672547141e-04
7.27284090909091e+00 1.96429267429446e-02 1.66517530748929e-04
7.33806818181818e+00 1.94891988824218e-02 1.65953584859843e-04
7.40329545454545e+00 1.93366741143167e-02 1.65385014135919e-04
7.46852272727273e+00 1.91853430230840e-02 1.64811993588730e-04
7.53375000000000e+00 1.90351962668655e-02 1.64234693983671e-04
7.59897727272727e+00 1.88862245767189e-02 1.63653281851880e-04
7.66420454545455e+00 1.87384187566359e-02 1.63067919708846e-04
7.72943181818182e+00 1.85917696823777e-02 1.62478766269503e-04
7.79465909090909e+00 1.84462683011132e-02 1.61885976437356e-04
7.85988636363636e+00 1.83019056306775e-02 1.61289701306887e-04
7.92511363636364e+00 1.81586727595701e-02 1.60690088362806e-04
7.99034090909091e+00 1.80165608458460e-02 1.60087281725336e-04
8.05556818181818e+00 1.78755611165846e-02 1.59481421936340e-04
8.12079545454545e+00 1.77356648678755e-02 1.58872646198919e-04
8.18602272727273e+00 1.75968634637481e-02 1.58261088561980e-04
8.25125000000000e+00 1.74591483358178e-02 1.57646879897334e-04
8.31647727272727e+00 1.73225109825941e-02 1.57030147889334e-04
8.38170454545455e+00 1.71869429694503e-02 1.56411017206642e-04
8.44693181818182e+00 1.70524359276031e-02 1.55789609671965e-04
8.51215909090909e+00 1.69189815537646e-02 1.55166044234627e-04
8.57738636363636e+00 1.67865716094761e-02 1.54540436955237e-04
8.64261363636364e+00 1.66551979210638e-02 1.53912901163994e-04
8.70784090909091e+00 1.65248523786654e-02 1.53283547660261e-04
8.77306818181818e+00 1.63955269357408e-02 1.52652484509594e-04
8.83829545454545e+00 1.62672136090196e-02 1.52019817239607e-04
8.90352272727273e+00 1.61399044775598e-02 1.51385648988233e-04
8.96875000000000e+00 1.60135916824093e-02 1.50750080470379e-04
9.03397727272727e+00 1.58882674259836e-02 1.50113209955866e-04
9.09920454545455e+00 1.57639239720015e-02 1.49475133408203e-04
9.16443181818182e+00 1.56405536445859e-02 1.48835944622139e-04
9.22965909090909e+00 1.55181488279326e-02 1.48195735188333e-04
9.29488636363636e+00 1.53967019657095e-02 1.47554594468805e-04
9.36011363636364e+00 1.52762055609834e-02 1.46912609725900e-04
9.42534090909091e+00 1.51566521753605e-02 1.46269866288123e-04
9.49056818181818e+00 1.50380344285366e-02 1.45626447361596e-04
9.55579545454546e+00 1.49203449982179e-02 1.44982434193355e-04
9.62102272727273e+00 1.48035766192888e-02 1.44337906193130e-04
9.68625000000000e+00 1.46877220834914e-02 1.43692940895455e-04
9.75147727272727e+00 1.45727742388634e-02 1.43047613931840e-04
9.81670454545455e+00 1.44587259896512e-02 1.42401999145188e-04
9.88193181818182e+00 1.43455702955138e-02 1.41756168703576e-04
9.94715909090909e+00 1.42333001712091e-02 1.41110193061755e-04
1.00123863636364e+01 1.41219086860517e-02 1.40464140932246e-04
1.00776136363636e+01 1.40113889638197e-02 1.39818079494390e-04
1.01428409090909e+01 1.39017341816680e-02 1.39172073958546e-04
1.02080681818182e+01 1.37929375715443e-02 1.38526188506736e-04
1.02732954545455e+01 1.36849924162267e-02 1.37880485897549e-04
1.03385227272727e+01 1.35778920521368e-02 1.37235026706097e-04
1.04037500000000e+01 1.34716298678451e-02 1.36589870067018e-04
1.04689772727273e+01 1.33661993046698e-02 1.35945074328851e-04
1.05342045454545e+01 1.32615938532378e-02 1.35300696438885e-04
1.05994318181818e+01 1.31578070561331e-02 1.34656791314551e-04
1.06646590909091e+01 1.30548325064771e-02 1.34013412553774e-04
1.07298863636364e+01 1.29526638484833e-02 1.33370613060741e-04
1.07951136363636e+01 1.28512947741942e-02 1.32728444454488e-04
1.08603409090909e+01 1.27507190259784e-02 1.32086956167651e-04
1.09255681818182e+01 1.26509303960896e-02 1.31446197316654e-04
1.09907954545455e+01 1.25519227235332e-02 1.30806215812797e-04
1.10560227272727e+01 1.24536898964512e-02 1.30167057778462e-04
1.11212500000000e+01 1.23562258508168e-02 1.29528768201615e-04
1.11864772727273e+01 1.22595245709243e-02 1.28891391512668e-04
1.12517045454545e+01 1.21635800864136e-02 1.28254971035024e-04
1.13169318181818e+01 1.20683864745199e-02 1.27619548423924e-04
1.13821590909091e+01 1.19739378588312e-02 1.26985164292965e-04
1.14473863636364e+01 1.18802284097421e-02 1.26351858766424e-04
1.15126136363636e+01 1.17872523416278e-02 1.25719670950932e-04
1.15778409090909e+01 1.16950039149664e-02 1.25088638132125e-04
1.16430681818182e+01 1.16034774359390e-02 1.24458797432449e-04
1.17082954545455e+01 1.15126672537121e-02 1.23830185018599e-04
1.17735227272727e+01 1.14225677624677e-02 1.23202835580048e-04
1.18387500000000e+01 1.13331734002588e-02 1.22576782907591e-04
1.19039772727273e+01 1.12444786494106e-02 1.21952060403608e-04
1.19692045454545e+01 1.11564780339366e-02 1.21328700590933e-04
1.20344318181818e+01 1.10691661214556e-02 1.20706734611510e-04
1.20996590909091e+01 1.09825375221015e-02 1.20086192780722e-04
1.21648863636364e+01 1.08965868888953e-02 1.19467105076475e-04
1.22301136363636e+01 1.08113089152862e-02 1.18849500666864e-04
1.22953409090909e+01 1.07266983369646e-02 1.18233407193206e-04
1.23605681818182e+01 1.06427499314976e-02 1.17618852242951e-04
1.24257954545455e+01 1.05594585159633e-02 1.17005862642226e-04
1.24910227272727e+01 1.04768189486854e-02 1.16394463989613e-04
1.25562500000000e+01 1.03948261282262e-02 1.15784681168988e-04
1.26214772727273e+01 1.03134749937160e-02 1.15176538802135e-04
1.26867045454545e+01 1.02327605226001e-02 1.14570060809386e-04
1.27519318181818e+01 1.01526777322792e-02 1.13965269961318e-04
1.28171590909091e+01 1.00732216791489e-02 1.13362188370539e-04
1.28823863636364e+01 9.99438745890475e-03 1.12760837925851e-04
1.29476136363636e+01 9.91617020439661e-03 1.12161239869620e-04
1.30128409090909e+01 9.83856508718088e-03 1.11563414157175e-04
1.30780681818182e+01 9.76156731718942e-03 1.10967380768056e-04
1.31432954545455e+01 9.68517214066270e-03 1.10373159073750e-04
1.32085227272727e+01 9.60937484163690e-03 1.09780767420514e-04
1.32737500000000e+01 9.53417074105542e-03 1.09190223585030e-04
1.33389772727273e+01 9.45955519703861e-03 1.08601545176828e-04
1.34042045454545e+01 9.38552360291388e-03 1.08014749244913e-04
1.34694318181818e+01 9.31207138862362e-03 1.07429851876494e-04
1.35346590909091e+01 9.23919401987634e-03 1.06846868634267e-04
1.35998863636364e+01 9.16688699839684e-03 1.06265814942691e-04
1.36651136363636e+01 9.09514586004801e-03 1.05686705709497e-04
1.37303409090909e+01 9.02396617616434e-03 1.05109554752632e-04
1.37955681818182e+01 8.95334355325026e-03 1.04534375969664e-04
1.38607954545455e+01 8.88327363116929e-03 1.03961182772069e-04
1.39260227272727e+01 8.81375208442269e-03 1.03389987711573e-04
1.39912500000000e+01 8.74477462136321e-03 1.02820802885865e-04
1.40564772727273e+01 8.67633698441617e-03 1.02253640297080e-04
1.41217045454545e+01 8.60843494835185e-03 1.01688511499283e-04
1.41869318181818e+01 8.54106432149726e-03 1.01125427238980e-04
1.42521590909091e+01 8.47422094498420e-03 1.00564397844677e-04
1.43173863636364e+01 8.40790069295422e-03 1.00005433571215e-04
1.43826136363636e+01 8.34209947090992e-03 9.94485442604857e-05
1.44478409090909e+01 8.27681321686369e-03 9.88937388282846e-05
1.45130681818182e+01 8.21203790106262e-03 9.83410263087817e-05
1.45782954545455e+01 8.14776952439776e-03 9.77904153478303e-05
1.46435227272727e+01 8.08400411950636e-03 9.72419138680034e-05
1.47087500000000e+01 8.02073775007438e-03 9.66955294304401e-05
1.47739772727273e+01 7.95796651101759e-03 9.61512695547650e-05
1.48392045454545e+01 7.89568652696246e-03 9.56091414029079e-05
1.49044318181818e+01 7.83389395329172e-03 9.50691514567413e-05
1.49696590909091e+01 7.77258497547675e-03 9.45313058657273e-05
1.50348863636364e+01 7.71175580924530e-03 9.39956107543441e-05
1.51001136363636e+01 7.65140269913057e-03 9.34620719177194e-05
1.51653409090909e+01 7.59152191946322e-03 9.29306943616352e-05
1.52305681818182e+01 7.53210977412038e-03 9.24014832367055e-05
1.52957954545455e+01 7.47316259512482e-03 9.18744433840928e-05
1.53610227272727e+01 7.41467674359739e-03 9.13495790349556e-05
1.54262500000000e+01 7.35664860913701e-03 9.08268941336926e-05
1.54914772727273e+01 7.29907460996856e-03 9.03063926238742e-05
1.55567045454545e+01 7.24195119160415e-03 8.97880781644039e-05
1.56219318181818e+01 7.18527482774728e-03 8.92719538401921e-05
1.56871590909091e+01 7.12904201969882e-03 8.87580224728708e-05
1.57523863636364e+01 7.07324929649399e-03 8.82462868956795e-05
1.58176136363636e+01 7.01789321362263e-03 8.77367496801688e-05
1.58828409090909e+01 6.96297035388772e-03 8.72294127234672e-05
1.59480681818182e+01 6.90847732717624e-03 8.67242780848540e-05
1.60132954545455e+01 6.85441076922291e-03 8.62213475780740e-05
1.60785227272727e+01 6.80076734243494e-03 8.57206225014272e-05
1.61437500000000e+01 6.74754373533975e-03 8.52221039269415e-05
1.62089772727273e+01 6.69473666270548e-03 8.47257929562513e-05
1.62742045454545e+01 6.64234286435866e-03 8.42316904655863e-05
1.63394318181818e+01 6.59035910596774e-03 8.37397968459110e-05
1.64046590909091e+01 6.53878217851354e-03 8.32501122809711e-05
1.64698863636364e+01 6.48760889840076e-03 8.27626369933964e-05
1.65351136363636e+01 6.43683610632699e-03 8.22773709991216e-05
1.66003409090909e+01 6.38646066802709e-03 8.17943137367279e-05
1.66655681818182e+01 6.33647947406399e-03 8.13134648174328e-05
1.67307954545455e+01 6.28688943873544e-03 8.08348236589093e-05
1.67960227272727e+01 6.23768750078959e-03 8.03583892427164e-05
1.68612500000000e+01 6.18887062293212e-03 7.98841603732794e-05
1.69264772727273e+01 6.14043579192415e-03 7.94121359071610e-05
1.69917045454545e+01 6.09238001753598e-03 7.89423145237964e-05
1.70569318181818e+01 6.04470033322734e-03 7.84746944918783e-05
1.71221590909091e+01 5.99739379567454e-03 7.80092739184744e-05
1.71873863636364e+01 5.95045748486086e-03 7.75460509696296e-05
1.72526136363636e+01 5.90388850307512e-03 7.70850236495093e-05
1.73178409090909e+01 5.85768397555834e-03 7.66261894672676e-05
1.73830681818182e+01 5.81184105031255e-03 7.61695461100826e-05
1.74482954545455e+01 5.76635689713232e-03 7.57150911139790e-05
1.75135227272727e+01 5.72122870822670e-03 7.52628216456795e-05
1.75787500000000e+01 5.67645369777865e-03 7.48127347348015e-05
1.76439772727273e+01 5.63202910202420e-03 7.43648274795023e-05
1.77092045454545e+01 5.58795217832503e-03 7.39190968402042e-05
1.77744318181818e+01 5.54422020575996e-03 7.34755394294301e-05
1.78396590909091e+01 5.50083048470216e-03 7.30341517352482e-05
1.79048863636364e+01 5.45778033689198e-03 7.25949303192036e-05
1.79701136363636e+01 5.41506710454876e-03 7.21578716175553e-05
1.80353409090909e+01 5.37268815093347e-03 7.17229716416338e-05
1.81005681818182e+01 5.33064086017397e-03 7.12902265823961e-05
1.81657954545455e+01 5.28892263640566e-03 7.08596325142963e-05
1.82310227272727e+01 5.24753090431278e-03 7.04311851989160e-05
1.82962500000000e+01 5.20646310873417e-03 7.00048802933745e-05
1.83614772727273e+01 5.16571671472678e-03 6.95807135349837e-05
1.84267045454545e+01 5.12528920674228e-03 6.91586805555083e-05
1.84919318181818e+01 5.08517808914221e-03 6.87387766919637e-05
1.85571590909091e+01 5.04538088581935e-03 6.83209971872308e-05
1.86223863636364e+01 5.00589514025606e-03 6.79053373678229e-05
1.86876136363636e+01 4.96671841473521e-03 6.74917924648895e-05
1.87528409090909e+01 4.92784829083051e-03 6.70803573444887e-05
1.88180681818182e+01 4.88928236924676e-03 6.66710270510900e-05
1.88832954545455e+01 4.85101826905605e-03 6.62637965409723e-05
1.89485227272727e+01 4.81305362816974e-03 6.58586605053744e-05
1.90137500000000e+01 4.77538610298504e-03 6.54556135577156e-05
1.90789772727273e+01 4.73801336843563e-03 6.50546503995188e-05
1.91442045454545e+01 4.70093311725954e-03 6.46557656530816e-05
1.92094318181818e+01 4.66414306044841e-03 6.42589536910338e-05
1.92746590909091e+01 4.62764092690801e-03 6.38642088166137e-05
1.93398863636364e+01 4.59142446350451e-03 6.34715254234492e-05
1.94051136363636e+01 4.55549143436255e-03 6.30808978342533e-05
1.94703409090909e+01 4.51983962129306e-03 6.26923200578873e-05
1.95355681818182e+01 4.48446682364716e-03 6.23057862783441e-05
1.96007954545455e+01 4.44937085763644e-03 6.19212906145735e-05
1.96660227272727e+01 4.41454955674488e-03 6.15388269610918e-05
1.97312500000000e+01 4.38000077141181e-03 6.11583891563232e-05
1.97964772727273e+01 4.34572236907172e-03 6.07799711318233e-05
1.98617045454545e+01 4.31171223350246e-03 6.04035667614287e-05
1.99269318181818e+01 4.27796826521753e-03 6.00291697076238e-05
1.99921590909091e+01 4.24448838116134e-03 5.96567735836576e-05
2.00573863636364e+01 4.21127051474548e-03 5.92863720972868e-05
2.01226136363636e+01 4.17831261522349e-03 5.89179589053380e-05
2.01878409090909e+01 4.14561264806457e-03 5.85515273947437e-05
2.02530681818182e+01 4.11316859481999e-03 5.81870711227838e-05
2.03182954545455e+01 4.08097845251730e-03 5.78245836005954e-05
2.03835227272727e+01 4.04904023402045e-03 5.74640581494484e-05
2.04487500000000e+01 4.01735196774482e-03 5.71054880522057e-05
2.05139772727273e+01 3.98591169768833e-03 5.67488666876282e-05
2.05792045454545e+01 3.95471748285021e-03 5.63941873943072e-05
