Energy (eV)          EEDF (eV^-(3/2))     First Anisotropy
1.37058823529412e-02 2.53367109192394e-01 1.62213215768024e-04
4.11176470588235e-02 2.50805552204006e-01 2.67405047375405e-04
6.85294117647059e-02 2.48269892713571e-01 3.51801438701124e-04
9.59411764705882e-02 2.45759868895856e-01 4.15190285965697e-04
1.23352941176471e-01 2.43275221567322e-01 4.67458537606075e-04
1.50764705882353e-01 2.40815694170474e-01 5.12362414830482e-04
1.78176470588235e-01 2.38381032759091e-01 5.51854703639190e-04
2.05588235294118e-01 2.35970985919789e-01 5.87119916430144e-04
2.33000000000000e-01 2.33585304798247e-01 6.18947105575221e-04
2.60411764705882e-01 2.31223743066185e-01 6.47896390667832e-04
2.87823529411765e-01 2.28886056865229e-01 6.74384190450263e-04
3.15235294117647e-01 2.26572004812541e-01 6.98731195556474e-04
3.42647058823529e-01 2.24281347972758e-01 7.21191346602204e-04
3.70058823529412e-01 2.22013849811899e-01 7.41970313299369e-04
3.97470588235294e-01 2.19769276194533e-01 7.61237806682489e-04
4.24882352941176e-01 2.17547395352293e-01 7.79136082991851e-04
4.52294117647059e-01 2.15347977865123e-01 7.95785993895933e-04
4.79705882352941e-01 2.13170796622040e-01 8.11291400143886e-04
5.07117647058824e-01 2.11015626813324e-01 8.25742462792704e-04
5.34529411764706e-01 2.08882245906266e-01 8.39218148587661e-04
5.61941176470588e-01 2.06770433609648e-01 8.51788163235982e-04
5.89352941176471e-01 2.04679971863580e-01 8.63514468076539e-04
6.16764705882353e-01 2.02610644812781e-01 8.74452487118941e-04
6.44176470588235e-01 2.00562238787559e-01 8.84652077835201e-04
6.71588235294118e-01 1.98534542271772e-01 8.94158319166423e-04
6.99000000000000e-01 1.96527345891061e-01 9.03012157940575e-04
7.26411764705882e-01 1.94540442390662e-01 9.11250947107026e-04
7.53823529411765e-01 1.92573626605527e-01 9.18908892489015e-04
7.81235294117647e-01 1.90626695447664e-01 9.26017428486990e-04
8.08647058823529e-01 1.88699447884729e-01 9.32605538924518e-04
8.36058823529412e-01 1.86791684911967e-01 9.38700028117160e-04
8.63470588235294e-01 1.84903209539024e-01 9.44325753494636e-04
8.90882352941176e-01 1.83033826767122e-01 9.49505827306406e-04
9.18294117647059e-01 1.81183343570980e-01 9.54261791392473e-04
9.45705882352941e-01 1.79351568872686e-01 9.58613768456272e-04
9.73117647058824e-01 1.77538313528202e-01 9.62580594079925e-04
1.00052941176471e+00 1.75743390307567e-01 9.66179934001115e-04
1.02794117647059e+00 1.73966613876850e-01 9.69428390136752e-04
1.05535294117647e+00 1.72207800755685e-01 9.72341584891382e-04
1.08276470588235e+00 1.70466769350430e-01 9.74934247651792e-04
1.11017647058824e+00 1.68743339870951e-01 9.77220285335952e-04
1.13758823529412e+00 1.67037334376151e-01 9.79212846662887e-04
1.16500000000000e+00 1.65348576693587e-01 9.80924380610921e-04
1.19241176470588e+00 1.63676892461300e-01 9.82366688023447e-04
1.21982352941176e+00 1.62022109051690e-01 9.83550969136672e-04
1.24723529411765e+00 1.60384055609999e-01 9.84487865628105e-04
1.27464705882353e+00 1.58762562982092e-01 9.85187499669802e-04
1.30205882352941e+00 1.57157463749913e-01 9.85659508527978e-04
1.32947058823529e+00 1.55568592162861e-01 9.85913076964784e-04
1.35688235294118e+00 1.53995784170495e-01 9.85956965964702e-04
1.38429411764706e+00 1.52438877357227e-01 9.85799539857120e-04
1.41170588235294e+00 1.50897710972526e-01 9.85448788691637e-04
1.43911764705882e+00 1.49372125879240e-01 9.84912357830764e-04
1.46652941176471e+00 1.47861964539164e-01 9.84197558237996e-04
1.49394117647059e+00 1.46367071027363e-01 9.83311392309247e-04
1.52135294117647e+00 1.44887290975311e-01 9.82260570058114e-04
1.54876470588235e+00 1.43422471594629e-01 9.81051525043526e-04
1.57617647058824e+00 1.41972461622673e-01 9.79690429810303e-04
1.60358823529412e+00 1.40537111344545e-01 9.78183209543995e-04
1.63100000000000e+00 1.39116272540975e-01 9.76535555416523e-04
1.65841176470588e+00 1.37709798508737e-01 9.74752936359737e-04
1.68582352941176e+00 1.36317544010688e-01 9.72840610667323e-04
1.71323529411765e+00 1.34939365294706e-01 9.70803636199650e-04
1.74064705882353e+00 1.33575120045762e-01 9.68646880524734e-04
1.76805882352941e+00 1.32224667403487e-01 9.66375029807005e-04
1.79547058823529e+00 1.30887867916159e-01 9.63992597715799e-04
1.82288235294118e+00 1.29564583557006e-01 9.61503933203583e-04
1.85029411764706e+00 1.28254677679991e-01 9.58913228368786e-04
1.87770588235294e+00 1.26958015034951e-01 9.56224524071500e-04
1.90511764705882e+00 1.25674461731766e-01 9.53441721798180e-04
1.93252941176471e+00 1.24403885227574e-01 9.50568582394516e-04
1.95994117647059e+00 1.23146154332626e-01 9.47608736937540e-04
1.98735294117647e+00 1.21901139170710e-01 9.44565691289785e-04
2.01476470588235e+00 1.20668711191178e-01 9.41442831141262e-04
2.04217647058824e+00 1.19448743130811e-01 9.38243427252037e-04
2.06958823529412e+00 1.18241109024981e-01 9.34970639941354e-04
2.09700000000000e+00 1.17045684170881e-01 9.31627523798492e-04
2.12441176470588e+00 1.15862345137889e-01 9.28217031692417e-04
2.15182352941176e+00 1.14690969732093e-01 9.24742019019056e-04
2.17923529411765e+00 1.13531437005903e-01 9.21205247293547e-04
2.20664705882353e+00 1.12383627223820e-01 9.17609387991904e-04
2.23405882352941e+00 1.11247421871345e-01 9.13957025778434e-04
2.26147058823529e+00 1.10122703621923e-01 9.10250661990867e-04
2.28888235294118e+00 1.09009356345205e-01 9.06492717547844e-04
2.31629411764706e+00 1.07907265075110e-01 9.02685536119743e-04
2.34370588235294e+00 1.06816316017482e-01 8.98831385835225e-04
2.37111764705882e+00 1.05736396523737e-01 8.94932465861060e-04
2.39852941176471e+00 1.04667395079834e-01 8.90990903278916e-04
2.42594117647059e+00 1.03609201308017e-01 8.87008759254149e-04
2.45335294117647e+00 1.02561705937765e-01 8.82988030585554e-04
2.48076470588235e+00 1.01524800811801e-01 8.78930651766194e-04
2.50817647058824e+00 1.00498378857985e-01 8.74838497303307e-04
2.53558823529412e+00 9.94823340948546e-02 8.70713383594062e-04
2.56300000000000e+00 9.84765616044167e-02 8.66557071059618e-04
2.59041176470588e+00 9.74809575372568e-02 8.62371265856124e-04
2.61782352941176e+00 9.64954190861874e-02 8.58157621841841e-04
2.64523529411765e+00 9.55198444909532e-02 8.53917742140543e-04
2.67264705882353e+00 9.45541330127036e-02 8.49653180958578e-04
2.70005882352941e+00 9.35981849383170e-02 8.45365445015981e-04
2.72747058823529e+00 9.26519015556651e-02 8.41055995228159e-04
2.75488235294118e+00 9.17151851575798e-02 8.36726248017970e-04
2.78229411764706e+00 9.07879390178779e-02 8.32377576874864e-04
2.80970588235294e+00 8.98700673949931e-02 8.28011312853426e-04
2.83711764705882e+00 8.89614755119032e-02 8.23628748855477e-04
2.86452941176471e+00 8.80620695467235e-02 8.19231136509758e-04
2.89194117647059e+00 8.71717566323574e-02 8.14819690231145e-04
2.91935294117647e+00 8.62904448344736e-02 8.10395587767564e-04
2.94676470588235e+00 8.54180431542151e-02 8.05959971182983e-04
2.97417647058824e+00 8.45544615068276e-02 8.01513948066945e-04
3.00158823529412e+00 8.36996107241111e-02 7.97058592441701e-04
3.02900000000000e+00 8.28534025336761e-02 7.92594945891766e-04
3.05641176470588e+00 8.20157495611532e-02 7.88124018402223e-04
3.08382352941176e+00 8.11865653100543e-02 7.83646789414919e-04
3.11123529411765e+00 8.03657641637550e-02 7.79164208604015e-04
3.13864705882353e+00 7.95532613659386e-02 7.74677196864908e-04
3.16605882352941e+00 7.87489730223660e-02 7.70186647032538e-04
3.19347058823529e+00 7.79528160818813e-02 7.65693424808675e-04
3.22088235294118e+00 7.71647083379817e-02 7.61198369427914e-04
3.24829411764706e+00 7.63845684103658e-02 7.56702294527837e-04
3.27570588235294e+00 7.56123157463157e-02 7.52205988216582e-04
3.30311764705882e+00 7.48478706050591e-02 7.47710216099501e-04
3.33052941176471e+00 7.40911540497875e-02 7.43215718557204e-04
3.35794117647059e+00 7.33420879462637e-02 7.38723213630893e-04
3.38535294117647e+00 7.26005949457559e-02 7.34233397183059e-04
3.41276470588235e+00 7.18665984858917e-02 7.29746943414310e-04
3.44017647058824e+00 7.11400227740656e-02 7.25264505565057e-04
3.46758823529412e+00 7.04207927881490e-02 7.20786716396723e-04
3.49500000000000e+00 6.97088342603553e-02 7.16314188853598e-04
3.52241176470588e+00 6.90040736778144e-02 7.11847516511122e-04
3.54982352941177e+00 6.83064382668810e-02 7.07387274200575e-04
3.57723529411765e+00 6.76158559935823e-02 7.02934018427379e-04
3.60464705882353e+00 6.69322555483535e-02 6.98488287961308e-04
3.63205882352941e+00 6.62555663463678e-02 6.94050604226519e-04
3.65947058823529e+00 6.55857185126860e-02 6.89621471859934e-04
3.68688235294118e+00 6.49226428824748e-02 6.85201379075528e-04
3.71429411764706e+00 6.42662709865574e-02 6.80790798192566e-04
3.74170588235294e+00 6.36165350515278e-02 6.76390185542424e-04
3.76911764705882e+00 6.29733679873780e-02 6.71999983708165e-04
3.79652941176471e+00 6.23367033807432e-02 6.67620619247234e-04
3.82394117647059e+00 6.17064754930334e-02 6.63252504833047e-04
3.85135294117647e+00 6.10826192470034e-02 6.58896039256332e-04
3.87876470588235e+00 6.04650702265650e-02 6.54551607714200e-04
3.90617647058824e+00 5.98537646637116e-02 6.50219582247368e-04
3.93358823529412e+00 5.92486394382516e-02 6.45900322010802e-04
3.96100000000000e+00 5.86496320650772e-02 6.41594173688806e-04
3.98841176470588e+00 5.80566806938237e-02 6.37301471748470e-04
4.01582352941177e+00 5.74697240964717e-02 6.33022538834112e-04
4.04323529411765e+00 5.68887016669380e-02 6.28757686004779e-04
4.07064705882353e+00 5.63135534090009e-02 6.24507213109219e-04
4.09805882352941e+00 5.57442199358271e-02 6.20271409008422e-04
4.12547058823529e+00 5.51806424582107e-02 6.16050551932406e-04
4.15288235294118e+00 5.46227627840404e-02 6.11844909688900e-04
4.18029411764706e+00 5.40705233068424e-02 6.07654740002872e-04
4.20770588235294e+00 5.35238670051930e-02 6.03480290368198e-04
4.23511764705882e+00 5.29827374328194e-02 5.99321799751048e-04
4.26252941176471e+00 5.24470787128937e-02 5.95179496713779e-04
4.28994117647059e+00 5.19168355360018e-02 5.91053601046926e-04
4.31735294117647e+00 5.13919531494549e-02 5.86944323704838e-04
4.34476470588235e+00 5.08723773565347e-02 5.82851866973467e-04
4.37217647058824e+00 5.03580545060757e-02 5.78776424756497e-04
4.39958823529412e+00 4.98489314916705e-02 5.74718182732773e-04
4.42700000000000e+00 4.93449557415164e-02 5.70677318629219e-04
4.45441176470588e+00 4.88460752175826e-02 5.66654002368729e-04
4.48182352941176e+00 4.83522384057138e-02 5.62648396330656e-04
4.50923529411765e+00 4.78633943147631e-02 5.58660655489642e-04
4.53664705882353e+00 4.73794924669444e-02 5.54690927664368e-04
4.56405882352941e+00 4.69004828969342e-02 5.50739353648000e-04
4.59147058823529e+00 4.64263161424654e-02 5.46806067445728e-04
4.61888235294118e+00 4.59569432434010e-02 5.42891196397311e-04
4.64629411764706e+00 4.54923157325622e-02 5.38994861404097e-04
4.67370588235294e+00 4.50323856347767e-02 5.35117176769432e-04
4.70111764705882e+00 4.45771054588922e-02 5.31258251517446e-04
4.72852941176471e+00 4.41264281929609e-02 5.27418187856613e-04
4.75594117647059e+00 4.36803073022212e-02 5.23597082444746e-04
4.78335294117647e+00 4.32386967205173e-02 5.19795026300726e-04
4.81076470588235e+00 4.28015508492599e-02 5.16012104903464e-04
4.83817647058824e+00 4.23688245490574e-02 5.12248398385685e-04
4.86558823529412e+00 4.19404731386594e-02 5.08503981626830e-04
4.89300000000000e+00 4.15164523867936e-02 5.04778924438469e-04
4.92041176470588e+00 4.10967185110939e-02 5.01073291651733e-04
4.94782352941176e+00 4.06812281701375e-02 4.97387143294682e-04
4.97523529411765e+00 4.02699384623594e-02 4.93720534674478e-04
5.00264705882353e+00 3.98628069182837e-02 4.90073516547337e-04
5.03005882352941e+00 3.94597914994272e-02 4.86446135195547e-04
5.05747058823529e+00 3.90608505907190e-02 4.82838432590325e-04
5.08488235294118e+00 3.86659429993943e-02 4.79250446464228e-04
5.11229411764706e+00 3.82750279475981e-02 4.75682210467138e-04
5.13970588235294e+00 3.78880650712703e-02 4.72133754013826e-04
5.16711764705882e+00 3.75050144136613e-02 4.68605103317559e-04
5.19452941176471e+00 3.71258364212709e-02 4.65096280134148e-04
5.22194117647059e+00 3.67504919419365e-02 4.61607302754194e-04
5.24935294117647e+00 3.63789422178985e-02 4.58138185909973e-04
5.27676470588235e+00 3.60111488846472e-02 4.54688940833761e-04
5.30417647058824e+00 3.56470739641547e-02 4.51259575392123e-04
5.33158823529412e+00 3.52866798637184e-02 4.47850094140607e-04
5.35900000000000e+00 3.49299293693553e-02 4.44460498452613e-04
5.38641176470588e+00 3.45767856446430e-02 4.41090786570650e-04
5.41382352941176e+00 3.42272122242723e-02 4.37740953729914e-04
5.44123529411765e+00 3.38811730128864e-02 4.34410992206412e-04
5.46864705882353e+00 3.35386322787877e-02 4.31100891435585e-04
5.49605882352941e+00 3.31995546527770e-02 4.27810638057305e-04
5.52347058823529e+00 3.28639051220092e-02 4.24540216029735e-04
5.55088235294118e+00 3.25316490288338e-02 4.21289606671537e-04
5.57829411764706e+00 3.22027520647963e-02 4.18058788771135e-04
5.60570588235294e+00 3.18771802694804e-02 4.14847738448562e-04
5.63311764705882e+00 3.15549000252166e-02 4.11656429972751e-04
5.66052941176471e+00 3.12358780536593e-02 4.08484834735075e-04
5.68794117647059e+00 3.09200814140278e-02 4.05332922034306e-04
5.71535294117647e+00 3.06074774974719e-02 4.02200658987427e-04
5.74276470588235e+00 3.02980340259057e-02 3.99088010563133e-04
5.77017647058824e+00 2.99917190465059e-02 3.95994939676517e-04
5.79758823529412e+00 2.96885009305493e-02 3.92921407220399e-04
5.82500000000000e+00 2.93883483680411e-02 3.89867372156277e-04
5.85241176470588e+00 2.90912303665574e-02 3.86832791543505e-04
5.87982352941177e+00 2.87971162459994e-02 3.83817620626699e-04
5.90723529411765e+00 2.85059756374418e-02 3.80821812862953e-04
5.93464705882353e+00 2.82177784780093e-02 3.77845320005846e-04
5.96205882352941e+00 2.79324950097318e-02 3.74888092130729e-04
5.98947058823529e+00 2.76500957745400e-02 3.71950077715484e-04
6.01688235294118e+00 2.73705516131282e-02 3.69031223664023e-04
6.04429411764706e+00 2.70938336600657e-02 3.66131475383944e-04
6.07170588235294e+00 2.68199133426670e-02 3.63250776664723e-04
6.09911764705882e+00 2.65487623766568e-02 3.60389070328238e-04
6.12652941176471e+00 2.62803527632854e-02 3.57546297389337e-04
6.15394117647059e+00 2.60146567877418e-02 3.54722397680814e-04
6.18135294117647e+00 2.57516470145563e-02 3.51917309771860e-04
6.20876470588235e+00 2.54912962864784e-02 3.49130970986218e-04
6.23617647058824e+00 2.52335777199861e-02 3.46363317469721e-04
6.26358823529412e+00 2.49784647041726e-02 3.43614284207043e-04
6.29100000000000e+00 2.47259308963594e-02 3.40883805086603e-04
6.31841176470588e+00 2.44759502209924e-02 3.38171812916043e-04
6.34582352941177e+00 2.42284968653556e-02 3.35478239484644e-04
6.37323529411765e+00 2.39835452784776e-02 3.32803015577523e-04
6.40064705882353e+00 2.37410701669433e-02 3.30146071035742e-04
6.42805882352941e+00 2.35010464938104e-02 3.27507334769285e-04
6.45547058823529e+00 2.32634494745173e-02 3.24886734814847e-04
6.48288235294118e+00 2.30282545758098e-02 3.22284198347735e-04
6.51029411764706e+00 2.27954375117427e-02 3.19699651737488e-04
6.53770588235294e+00 2.25649742426166e-02 3.17133020442260e-04
6.56511764705882e+00 2.23368409714147e-02 3.14584229529247e-04
6.59252941176471e+00 2.21110141413736e-02 3.12053202987425e-04
6.61994117647059e+00 2.18874704345696e-02 3.09539864227783e-04
6.64735294117647e+00 2.16661867681544e-02 3.07044136010670e-04
6.67476470588235e+00 2.14471402933099e-02 3.04565940454326e-04
6.70217647058824e+00 2.12303083915688e-02 3.02105199083389e-04
6.72958823529412e+00 2.10156686737809e-02 2.99661832836549e-04
6.75700000000000e+00 2.08031989765178e-02 2.97235762113211e-04
6.78441176470588e+00 2.05928773610496e-02 2.94826906780355e-04
6.81182352941176e+00 2.03846821098321e-02 2.92435186217417e-04
6.83923529411765e+00 2.01785917254947e-02 2.90060519322356e-04
6.86664705882353e+00 1.99745849274067e-02 2.87702824554889e-04
6.89405882352941e+00 1.97726406506775e-02 2.85362019941789e-04
6.92147058823529e+00 1.95727380428005e-02 2.83038023118500e-04
6.94888235294118e+00 1.93748564626644e-02 2.80730751333744e-04
6.97629411764706e+00 1.91789754772734e-02 2.78440121489585e-04
7.00370588235294e+00 1.89850748607705e-02 2.76166050050716e-04
7.03111764705882e+00 1.87931345915003e-02 2.73908453462606e-04
7.05852941176471e+00 1.86031348499639e-02 2.71667247588123e-04
7.08594117647059e+00 1.84150560175723e-02 2.69442348109499e-04
7.11335294117647e+00 1.82288786735551e-02 2.67233670464661e-04
7.14076470588235e+00 1.80445835940067e-02 2.65041129849778e-04
7.16817647058824e+00 1.78621517488638e-02 2.62864641254239e-04
7.19558823529412e+00 1.76815643009636e-02 2.60704119462642e-04
7.22300000000000e+00 1.75028026030896e-02 2.58559479088454e-04
7.25041176470588e+00 1.73258481970419e-02 2.56430634575497e-04
7.27782352941176e+00 1.71506828107485e-02 2.54317500230345e-04
7.30523529411765e+00 1.69772883573482e-02 2.52219990223353e-04
7.33264705882353e+00 1.68056469323665e-02 2.50138018619826e-04
7.36005882352941e+00 1.66357408128104e-02 2.48071499380554e-04
7.38747058823529e+00 1.64675524544077e-02 2.46020346391848e-04
7.41488235294118e+00 1.63010644907134e-02 2.43984473465690e-04
7.44229411764706e+00 1.61362597304107e-02 2.41963794368612e-04
7.46970588235294e+00 1.59731211564297e-02 2.39958222744295e-04
7.49711764705882e+00 1.58116319235213e-02 2.37967672450650e-04
7.52452941176471e+00 1.56517753565342e-02 2.35992057097445e-04
7.55194117647059e+00 1.54935349493255e-02 2.34031290370391e-04
7.57935294117647e+00 1.53368943622146e-02 2.32085285975914e-04
7.60676470588235e+00 1.51818374211262e-02 2.30153957640055e-04
7.63417647058824e+00 1.50283481151012e-02 2.28237219133659e-04
7.66158823529412e+00 1.48764105954515e-02 2.26334984270937e-04
7.68900000000000e+00 1.47260091733265e-02 2.24447166933768e-04
7.71641176470588e+00 1.45771283188793e-02 2.22573681069919e-04
7.74382352941176e+00 1.44297526588871e-02 2.20714440716428e-04
7.77123529411765e+00 1.42838669759301e-02 2.18869359997530e-04
7.79864705882353e+00 1.41394562060638e-02 2.17038353147179e-04
7.82605882352941e+00 1.39965054380097e-02 2.15221334506720e-04
7.85347058823529e+00 1.38549999108796e-02 2.13418218546532e-04
7.88088235294118e+00 1.37149250133777e-02 2.11628919863457e-04
7.90829411764706e+00 1.35762662815751e-02 2.09853353201645e-04
7.93570588235294e+00 1.34390093981234e-02 2.08091433386773e-04
7.96311764705882e+00 1.33031401902475e-02 2.06343075598565e-04
7.99052941176471e+00 1.31686446282943e-02 2.04608194990832e-04
8.01794117647059e+00 1.30355088247854e-02 2.02886706953499e-04
8.04535294117647e+00 1.29037190323162e-02 2.01178527065057e-04
8.07276470588235e+00 1.27732616427943e-02 1.99483571089253e-04
8.10017647058824e+00 1.26441231853850e-02 1.97801754993250e-04
8.12758823529412e+00 1.25162903257613e-02 1.96132994944158e-04
8.15500000000000e+00 1.23897498640946e-02 1.94477207326509e-04
8.18241176470588e+00 1.22644887343157e-02 1.92834308738581e-04
8.20982352941176e+00 1.21404940021498e-02 1.91204216009242e-04
8.23723529411765e+00 1.20177528643888e-02 1.89586846194107e-04
8.26464705882353e+00 1.18962526469694e-02 1.87982116591721e-04
8.29205882352941e+00 1.17759808042564e-02 1.86389944739581e-04
8.31947058823529e+00 1.16569249171629e-02 1.84810248429715e-04
8.34688235294118e+00 1.15390726924448e-02 1.83242945704555e-04
8.37429411764706e+00 1.14224119608623e-02 1.81687954871916e-04
8.40170588235294e+00 1.13069306764847e-02 1.80145194449248e-04
8.42911764705882e+00 1.11926169150266e-02 1.78614583384491e-04
8.45652941176471e+00 1.10794588726261e-02 1.77096040743487e-04
8.48394117647059e+00 1.09674448650249e-02 1.75589485922353e-04
8.51135294117647e+00 1.08565633258310e-02 1.74094838606692e-04
8.53876470588235e+00 1.07468028058481e-02 1.72612018767093e-04
8.56617647058824e+00 1.06381519713766e-02 1.71140946672178e-04
8.59358823529412e+00 1.05305996035532e-02 1.69681542883967e-04
8.62100000000000e+00 1.04241345966896e-02 1.68233728270430e-04
8.64841176470588e+00 1.03187459576217e-02 1.66797424000800e-04
