Energy (eV)          EEDF (eV^-(3/2))     First Anisotropy
1.45348837209302e-02 1.63099213067786e-01 9.30279733402996e-05
4.36046511627907e-02 1.61795068790900e-01 1.53517564741109e-04
7.26744186046512e-02 1.60501352473743e-01 2.02400969535774e-04
1.01744186046512e-01 1.59217980736717e-01 2.39380443100099e-04
1.30813953488372e-01 1.57944870860060e-01 2.70091603573286e-04
1.59883720930233e-01 1.56681940797845e-01 2.96668719288572e-04
1.88953488372093e-01 1.55429109143004e-01 3.20218004742610e-04
2.18023255813953e-01 1.54186295156236e-01 3.41408489723938e-04
2.47093023255814e-01 1.52953418729539e-01 3.60684554783314e-04
2.76162790697674e-01 1.51730400407779e-01 3.78360747381179e-04
3.05232558139535e-01 1.50517161364517e-01 3.94670258170381e-04
3.34302325581395e-01 1.49313623400575e-01 4.09792171734182e-04
3.63372093023256e-01 1.48119708949632e-01 4.23867908708470e-04
3.92441860465116e-01 1.46935341058576e-01 4.37011699996203e-04
4.21511627906977e-01 1.45760443396092e-01 4.49317557659191e-04
4.50581395348837e-01 1.44594940235173e-01 4.60864083206127e-04
4.79651162790698e-01 1.43438756459955e-01 4.71717884476748e-04
5.08720930232558e-01 1.42291817549922e-01 4.81936066380010e-04
5.37790697674419e-01 1.41154049585369e-01 4.91568086079045e-04
5.66860465116279e-01 1.40025379235054e-01 5.00657162746264e-04
5.95930232558139e-01 1.38905733752324e-01 5.09241363770516e-04
6.25000000000000e-01 1.37795040976071e-01 5.17354457799059e-04
6.54069767441860e-01 1.36693229318507e-01 5.25026591049875e-04
6.83139534883721e-01 1.35600227767770e-01 5.32284830715525e-04
7.12209302325581e-01 1.34515965876455e-01 5.39153606278976e-04
7.41279069767442e-01 1.33440373763662e-01 5.45655071071478e-04
7.70348837209302e-01 1.32373382105588e-01 5.51809402283564e-04
7.99418604651163e-01 1.31314922131485e-01 5.57635049405874e-04
8.28488372093023e-01 1.30264925623168e-01 5.63148944596633e-04
8.57558139534884e-01 1.29223324905358e-01 5.68366679877580e-04
8.86627906976744e-01 1.28190052846383e-01 5.73302658077231e-04
9.15697674418605e-01 1.27165042848967e-01 5.77970222160385e-04
9.44767441860465e-01 1.26148228850653e-01 5.82381766527521e-04
9.73837209302326e-01 1.25139545314995e-01 5.86548833410862e-04
1.00290697674419e+00 1.24138927231725e-01 5.90482196504466e-04
1.03197674418605e+00 1.23146310109288e-01 5.94191935063205e-04
1.06104651162791e+00 1.22161629969011e-01 5.97687496808027e-04
1.09011627906977e+00 1.21184823346793e-01 6.00977753336927e-04
1.11918604651163e+00 1.20215827294753e-01 6.04071055066577e-04
1.14825581395349e+00 1.19254579350609e-01 6.06975272470500e-04
1.17732558139535e+00 1.18301017560418e-01 6.09697832821646e-04
1.20639534883721e+00 1.17355080465685e-01 6.12245758386012e-04
1.23546511627907e+00 1.16416707107003e-01 6.14625700398463e-04
1.26453488372093e+00 1.15485836996876e-01 6.16843964966548e-04
1.29360465116279e+00 1.14562410139244e-01 6.18906534949206e-04
1.32267441860465e+00 1.13646367024767e-01 6.20819100363482e-04
1.35174418604651e+00 1.12737648605926e-01 6.22587075717483e-04
1.38081395348837e+00 1.11836196314420e-01 6.24215616629702e-04
1.40988372093023e+00 1.10941952050211e-01 6.25709639578963e-04
1.43895348837209e+00 1.10054858184041e-01 6.27073839695954e-04
1.46802325581395e+00 1.09174857534994e-01 6.28312702999421e-04
1.49709302325581e+00 1.08301893385653e-01 6.29430517362803e-04
1.52616279069767e+00 1.07435909472085e-01 6.30431386888918e-04
1.55523255813953e+00 1.06576849985801e-01 6.31319244914983e-04
1.58430232558140e+00 1.05724659553397e-01 6.32097862220490e-04
1.61337209302326e+00 1.04879283249854e-01 6.32770854391437e-04
1.64244186046512e+00 1.04040666589319e-01 6.33341692656255e-04
1.67151162790698e+00 1.03208755526606e-01 6.33813713716276e-04
1.70058139534884e+00 1.02383496438628e-01 6.34190125321354e-04
1.72965116279070e+00 1.01564836136123e-01 6.34474011264499e-04
1.75872093023256e+00 1.00752721855124e-01 6.34668339802198e-04
1.78779069767442e+00 9.99471012580873e-02 6.34775971305291e-04
1.81686046511628e+00 9.91479224168655e-02 6.34799662066189e-04
1.84593023255814e+00 9.83551338231039e-02 6.34742067693102e-04
1.87500000000000e+00 9.75686843803056e-02 6.34605749828272e-04
1.90406976744186e+00 9.67885234046500e-02 6.34393182256333e-04
1.93313953488372e+00 9.60146006093202e-02 6.34106753495679e-04
1.96220930232558e+00 9.52468661137473e-02 6.33748769087693e-04
1.99127906976744e+00 9.44852704362094e-02 6.33321457081849e-04
2.02034883720930e+00 9.37297644943872e-02 6.32826973022106e-04
2.04941860465116e+00 9.29802995908843e-02 6.32267401686285e-04
2.07848837209302e+00 9.22368274214773e-02 6.31644758598686e-04
2.10755813953488e+00 9.14993000681885e-02 6.30960994598556e-04
2.13662790697674e+00 9.07676699996208e-02 6.30217999990846e-04
2.16569767441860e+00 9.00418900575369e-02 6.29417605678905e-04
2.19476744186047e+00 8.93219134642431e-02 6.28561584123133e-04
2.22383720930233e+00 8.86076938160881e-02 6.27651653212667e-04
2.25290697674419e+00 8.78991850836105e-02 6.26689479779693e-04
2.28197674418605e+00 8.71963415990647e-02 6.25676680294902e-04
2.31104651162791e+00 8.64991180630453e-02 6.24614821426153e-04
2.34011627906977e+00 8.58074695383708e-02 6.23505423369559e-04
2.36918604651163e+00 8.51213514500731e-02 6.22349962869457e-04
2.39825581395349e+00 8.44407195737729e-02 6.21149873595413e-04
2.42732558139535e+00 8.37655300416362e-02 6.19906546409796e-04
2.45639534883721e+00 8.30957393366074e-02 6.18621332271390e-04
2.48546511627907e+00 8.24313042922647e-02 6.17295544864268e-04
2.51453488372093e+00 8.17721820819624e-02 6.15930460741282e-04
2.54360465116279e+00 8.11183302241976e-02 6.14527318794306e-04
2.57267441860465e+00 8.04697065796688e-02 6.13087325155956e-04
2.60174418604651e+00 7.98262693409669e-02 6.11611652587826e-04
2.63081395348837e+00 7.91879770375198e-02 6.10101440422710e-04
2.65988372093023e+00 7.85547885303457e-02 6.08557796898257e-04
2.68895348837209e+00 7.79266630117437e-02 6.06981801265155e-04
2.71802325581395e+00 7.73035599956292e-02 6.05374503670107e-04
2.74709302325581e+00 7.66854393220010e-02 6.03736924972894e-04
2.77616279069767e+00 7.60722611519717e-02 6.02070058837452e-04
2.80523255813953e+00 7.54639859673708e-02 6.00374873618241e-04
2.83430232558140e+00 7.48605745616691e-02 5.98652312141621e-04
2.86337209302326e+00 7.42619880440196e-02 5.96903291431322e-04
2.89244186046512e+00 7.36681878345429e-02 5.95128704596547e-04
2.92151162790698e+00 7.30791356638571e-02 5.93329422532967e-04
2.95058139534884e+00 7.24947935645410e-02 5.91506293629653e-04
2.97965116279070e+00 7.19151238747934e-02 5.89660143427817e-04
3.00872093023256e+00 7.13400892339554e-02 5.87791776337117e-04
3.03779069767442e+00 7.07696525819774e-02 5.85901977179903e-04
3.06686046511628e+00 7.02037771513786e-02 5.83991510843954e-04
3.09593023255814e+00 6.96424264705633e-02 5.82061121893614e-04
3.12500000000000e+00 6.90855643595622e-02 5.80111536138991e-04
3.15406976744186e+00 6.85331549294482e-02 5.78143462045931e-04
3.18313953488372e+00 6.79851625747520e-02 5.76157590350411e-04
3.21220930232558e+00 6.74415519764700e-02 5.74154593636354e-04
3.24127906976744e+00 6.69022880980101e-02 5.72135127777331e-04
3.27034883720930e+00 6.63673361845639e-02 5.70099833230863e-04
3.29941860465116e+00 6.58366617559444e-02 5.68049334626204e-04
3.32848837209302e+00 6.53102306093154e-02 5.65984240319643e-04
3.35755813953488e+00 6.47880088153283e-02 5.63905143725259e-04
3.38662790697674e+00 6.42699627174586e-02 5.61812624508205e-04
3.41569767441860e+00 6.37560589252340e-02 5.59707248154967e-04
3.44476744186047e+00 6.32462643167120e-02 5.57589565514688e-04
3.47383720930233e+00 6.27405460347961e-02 5.55460114032164e-04
3.50290697674419e+00 6.22388714865424e-02 5.53319418852463e-04
3.53197674418605e+00 6.17412083367500e-02 5.51167992380622e-04
3.56104651162791e+00 6.12475245102119e-02 5.49006333815468e-04
3.59011627906977e+00 6.07577881881975e-02 5.46834930295983e-04
3.61918604651163e+00 6.02719678077362e-02 5.44654257927269e-04
3.64825581395349e+00 5.97900320555451e-02 5.42464781335211e-04
3.67732558139535e+00 5.93119498700729e-02 5.40266953197774e-04
3.70639534883721e+00 5.88376904381401e-02 5.38061215313966e-04
3.73546511627907e+00 5.83672231942040e-02 5.35847999559768e-04
3.76453488372093e+00 5.79005178146003e-02 5.33627727441930e-04
3.79360465116279e+00 5.74375442193994e-02 5.31400809291477e-04
3.82267441860465e+00 5.69782725703880e-02 5.29167646622104e-04
3.85174418604651e+00 5.65226732655385e-02 5.26928631325363e-04
3.88081395348837e+00 5.60707169407290e-02 5.24684145209851e-04
3.90988372093023e+00 5.56223744666310e-02 5.22434560948920e-04
3.93895348837209e+00 5.51776169479586e-02 5.20180242927261e-04
3.96802325581395e+00 5.47364157182164e-02 5.17921546804300e-04
3.99709302325581e+00 5.42987423412615e-02 5.15658819058993e-04
4.02616279069767e+00 5.38645686083249e-02 5.13392397879507e-04
4.05523255813953e+00 5.34338665372523e-02 5.11122613957405e-04
4.08430232558140e+00 5.30066083675125e-02 5.08849790057082e-04
4.11337209302326e+00 5.25827665616151e-02 5.06574240568000e-04
4.14244186046512e+00 5.21623138022584e-02 5.04296272341425e-04
4.17151162790698e+00 5.17452229915653e-02 5.02016185437004e-04
4.20058139534884e+00 5.13314672463355e-02 4.99734272699754e-04
4.22965116279070e+00 5.09210198993312e-02 4.97450819321199e-04
4.25872093023256e+00 5.05138544965457e-02 4.95166103627631e-04
4.28779069767442e+00 5.01099447964362e-02 4.92880397783192e-04
4.31686046511628e+00 4.97092647654048e-02 4.90593967375600e-04
4.34593023255814e+00 4.93117885789644e-02 4.88307070987067e-04
4.37500000000000e+00 4.89174906191210e-02 4.86019960938195e-04
4.40406976744186e+00 4.85263454736058e-02 4.83732883951110e-04
4.43313953488372e+00 4.81383279315717e-02 4.81446080744752e-04
4.46220930232558e+00 4.77534129846494e-02 4.79159785616351e-04
4.49127906976744e+00 4.73715758244375e-02 4.76874227144390e-04
4.52034883720930e+00 4.69927918417360e-02 4.74589628815043e-04
4.54941860465116e+00 4.66170366224456e-02 4.72306208627540e-04
4.57848837209302e+00 4.62442859485237e-02 4.70024178686772e-04
4.60755813953488e+00 4.58745157955760e-02 4.67743745868453e-04
4.63662790697674e+00 4.55077023320944e-02 4.65465112411509e-04
4.66569767441860e+00 4.51438219155464e-02 4.63188475534051e-04
4.69476744186047e+00 4.47828510932395e-02 4.60914027037505e-04
4.72383720930233e+00 4.44247666000102e-02 4.58641953936513e-04
4.75290697674419e+00 4.40695453574670e-02 4.56372439019985e-04
4.78197674418605e+00 4.37171644702588e-02 4.54105660477957e-04
4.81104651162791e+00 4.33676012268568e-02 4.51841791517185e-04
4.84011627906977e+00 4.30208330973345e-02 4.49581000958512e-04
4.86918604651163e+00 4.26768377326176e-02 4.47323453768725e-04
4.89825581395349e+00 4.23355929609230e-02 4.45069310698327e-04
4.92732558139535e+00 4.19970767884622e-02 4.42818727908827e-04
4.95639534883721e+00 4.16612673973107e-02 4.40571857539742e-04
4.98546511627907e+00 4.13281431446649e-02 4.38328848213237e-04
5.01453488372093e+00 4.09976825594410e-02 4.36089844682904e-04
5.04360465116279e+00 4.06698643429091e-02 4.33854987264430e-04
5.07267441860465e+00 4.03446673672814e-02 4.31624413209134e-04
5.10174418604651e+00 4.00220706724290e-02 4.29398256140002e-04
5.13081395348837e+00 3.97020534664640e-02 4.27176645701107e-04
5.15988372093023e+00 3.93845951237493e-02 4.24959708074279e-04
5.18895348837209e+00 3.90696751841740e-02 4.22747566438664e-04
5.21802325581395e+00 3.87572733500157e-02 4.20540340640526e-04
5.24709302325581e+00 3.84473694864614e-02 4.18338146853987e-04
5.27616279069767e+00 3.81399436196958e-02 4.16141098072529e-04
5.30523255813953e+00 3.78349759361857e-02 4.13949304546076e-04
5.33430232558139e+00 3.75324467796802e-02 4.11762873461453e-04
5.36337209302326e+00 3.72323366516765e-02 4.09581908614352e-04
5.39244186046512e+00 3.69346262095816e-02 4.07406510877140e-04
5.42151162790698e+00 3.66392962660076e-02 4.05236778614839e-04
5.45058139534884e+00 3.63463277859019e-02 4.03072807376168e-04
5.47965116279070e+00 3.60557018869629e-02 4.00914689576410e-04
5.50872093023256e+00 3.57673998378719e-02 3.98762514942992e-04
5.53779069767442e+00 3.54814030575992e-02 3.96616370911769e-04
5.56686046511628e+00 3.51976931126585e-02 3.94476342328250e-04
5.59593023255814e+00 3.49162517174758e-02 3.92342511141211e-04
5.62500000000000e+00 3.46370607326888e-02 3.90214956827445e-04
5.65406976744186e+00 3.43601021644644e-02 3.88093756769312e-04
5.68313953488372e+00 3.40853581618708e-02 3.85978985966109e-04
5.71220930232558e+00 3.38128110172036e-02 3.83870716738125e-04
5.74127906976744e+00 3.35424431643496e-02 3.81769019131710e-04
5.77034883720930e+00 3.32742371781161e-02 3.79673961279252e-04
5.79941860465116e+00 3.30081757717150e-02 3.77585609120365e-04
5.82848837209302e+00 3.27442417970493e-02 3.75504026116268e-04
5.85755813953488e+00 3.24824182431387e-02 3.73429273636112e-04
5.88662790697674e+00 3.22226882354614e-02 3.71361411300418e-04
5.91569767441860e+00 3.19650350335437e-02 3.69300496711916e-04
5.94476744186047e+00 3.17094420312111e-02 3.67246585179794e-04
5.97383720930233e+00 3.14558927550728e-02 3.65199730088521e-04
6.00290697674419e+00 3.12043708638757e-02 3.63159983225616e-04
6.03197674418605e+00 3.09548601461950e-02 3.61127394521773e-04
6.06104651162791e+00 3.07073445206528e-02 3.59102011784782e-04
6.09011627906977e+00 3.04618080344585e-02 3.57083881051788e-04
6.11918604651163e+00 3.02182348627756e-02 3.55073046902201e-04
6.14825581395349e+00 2.99766093065086e-02 3.53069552206897e-04
6.17732558139535e+00 2.97369157924910e-02 3.51073437871521e-04
6.20639534883721e+00 2.94991388720803e-02 3.49084743172984e-04
6.23546511627907e+00 2.92632632205371e-02 3.47103506058429e-04
6.26453488372093e+00 2.90292736349036e-02 3.45129762903172e-04
6.29360465116279e+00 2.87971550341643e-02 3.43163548131029e-04
6.32267441860465e+00 2.85668924582532e-02 3.41204895065268e-04
6.35174418604651e+00 2.83384710659994e-02 3.39253835552931e-04
6.38081395348837e+00 2.81118761352671e-02 3.37310399724706e-04
6.40988372093023e+00 2.78870930616384e-02 3.35374616304946e-04
6.43895348837209e+00 2.76641073578165e-02 3.33446512887008e-04
6.46802325581395e+00 2.74429046516547e-02 3.31526115706843e-04
6.49709302325581e+00 2.72234706862736e-02 3.29613449411408e-04
6.52616279069767e+00 2.70057913187911e-02 3.27708537355174e-04
6.55523255813953e+00 2.67898525197393e-02 3.25811401863394e-04
6.58430232558139e+00 2.65756403711733e-02 3.23922064013708e-04
6.61337209302326e+00 2.63631410667662e-02 3.22040543412830e-04
6.64244186046512e+00 2.61523409105865e-02 3.20166858480138e-04
6.67151162790698e+00 2.59432263165270e-02 3.18301026699556e-04
6.70058139534884e+00 2.57357838064900e-02 3.16443064408934e-04
6.72965116279070e+00 2.55300000104630e-02 3.14592986584652e-04
6.75872093023256e+00 2.53258616653402e-02 3.12750807113037e-04
6.78779069767442e+00 2.51233556143638e-02 3.10916539031376e-04
6.81686046511628e+00 2.49224688053830e-02 3.09090194324757e-04
6.84593023255814e+00 2.47231882909110e-02 3.07271783718430e-04
6.87500000000000e+00 2.45255012269891e-02 3.05461316937577e-04
6.90406976744186e+00 2.43293948726413e-02 3.03658802938012e-04
6.93313953488372e+00 2.41348565882020e-02 3.01864249710264e-04
6.96220930232558e+00 2.39418738353572e-02 3.00077664079364e-04
6.99127906976744e+00 2.37504341760495e-02 2.98299051953601e-04
7.02034883720930e+00 2.35605252719447e-02 2.96528418545376e-04
7.04941860465116e+00 2.33721348828271e-02 2.94765768182287e-04
7.07848837209302e+00 2.31852508666243e-02 2.93011104114091e-04
7.10755813953488e+00 2.29998611783528e-02 2.91264428750946e-04
7.13662790697674e+00 2.28159538695962e-02 2.89525743874948e-04
7.16569767441860e+00 2.26335170869643e-02 2.87795050457915e-04
7.19476744186047e+00 2.24525390721047e-02 2.86072348475333e-04
7.22383720930233e+00 2.22730081606851e-02 2.84357637134582e-04
7.25290697674419e+00 2.20949127818852e-02 2.82650915077511e-04
7.28197674418605e+00 2.19182414569153e-02 2.80952180204827e-04
7.31104651162791e+00 2.17429827990163e-02 2.79261429496665e-04
7.34011627906977e+00 2.15691255124779e-02 2.77578659231306e-04
7.36918604651163e+00 2.13966583921428e-02 2.75903865179272e-04
7.39825581395349e+00 2.12255703219836e-02 2.74237042433978e-04
7.42732558139535e+00 2.10558502750910e-02 2.72578185238803e-04
7.45639534883721e+00 2.08874873127274e-02 2.70927287196651e-04
7.48546511627907e+00 2.07204705838429e-02 2.69284341456018e-04
7.51453488372093e+00 2.05547893237078e-02 2.67649340547672e-04
7.54360465116279e+00 2.03904328538906e-02 2.66022276132543e-04
7.57267441860465e+00 2.02273905815585e-02 2.64403139545016e-04
7.60174418604651e+00 2.00656519981502e-02 2.62791921543468e-04
7.63081395348837e+00 1.99052066793465e-02 2.61188612148563e-04
7.65988372093023e+00 1.97460442841812e-02 2.59593200837412e-04
7.68895348837209e+00 1.95881545545781e-02 2.58005676715912e-04
7.71802325581395e+00 1.94315273140758e-02 2.56426028366030e-04
7.74709302325581e+00 1.92761524677898e-02 2.54854243689916e-04
7.77616279069767e+00 1.91220200015540e-02 2.53290310096097e-04
7.80523255813953e+00 1.89691199814702e-02 2.51734214664719e-04
7.83430232558139e+00 1.88174425526816e-02 2.50185944000323e-04
7.86337209302326e+00 1.86669779393270e-02 2.48645484081541e-04
7.89244186046512e+00 1.85177164437130e-02 2.47112820439688e-04
7.92151162790698e+00 1.83696484458747e-02 2.45587938317252e-04
7.95058139534884e+00 1.82227644023960e-02 2.44070822525950e-04
7.97965116279070e+00 1.80770548463573e-02 2.42561457301827e-04
8.00872093023256e+00 1.79325103865366e-02 2.41059826476563e-04
8.03779069767442e+00 1.77891217069812e-02 2.39565913629540e-04
8.06686046511628e+00 1.76468795658734e-02 2.38079701950958e-04
8.09593023255814e+00 1.75057747954720e-02 2.36601174102139e-04
8.12500000000000e+00 1.73657983013408e-02 2.35130312379912e-04
8.15406976744186e+00 1.72269410619321e-02 2.33667098862511e-04
8.18313953488372e+00 1.70891941274952e-02 2.32211515277594e-04
8.21220930232558e+00 1.69525486200122e-02 2.30763542867532e-04
8.24127906976744e+00 1.68169957324541e-02 2.29323162547200e-04
8.27034883720930e+00 1.66825267283741e-02 2.27890355043975e-04
8.29941860465116e+00 1.65491329408583e-02 2.26465100770449e-04
8.32848837209302e+00 1.64168057724562e-02 2.25047379694616e-04
8.35755813953488e+00 1.62855366944630e-02 2.23637171491272e-04
8.38662790697674e+00 1.61553172465232e-02 2.22234455676358e-04
8.41569767441860e+00 1.60261390356213e-02 2.20839211484288e-04
8.44476744186047e+00 1.58979937360076e-02 2.19451417742775e-04
8.47383720930233e+00 1.57708730885055e-02 2.18071053018134e-04
8.50290697674419e+00 1.56447689001260e-02 2.16698095744281e-04
8.53197674418605e+00 1.55196730430957e-02 2.15332524104432e-04
8.56104651162791e+00 1.53955774547796e-02 2.13974315910401e-04
8.59011627906977e+00 1.52724741370115e-02 2.12623448742137e-04
8.61918604651163e+00 1.51503551557194e-02 2.11279900071549e-04
8.64825581395349e+00 1.50292126399898e-02 2.09943647148422e-04
8.67732558139535e+00 1.49090387819870e-02 2.08614666884065e-04
8.70639534883721e+00 1.47898258363068e-02 2.07292935985293e-04
8.73546511627907e+00 1.46715661196120e-02 2.05978431073332e-04
8.76453488372093e+00 1.45542520097313e-02 2.04671128573781e-04
8.79360465116279e+00 1.44378759455760e-02 2.03371004548394e-04
8.82267441860465e+00 1.43224304266458e-02 2.02078035048377e-04
8.85174418604651e+00 1.42079080121540e-02 2.00792195947931e-04
8.88081395348837e+00 1.40943013209414e-02 1.99513462835370e-04
8.90988372093023e+00 1.39816030308686e-02 1.98241811137690e-04
8.93895348837209e+00 1.38698058784681e-02 1.96977216231030e-04
8.96802325581395e+00 1.37589026581022e-02 1.95719653337747e-04
8.99709302325581e+00 1.36488862218749e-02 1.94469097421440e-04
9.02616279069767e+00 1.35397494790445e-02 1.93225523306558e-04
9.05523255813953e+00 1.34314853956859e-02 1.91988905784552e-04
9.08430232558140e+00 1.33240869938789e-02 1.90759219514603e-04
9.11337209302325e+00 1.32175473516188e-02 1.89536438922374e-04
9.14244186046512e+00 1.31118596022492e-02 1.88320538314946e-04
9.17151162790698e+00 1.30070169341329e-02 1.87111491982781e-04
