Energy (eV)          EEDF (eV^-(3/2))     First Anisotropy
7.96153846153846e-04 1.47407876317844e+01 8.19816475665825e-03
2.38846153846154e-03 1.46107801975111e+01 1.35232652744673e-02
3.98076923076923e-03 1.44819193731267e+01 1.78145717232400e-02
5.57307692307692e-03 1.43541950458119e+01 2.10518742144780e-02
7.16538461538462e-03 1.42275971924433e+01 2.37329916188092e-02
8.75769230769231e-03 1.41021158779605e+01 2.60466852365950e-02
1.03500000000000e-02 1.39777412549551e+01 2.80909065095052e-02
1.19423076923077e-02 1.38544635632180e+01 2.99249632691662e-02
1.35346153846154e-02 1.37322731278243e+01 3.15882929953186e-02
1.51269230769231e-02 1.36111603596614e+01 3.31088418954394e-02
1.67192307692308e-02 1.34911157541822e+01 3.45073507014969e-02
1.83115384615385e-02 1.33721298906614e+01 3.57997652017396e-02
1.99038461538462e-02 1.32541934314576e+01 3.69986910845906e-02
2.14961538461538e-02 1.31372971212814e+01 3.81143212352092e-02
2.30884615384615e-02 1.30214317864660e+01 3.91550531397839e-02
2.46807692307692e-02 1.29065883342558e+01 4.01279149230152e-02
2.62730769230769e-02 1.27927577520883e+01 4.10388682478094e-02
2.78653846153846e-02 1.26799311068873e+01 4.18930291976182e-02
2.94576923076923e-02 1.25680995443616e+01 4.26948329030335e-02
3.10500000000000e-02 1.24572542883108e+01 4.34481585668407e-02
3.26423076923077e-02 1.23473866402316e+01 4.41564261218943e-02
3.42346153846154e-02 1.22384879777316e+01 4.48226718879752e-02
3.58269230769231e-02 1.21305497547759e+01 4.54496086540385e-02
3.74192307692308e-02 1.20235635007014e+01 4.60396740818177e-02
3.90115384615385e-02 1.19175208195524e+01 4.65950699392315e-02
4.06038461538462e-02 1.18124133894215e+01 4.71177943033141e-02
4.21961538461538e-02 1.17082329617971e+01 4.76096682101908e-02
4.37884615384615e-02 1.16049713609145e+01 4.80723578888820e-02
4.53807692307692e-02 1.15026204831169e+01 4.85073934499295e-02
4.69730769230769e-02 1.14011722962180e+01 4.89161847026022e-02
4.85653846153846e-02 1.13006188388718e+01 4.93000346269976e-02
5.01576923076923e-02 1.12009522199478e+01 4.96601509170929e-02
5.17500000000000e-02 1.11021646179118e+01 4.99976559087016e-02
5.33423076923077e-02 1.10042482803714e+01 5.03135952424111e-02
5.49346153846154e-02 1.09071955229829e+01 5.06089453226257e-02
5.65269230769231e-02 1.08109987293401e+01 5.08846198334190e-02
5.81192307692308e-02 1.07156503502103e+01 5.11414755404396e-02
5.97115384615385e-02 1.06211429029417e+01 5.13803173404444e-02
6.13038461538462e-02 1.05274689708760e+01 5.16019027438663e-02
6.28961538461539e-02 1.04346212027668e+01 5.18069458543728e-02
6.44884615384615e-02 1.03425923122022e+01 5.19961209136180e-02
6.60807692307692e-02 1.02513750770336e+01 5.21700654689712e-02
6.76730769230769e-02 1.01609623388084e+01 5.23293832129295e-02
6.92653846153846e-02 1.00713470022088e+01 5.24746465353479e-02
7.08576923076923e-02 9.98252203449430e+00 5.26063988239973e-02
7.24500000000000e-02 9.89448046495038e+00 5.27251565309778e-02
7.40423076923077e-02 9.80721538444278e+00 5.28314110947077e-02
7.56346153846154e-02 9.72071994456660e+00 5.29256306245841e-02
7.72269230769231e-02 9.63498735742156e+00 5.30082614319994e-02
7.88192307692308e-02 9.55001089497371e+00 5.30797294899804e-02
8.04115384615385e-02 9.46578388852746e+00 5.31404417181240e-02
8.20038461538461e-02 9.38229972820222e+00 5.31907871716520e-02
8.35961538461538e-02 9.29955186241370e+00 5.32311381325881e-02
8.51884615384615e-02 9.21753379735956e+00 5.32618511128610e-02
8.67807692307692e-02 9.13623909651022e+00 5.32832677782028e-02
8.83730769230769e-02 9.05566138010349e+00 5.32957158005408e-02
8.99653846153846e-02 8.97579432464393e+00 5.32995096455877e-02
9.15576923076923e-02 8.89663166240661e+00 5.32949513017976e-02
9.31500000000000e-02 8.81816718094524e+00 5.32823309460990e-02
9.47423076923077e-02 8.74039472267526e+00 5.32619276012834e-02
9.63346153846154e-02 8.66330818417642e+00 5.32340096987965e-02
9.79269230769231e-02 8.58690151593037e+00 5.31988356010509e-02
9.95192307692308e-02 8.51116872177288e+00 5.31566541758944e-02
1.01111538461538e-01 8.43610385816535e+00 5.31077050805232e-02
1.02703846153846e-01 8.36170103494712e+00 5.30522194999224e-02
1.04296153846154e-01 8.28795441257862e+00 5.29904204524466e-02
1.05888461538462e-01 8.21485820365412e+00 5.29225228400155e-02
1.07480769230769e-01 8.14240667239479e+00 5.28487343684365e-02
1.09073076923077e-01 8.07059413243784e+00 5.27692556174706e-02
1.10665384615385e-01 7.99941494815892e+00 5.26842800969639e-02
1.12257692307692e-01 7.92886353417926e+00 5.25939950681593e-02
1.13850000000000e-01 7.85893435329232e+00 5.24985815696054e-02
1.15442307692308e-01 7.78962191767439e+00 5.23982145130296e-02
1.17034615384615e-01 7.72092078790189e+00 5.22930631134192e-02
1.18626923076923e-01 7.65282557302134e+00 5.21832912773373e-02
1.20219230769231e-01 7.58533092862543e+00 5.20690576698412e-02
1.21811538461538e-01 7.51843155794401e+00 5.19505156905885e-02
1.23403846153846e-01 7.45212221138697e+00 5.18278141428119e-02
1.24996153846154e-01 7.38639768473022e+00 5.17010971929087e-02
1.26588461538462e-01 7.32125282011600e+00 5.15705043254374e-02
1.28180769230769e-01 7.25668250561225e+00 5.14361709603344e-02
1.29773076923077e-01 7.19268167349885e+00 5.12982283957165e-02
1.31365384615385e-01 7.12924530118870e+00 5.11568037474384e-02
1.32957692307692e-01 7.06636841079871e+00 5.10120205213471e-02
1.34550000000000e-01 7.00404606753103e+00 5.08639985430186e-02
1.36142307692308e-01 6.94227338052152e+00 5.07128539509896e-02
1.37734615384615e-01 6.88104550204123e+00 5.05586994695901e-02
1.39326923076923e-01 6.82035762749221e+00 5.04016446537763e-02
1.40919230769231e-01 6.76020499389431e+00 5.02417958752006e-02
1.42511538461538e-01 6.70058288065465e+00 5.00792562381511e-02
1.44103846153846e-01 6.64148660916796e+00 4.99141260696166e-02
1.45696153846154e-01 6.58291154138152e+00 4.97465028298569e-02
1.47288461538462e-01 6.52485308050435e+00 4.95764810225798e-02
1.48880769230769e-01 6.46730667062073e+00 4.94041526547998e-02
1.50473076923077e-01 6.41026779532739e+00 4.92296071433654e-02
1.52065384615385e-01 6.35373197838930e+00 4.90529312214821e-02
1.53657692307692e-01 6.29769478336329e+00 4.88742093713938e-02
1.55250000000000e-01 6.24215181230409e+00 4.86935237279136e-02
1.56842307692308e-01 6.18709870637087e+00 4.85109540367237e-02
1.58434615384615e-01 6.13253114516579e+00 4.83265778465592e-02
1.60026923076923e-01 6.07844484668643e+00 4.81404706805988e-02
1.61619230769231e-01 6.02483556610976e+00 4.79527059948347e-02
1.63211538461538e-01 5.97169909634446e+00 4.77633550797730e-02
1.64803846153846e-01 5.91903126767935e+00 4.75724874412100e-02
1.66396153846154e-01 5.86682794662533e+00 4.73801707005713e-02
1.67988461538462e-01 5.81508503642604e+00 4.71864704961611e-02
1.69580769230769e-01 5.76379847671734e+00 4.69914508438891e-02
1.71173076923077e-01 5.71296424242317e+00 4.67951740379520e-02
1.72765384615385e-01 5.66257834422908e+00 4.65977005525179e-02
1.74357692307692e-01 5.61263682825061e+00 4.63990893840281e-02
1.75950000000000e-01 5.56313577498082e+00 4.61993979524377e-02
1.77542307692308e-01 5.51407129972941e+00 4.59986820490888e-02
1.79134615384615e-01 5.46543955206731e+00 4.57969959811164e-02
1.80726923076923e-01 5.41723671575421e+00 4.55943926995654e-02
1.82319230769231e-01 5.36945900774560e+00 4.53909237498271e-02
1.83911538461538e-01 5.32210267859364e+00 4.51866391752215e-02
1.85503846153846e-01 5.27516401213681e+00 4.49815878230675e-02
1.87096153846154e-01 5.22863932455120e+00 4.47758172484511e-02
1.88688461538462e-01 5.18252496472189e+00 4.45693736192447e-02
1.90280769230769e-01 5.13681731394194e+00 4.43623020077586e-02
1.91873076923077e-01 5.09151278500518e+00 4.41546462963609e-02
1.93465384615385e-01 5.04660782255115e+00 4.39464490843524e-02
1.95057692307692e-01 5.00209890277188e+00 4.37377519661669e-02
1.96650000000000e-01 4.95798253254462e+00 4.35285954387860e-02
1.98242307692308e-01 4.91425524975209e+00 4.33190188488052e-02
1.99834615384615e-01 4.87091362281134e+00 4.31090605054788e-02
2.01426923076923e-01 4.82795425058794e+00 4.28987577805961e-02
2.03019230769231e-01 4.78537376157514e+00 4.26881470588445e-02
2.04611538461538e-01 4.74316881418665e+00 4.24772636489338e-02
2.06203846153846e-01 4.70133609648195e+00 4.22661420348284e-02
2.07796153846154e-01 4.65987232538013e+00 4.20548157876296e-02
2.09388461538462e-01 4.61877424693128e+00 4.18433174787563e-02
2.10980769230769e-01 4.57803863604993e+00 4.16316789202386e-02
2.12573076923077e-01 4.53766229576146e+00 4.14199310788948e-02
2.14165384615385e-01 4.49764205745430e+00 4.12081039917549e-02
2.15757692307692e-01 4.45797478062031e+00 4.09962269960674e-02
2.17350000000000e-01 4.41865735213262e+00 4.07843286456243e-02
2.18942307692308e-01 4.37968668647991e+00 4.05724366608239e-02
2.20534615384615e-01 4.34105972536375e+00 4.03605780195864e-02
2.22126923076923e-01 4.30277343760665e+00 4.01487790374113e-02
2.23719230769231e-01 4.26482481846704e+00 3.99370653208078e-02
2.25311538461538e-01 4.22721088985338e+00 3.97254616875843e-02
2.26903846153846e-01 4.18992870008079e+00 3.95139923759398e-02
2.28496153846154e-01 4.15297532321349e+00 3.93026809657007e-02
2.30088461538462e-01 4.11634785926338e+00 3.90915503007514e-02
2.31680769230769e-01 4.08004343395360e+00 3.88806226895544e-02
2.33273076923077e-01 4.04405919808710e+00 3.86699198286811e-02
2.34865384615385e-01 4.00839232773107e+00 3.84594627274865e-02
2.36457692307692e-01 3.97304002398668e+00 3.82492719005055e-02
2.38050000000000e-01 3.93799951238283e+00 3.80393672931234e-02
2.39642307692308e-01 3.90326804304736e+00 3.78297682360414e-02
2.41234615384615e-01 3.86884289036082e+00 3.76204935197328e-02
2.42826923076923e-01 3.83472135286318e+00 3.74115614598622e-02
2.44419230769231e-01 3.80090075267755e+00 3.72029898549141e-02
2.46011538461538e-01 3.76737843566655e+00 3.69947959156397e-02
2.47603846153846e-01 3.73415177121638e+00 3.67869964407833e-02
2.49196153846154e-01 3.70121815168277e+00 3.65796077475129e-02
2.50788461538462e-01 3.66857499253575e+00 3.63726456029048e-02
2.52380769230769e-01 3.63621973214989e+00 3.61661253927798e-02
2.53973076923077e-01 3.60414983127133e+00 3.59600620542656e-02
2.55565384615385e-01 3.57236277315220e+00 3.57544700093734e-02
2.57157692307692e-01 3.54085606334617e+00 3.55493633272853e-02
2.58750000000000e-01 3.50962722919609e+00 3.53447556588997e-02
2.60342307692308e-01 3.47867381995847e+00 3.51406601960246e-02
2.61934615384615e-01 3.44799340650432e+00 3.49370897331613e-02
2.63526923076923e-01 3.41758358122755e+00 3.47340567216799e-02
2.65119230769231e-01 3.38744195755704e+00 3.45315732318859e-02
2.66711538461538e-01 3.35756617007017e+00 3.43296508910087e-02
2.68303846153846e-01 3.32795387430103e+00 3.41283010319365e-02
2.69896153846154e-01 3.29860274627070e+00 3.39275346321400e-02
2.71488461538462e-01 3.26951048259214e+00 3.37273622535191e-02
2.73080769230769e-01 3.24067480028384e+00 3.35277941855137e-02
2.74673076923077e-01 3.21209343631734e+00 3.33288403859459e-02
2.76265384615385e-01 3.18376414771439e+00 3.31305104227459e-02
2.77857692307692e-01 3.15568471136540e+00 3.29328136117006e-02
2.79450000000000e-01 3.12785292359379e+00 3.27357589590809e-02
2.81042307692308e-01 3.10026660024582e+00 3.25393551254111e-02
2.82634615384615e-01 3.07292357643103e+00 3.23436104772368e-02
2.84226923076923e-01 3.04582170643415e+00 3.21485331324410e-02
2.85819230769231e-01 3.01895886329978e+00 3.19541309265737e-02
2.87411538461538e-01 2.99233293891391e+00 3.17604113585486e-02
2.89003846153846e-01 2.96594184383351e+00 3.15673817172235e-02
2.90596153846154e-01 2.93978350688626e+00 3.13750490279466e-02
2.92188461538462e-01 2.91385587524557e+00 3.11834199999075e-02
2.93780769230769e-01 2.88815691426495e+00 3.09925011480678e-02
2.95373076923077e-01 2.86268460709203e+00 3.08022987414065e-02
2.96965384615385e-01 2.83743695473780e+00 3.06128187519340e-02
2.98557692307692e-01 2.81241197591521e+00 3.04240669721774e-02
3.00150000000000e-01 2.78760770666720e+00 3.02360489650130e-02
3.01742307692308e-01 2.76302220043036e+00 3.00487700316760e-02
3.03334615384615e-01 2.73865352780914e+00 2.98622352554428e-02
3.04926923076923e-01 2.71449977649233e+00 2.96764495398257e-02
3.06519230769231e-01 2.69055905089798e+00 2.94914175788432e-02
3.08111538461538e-01 2.66682947223089e+00 2.93071438095505e-02
3.09703846153846e-01 2.64330917833115e+00 2.91236325202274e-02
3.11296153846154e-01 2.61999632333154e+00 2.89408878036717e-02
3.12888461538462e-01 2.59688907771019e+00 2.87589135111843e-02
3.14480769230769e-01 2.57398562814327e+00 2.85777133568819e-02
3.16073076923077e-01 2.55128417717436e+00 2.83972908724778e-02
3.17665384615385e-01 2.52878294326276e+00 2.82176493627281e-02
3.19257692307692e-01 2.50648016063994e+00 2.80387920060271e-02
3.20850000000000e-01 2.48437407899064e+00 2.78607218105784e-02
3.22442307692308e-01 2.46246296349693e+00 2.76834415862464e-02
3.24034615384615e-01 2.44074509464124e+00 2.75069539816242e-02
3.25626923076923e-01 2.41921876812806e+00 2.73312615164076e-02
3.27219230769231e-01 2.39788229457915e+00 2.71563665552305e-02
3.28811538461538e-01 2.37673399957303e+00 2.69822712661983e-02
3.30403846153846e-01 2.35577222351030e+00 2.68089777136761e-02
3.31996153846154e-01 2.33499532131928e+00 2.66364878175064e-02
3.33588461538462e-01 2.31440166249194e+00 2.64648033128173e-02
3.35180769230769e-01 2.29398963095279e+00 2.62939258395578e-02
3.36773076923077e-01 2.27375762477470e+00 2.61238569030098e-02
3.38365384615385e-01 2.25370405621142e+00 2.59545978348713e-02
3.39957692307692e-01 2.23382735156996e+00 2.57861498796676e-02
3.41550000000000e-01 2.21412595093614e+00 2.56185141564770e-02
3.43142307692308e-01 2.19459830820406e+00 2.54516916341960e-02
3.44734615384615e-01 2.17524289090378e+00 2.52856831631419e-02
3.46326923076923e-01 2.15605818012855e+00 2.51204895026251e-02
3.47919230769231e-01 2.13704267027233e+00 2.49561112979557e-02
3.49511538461538e-01 2.11819486905580e+00 2.47925490442252e-02
3.51103846153846e-01 2.09951329740645e+00 2.46298031661234e-02
3.52696153846154e-01 2.08099648920504e+00 2.44678739823305e-02
3.54288461538462e-01 2.06264299130879e+00 2.43067616704117e-02
3.55880769230769e-01 2.04445136343480e+00 2.41464663438829e-02
3.57473076923077e-01 2.02642017791497e+00 2.39869880177285e-02
3.59065384615385e-01 2.00854801971671e+00 2.38283265744119e-02
3.60657692307692e-01 1.99083348632946e+00 2.36704818382915e-02
3.62250000000000e-01 1.97327518752777e+00 2.35134535422019e-02
3.63842307692308e-01 1.95587174538981e+00 2.33572413057403e-02
3.65434615384615e-01 1.93862179414641e+00 2.32018446623017e-02
3.67026923076923e-01 1.92152398011379e+00 2.30472630826585e-02
3.68619230769231e-01 1.90457696146690e+00 2.28934959547654e-02
3.70211538461538e-01 1.88777940825527e+00 2.27405425521258e-02
3.71803846153846e-01 1.87113000229638e+00 2.25884021026177e-02
3.73396153846154e-01 1.85462743695649e+00 2.24370737573894e-02
3.74988461538462e-01 1.83827041716444e+00 2.22865565601980e-02
3.76580769230769e-01 1.82205765930793e+00 2.21368495138966e-02
3.78173076923077e-01 1.80598789102156e+00 2.19879515503139e-02
3.79765384615385e-01 1.79005985119879e+00 2.18398615005565e-02
3.81357692307692e-01 1.77427228989090e+00 2.16925781592492e-02
3.82950000000000e-01 1.75862396810207e+00 2.15461002553363e-02
3.84542307692308e-01 1.74311365779961e+00 2.14004264330324e-02
3.86134615384615e-01 1.72774014178156e+00 2.12555552750280e-02
3.87726923076923e-01 1.71250221361480e+00 2.11114853227032e-02
3.89319230769231e-01 1.69739867743880e+00 2.09682150584084e-02
3.90911538461538e-01 1.68242834797398e+00 2.08257428778235e-02
3.92503846153846e-01 1.66759005042676e+00 2.06840671494276e-02
3.94096153846154e-01 1.65288262029975e+00 2.05431861873200e-02
3.95688461538462e-01 1.63830490339854e+00 2.04030982244279e-02
3.97280769230769e-01 1.62385575573935e+00 2.02638014699829e-02
3.98873076923077e-01 1.60953404336534e+00 2.01252940831982e-02
4.00465384615385e-01 1.59533864235209e+00 1.99875741473141e-02
4.02057692307692e-01 1.58126843871758e+00 1.98506397251563e-02
4.03650000000000e-01 1.56732232824457e+00 1.97144888336183e-02
4.05242307692308e-01 1.55349921648473e+00 1.95791194269499e-02
4.06834615384615e-01 1.53979801864226e+00 1.94445294167208e-02
4.08426923076923e-01 1.52621765951731e+00 1.93107166892034e-02
4.10019230769231e-01 1.51275707333558e+00 1.91776790898229e-02
4.11611538461538e-01 1.49941520375118e+00 1.90454143989911e-02
4.13203846153846e-01 1.48619100376215e+00 1.89139203835889e-02
4.14796153846154e-01 1.47308343554559e+00 1.87831947732051e-02
4.16388461538462e-01 1.46009147045937e+00 1.86532352367095e-02
4.17980769230769e-01 1.44721408895994e+00 1.85240394320318e-02
4.19573076923077e-01 1.43445028044272e+00 1.83956049831437e-02
4.21165384615385e-01 1.42179904324279e+00 1.82679294573612e-02
4.22757692307692e-01 1.40925938455488e+00 1.81410104134799e-02
4.24350000000000e-01 1.39683032027888e+00 1.80148453794602e-02
4.25942307692308e-01 1.38451087501960e+00 1.78894318377653e-02
4.27534615384615e-01 1.37230008198443e+00 1.77647672425739e-02
4.29126923076923e-01 1.36019698293160e+00 1.76408490347635e-02
4.30719230769231e-01 1.34820062802208e+00 1.75176746282596e-02
4.32311538461538e-01 1.33631007581840e+00 1.73952413888983e-02
4.33903846153846e-01 1.32452439320941e+00 1.72735466790636e-02
4.35496153846154e-01 1.31284265526688e+00 1.71525878369044e-02
4.37088461538462e-01 1.30126394524352e+00 1.70323621558382e-02
4.38680769230769e-01 1.28978735449972e+00 1.69128669277280e-02
4.40273076923077e-01 1.27841198236475e+00 1.67940994227448e-02
4.41865384615385e-01 1.26713693613395e+00 1.66760568695056e-02
4.43457692307692e-01 1.25596133099751e+00 1.65587364968416e-02
4.45050000000000e-01 1.24488428990597e+00 1.64421355142723e-02
4.46642307692308e-01 1.23390494356679e+00 1.63262510991369e-02
4.48234615384615e-01 1.22302243035424e+00 1.62110804114668e-02
4.49826923076923e-01 1.21223589626228e+00 1.60966206069198e-02
4.51419230769231e-01 1.20154449477559e+00 1.59828688248009e-02
4.53011538461538e-01 1.19094738686544e+00 1.58698221695599e-02
4.54603846153846e-01 1.18044374092279e+00 1.57574777495465e-02
4.56196153846154e-01 1.17003273263329e+00 1.56458326588231e-02
4.57788461538462e-01 1.15971354497262e+00 1.55348839592227e-02
4.59380769230769e-01 1.14948536814133e+00 1.54246287178492e-02
4.60973076923077e-01 1.13934739944379e+00 1.53150639894503e-02
4.62565384615385e-01 1.12929884328301e+00 1.52061867990291e-02
4.64157692307692e-01 1.11933891109717e+00 1.50979941781318e-02
4.65750000000000e-01 1.10946682124237e+00 1.49904831477520e-02
4.67342307692308e-01 1.09968179898701e+00 1.48836507070367e-02
4.68934615384615e-01 1.08998307643224e+00 1.47774938461543e-02
4.70526923076923e-01 1.08036989246928e+00 1.46720095574820e-02
4.72119230769231e-01 1.07084149266685e+00 1.45671948250843e-02
4.73711538461538e-01 1.06139712926505e+00 1.44630466085122e-02
4.75303846153846e-01 1.05203606111580e+00 1.43595618764954e-02
4.76896153846154e-01 1.04275755357373e+00 1.42567375910120e-02
4.78488461538462e-01 1.03356087848976e+00 1.41545706915763e-02
4.80080769230769e-01 1.02444531415299e+00 1.40530581278488e-02
4.81673076923077e-01 1.01541014518508e+00 1.39521968441953e-02
4.83265384615385e-01 1.00645466253343e+00 1.38519837644569e-02
4.84857692307692e-01 9.97578163414578e-01 1.37524158235127e-02
4.86450000000000e-01 9.88779951211917e-01 1.36534899523054e-02
4.88042307692308e-01 9.80059335468473e-01 1.35552030679213e-02
4.89634615384615e-01 9.71415631816806e-01 1.34575520847438e-02
4.91226923076923e-01 9.62848161940226e-01 1.33605339241428e-02
4.92819230769231e-01 9.54356253474518e-01 1.32641455052318e-02
4.94411538461538e-01 9.45939240000490e-01 1.31683837306720e-02
4.96003846153846e-01 9.37596460990868e-01 1.30732455159954e-02
4.97596153846154e-01 9.29327261715047e-01 1.29787277756474e-02
4.99188461538462e-01 9.21130993231368e-01 1.28848274092153e-02
5.00780769230769e-01 9.13007012335436e-01 1.27915413298167e-02
5.02373076923077e-01 9.04954681467783e-01 1.26988664505700e-02
