Energy (eV)          EEDF (eV^-(3/2))     First Anisotropy
2.75000000000000e-02 4.20915359215707e-01 4.48463705569743e-04
8.25000000000000e-02 4.08973315669988e-01 7.32498392535690e-04
1.37500000000000e-01 3.97370087045076e-01 9.45905989763566e-04
1.92500000000000e-01 3.86096060618389e-01 1.09574837933794e-03
2.47500000000000e-01 3.75141896395775e-01 1.21093278519804e-03
3.02500000000000e-01 3.64498519373698e-01 1.30276923662552e-03
3.57500000000000e-01 3.54157112021029e-01 1.37729911554744e-03
4.12500000000000e-01 3.44109106974132e-01 1.43828059645167e-03
4.67500000000000e-01 3.34346179939213e-01 1.48827653366314e-03
5.22500000000000e-01 3.24860242796041e-01 1.52914598022361e-03
5.77500000000000e-01 3.15643436897319e-01 1.56229864503000e-03
6.32500000000000e-01 3.06688126558177e-01 1.58883975424763e-03
6.87500000000000e-01 2.97986892730362e-01 1.60965854961609e-03
7.42500000000000e-01 2.89532526855918e-01 1.62548539431435e-03
7.97500000000000e-01 2.81318024895233e-01 1.63693027224934e-03
8.52500000000000e-01 2.73336581524527e-01 1.64450969331219e-03
9.07500000000000e-01 2.65581584497967e-01 1.64866607029551e-03
9.62500000000000e-01 2.58046609169734e-01 1.64978203537166e-03
1.01750000000000e+00 2.50725413171511e-01 1.64819125318729e-03
1.07250000000000e+00 2.43611931240980e-01 1.64418674594723e-03
1.12750000000000e+00 2.36700270197034e-01 1.63802741182557e-03
1.18250000000000e+00 2.29984704057567e-01 1.62994320547447e-03
1.23750000000000e+00 2.23459669295762e-01 1.62013931035115e-03
1.29250000000000e+00 2.17119760230977e-01 1.60879953938070e-03
1.34750000000000e+00 2.10959724550399e-01 1.59608913662849e-03
1.40250000000000e+00 2.04974458957746e-01 1.58215710806337e-03
1.45750000000000e+00 1.99159004945436e-01 1.56713817779294e-03
1.51250000000000e+00 1.93508544686695e-01 1.55115444325588e-03
1.56750000000000e+00 1.88018397044220e-01 1.53431678607570e-03
1.62250000000000e+00 1.82684013692077e-01 1.51672608281710e-03
1.67750000000000e+00 1.77500975347629e-01 1.49847425051545e-03
1.73250000000000e+00 1.72464988110375e-01 1.47964515472380e-03
1.78750000000000e+00 1.67571879904654e-01 1.46031540234649e-03
1.84250000000000e+00 1.62817597023279e-01 1.44055503727935e-03
1.89750000000000e+00 1.58198200769238e-01 1.42042815354941e-03
1.95250000000000e+00 1.53709864192663e-01 1.39999343802012e-03
2.00750000000000e+00 1.49348868920394e-01 1.37930465263698e-03
2.06250000000000e+00 1.45111602075474e-01 1.35841106451140e-03
2.11750000000000e+00 1.40994553284061e-01 1.33735783078703e-03
2.17250000000000e+00 1.36994311767246e-01 1.31618634413148e-03
2.22750000000000e+00 1.33107563515384e-01 1.29493454379687e-03
2.28250000000000e+00 1.29331088542598e-01 1.27363719645115e-03
2.33750000000000e+00 1.25661758219172e-01 1.25232615037010e-03
2.39250000000000e+00 1.22096532679632e-01 1.23103056606960e-03
2.44750000000000e+00 1.18632458304360e-01 1.20977712603210e-03
2.50250000000000e+00 1.15266665272661e-01 1.18859022582316e-03
2.55750000000000e+00 1.11996365185255e-01 1.16749214859194e-03
2.61250000000000e+00 1.08818848754221e-01 1.14650322469402e-03
2.66750000000000e+00 1.05731483558477e-01 1.12564197795653e-03
2.72250000000000e+00 1.02731711862949e-01 1.10492525992023e-03
2.77750000000000e+00 9.98170484996078e-02 1.08436837323314e-03
2.83250000000000e+00 9.69850788086250e-02 1.06398518523341e-03
2.88750000000000e+00 9.42334566379426e-02 1.04378823264018e-03
2.94250000000000e+00 9.15599023995978e-02 1.02378881816866e-03
2.99750000000000e+00 8.89622011811930e-02 1.00399709979626e-03
3.05250000000000e+00 8.64382009109462e-02 9.84422173328679e-04
3.10750000000000e+00 8.39858105748021e-02 9.65072148846642e-04
3.16250000000000e+00 8.16029984841261e-02 9.45954221554377e-04
3.21750000000000e+00 7.92877905925478e-02 9.27074737498252e-04
3.27250000000000e+00 7.70382688605567e-02 9.08439254577603e-04
3.32750000000000e+00 7.48525696664985e-02 8.90052599228888e-04
3.38250000000000e+00 7.27288822626527e-02 8.71918919127936e-04
3.43750000000000e+00 7.06654472751147e-02 8.54041732222792e-04
3.49250000000000e+00 6.86605552462382e-02 8.36423972380896e-04
3.54750000000000e+00 6.67125452184307e-02 8.19068031908788e-04
3.60250000000000e+00 6.48198033581298e-02 8.01975801179548e-04
3.65750000000000e+00 6.29807616188182e-02 7.85148705582567e-04
3.71250000000000e+00 6.11938964419724e-02 7.68587739991925e-04
3.76750000000000e+00 5.94577274948665e-02 7.52293500932926e-04
3.82250000000000e+00 5.77708164441874e-02 7.36266216611544e-04
3.87750000000000e+00 5.61317657644442e-02 7.20505774957900e-04
3.93250000000000e+00 5.45392175801844e-02 7.05011749822652e-04
3.98750000000000e+00 5.29918525410590e-02 6.89783425454218e-04
4.04250000000000e+00 5.14883887288037e-02 6.74819819374686e-04
4.09750000000000e+00 5.00275805952305e-02 6.60119703763128e-04
4.15250000000000e+00 4.86082179303504e-02 6.45681625446653e-04
4.20750000000000e+00 4.72291248597718e-02 6.31503924592053e-04
4.26250000000000e+00 4.58891588705448e-02 6.17584752183975e-04
4.31750000000000e+00 4.45872098646435e-02 6.03922086369219e-04
4.37250000000000e+00 4.33221992393029e-02 5.90513747740930e-04
4.42750000000000e+00 4.20930789934474e-02 5.77357413631210e-04
4.48250000000000e+00 4.08988308594722e-02 5.64450631475836e-04
4.53750000000000e+00 3.97384654596567e-02 5.51790831310182e-04
4.59250000000000e+00 3.86110214865128e-02 5.39375337451441e-04
4.64750000000000e+00 3.75155649063865e-02 5.27201379418462e-04
4.70250000000000e+00 3.64511881856564e-02 5.15266102136919e-04
4.75750000000000e+00 3.54170095388846e-02 5.03566575474397e-04
4.81250000000000e+00 3.44121721982999e-02 4.92099803147015e-04
4.86750000000000e+00 3.34358437040063e-02 4.80862731036416e-04
4.92250000000000e+00 3.24872152143296e-02 4.69852254953342e-04
4.97750000000000e+00 3.15655008357306e-02 4.59065227881812e-04
5.03250000000000e+00 3.06699369717297e-02 4.48498466735635e-04
5.08750000000000e+00 2.97997816903037e-02 4.38148758656904e-04
5.14250000000000e+00 2.89543141092305e-02 4.28012866884366e-04
5.19750000000000e+00 2.81328337988719e-02 4.18087536217713e-04
5.25250000000000e+00 2.73346602019020e-02 4.08369498102236e-04
5.30750000000000e+00 2.65591320694969e-02 3.98855475356770e-04
5.36250000000000e+00 2.58056069135220e-02 3.89542186566414e-04
5.41750000000000e+00 2.50734604742613e-02 3.80426350160278e-04
5.47250000000000e+00 2.43620862032475e-02 3.71504688193136e-04
5.52750000000000e+00 2.36708947607659e-02 3.62773929848853e-04
5.58250000000000e+00 2.29993135276142e-02 3.54230814682304e-04
5.63750000000000e+00 2.23467861307151e-02 3.45872095615493e-04
5.69250000000000e+00 2.17127719821871e-02 3.37694541702709e-04
5.74750000000000e+00 2.10967458314939e-02 3.29694940678614e-04
5.80250000000000e+00 2.04981973302989e-02 3.21870101302353e-04
5.85750000000000e+00 1.99166306096659e-02 3.14216855510006e-04
5.91250000000000e+00 1.93515638692554e-02 3.06732060386992e-04
5.96750000000000e+00 1.88025289781760e-02 2.99412599971351e-04
6.02250000000000e+00 1.82690710871603e-02 2.92255386898193e-04
6.07750000000000e+00 1.77507482517436e-02 2.85257363894981e-04
6.13250000000000e+00 1.72471310661343e-02 2.78415505136801e-04
6.18750000000000e+00 1.67578023074716e-02 2.71726817470233e-04
6.24250000000000e+00 1.62823565901758e-02 2.65188341513906e-04
6.29750000000000e+00 1.58204000301066e-02 2.58797152643411e-04
6.35250000000000e+00 1.53715499182476e-02 2.52550361867743e-04
6.40750000000000e+00 1.49354344036512e-02 2.46445116604098e-04
6.46250000000000e+00 1.45116921853771e-02 2.40478601357425e-04
6.51750000000000e+00 1.40999722131719e-02 2.34648038310773e-04
6.57250000000000e+00 1.36999333966409e-02 2.28950687832140e-04
6.62750000000000e+00 1.33112443226706e-02 2.23383848903181e-04
6.68250000000000e+00 1.29335829808687e-02 2.17944859474869e-04
6.73750000000000e+00 1.25666364967942e-02 2.12631096754871e-04
6.79250000000000e+00 1.22101008727554e-02 2.07439977431170e-04
6.84750000000000e+00 1.18636807359626e-02 2.02368957836169e-04
6.90250000000000e+00 1.15270890938257e-02 1.97415534055308e-04
6.95750000000000e+00 1.12000470961945e-02 1.92577241983976e-04
7.01250000000000e+00 1.08822838043443e-02 1.87851657336268e-04
7.06750000000000e+00 1.05735359665169e-02 1.83236395608989e-04
7.12250000000000e+00 1.02735477998280e-02 1.78729112004054e-04
7.17750000000000e+00 9.98207077836421e-03 1.74327501312303e-04
7.23250000000000e+00 9.69886342729049e-03 1.70029297761529e-04
7.28750000000000e+00 9.42369112280010e-03 1.65832274831399e-04
7.34250000000000e+00 9.15632589773982e-03 1.61734245037778e-04
7.39750000000000e+00 8.89654625275002e-03 1.57733059688817e-04
7.45250000000000e+00 8.64413697276302e-03 1.53826608615015e-04
7.50750000000000e+00 8.39888894870767e-03 1.50012819875408e-04
7.56250000000000e+00 8.16059900427235e-03 1.46289659441809e-04
7.61750000000000e+00 7.92906972758319e-03 1.42655130862975e-04
7.67250000000000e+00 7.70410930765762e-03 1.39107274910489e-04
7.72750000000000e+00 7.48553137549818e-03 1.35644169207957e-04
7.78250000000000e+00 7.27315484969464e-03 1.32263927845123e-04
7.83750000000000e+00 7.06680378640670e-03 1.28964700978313e-04
7.89250000000000e+00 6.86630723360287e-03 1.25744674418638e-04
7.94750000000000e+00 6.67149908943485e-03 1.22602069209195e-04
8.00250000000000e+00 6.48221796463009e-03 1.19535141192522e-04
8.05750000000000e+00 6.29830704878843e-03 1.16542180569417e-04
8.11250000000000e+00 6.11961398047214e-03 1.13621511450209e-04
8.16750000000000e+00 5.94599072098177e-03 1.10771491399485e-04
8.22250000000000e+00 5.77729343171310e-03 1.07990510975206e-04
8.27750000000000e+00 5.61338235499369e-03 1.05276993263097e-04
8.33250000000000e+00 5.45412169830035e-03 1.02629393407148e-04
8.38750000000000e+00 5.29937952176147e-03 1.00046198136993e-04
8.44250000000000e+00 5.14902762885110e-03 9.75259252928845e-05
8.49750000000000e+00 5.00294146018428e-03 9.50671233489565e-05
8.55250000000000e+00 4.86099999032548e-03 9.26683709353970e-05
8.60750000000000e+00 4.72308562752481e-03 9.03282763601247e-05
8.66250000000000e+00 4.58908411629882e-03 8.80454771305196e-05
8.71750000000000e+00 4.45888444277533e-03 8.58186394757206e-05
8.77250000000000e+00 4.33237874272367e-03 8.36464578699670e-05
8.82750000000000e+00 4.20946221219433e-03 8.15276545574262e-05
8.88250000000000e+00 4.09003302069387e-03 7.94609790789248e-05
8.93750000000000e+00 3.97399222682320e-03 7.74452078009541e-05
8.99250000000000e+00 3.86124369630932e-03 7.54791434473098e-05
9.04750000000000e+00 3.75169402236271e-03 7.35616146336963e-05
9.10250000000000e+00 3.64525244829420e-03 7.16914754055876e-05
9.15750000000000e+00 3.54183079232740e-03 6.98676047796261e-05
9.21250000000000e+00 3.44134337454426e-03 6.80889062888172e-05
9.26750000000000e+00 3.34370694590341e-03 6.63543075317445e-05
9.32250000000000e+00 3.24884061927222e-03 6.46627597260249e-05
9.37750000000000e+00 3.15666580241568e-03 6.30132372661969e-05
9.43250000000000e+00 3.06710613288651e-03 6.14047372862188e-05
9.48750000000000e+00 2.98008741476247e-03 5.98362792267337e-05
9.54250000000000e+00 2.89553755717859e-03 5.83069044072447e-05
9.59750000000000e+00 2.81338651460330e-03 5.68156756033341e-05
9.65250000000000e+00 2.73356622880907e-03 5.53616766290369e-05
9.70750000000000e+00 2.65601057248940e-03 5.39440119244706e-05
9.76250000000000e+00 2.58065529447546e-03 5.25618061488112e-05
9.81750000000000e+00 2.50743796650712e-03 5.12142037786922e-05
9.87250000000000e+00 2.43629793151405e-03 4.99003687120948e-05
9.92750000000000e+00 2.36717625336427e-03 4.86194838777838e-05
9.98250000000000e+00 2.30001566803834e-03 4.73707508503329e-05
1.00375000000000e+01 2.23476053618885e-03 4.61533894707853e-05
1.00925000000000e+01 2.17135679704588e-03 4.49666374729691e-05
1.01475000000000e+01 2.10975192363022e-03 4.38097501154940e-05
1.02025000000000e+01 2.04989487923729e-03 4.26819998194432e-05
1.02575000000000e+01 1.99173607515561e-03 4.15826758117648e-05
1.03125000000000e+01 1.93522732958497e-03 4.05110837743617e-05
1.03675000000000e+01 1.88032182772005e-03 3.94665454988792e-05
1.04225000000000e+01 1.82697408296664e-03 3.84483985471759e-05
1.04775000000000e+01 1.77513989925812e-03 3.74559959174576e-05
1.05325000000000e+01 1.72477633444111e-03 3.64887057160613e-05
1.05875000000000e+01 1.67584166470000e-03 3.55459108348548e-05
1.06425000000000e+01 1.62829534999070e-03 3.46270086342262e-05
1.06975000000000e+01 1.58209800045517e-03 3.37314106316265e-05
1.07525000000000e+01 1.53721134378879e-03 3.28585421956318e-05
1.08075000000000e+01 1.49359819353359e-03 3.20078422454793e-05
1.08625000000000e+01 1.45122241827102e-03 3.11787629560334e-05
1.09175000000000e+01 1.41004891168878e-03 3.03707694681403e-05
1.09725000000000e+01 1.37004356349698e-03 2.95833396043147e-05
1.10275000000000e+01 1.33117323116929e-03 2.88159635897099e-05
1.10825000000000e+01 1.29340571248601e-03 2.80681437783200e-05
1.11375000000000e+01 1.25670971885604e-03 2.73393943843529e-05
1.11925000000000e+01 1.22105484939577e-03 2.66292412187200e-05
1.12475000000000e+01 1.18641156574338e-03 2.59372214305850e-05
1.13025000000000e+01 1.15275116758775e-03 2.52628832539055e-05
1.13575000000000e+01 1.12004576889160e-03 2.46057857589105e-05
1.14125000000000e+01 1.08826827478921e-03 2.39654986084498e-05
1.14675000000000e+01 1.05739235913966e-03 2.33416018191516e-05
1.15225000000000e+01 1.02739244271685e-03 2.27336855273218e-05
1.15775000000000e+01 9.98243672018326e-04 2.21413497595206e-05
1.16325000000000e+01 9.69921898675348e-04 2.15642042077518e-05
1.16875000000000e+01 9.42403659447111e-04 2.10018680091974e-05
1.17425000000000e+01 9.15666156782568e-04 2.04539695304282e-05
1.17975000000000e+01 8.89687239933741e-04 1.99201461560279e-05
1.18525000000000e+01 8.64445386604888e-04 1.94000440815594e-05
1.19075000000000e+01 8.39919685122297e-04 1.88933181108078e-05
1.19625000000000e+01 8.16089817109969e-04 1.83996314572318e-05
1.20175000000000e+01 7.92936040656802e-04 1.79186555495568e-05
1.20725000000000e+01 7.70439173961365e-04 1.74500698414417e-05
1.21275000000000e+01 7.48580579440683e-04 1.69935616251517e-05
1.21825000000000e+01 7.27342148289892e-04 1.65488258491709e-05
1.22375000000000e+01 7.06706285479952e-04 1.61155649396894e-05
1.22925000000000e+01 6.86655895181005e-04 1.56934886258944e-05
1.23475000000000e+01 6.67174366599296e-04 1.52823137690035e-05
1.24025000000000e+01 6.48245560215915e-04 1.48817641949735e-05
1.24575000000000e+01 6.29853794415981e-04 1.44915705308172e-05
1.25125000000000e+01 6.11983832497168e-04 1.41114700444672e-05
1.25675000000000e+01 5.94620870046820e-04 1.37412064881202e-05
1.26225000000000e+01 5.77750522677204e-04 1.33805299449989e-05
1.26775000000000e+01 5.61358814108727e-04 1.30291966794688e-05
1.27325000000000e+01 5.45432164591255e-04 1.26869689904476e-05
1.27875000000000e+01 5.29957379653936e-04 1.23536150680452e-05
1.28425000000000e+01 5.14921639174208e-04 1.20289088533735e-05
1.28975000000000e+01 5.00312486756943e-04 1.17126299014667e-05
1.29525000000000e+01 4.86117819414908e-04 1.14045632472497e-05
1.30075000000000e+01 4.72325877542023e-04 1.11044992744984e-05
1.30625000000000e+01 4.58925235171086e-04 1.08122335877334e-05
1.31175000000000e+01 4.45904790507902e-04 1.05275668869891e-05
1.31725000000000e+01 4.33253756733975e-04 1.02503048454002e-05
1.32275000000000e+01 4.20961653070143e-04 9.98025798955274e-06
1.32825000000000e+01 4.09018296093752e-04 9.71724158254249e-06
1.33375000000000e+01 3.97413791302175e-04 9.46107550968647e-06
1.33925000000000e+01 3.86138524915686e-04 9.21158416683447e-06
1.34475000000000e+01 3.75183155912903e-04 8.96859635122806e-06
1.35025000000000e+01 3.64538608292196e-04 8.73194515485478e-06
1.35575000000000e+01 3.54196063552652e-04 8.50146786024557e-06
1.36125000000000e+01 3.44146953388367e-04 8.27700583866694e-06
1.36675000000000e+01 3.34382952590010e-04 8.05840445065653e-06
1.37225000000000e+01 3.24895972147788e-04 7.84551294885367e-06
1.37775000000000e+01 3.15678152550082e-04 7.63818438307806e-06
1.38325000000000e+01 3.06721857272221e-04 7.43627550760766e-06
1.38875000000000e+01 2.98019666449977e-04 7.23964669061055e-06
1.39425000000000e+01 2.89564370732569e-04 7.04816182568465e-06
1.39975000000000e+01 2.81348965310055e-04 6.86168824546064e-06
1.40525000000000e+01 2.73366644110180e-04 6.68009663722387e-06
1.41075000000000e+01 2.65610794159872e-04 6.50326096051228e-06
1.41625000000000e+01 2.58074990106705e-04 6.33105836664685e-06
1.42175000000000e+01 2.50752988895803e-04 6.16336912015401e-06
1.42725000000000e+01 2.43638724597766e-04 6.00007652203839e-06
1.43275000000000e+01 2.36726303383336e-04 5.84106683486535e-06
1.43825000000000e+01 2.30009998640640e-04 5.68622920961447e-06
1.44375000000000e+01 2.23484246230962e-04 5.53545561426425e-06
1.44925000000000e+01 2.17143639879126e-04 5.38864076407104e-06
1.45475000000000e+01 2.10982926694647e-04 5.24568205350385e-06
1.46025000000000e+01 2.04997002819966e-04 5.10647948979896e-06
1.46575000000000e+01 1.99180909202144e-04 4.97093562809823e-06
1.47125000000000e+01 1.93529827484525e-04 4.83895550813557e-06
1.47675000000000e+01 1.88039076014956e-04 4.71044659243761e-06
1.48225000000000e+01 1.82704105967262e-04 4.58531870600408e-06
1.48775000000000e+01 1.77520497572756e-04 4.46348397743471e-06
1.49325000000000e+01 1.72483956458678e-04 4.34485678147056e-06
1.49875000000000e+01 1.67590310090506e-04 4.22935368291715e-06
1.50425000000000e+01 1.62835504315213e-04 4.11689338191885e-06
1.50975000000000e+01 1.58215600002591e-04 4.00739666055321e-06
1.51525000000000e+01 1.53726769781872e-04 3.90078633071540e-06
1.52075000000000e+01 1.49365294870934e-04 3.79698718326345e-06
1.52625000000000e+01 1.45127561995465e-04 3.69592593839554e-06
1.53175000000000e+01 1.41010060395535e-04 3.59753119723072e-06
1.53725000000000e+01 1.37009378917107e-04 3.50173339456552e-06
1.54275000000000e+01 1.33122203186048e-04 3.40846475277986e-06
1.54825000000000e+01 1.29345312862336e-04 3.31765923686510e-06
1.55375000000000e+01 1.25675578972156e-04 3.22925251054839e-06
1.55925000000000e+01 1.22109961315697e-04 3.14318189348839e-06
1.56475000000000e+01 1.18645505948492e-04 3.05938631951682e-06
1.57025000000000e+01 1.15279342734212e-04 2.97780629590194e-06
1.57575000000000e+01 1.12008682966898e-04 2.89838386361010e-06
1.58125000000000e+01 1.08830817060651e-04 2.82106255854164e-06
1.58675000000000e+01 1.05743112304866e-04 2.74578737371886e-06
1.59225000000000e+01 1.02743010683161e-04 2.67250472240336e-06
1.59775000000000e+01 9.98280267541768e-05 2.60116240212111e-06
1.60325000000000e+01 9.69957455925122e-05 2.53170955957364e-06
1.60875000000000e+01 9.42438207880705e-05 2.46409665641483e-06
1.61425000000000e+01 9.15699725021713e-05 2.39827543587237e-06
1.61975000000000e+01 8.89719855788126e-05 2.33419889019433e-06
1.62525000000000e+01 8.64477077095195e-05 2.27182122890104e-06
1.63075000000000e+01 8.39950476502589e-05 2.21109784782310e-06
1.63625000000000e+01 8.16119734889438e-05 2.15198529890712e-06
1.64175000000000e+01 7.92965109620904e-05 2.09444126077057e-06
1.64725000000000e+01 7.70467418192353e-05 2.03842450998788e-06
1.65275000000000e+01 7.48608022337558e-05 1.98389489309068e-06
1.65825000000000e+01 7.27368812587787e-05 1.93081329926461e-06
1.66375000000000e+01 7.06732193268968e-05 1.87914163372640e-06
1.66925000000000e+01 6.86681067924513e-05 1.82884279176451e-06
1.67475000000000e+01 6.67198825151714e-05 1.77988063342759e-06
1.68025000000000e+01 6.48269324839990e-05 1.73221995884536e-06
1.68575000000000e+01 6.29876884799572e-05 1.68582648416608e-06
1.69125000000000e+01 6.12006267769559e-05 1.64066681809638e-06
1.69675000000000e+01 5.94642668794566e-05 1.59670843902838e-06
1.70225000000000e+01 5.77771702959530e-05 1.55391967274017e-06
1.70775000000000e+01 5.61379393472488e-05 1.51226967065562e-06
1.71325000000000e+01 5.45452160085475e-05 1.47172838864998e-06
1.71875000000000e+01 5.29976807843929e-05 1.43226656638798e-06
1.72425000000000e+01 5.14940516155306e-05 1.39385570718152e-06
1.72975000000000e+01 5.00330828167825e-05 1.35646805835424e-06
1.73525000000000e+01 4.86135640450559e-05 1.32007659210060e-06
