Energy (eV)          EEDF (eV^-(3/2))     First Anisotropy
2.58000000000000e-03 1.73711710561665e+00 9.06018637128573e-04
7.74000000000000e-03 1.72517975556786e+00 1.49598296030590e-03
1.29000000000000e-02 1.71332443817511e+00 1.97457213356720e-03
1.80600000000000e-02 1.70155058971393e+00 2.33798070358925e-03
2.32200000000000e-02 1.68985765033504e+00 2.64091960340008e-03
2.83800000000000e-02 1.67824506403666e+00 2.90407410766751e-03
3.35400000000000e-02 1.66671227863786e+00 3.13814875320453e-03
3.87000000000000e-02 1.65525874575229e+00 3.34960762280994e-03
4.38600000000000e-02 1.64388392076208e+00 3.54273775900244e-03
4.90200000000000e-02 1.63258726279193e+00 3.72056911628918e-03
5.41800000000000e-02 1.62136823468342e+00 3.88534459440462e-03
5.93400000000000e-02 1.61022630296945e+00 4.03878413616729e-03
6.45000000000000e-02 1.59916093784885e+00 4.18224395381792e-03
6.96600000000000e-02 1.58817161316123e+00 4.31681791334136e-03
7.48200000000000e-02 1.57725780636192e+00 4.44340496823135e-03
7.99800000000000e-02 1.56641899849716e+00 4.56275564420060e-03
8.51400000000000e-02 1.55565467417939e+00 4.67550505441094e-03
9.03000000000000e-02 1.54496432156276e+00 4.78219695029147e-03
9.54600000000000e-02 1.53434743231880e+00 4.88330162831823e-03
1.00620000000000e-01 1.52380350161224e+00 4.97922951768747e-03
1.05780000000000e-01 1.51333202807698e+00 5.07034166390437e-03
1.10940000000000e-01 1.50293251379230e+00 5.15695793767896e-03
1.16100000000000e-01 1.49260446425915e+00 5.23936354788206e-03
1.21260000000000e-01 1.48234738837663e+00 5.31781427039830e-03
1.26420000000000e-01 1.47216079841867e+00 5.39254069111635e-03
1.31580000000000e-01 1.46204421001080e+00 5.46375168247291e-03
1.36740000000000e-01 1.45199714210717e+00 5.53163727729199e-03
1.41900000000000e-01 1.44201911696762e+00 5.59637106371535e-03
1.47060000000000e-01 1.43210966013499e+00 5.65811219594718e-03
1.52220000000000e-01 1.42226830041255e+00 5.71700709407517e-03
1.57380000000000e-01 1.41249456984163e+00 5.77319089020729e-03
1.62540000000000e-01 1.40278800367932e+00 5.82678866606867e-03
1.67700000000000e-01 1.39314814037638e+00 5.87791651796487e-03
1.72860000000000e-01 1.38357452155533e+00 5.92668247790051e-03
1.78020000000000e-01 1.37406669198861e+00 5.97318731411600e-03
1.83180000000000e-01 1.36462419957697e+00 6.01752522996077e-03
1.88340000000000e-01 1.35524659532794e+00 6.05978447659714e-03
1.93500000000000e-01 1.34593343333449e+00 6.10004789230264e-03
1.98660000000000e-01 1.33668427075386e+00 6.13839337894364e-03
2.03820000000000e-01 1.32749866778645e+00 6.17489432443691e-03
2.08980000000000e-01 1.31837618765494e+00 6.20961997858160e-03
2.14140000000000e-01 1.30931639658351e+00 6.24263578846766e-03
2.19300000000000e-01 1.30031886377724e+00 6.27400369871676e-03
2.24460000000000e-01 1.29138316140157e+00 6.30378242101355e-03
2.29620000000000e-01 1.28250886456202e+00 6.33202767672708e-03
2.34780000000000e-01 1.27369555128392e+00 6.35879241587939e-03
2.39940000000000e-01 1.26494280249243e+00 6.38412701525792e-03
2.45100000000000e-01 1.25625020199252e+00 6.40807945808147e-03
2.50260000000000e-01 1.24761733644924e+00 6.43069549730651e-03
2.55420000000000e-01 1.23904379536806e+00 6.45201880438631e-03
2.60580000000000e-01 1.23052917107532e+00 6.47209110506003e-03
2.65740000000000e-01 1.22207305869889e+00 6.49095230354854e-03
2.70900000000000e-01 1.21367505614886e+00 6.50864059636404e-03
2.76060000000000e-01 1.20533476409848e+00 6.52519257679350e-03
2.81220000000000e-01 1.19705178596515e+00 6.54064333098901e-03
2.86380000000000e-01 1.18882572789154e+00 6.55502652648988e-03
2.91540000000000e-01 1.18065619872689e+00 6.56837449390473e-03
2.96700000000000e-01 1.17254281000841e+00 6.58071830240238e-03
3.01860000000000e-01 1.16448517594277e+00 6.59208782958460e-03
3.07020000000000e-01 1.15648291338782e+00 6.60251182625295e-03
3.12180000000000e-01 1.14853564183433e+00 6.61201797653104e-03
3.17340000000000e-01 1.14064298338788e+00 6.62063295374850e-03
3.22500000000000e-01 1.13280456275093e+00 6.62838247245382e-03
3.27660000000000e-01 1.12502000720497e+00 6.63529133688778e-03
3.32820000000000e-01 1.11728894659277e+00 6.64138348621287e-03
3.37980000000000e-01 1.10961101330080e+00 6.64668203676573e-03
3.43140000000000e-01 1.10198584224175e+00 6.65120932157440e-03
3.48300000000000e-01 1.09441307083716e+00 6.65498692736127e-03
3.53460000000000e-01 1.08689233900018e+00 6.65803572922524e-03
3.58620000000000e-01 1.07942328911846e+00 6.66037592318431e-03
3.63780000000000e-01 1.07200556603714e+00 6.66202705674478e-03
3.68940000000000e-01 1.06463881704195e+00 6.66300805764258e-03
3.74100000000000e-01 1.05732269184245e+00 6.66333726089024e-03
3.79260000000000e-01 1.05005684255538e+00 6.66303243425583e-03
3.84420000000000e-01 1.04284092368811e+00 6.66211080228825e-03
3.89580000000000e-01 1.03567459212220e+00 6.66058906898802e-03
3.94740000000000e-01 1.02855750709711e+00 6.65848343921986e-03
3.99900000000000e-01 1.02148933019397e+00 6.65580963895450e-03
4.05060000000000e-01 1.01446972531950e+00 6.65258293441850e-03
4.10220000000000e-01 1.00749835869006e+00 6.64881815022612e-03
4.15380000000000e-01 1.00057489881571e+00 6.64452968656037e-03
4.20540000000000e-01 9.93699016484513e-01 6.63973153546466e-03
4.25700000000000e-01 9.86870384746835e-01 6.63443729630269e-03
4.30860000000000e-01 9.80088678899830e-01 6.62866019044021e-03
4.36020000000000e-01 9.73353576471983e-01 6.62241307519749e-03
4.41180000000000e-01 9.66664757207783e-01 6.61570845711682e-03
4.46340000000000e-01 9.60021903052491e-01 6.60855850458780e-03
4.51500000000000e-01 9.53424698137021e-01 6.60097505986870e-03
4.56660000000000e-01 9.46872828762916e-01 6.59296965054134e-03
4.61820000000000e-01 9.40365983387433e-01 6.58455350043141e-03
4.66980000000000e-01 9.33903852608731e-01 6.57573754002545e-03
4.72140000000000e-01 9.27486129151155e-01 6.56653241641507e-03
4.77300000000000e-01 9.21112507850630e-01 6.55694850279425e-03
4.82460000000000e-01 9.14782685640147e-01 6.54699590753481e-03
4.87620000000000e-01 9.08496361535350e-01 6.53668448286329e-03
4.92780000000000e-01 9.02253236620231e-01 6.52602383316245e-03
4.97940000000000e-01 8.96053014032909e-01 6.51502332291723e-03
5.03100000000000e-01 8.89895398951521e-01 6.50369208432293e-03
5.08260000000000e-01 8.83780098580197e-01 6.49203902457657e-03
5.13420000000000e-01 8.77706822135141e-01 6.48007283286434e-03
5.18580000000000e-01 8.71675280830803e-01 6.46780198706437e-03
5.23740000000000e-01 8.65685187866148e-01 6.45523476017786e-03
5.28900000000000e-01 8.59736258411017e-01 6.44237922650162e-03
5.34060000000000e-01 8.53828209592588e-01 6.42924326755830e-03
5.39220000000000e-01 8.47960760481917e-01 6.41583457779203e-03
5.44380000000000e-01 8.42133632080587e-01 6.40216067004402e-03
5.49540000000000e-01 8.36346547307438e-01 6.38822888081784e-03
5.54700000000000e-01 8.30599230985395e-01 6.37404637534516e-03
5.59860000000000e-01 8.24891409828379e-01 6.35962015246161e-03
5.65020000000000e-01 8.19222812428316e-01 6.34495704930018e-03
5.70180000000000e-01 8.13593169242226e-01 6.33006374581176e-03
5.75340000000000e-01 8.08002212579414e-01 6.31494676912261e-03
5.80500000000000e-01 8.02449676588736e-01 6.29961249773220e-03
5.85660000000000e-01 7.96935297245957e-01 6.28406716556222e-03
5.90820000000000e-01 7.91458812341201e-01 6.26831686586388e-03
5.95980000000000e-01 7.86019961466480e-01 6.25236755498563e-03
6.01140000000000e-01 7.80618486003311e-01 6.23622505601129e-03
6.06300000000000e-01 7.75254129110419e-01 6.21989506227345e-03
6.11460000000000e-01 7.69926635711526e-01 6.20338314074649e-03
6.16620000000000e-01 7.64635752483221e-01 6.18669473532572e-03
6.21780000000000e-01 7.59381227842912e-01 6.16983516999624e-03
6.26940000000000e-01 7.54162811936868e-01 6.15280965189778e-03
6.32100000000000e-01 7.48980256628333e-01 6.13562327428803e-03
6.37260000000000e-01 7.43833315485734e-01 6.11828101941011e-03
6.42420000000000e-01 7.38721743770954e-01 6.10078776126783e-03
6.47580000000000e-01 7.33645298427702e-01 6.08314826831061e-03
6.52740000000000e-01 7.28603738069955e-01 6.06536720603590e-03
6.57900000000000e-01 7.23596822970476e-01 6.04744913950800e-03
6.63060000000000e-01 7.18624315049416e-01 6.02939853579861e-03
6.68220000000000e-01 7.13685977862998e-01 6.01121976635317e-03
6.73380000000000e-01 7.08781576592267e-01 5.99291710928351e-03
6.78540000000000e-01 7.03910878031930e-01 5.97449475159101e-03
6.83700000000000e-01 6.99073650579265e-01 5.95595679132413e-03
6.88860000000000e-01 6.94269664223107e-01 5.93730723967008e-03
6.94020000000000e-01 6.89498690532912e-01 5.91855002298443e-03
6.99180000000000e-01 6.84760502647896e-01 5.89968898476253e-03
7.04340000000000e-01 6.80054875266245e-01 5.88072788755216e-03
7.09500000000000e-01 6.75381584634406e-01 5.86167041481106e-03
7.14660000000000e-01 6.70740408536443e-01 5.84252017271144e-03
7.19820000000000e-01 6.66131126283475e-01 5.82328069189335e-03
7.24980000000000e-01 6.61553518703177e-01 5.80395542916785e-03
7.30140000000000e-01 6.57007368129365e-01 5.78454776917251e-03
7.35300000000000e-01 6.52492458391637e-01 5.76506102598120e-03
7.40460000000000e-01 6.48008574805106e-01 5.74549844466954e-03
7.45620000000000e-01 6.43555504160178e-01 5.72586320283692e-03
7.50780000000000e-01 6.39133034712425e-01 5.70615841208699e-03
7.55940000000000e-01 6.34740956172512e-01 5.68638711946860e-03
7.61100000000000e-01 6.30379059696195e-01 5.66655230887725e-03
7.66260000000000e-01 6.26047137874397e-01 5.64665690242057e-03
7.71420000000000e-01 6.21744984723340e-01 5.62670376174759e-03
7.76580000000000e-01 6.17472395674754e-01 5.60669568934111e-03
7.81740000000000e-01 6.13229167566145e-01 5.58663542977725e-03
7.86900000000000e-01 6.09015098631141e-01 5.56652567095408e-03
7.92060000000000e-01 6.04829988489894e-01 5.54636904528671e-03
7.97220000000000e-01 6.00673638139551e-01 5.52616813087229e-03
8.02380000000000e-01 5.96545849944796e-01 5.50592545262558e-03
8.07540000000000e-01 5.92446427628445e-01 5.48564348338558e-03
8.12700000000000e-01 5.88375176262123e-01 5.46532464499525e-03
8.17860000000000e-01 5.84331902256983e-01 5.44497130935303e-03
8.23020000000000e-01 5.80316413354514e-01 5.42458579943897e-03
8.28180000000000e-01 5.76328518617387e-01 5.40417039031604e-03
8.33340000000000e-01 5.72368028420384e-01 5.38372731010665e-03
8.38500000000000e-01 5.68434754441378e-01 5.36325874094567e-03
8.43660000000000e-01 5.64528509652378e-01 5.34276681990863e-03
8.48820000000000e-01 5.60649108310639e-01 5.32225363992059e-03
8.53980000000000e-01 5.56796365949824e-01 5.30172125064221e-03
8.59140000000000e-01 5.52970099371238e-01 5.28117165933283e-03
8.64300000000000e-01 5.49170126635116e-01 5.26060683169670e-03
8.69460000000000e-01 5.45396267051968e-01 5.24002869270633e-03
8.74620000000000e-01 5.41648341173992e-01 5.21943912740795e-03
8.79780000000000e-01 5.37926170786537e-01 5.19883998170890e-03
8.84940000000000e-01 5.34229578899634e-01 5.17823306314661e-03
8.90100000000000e-01 5.30558389739574e-01 5.15762014163817e-03
8.95260000000000e-01 5.26912428740555e-01 5.13700295021476e-03
9.00420000000000e-01 5.23291522536376e-01 5.11638318573985e-03
9.05580000000000e-01 5.19695498952202e-01 5.09576250960879e-03
9.10740000000000e-01 5.16124186996366e-01 5.07514254843556e-03
9.15900000000000e-01 5.12577416852248e-01 5.05452489472179e-03
9.21060000000000e-01 5.09055019870194e-01 5.03391110751274e-03
9.26220000000000e-01 5.05556828559502e-01 5.01330271303792e-03
9.31380000000000e-01 5.02082676580450e-01 4.99270120533759e-03
9.36540000000000e-01 4.98632398736395e-01 4.97210804687631e-03
9.41700000000000e-01 4.95205830965913e-01 4.95152466914210e-03
9.46860000000000e-01 4.91802810334998e-01 4.93095247323314e-03
9.52020000000000e-01 4.88423175029316e-01 4.91039283043245e-03
9.57180000000000e-01 4.85066764346510e-01 4.88984708276990e-03
9.62340000000000e-01 4.81733418688559e-01 4.86931654357122e-03
9.67500000000000e-01 4.78422979554187e-01 4.84880249799645e-03
9.72660000000000e-01 4.75135289531330e-01 4.82830620356693e-03
9.77820000000000e-01 4.71870192289649e-01 4.80782889068184e-03
9.82980000000000e-01 4.68627532573095e-01 4.78737176312239e-03
9.88140000000000e-01 4.65407156192529e-01 4.76693599854639e-03
9.93300000000000e-01 4.62208910018389e-01 4.74652274897292e-03
9.98460000000000e-01 4.59032641973407e-01 4.72613314125601e-03
1.00362000000000e+00 4.55878201025383e-01 4.70576827754954e-03
1.00878000000000e+00 4.52745437179998e-01 4.68542923576254e-03
1.01394000000000e+00 4.49634201473683e-01 4.66511707000457e-03
1.01910000000000e+00 4.46544345966539e-01 4.64483281102258e-03
1.02426000000000e+00 4.43475723735297e-01 4.62457746662908e-03
1.02942000000000e+00 4.40428188866336e-01 4.60435202212104e-03
1.03458000000000e+00 4.37401596448744e-01 4.58415744069108e-03
1.03974000000000e+00 4.34395802567426e-01 4.56399466383038e-03
1.04490000000000e+00 4.31410664296261e-01 4.54386461172349e-03
1.05006000000000e+00 4.28446039691310e-01 4.52376818363486e-03
1.05522000000000e+00 4.25501787784058e-01 4.50370625828843e-03
1.06038000000000e+00 4.22577768574720e-01 4.48367969423959e-03
1.06554000000000e+00 4.19673843025578e-01 4.46368933024001e-03
1.07070000000000e+00 4.16789873054373e-01 4.44373598559481e-03
1.07586000000000e+00 4.13925721527736e-01 4.42382046051299e-03
1.08102000000000e+00 4.11081252254670e-01 4.40394353645213e-03
1.08618000000000e+00 4.08256329980075e-01 4.38410597645453e-03
1.09134000000000e+00 4.05450820378312e-01 4.36430852547894e-03
1.09650000000000e+00 4.02664590046820e-01 4.34455191072450e-03
1.10166000000000e+00 3.99897506499771e-01 4.32483684194842e-03
1.10682000000000e+00 3.97149438161771e-01 4.30516401177963e-03
1.11198000000000e+00 3.94420254361603e-01 4.28553409602403e-03
1.11714000000000e+00 3.91709825326013e-01 4.26594775396509e-03
1.12230000000000e+00 3.89018022173541e-01 4.24640562865904e-03
1.12746000000000e+00 3.86344716908390e-01 4.22690834722419e-03
1.13262000000000e+00 3.83689782414343e-01 4.20745652112495e-03
1.13778000000000e+00 3.81053092448717e-01 4.18805074645048e-03
1.14294000000000e+00 3.78434521636358e-01 4.16869160418822e-03
1.14810000000000e+00 3.75833945463684e-01 4.14937966049229e-03
1.15326000000000e+00 3.73251240272761e-01 4.13011546694742e-03
1.15842000000000e+00 3.70686283255423e-01 4.11089956082712e-03
1.16358000000000e+00 3.68138952447433e-01 4.09173246534772e-03
1.16874000000000e+00 3.65609126722686e-01 4.07261468991830e-03
1.17390000000000e+00 3.63096685787447e-01 4.05354673038486e-03
1.17906000000000e+00 3.60601510174628e-01 4.03452906927089e-03
1.18422000000000e+00 3.58123481238115e-01 4.01556217601348e-03
1.18938000000000e+00 3.55662481147120e-01 3.99664650719494e-03
1.19454000000000e+00 3.53218392880580e-01 3.97778250677052e-03
1.19970000000000e+00 3.50791100221592e-01 3.95897060629166e-03
1.20486000000000e+00 3.48380487751890e-01 3.94021122512588e-03
1.21002000000000e+00 3.45986440846353e-01 3.92150477067209e-03
1.21518000000000e+00 3.43608845667555e-01 3.90285163857272e-03
1.22034000000000e+00 3.41247589160355e-01 3.88425221292142e-03
1.22550000000000e+00 3.38902559046518e-01 3.86570686646711e-03
1.23066000000000e+00 3.36573643819378e-01 3.84721596081538e-03
1.23582000000000e+00 3.34260732738533e-01 3.82877984662508e-03
1.24098000000000e+00 3.31963715824586e-01 3.81039886380250e-03
1.24614000000000e+00 3.29682483853906e-01 3.79207334169153e-03
1.25130000000000e+00 3.27416928353443e-01 3.77380359926057e-03
1.25646000000000e+00 3.25166941595564e-01 3.75558994528631e-03
1.26162000000000e+00 3.22932416592934e-01 3.73743267853434e-03
1.26678000000000e+00 3.20713247093428e-01 3.71933208793680e-03
1.27194000000000e+00 3.18509327575077e-01 3.70128845276640e-03
1.27710000000000e+00 3.16320553241053e-01 3.68330204280767e-03
1.28226000000000e+00 3.14146820014685e-01 3.66537311852560e-03
1.28742000000000e+00 3.11988024534508e-01 3.64750193123154e-03
1.29258000000000e+00 3.09844064149352e-01 3.62968872324509e-03
1.29774000000000e+00 3.07714836913456e-01 3.61193372805400e-03
1.30290000000000e+00 3.05600241581626e-01 3.59423717047198e-03
1.30806000000000e+00 3.03500177604418e-01 3.57659926679257e-03
1.31322000000000e+00 3.01414545123354e-01 3.55902022494092e-03
1.31838000000000e+00 2.99343244966181e-01 3.54150024462365e-03
1.32354000000000e+00 2.97286178642147e-01 3.52403951747533e-03
1.32870000000000e+00 2.95243248337324e-01 3.50663822720246e-03
1.33386000000000e+00 2.93214356909954e-01 3.48929654972525e-03
1.33902000000000e+00 2.91199407885830e-01 3.47201465331722e-03
1.34418000000000e+00 2.89198305453710e-01 3.45479269874234e-03
1.34934000000000e+00 2.87210954460760e-01 3.43763083938978e-03
1.35450000000000e+00 2.85237260408029e-01 3.42052922140650e-03
1.35966000000000e+00 2.83277129445958e-01 3.40348798382703e-03
1.36482000000000e+00 2.81330468369915e-01 3.38650725870187e-03
1.36998000000000e+00 2.79397184615762e-01 3.36958717122409e-03
1.37514000000000e+00 2.77477186255459e-01 3.35272783985240e-03
1.38030000000000e+00 2.75570381992686e-01 3.33592937643283e-03
1.38546000000000e+00 2.73676681158507e-01 3.31919188631952e-03
1.39062000000000e+00 2.71795993707055e-01 3.30251546849173e-03
1.39578000000000e+00 2.69928230211255e-01 3.28590021566997e-03
1.40094000000000e+00 2.68073301858566e-01 3.26934621442981e-03
1.40610000000000e+00 2.66231120446762e-01 3.25285354531415e-03
1.41126000000000e+00 2.64401598379735e-01 3.23642228294356e-03
1.41642000000000e+00 2.62584648663335e-01 3.22005249612394e-03
1.42158000000000e+00 2.60780184901225e-01 3.20374424795395e-03
1.42674000000000e+00 2.58988121290782e-01 3.18749759592984e-03
1.43190000000000e+00 2.57208372619011e-01 3.17131259204812e-03
1.43706000000000e+00 2.55440854258495e-01 3.15518928290735e-03
1.44222000000000e+00 2.53685482163370e-01 3.13912770980791e-03
1.44738000000000e+00 2.51942172865331e-01 3.12312790885022e-03
1.45254000000000e+00 2.50210843469660e-01 3.10718991103148e-03
1.45770000000000e+00 2.48491411651288e-01 3.09131374234003e-03
1.46286000000000e+00 2.46783795650876e-01 3.07549942384965e-03
1.46802000000000e+00 2.45087914270930e-01 3.05974697181091e-03
1.47318000000000e+00 2.43403686871940e-01 3.04405639774203e-03
1.47834000000000e+00 2.41731033368546e-01 3.02842770851760e-03
1.48350000000000e+00 2.40069874225728e-01 3.01286090645572e-03
1.48866000000000e+00 2.38420130455025e-01 2.99735598940518e-03
1.49382000000000e+00 2.36781723610781e-01 2.98191295082951e-03
1.49898000000000e+00 2.35154575786411e-01 2.96653177989014e-03
1.50414000000000e+00 2.33538609610700e-01 2.95121246152898e-03
1.50930000000000e+00 2.31933748244124e-01 2.93595497654871e-03
1.51446000000000e+00 2.30339915375191e-01 2.92075930169229e-03
1.51962000000000e+00 2.28757035216821e-01 2.90562540972118e-03
1.52478000000000e+00 2.27185032502734e-01 2.89055326949203e-03
1.52994000000000e+00 2.25623832483876e-01 2.87554284603229e-03
1.53510000000000e+00 2.24073360924865e-01 2.86059410061495e-03
1.54026000000000e+00 2.22533544100458e-01 2.84570699083129e-03
1.54542000000000e+00 2.21004308792045e-01 2.83088147066313e-03
1.55058000000000e+00 2.19485582284174e-01 2.81611749055386e-03
1.55574000000000e+00 2.17977292361083e-01 2.80141499747804e-03
1.56090000000000e+00 2.16479367303276e-01 2.78677393500974e-03
1.56606000000000e+00 2.14991735884107e-01 2.77219424339049e-03
1.57122000000000e+00 2.13514327366394e-01 2.75767585959573e-03
1.57638000000000e+00 2.12047071499058e-01 2.74321871740001e-03
1.58154000000000e+00 2.10589898513778e-01 2.72882274744124e-03
1.58670000000000e+00 2.09142739121678e-01 2.71448787728417e-03
1.59186000000000e+00 2.07705524510031e-01 2.70021403148288e-03
1.59702000000000e+00 2.06278186338983e-01 2.68600113164143e-03
1.60218000000000e+00 2.04860656738311e-01 2.67184909647481e-03
1.60734000000000e+00 2.03452868304190e-01 2.65775784186832e-03
1.61250000000000e+00 2.02054754095987e-01 2.64372728093551e-03
1.61766000000000e+00 2.00666247633085e-01 2.62975732407613e-03
1.62282000000000e+00 1.99287282891713e-01 2.61584787903236e-03
1.62798000000000e+00 1.97917794301813e-01 2.60199885094462e-03
