Energy (eV)          EEDF (eV^-(3/2))     First Anisotropy
1.77586206896552e-03 6.84509670595202e+00 4.54379977881354e-03
5.32758620689655e-03 6.76438470541554e+00 7.48402939967424e-03
8.87931034482759e-03 6.68462439735502e+00 9.82936123725656e-03
1.24310344827586e-02 6.60580456030417e+00 1.15807495527843e-02
1.59827586206897e-02 6.52791410445153e+00 1.30165047761033e-02
1.95344827586207e-02 6.45094207188591e+00 1.42426351898338e-02
2.30862068965517e-02 6.37487763315995e+00 1.53143876548605e-02
2.66379310344828e-02 6.29971008632693e+00 1.62653532992049e-02
3.01896551724138e-02 6.22542885624207e+00 1.71179607058824e-02
3.37413793103448e-02 6.15202349211342e+00 1.78881673946069e-02
3.72931034482759e-02 6.07948366622451e+00 1.85878633396668e-02
4.08448275862069e-02 6.00779917301838e+00 1.92262251698117e-02
4.43965517241379e-02 5.93695992691671e+00 1.98105347652311e-02
4.79482758620690e-02 5.86695596159124e+00 2.03467018647422e-02
5.15000000000000e-02 5.79777742805271e+00 2.08396126376443e-02
5.50517241379310e-02 5.72941459333560e+00 2.12933705269448e-02
5.86034482758621e-02 5.66185783948104e+00 2.17114678323593e-02
6.21551724137931e-02 5.59509766180783e+00 2.20969110433657e-02
6.57068965517241e-02 5.52912466761972e+00 2.24523143453108e-02
6.92586206896552e-02 5.46392957516206e+00 2.27799708333332e-02
7.28103448275862e-02 5.39950321194180e+00 2.30819075802266e-02
7.63620689655172e-02 5.33583651379350e+00 2.33599288742731e-02
7.99137931034483e-02 5.27292052333820e+00 2.36156506547349e-02
8.34655172413793e-02 5.21074638874954e+00 2.38505281771344e-02
8.70172413793104e-02 5.14930536271658e+00 2.40658785796109e-02
9.05689655172414e-02 5.08858880099569e+00 2.42628994279453e-02
9.41206896551724e-02 5.02858816121304e+00 2.44426840427087e-02
9.76724137931035e-02 4.96929500183889e+00 2.46062343624294e-02
1.01224137931034e-01 4.91070098076469e+00 2.47544717526112e-02
1.04775862068966e-01 4.85279785435598e+00 2.48882461650398e-02
1.08327586206897e-01 4.79557747617067e+00 2.50083439891339e-02
1.11879310344828e-01 4.73903179577268e+00 2.51154947542216e-02
1.15431034482759e-01 4.68315285765088e+00 2.52103769690153e-02
1.18982758620690e-01 4.62793279967260e+00 2.52936230263417e-02
1.22534482758621e-01 4.57336385328393e+00 2.53658236820734e-02
1.26086206896552e-01 4.51943834108355e+00 2.54275319890842e-02
1.29637931034483e-01 4.46614867619648e+00 2.54792665401870e-02
1.33189655172414e-01 4.41348736120507e+00 2.55215145007695e-02
1.36741379310345e-01 4.36144698709697e+00 2.55547342558801e-02
1.40293103448276e-01 4.31002023222192e+00 2.55793578022943e-02
1.43844827586207e-01 4.25919986093624e+00 2.55957927396457e-02
1.47396551724138e-01 4.20897872357640e+00 2.56044242287108e-02
1.50948275862069e-01 4.15934975444347e+00 2.56056167584304e-02
1.54500000000000e-01 4.11030597115194e+00 2.55997155541525e-02
1.58051724137931e-01 4.06184047364669e+00 2.55870479931268e-02
1.61603448275862e-01 4.01394644323294e+00 2.55679248510716e-02
1.65155172413793e-01 3.96661714161749e+00 2.55426414343642e-02
1.68706896551724e-01 3.91984590995996e+00 2.55114786406622e-02
1.72258620689655e-01 3.87362616769056e+00 2.54747038067795e-02
1.75810344827586e-01 3.82795141233213e+00 2.54325716301521e-02
1.79362068965517e-01 3.78281521782509e+00 2.53853250187493e-02
1.82913793103448e-01 3.73821123388081e+00 2.53331957182329e-02
1.86465517241379e-01 3.69413318508803e+00 2.52764050086470e-02
1.90017241379310e-01 3.65057487003102e+00 2.52151643168393e-02
1.93568965517241e-01 3.60753016041640e+00 2.51496758078516e-02
1.97120689655172e-01 3.56499300001355e+00 2.50801328283475e-02
2.00672413793103e-01 3.52295740440345e+00 2.50067204440015e-02
2.04224137931034e-01 3.48141745952662e+00 2.49296159424153e-02
2.07775862068966e-01 3.44036732105758e+00 2.48489891680961e-02
2.11327586206897e-01 3.39980121358203e+00 2.47650029379487e-02
2.14879310344828e-01 3.35971342978557e+00 2.46778134026792e-02
2.18431034482759e-01 3.32009832965007e+00 2.45875704066837e-02
2.21982758620690e-01 3.28095033949878e+00 2.44944177342784e-02
2.25534482758621e-01 3.24226395170301e+00 2.43984934504603e-02
2.29086206896552e-01 3.20403372340931e+00 2.42999302235624e-02
2.32637931034483e-01 3.16625427594214e+00 2.41988555126143e-02
2.36189655172414e-01 3.12892029404679e+00 2.40953918339017e-02
2.39741379310345e-01 3.09202652514219e+00 2.39896569888831e-02
2.43293103448276e-01 3.05556777858176e+00 2.38817642983994e-02
2.46844827586207e-01 3.01953892478946e+00 2.37718227446583e-02
2.50396551724138e-01 2.98393489494411e+00 2.36599372017634e-02
2.53948275862069e-01 2.94875067985461e+00 2.35462086561179e-02
2.57500000000000e-01 2.91398132939436e+00 2.34307343137487e-02
2.61051724137931e-01 2.87962195180466e+00 2.33136077813463e-02
2.64603448275862e-01 2.84566771300663e+00 2.31949192176564e-02
2.68155172413793e-01 2.81211383592126e+00 2.30747554768968e-02
2.71706896551724e-01 2.77895559979715e+00 2.29532002615400e-02
2.75258620689655e-01 2.74618833943773e+00 2.28303341996760e-02
2.78810344827586e-01 2.71380744487492e+00 2.27062350018101e-02
2.82362068965517e-01 2.68180836038614e+00 2.25809776121244e-02
2.85913793103448e-01 2.65018658396630e+00 2.24546342654077e-02
2.89465517241379e-01 2.61893766669433e+00 2.23272746098387e-02
2.93017241379310e-01 2.58805721210757e+00 2.21989658067921e-02
2.96568965517241e-01 2.55754087558300e+00 2.20697726408387e-02
3.00120689655172e-01 2.52738436363438e+00 2.19397575649388e-02
3.03672413793103e-01 2.49758343358657e+00 2.18089808172293e-02
3.07224137931034e-01 2.46813389269667e+00 2.16775005344220e-02
3.10775862068966e-01 2.43903159765931e+00 2.15453727834059e-02
3.14327586206897e-01 2.41027245402358e+00 2.14126516520957e-02
3.17879310344828e-01 2.38185241561730e+00 2.12793893211618e-02
3.21431034482759e-01 2.35376748397765e+00 2.11456361458972e-02
3.24982758620690e-01 2.32601370771059e+00 2.10114406817154e-02
3.28534482758621e-01 2.29858718217164e+00 2.08768497738843e-02
3.32086206896552e-01 2.27148404867692e+00 2.07419086451430e-02
3.35637931034483e-01 2.24470049404113e+00 2.06066609117311e-02
3.39189655172414e-01 2.21823275004096e+00 2.04711486525808e-02
3.42741379310345e-01 2.19207709288515e+00 2.03354124622449e-02
3.46293103448276e-01 2.16622984269049e+00 2.01994915134528e-02
3.49844827586207e-01 2.14068736289744e+00 2.00634235702927e-02
3.53396551724138e-01 2.11544605996083e+00 1.99272450588958e-02
3.56948275862069e-01 2.09050238263944e+00 1.97909911367845e-02
3.60500000000000e-01 2.06585282156555e+00 1.96546956991770e-02
3.64051724137931e-01 2.04149390875108e+00 1.95183914329293e-02
3.67603448275862e-01 2.01742221709978e+00 1.93821098564374e-02
3.71155172413793e-01 1.99363435992507e+00 1.92458813580710e-02
3.74706896551724e-01 1.97012699047356e+00 1.91097352433816e-02
3.78258620689655e-01 1.94689680139820e+00 1.89736997396334e-02
3.81810344827586e-01 1.92394052446276e+00 1.88378020509127e-02
3.85362068965517e-01 1.90125492991024e+00 1.87020684124416e-02
3.88913793103448e-01 1.87883682606638e+00 1.85665240901739e-02
3.92465517241379e-01 1.85668305889060e+00 1.84311934222706e-02
3.96017241379310e-01 1.83479051153237e+00 1.82960998486633e-02
3.99568965517241e-01 1.81315610389263e+00 1.81612659487099e-02
4.03120689655172e-01 1.79177679214210e+00 1.80267134410036e-02
4.06672413793103e-01 1.77064956843970e+00 1.78924632284884e-02
4.10224137931035e-01 1.74977146036100e+00 1.77585354430775e-02
4.13775862068966e-01 1.72913953053011e+00 1.76249494416773e-02
4.17327586206897e-01 1.70875087620626e+00 1.74917238397101e-02
4.20879310344828e-01 1.68860262887564e+00 1.73588765341833e-02
4.24431034482759e-01 1.66869195384768e+00 1.72264247341694e-02
4.27982758620690e-01 1.64901604981439e+00 1.70943849576075e-02
4.31534482758621e-01 1.62957214858330e+00 1.69627730687208e-02
4.35086206896552e-01 1.61035751455947e+00 1.68316043151368e-02
4.38637931034483e-01 1.59136944440396e+00 1.67008933217104e-02
4.42189655172414e-01 1.57260526665344e+00 1.65706541179819e-02
4.45741379310345e-01 1.55406234134440e+00 1.64409001563944e-02
4.49293103448276e-01 1.53573805964175e+00 1.63116443372469e-02
4.52844827586207e-01 1.51762984343528e+00 1.61828990036352e-02
4.56396551724138e-01 1.49973514508749e+00 1.60546759728157e-02
4.59948275862069e-01 1.48205144696343e+00 1.59269865674052e-02
4.63500000000000e-01 1.46457626111408e+00 1.57998416079202e-02
4.67051724137931e-01 1.44730712892637e+00 1.56732514355078e-02
4.70603448275862e-01 1.43024162077727e+00 1.55472259264696e-02
4.74155172413793e-01 1.41337733569197e+00 1.54217745063585e-02
4.77706896551724e-01 1.39671190100610e+00 1.52969061700655e-02
4.81258620689655e-01 1.38024297200071e+00 1.51726294755517e-02
4.84810344827586e-01 1.36396823166689e+00 1.50489525697457e-02
4.88362068965517e-01 1.34788539028429e+00 1.49258832143764e-02
4.91913793103448e-01 1.33199218513113e+00 1.48034287778042e-02
4.95465517241379e-01 1.31628638016585e+00 1.46815962535072e-02
4.99017241379310e-01 1.30076576571257e+00 1.45603922714250e-02
5.02568965517241e-01 1.28542815815017e+00 1.44398231147439e-02
5.06120689655172e-01 1.27027139957782e+00 1.43198947130665e-02
5.09672413793103e-01 1.25529335759406e+00 1.42006126644979e-02
5.13224137931034e-01 1.24049192491319e+00 1.40819822577223e-02
5.16775862068966e-01 1.22586501909698e+00 1.39640084636073e-02
5.20327586206897e-01 1.21141058226164e+00 1.38466959507648e-02
5.23879310344828e-01 1.19712658078837e+00 1.37300490947383e-02
5.27431034482759e-01 1.18301100503721e+00 1.36140719921292e-02
5.30982758620690e-01 1.16906186904036e+00 1.34987684535273e-02
5.34534482758621e-01 1.15527721029535e+00 1.33841420224616e-02
5.38086206896552e-01 1.14165508941557e+00 1.32701959943803e-02
5.41637931034483e-01 1.12819358988213e+00 1.31569334082729e-02
5.45189655172414e-01 1.11489081777422e+00 1.30443570598571e-02
5.48741379310345e-01 1.10174490150268e+00 1.29324695090592e-02
5.52293103448276e-01 1.08875399154664e+00 1.28212730919660e-02
5.55844827586207e-01 1.07591626017233e+00 1.27107699137396e-02
5.59396551724138e-01 1.06322990123964e+00 1.26009618649631e-02
5.62948275862069e-01 1.05069312988361e+00 1.24918506380382e-02
5.66500000000000e-01 1.03830418228499e+00 1.23834377189897e-02
5.70051724137931e-01 1.02606131542211e+00 1.22757243987029e-02
5.73603448275862e-01 1.01396280682563e+00 1.21687117790387e-02
5.77155172413793e-01 1.00200695433624e+00 1.20624007787881e-02
5.80706896551724e-01 9.90192075865150e-01 1.19567921435978e-02
5.84258620689655e-01 9.78516509139267e-01 1.18518864390552e-02
5.87810344827586e-01 9.66978611522427e-01 1.17476840645535e-02
5.91362068965517e-01 9.55576759728606e-01 1.16441852672298e-02
5.94913793103448e-01 9.44309349612289e-01 1.15413901341249e-02
5.98465517241379e-01 9.33174795942781e-01 1.14392986015775e-02
6.02017241379310e-01 9.22171532181197e-01 1.13379104601102e-02
6.05568965517241e-01 9.11298010260050e-01 1.12372253629148e-02
6.09120689655172e-01 9.00552700349393e-01 1.11372428191673e-02
6.12672413793103e-01 8.89934090690251e-01 1.10379622060910e-02
6.16224137931034e-01 8.79440687332757e-01 1.09393827810979e-02
6.19775862068966e-01 8.69071013942533e-01 1.08415036743155e-02
6.23327586206897e-01 8.58823611592957e-01 1.07443238966548e-02
6.26879310344828e-01 8.48697038559945e-01 1.06478423438276e-02
6.30431034482759e-01 8.38689870119093e-01 1.05520578036297e-02
6.33982758620690e-01 8.28800698331025e-01 1.04569689495410e-02
6.37534482758621e-01 8.19028131886351e-01 1.03625743512533e-02
6.41086206896552e-01 8.09370795866437e-01 1.02688724852827e-02
6.44637931034483e-01 7.99827331564613e-01 1.01758617278894e-02
6.48189655172414e-01 7.90396396295000e-01 1.00835403620355e-02
6.51741379310345e-01 7.81076663203625e-01 9.99190658069292e-03
6.55293103448276e-01 7.71866821081742e-01 9.90095849310754e-03
6.58844827586207e-01 7.62765574168767e-01 9.81069411872363e-03
6.62396551724138e-01 7.53771642008099e-01 9.72111139639539e-03
6.65948275862069e-01 7.44883759228462e-01 9.63220819368654e-03
6.69500000000000e-01 7.36100675378844e-01 9.54398230020179e-03
6.73051724137931e-01 7.27421154752567e-01 9.45643143360241e-03
6.76603448275862e-01 7.18843976213433e-01 9.36955324232977e-03
6.80155172413793e-01 7.10367933023934e-01 9.28334530826279e-03
6.83706896551724e-01 7.01991832675461e-01 9.19780515200378e-03
6.87258620689655e-01 6.93714496709575e-01 9.11293022719703e-03
6.90810344827586e-01 6.85534760585405e-01 9.02871792845637e-03
6.94362068965517e-01 6.77451473482275e-01 8.94516559937812e-03
6.97913793103448e-01 6.69463498149080e-01 8.86227052635417e-03
7.01465517241379e-01 6.61569710744280e-01 8.78002994367288e-03
7.05017241379310e-01 6.53769000677806e-01 8.69844103570730e-03
7.08568965517241e-01 6.46060270454790e-01 8.61750094148993e-03
7.12120689655173e-01 6.38442435511432e-01 8.53720674937033e-03
7.15672413793104e-01 6.30914424091897e-01 8.45755550398742e-03
7.19224137931035e-01 6.23475177067742e-01 8.37854421332243e-03
7.22775862068966e-01 6.16123647798938e-01 8.30016984291789e-03
7.26327586206897e-01 6.08858801986601e-01 8.22242932030824e-03
7.29879310344828e-01 6.01679617527502e-01 8.14531953681711e-03
7.33431034482759e-01 5.94585084370246e-01 8.06883735152417e-03
7.36982758620690e-01 5.87574204364518e-01 7.99297958626125e-03
7.40534482758621e-01 5.80645991146873e-01 7.91774303175299e-03
7.44086206896552e-01 5.73799469975477e-01 7.84312445383748e-03
7.47637931034483e-01 5.67033677601888e-01 7.76912058807622e-03
7.51189655172414e-01 5.60347662135526e-01 7.69572814360994e-03
7.54741379310345e-01 5.53740482909764e-01 7.62294380463406e-03
7.58293103448276e-01 5.47211210349578e-01 7.55076423383989e-03
7.61844827586207e-01 5.40758925833053e-01 7.47918606774195e-03
7.65396551724138e-01 5.34382721585497e-01 7.40820592209533e-03
7.68948275862069e-01 5.28081700528138e-01 7.33782039738992e-03
7.72500000000000e-01 5.21854976159851e-01 7.26802607383587e-03
7.76051724137931e-01 5.15701672432437e-01 7.19881951472432e-03
7.79603448275862e-01 5.09620923627367e-01 7.13019726763384e-03
7.83155172413793e-01 5.03611874233989e-01 7.06215586560544e-03
7.86706896551724e-01 4.97673678829162e-01 6.99469183007175e-03
7.90258620689655e-01 4.91805501951557e-01 6.92780166655012e-03
7.93810344827586e-01 4.86006518004571e-01 6.86148186934202e-03
7.97362068965517e-01 4.80275911119518e-01 6.79572892630541e-03
8.00913793103448e-01 4.74612875047795e-01 6.73053931425308e-03
8.04465517241379e-01 4.69016613047443e-01 6.66590950182353e-03
8.08017241379310e-01 4.63486337771066e-01 6.60183595043736e-03
8.11568965517241e-01 4.58021271155051e-01 6.53831511684795e-03
8.15120689655172e-01 4.52620644304069e-01 6.47534344913424e-03
8.18672413793104e-01 4.47283697401163e-01 6.41291739085853e-03
8.22224137931035e-01 4.42009679582407e-01 6.35103338529282e-03
8.25775862068966e-01 4.36797848837473e-01 6.28968787115225e-03
8.29327586206897e-01 4.31647471905232e-01 6.22887728510219e-03
8.32879310344828e-01 4.26557824170599e-01 6.16859806253170e-03
8.36431034482759e-01 4.21528189562582e-01 6.10884663977610e-03
8.39982758620690e-01 4.16557860448150e-01 6.04961945039372e-03
8.43534482758621e-01 4.11646137548987e-01 5.99091292884914e-03
8.47086206896552e-01 4.06792329826639e-01 5.93272351426049e-03
8.50637931034483e-01 4.01995754390836e-01 5.87504764644628e-03
8.54189655172414e-01 3.97255736403410e-01 5.81788176811816e-03
8.57741379310345e-01 3.92571608983359e-01 5.76122232550111e-03
8.61293103448276e-01 3.87942713113018e-01 5.70506577027053e-03
8.64844827586207e-01 3.83368397540526e-01 5.64940855609905e-03
8.68396551724138e-01 3.78848018702783e-01 5.59424714192104e-03
8.71948275862069e-01 3.74380940620181e-01 5.53957799525796e-03
8.75500000000000e-01 3.69966534812088e-01 5.48539758855982e-03
8.79051724137931e-01 3.65604180208418e-01 5.43170240112382e-03
8.82603448275862e-01 3.61293263062256e-01 5.37848891958772e-03
8.86155172413793e-01 3.57033176863512e-01 5.32575363840796e-03
8.89706896551724e-01 3.52823322253584e-01 5.27349306151400e-03
8.93258620689655e-01 3.48663106936804e-01 5.22170369914530e-03
8.96810344827586e-01 3.44551945609929e-01 5.17038207069708e-03
9.00362068965517e-01 3.40489259866844e-01 5.11952470762300e-03
9.03913793103448e-01 3.36474478121546e-01 5.06912815009217e-03
9.07465517241379e-01 3.32507035527723e-01 5.01918894863488e-03
9.11017241379310e-01 3.28586373899290e-01 4.96970366451744e-03
9.14568965517241e-01 3.24711941631854e-01 4.92066887118560e-03
9.18120689655172e-01 3.20883193621314e-01 4.87208115133539e-03
9.21672413793103e-01 3.17099591198659e-01 4.82393709944071e-03
9.25224137931035e-01 3.13360602042581e-01 4.77623332433226e-03
9.28775862068966e-01 3.09665700108489e-01 4.72896644611010e-03
9.32327586206897e-01 3.06014365554492e-01 4.68213309758387e-03
9.35879310344828e-01 3.02406084668271e-01 4.63572992455977e-03
9.39431034482759e-01 2.98840349794799e-01 4.58975358710208e-03
9.42982758620690e-01 2.95316659261518e-01 4.54420075682118e-03
9.46534482758621e-01 2.91834517318054e-01 4.49906811912002e-03
9.50086206896552e-01 2.88393434056076e-01 4.45435237548899e-03
9.53637931034483e-01 2.84992925343868e-01 4.41005024065279e-03
9.57189655172414e-01 2.81632512758213e-01 4.36615844383279e-03
9.60741379310345e-01 2.78311723517085e-01 4.32267372896163e-03
9.64293103448276e-01 2.75030090413134e-01 4.27959285578361e-03
9.67844827586207e-01 2.71787151744904e-01 4.23691259734768e-03
9.71396551724138e-01 2.68582451261106e-01 4.19462974200431e-03
9.74948275862069e-01 2.65415538087109e-01 4.15274109544753e-03
9.78500000000000e-01 2.62285966664643e-01 4.11124347808145e-03
9.82051724137931e-01 2.59193296689107e-01 4.07013372612632e-03
9.85603448275862e-01 2.56137093047629e-01 4.02940869177280e-03
9.89155172413793e-01 2.53116925757848e-01 3.98906524332992e-03
9.92706896551724e-01 2.50132369907414e-01 3.94910026616569e-03
9.96258620689655e-01 2.47183005591521e-01 3.90951066041728e-03
9.99810344827586e-01 2.44268417861975e-01 3.87029334508099e-03
1.00336206896552e+00 2.41388196652737e-01 3.83144524962831e-03
1.00691379310345e+00 2.38541936759073e-01 3.79296333022205e-03
1.01046551724138e+00 2.35729237710151e-01 3.75484455253318e-03
1.01401724137931e+00 2.32949703808312e-01 3.71708589341755e-03
1.01756896551724e+00 2.30202943995846e-01 3.67968436985882e-03
1.02112068965517e+00 2.27488571801977e-01 3.64263699319927e-03
1.02467241379310e+00 2.24806205361611e-01 3.60594079908770e-03
1.02822413793103e+00 2.22155467264282e-01 3.56959284124636e-03
1.03177586206897e+00 2.19535984596986e-01 3.53359018307710e-03
1.03532758620690e+00 2.16947388819913e-01 3.49792992695244e-03
1.03887931034483e+00 2.14389315716480e-01 3.46260917145896e-03
1.04243103448276e+00 2.11861405409755e-01 3.42762503934229e-03
1.04598275862069e+00 2.09363302221736e-01 3.39297467166392e-03
1.04953448275862e+00 2.06894654712115e-01 3.35865521994108e-03
1.05308620689655e+00 2.04455115562375e-01 3.32466387348252e-03
1.05663793103448e+00 2.02044341528635e-01 3.29099781944048e-03
1.06018965517241e+00 1.99661993456040e-01 3.25765426887969e-03
1.06374137931034e+00 1.97307736147617e-01 3.22463045130802e-03
1.06729310344828e+00 1.94981238399348e-01 3.19192361333222e-03
1.07084482758621e+00 1.92682172872513e-01 3.15953102002357e-03
1.07439655172414e+00 1.90410216127538e-01 3.12744994773375e-03
1.07794827586207e+00 1.88165048518693e-01 3.09567770895540e-03
1.08150000000000e+00 1.85946354150666e-01 3.06421161592867e-03
1.08505172413793e+00 1.83753820890513e-01 3.03304900435388e-03
1.08860344827586e+00 1.81587140248667e-01 3.00218722838183e-03
1.09215517241379e+00 1.79446007409550e-01 2.97162365388892e-03
1.09570689655172e+00 1.77330121133294e-01 2.94135568168234e-03
1.09925862068966e+00 1.75239183714783e-01 2.91138071348531e-03
1.10281034482759e+00 1.73172900994026e-01 2.88169617407143e-03
1.10636206896552e+00 1.71130982245206e-01 2.85229950657105e-03
1.10991379310345e+00 1.69113140204361e-01 2.82318817129057e-03
1.11346551724138e+00 1.67119090961351e-01 2.79435964683666e-03
1.11701724137931e+00 1.65148553986569e-01 2.76581142396495e-03
1.12056896551724e+00 1.63201252041603e-01 2.73754102669759e-03
