Energy (eV)          EEDF (eV^-(3/2))     First Anisotropy
8.55932203389831e-03 2.25978085135931e-01 1.10249630647463e-04
2.56779661016949e-02 2.24655182822621e-01 1.82132889950568e-04
4.27966101694915e-02 2.23340024939952e-01 2.40646526322030e-04
5.99152542372881e-02 2.22032566145337e-01 2.85228145152351e-04
7.70338983050848e-02 2.20732761367637e-01 3.22516172625445e-04
9.41525423728814e-02 2.19440565801263e-01 3.55016773708575e-04
1.11271186440678e-01 2.18155934903794e-01 3.84025059902774e-04
1.28389830508475e-01 2.16878824386848e-01 4.10322033437247e-04
1.45508474576271e-01 2.15609190216037e-01 4.34424960738812e-04
1.62627118644068e-01 2.14346988634290e-01 4.56698939024504e-04
1.79745762711864e-01 2.13092176130094e-01 4.77413867934651e-04
1.96864406779661e-01 2.11844709446732e-01 4.96776439858034e-04
2.13983050847458e-01 2.10604545580769e-01 5.14949419173788e-04
2.31101694915254e-01 2.09371641780550e-01 5.32063910959207e-04
2.48220338983051e-01 2.08145955544717e-01 5.48227517016005e-04
2.65338983050847e-01 2.06927444620727e-01 5.63529955206707e-04
2.82457627118644e-01 2.05716067003392e-01 5.78047048439592e-04
2.99576271186441e-01 2.04511780933459e-01 5.91843629040941e-04
3.16694915254237e-01 2.03314544896147e-01 6.04975700044649e-04
3.33813559322034e-01 2.02124317619711e-01 6.17492074311854e-04
3.50932203389830e-01 2.00941058074019e-01 6.29435638530374e-04
3.68050847457627e-01 1.99764725469136e-01 6.40844342429447e-04
3.85169491525424e-01 1.98595279253921e-01 6.51751983610238e-04
4.02288135593220e-01 1.97432679111713e-01 6.62188835742722e-04
4.19406779661017e-01 1.96276884967844e-01 6.72182159878840e-04
4.36525423728814e-01 1.95127856979174e-01 6.81756623311185e-04
4.53644067796610e-01 1.93985555535813e-01 6.90934643685082e-04
4.70762711864407e-01 1.92849941259755e-01 6.99736677083008e-04
4.87881355932203e-01 1.91720975003519e-01 7.08181459402001e-04
5.05000000000000e-01 1.90598617848800e-01 7.16286210291533e-04
5.22118644067797e-01 1.89482831105124e-01 7.24066806555094e-04
5.39237288135593e-01 1.88373576308515e-01 7.31537930460251e-04
5.56355932203390e-01 1.87270815220177e-01 7.38713197288671e-04
5.73474576271186e-01 1.86174509825169e-01 7.45605265592492e-04
5.90593220338983e-01 1.85084622331094e-01 7.52225932959463e-04
6.07711864406780e-01 1.84001115166796e-01 7.58586219566745e-04
6.24830508474576e-01 1.82923950981069e-01 7.64696441683756e-04
6.41949152542373e-01 1.81853092639691e-01 7.70566275176821e-04
6.59067796610170e-01 1.80788503229231e-01 7.76204812973316e-04
6.76186440677966e-01 1.79730146050619e-01 7.81620616045925e-04
6.93305084745763e-01 1.78677984619631e-01 7.86821757294498e-04
7.10423728813559e-01 1.77631982665622e-01 7.91815861804668e-04
7.27542372881356e-01 1.76592104130282e-01 7.96610142587554e-04
7.44661016949153e-01 1.75558313166392e-01 8.01211432643068e-04
7.61779661016949e-01 1.74530574136585e-01 8.05626213803929e-04
7.78898305084746e-01 1.73508851612121e-01 8.09860642749512e-04
7.96016949152542e-01 1.72493110371662e-01 8.13920574526746e-04
8.13135593220339e-01 1.71483315400064e-01 8.17811583867997e-04
8.30254237288136e-01 1.70479431887164e-01 8.21538984553928e-04
8.47372881355932e-01 1.69481425226584e-01 8.25107847039545e-04
8.64491525423729e-01 1.68489261014535e-01 8.28523014532688e-04
8.81610169491525e-01 1.67502905048632e-01 8.31789117917429e-04
8.98728813559322e-01 1.66522323325626e-01 8.34910588522809e-04
9.15847457627119e-01 1.65547482043535e-01 8.37891670932575e-04
9.32966101694915e-01 1.64578347597138e-01 8.40736434795123e-04
9.50084745762712e-01 1.63614886577941e-01 8.43448784566591e-04
9.67203389830508e-01 1.62657065773033e-01 8.46032469378202e-04
9.84322033898305e-01 1.61704852163929e-01 8.48491091931299e-04
1.00144067796610e+00 1.60758212925444e-01 8.50828116724513e-04
1.01855932203390e+00 1.59817115424552e-01 8.53046876875120e-04
1.03567796610170e+00 1.58881527222821e-01 8.55150584794001e-04
1.05279661016949e+00 1.57951416059271e-01 8.57142332742686e-04
1.06991525423729e+00 1.57026749879488e-01 8.59025103275151e-04
1.08703389830508e+00 1.56107496799309e-01 8.60801773913057e-04
1.10415254237288e+00 1.55193625138319e-01 8.62475120313561e-04
1.12127118644068e+00 1.54285103392841e-01 8.64047829043704e-04
1.13838983050847e+00 1.53381900235867e-01 8.65522490623069e-04
1.15550847457627e+00 1.52483984539651e-01 8.66901611475473e-04
1.17262711864407e+00 1.51591325343069e-01 8.68187616243256e-04
1.18974576271186e+00 1.50703891881593e-01 8.69382849595718e-04
1.20686440677966e+00 1.49821653562975e-01 8.70489587105932e-04
1.22398305084746e+00 1.48944579967050e-01 8.71510027782882e-04
1.24110169491525e+00 1.48072640866041e-01 8.72446304341424e-04
1.25822033898305e+00 1.47205806195057e-01 8.73300484546028e-04
1.27533898305085e+00 1.46344046079059e-01 8.74074573798471e-04
1.29245762711864e+00 1.45487330804266e-01 8.74770517979789e-04
1.30957627118644e+00 1.44635630844252e-01 8.75390204102326e-04
1.32669491525424e+00 1.43788916838635e-01 8.75935469382950e-04
1.34381355932203e+00 1.42947159592740e-01 8.76408093519239e-04
1.36093220338983e+00 1.42110330095371e-01 8.76809807337431e-04
1.37805084745763e+00 1.41278399492786e-01 8.77142293284644e-04
1.39516949152542e+00 1.40451339112344e-01 8.77407185596098e-04
1.41228813559322e+00 1.39629120443064e-01 8.77606078394140e-04
1.42940677966102e+00 1.38811715135252e-01 8.77740518042144e-04
1.44652542372881e+00 1.37999095016626e-01 8.77812010908270e-04
1.46364406779661e+00 1.37191232068542e-01 8.77822023485689e-04
1.48076271186441e+00 1.36388098447502e-01 8.77771982235752e-04
1.49788135593220e+00 1.35589666467353e-01 8.77663280910225e-04
1.51500000000000e+00 1.34795908598882e-01 8.77497273075003e-04
1.53211864406780e+00 1.34006797484504e-01 8.77275279160417e-04
1.54923728813559e+00 1.33222305916464e-01 8.76998586328309e-04
1.56635593220339e+00 1.32442406856464e-01 8.76668448096481e-04
1.58347457627119e+00 1.31667073419324e-01 8.76286091026587e-04
1.60059322033898e+00 1.30896278872524e-01 8.75852707470506e-04
1.61771186440678e+00 1.30129996649655e-01 8.75369462029061e-04
1.63483050847458e+00 1.29368200330348e-01 8.74837491248159e-04
1.65194915254237e+00 1.28610863658253e-01 8.74257903094683e-04
1.66906779661017e+00 1.27857960525986e-01 8.73631783114844e-04
1.68618644067797e+00 1.27109464974640e-01 8.72960187432528e-04
1.70330508474576e+00 1.26365351206125e-01 8.72244148706777e-04
1.72042372881356e+00 1.25625593564645e-01 8.71484675712895e-04
1.73754237288136e+00 1.24890166553213e-01 8.70682752720139e-04
1.75466101694915e+00 1.24159044819736e-01 8.69839345197774e-04
1.77177966101695e+00 1.23432203156510e-01 8.68955393078870e-04
1.78889830508475e+00 1.22709616511566e-01 8.68031816287870e-04
1.80601694915254e+00 1.21991259971535e-01 8.67069514244280e-04
1.82313559322034e+00 1.21277108776849e-01 8.66069366326856e-04
1.84025423728814e+00 1.20567138305029e-01 8.65032232581748e-04
1.85737288135593e+00 1.19861324085493e-01 8.63958953011743e-04
1.87449152542373e+00 1.19159641786986e-01 8.62850352769660e-04
1.89161016949153e+00 1.18462067217060e-01 8.61707235767312e-04
1.90872881355932e+00 1.17768576332259e-01 8.60530389716613e-04
1.92584745762712e+00 1.17079145222604e-01 8.59320585558891e-04
1.94296610169492e+00 1.16393750125273e-01 8.58078576726705e-04
1.96008474576271e+00 1.15712367412915e-01 8.56805104004320e-04
1.97720338983051e+00 1.15034973593127e-01 8.55500889405271e-04
1.99432203389831e+00 1.14361545317869e-01 8.54166640898076e-04
2.01144067796610e+00 1.13692059369029e-01 8.52803051809089e-04
2.02855932203390e+00 1.13026492671089e-01 8.51410800071476e-04
2.04567796610170e+00 1.12364822280239e-01 8.49990552788897e-04
2.06279661016949e+00 1.11707025383849e-01 8.48542960374671e-04
2.07991525423729e+00 1.11053079309194e-01 8.47068660995025e-04
2.09703389830508e+00 1.10402961509998e-01 8.45568279958260e-04
2.11415254237288e+00 1.09756649578178e-01 8.44042428959947e-04
2.13127118644068e+00 1.09114121233691e-01 8.42491710381605e-04
2.14838983050847e+00 1.08475354323999e-01 8.40916711682571e-04
2.16550847457627e+00 1.07840326832173e-01 8.39318009586163e-04
2.18262711864407e+00 1.07209016864317e-01 8.37696169465745e-04
2.19974576271186e+00 1.06581402660493e-01 8.36051744593535e-04
2.21686440677966e+00 1.05957462585219e-01 8.34385280199037e-04
2.23398305084746e+00 1.05337175126941e-01 8.32697308103710e-04
2.25110169491525e+00 1.04720518905565e-01 8.30988350673342e-04
2.26822033898305e+00 1.04107472660691e-01 8.29258920207540e-04
2.28533898305085e+00 1.03498015261786e-01 8.27509519074966e-04
2.30245762711864e+00 1.02892125696674e-01 8.25740640038420e-04
2.31957627118644e+00 1.02289783081464e-01 8.23952765512969e-04
2.33669491525424e+00 1.01690966651858e-01 8.22146371336046e-04
2.35381355932203e+00 1.01095655762617e-01 8.20321921706094e-04
2.37093220338983e+00 1.00503829894413e-01 8.18479872855766e-04
2.38805084745763e+00 9.99154686430445e-02 8.16620672447239e-04
2.40516949152542e+00 9.93305517286974e-02 8.14744758847162e-04
2.42228813559322e+00 9.87490589877822e-02 8.12852564698944e-04
2.43940677966102e+00 9.81709703724147e-02 8.10944512081069e-04
2.45652542372881e+00 9.75962659567987e-02 8.09021015990739e-04
2.47364406779661e+00 9.70249259271118e-02 8.07082483750002e-04
2.49076271186441e+00 9.64569305901468e-02 8.05129314299211e-04
2.50788135593220e+00 9.58922603656459e-02 8.03161901586691e-04
2.52500000000000e+00 9.53308957857886e-02 8.01180629936838e-04
2.54211864406780e+00 9.47728175011498e-02 7.99185877358184e-04
2.55923728813559e+00 9.42180062711964e-02 7.97178014962499e-04
2.57635593220339e+00 9.36664429723666e-02 7.95157406277810e-04
2.59347457627119e+00 9.31181085908592e-02 7.93124410469432e-04
2.61059322033898e+00 9.25729842221277e-02 7.91079377907822e-04
2.62771186440678e+00 9.20310510764514e-02 7.89022653312802e-04
2.64483050847458e+00 9.14922904699943e-02 7.86954575187924e-04
2.66194915254237e+00 9.09566838323667e-02 7.84875475153388e-04
2.67906779661017e+00 9.04242126998371e-02 7.82785681010711e-04
2.69618644067797e+00 8.98948587148306e-02 7.80685512500611e-04
2.71330508474576e+00 8.93686036311453e-02 7.78575284294395e-04
2.73042372881356e+00 8.88454293055303e-02 7.76455305444714e-04
2.74754237288136e+00 8.83253177047719e-02 7.74325878738617e-04
2.76466101694915e+00 8.78082508992940e-02 7.72187303616617e-04
2.78177966101695e+00 8.72942110626637e-02 7.70039872111420e-04
2.79889830508475e+00 8.67831804764801e-02 7.67883871696318e-04
2.81601694915254e+00 8.62751415224328e-02 7.65719584753103e-04
2.83313559322034e+00 8.57700766889488e-02 7.63547288598699e-04
2.85025423728814e+00 8.52679685634088e-02 7.61367255651804e-04
2.86737288135593e+00 8.47687998386524e-02 7.59179752812338e-04
2.88449152542373e+00 8.42725533070596e-02 7.56985044199827e-04
2.90161016949153e+00 8.37792118600688e-02 7.54783387319061e-04
2.91872881355932e+00 8.32887584926619e-02 7.52575035733403e-04
2.93584745762712e+00 8.28011762960162e-02 7.50360238552752e-04
2.95296610169492e+00 8.23164484636149e-02 7.48139239834730e-04
2.97008474576271e+00 8.18345582856529e-02 7.45912281196440e-04
2.98720338983051e+00 8.13554891485660e-02 7.43679598141773e-04
3.00432203389831e+00 8.08792245392409e-02 7.41441422612804e-04
3.02144067796610e+00 8.04057480380726e-02 7.39197982494023e-04
3.03855932203390e+00 7.99350433247082e-02 7.36949501034791e-04
3.05567796610169e+00 7.94670941727560e-02 7.34696199342452e-04
3.07279661016949e+00 7.90018844493248e-02 7.32438292863390e-04
3.08991525423729e+00 7.85393981189795e-02 7.30175993819474e-04
3.10703389830508e+00 7.80796192371756e-02 7.27909510728861e-04
3.12415254237288e+00 7.76225319556631e-02 7.25639047848746e-04
3.14127118644068e+00 7.71681205174793e-02 7.23364807557300e-04
3.15838983050847e+00 7.67163692564961e-02 7.21086986981056e-04
3.17550847457627e+00 7.62672626011409e-02 7.18805780322546e-04
3.19262711864407e+00 7.58207850681829e-02 7.16521378397898e-04
3.20974576271186e+00 7.53769212678208e-02 7.14233968099107e-04
3.22686440677966e+00 7.49356558989399e-02 7.11943734671368e-04
3.24398305084746e+00 7.44969737486685e-02 7.09650858479700e-04
3.26110169491525e+00 7.40608596958810e-02 7.07355517233979e-04
3.27822033898305e+00 7.36272987053105e-02 7.05057885542913e-04
3.29533898305085e+00 7.31962758323449e-02 7.02758134912044e-04
3.31245762711864e+00 7.27677762172484e-02 7.00456433852096e-04
3.32957627118644e+00 7.23417850898609e-02 6.98152947365435e-04
3.34669491525424e+00 7.19182877651854e-02 6.95847839092359e-04
3.36381355932203e+00 7.14972696429576e-02 6.93541268254096e-04
3.38093220338983e+00 7.10787162108775e-02 6.91233391749028e-04
3.39805084745763e+00 7.06626130391327e-02 6.88924363727162e-04
3.41516949152542e+00 7.02489457848297e-02 6.86614335095995e-04
3.43228813559322e+00 6.98377001878073e-02 6.84303455573970e-04
3.44940677966102e+00 6.94288620702159e-02 6.81991870758263e-04
3.46652542372881e+00 6.90224173395640e-02 6.79679724131405e-04
3.48364406779661e+00 6.86183519835220e-02 6.77367156650565e-04
3.50076271186441e+00 6.82166520741051e-02 6.75054306271922e-04
3.51788135593220e+00 6.78173037636971e-02 6.72741309916661e-04
3.53500000000000e+00 6.74202932846406e-02 6.70428300657200e-04
3.55211864406780e+00 6.70256069521098e-02 6.68115409639185e-04
3.56923728813559e+00 6.66332311591779e-02 6.65802765685413e-04
3.58635593220339e+00 6.62431523807676e-02 6.63490494837522e-04
3.60347457627119e+00 6.58553571698732e-02 6.61178722239196e-04
3.62059322033898e+00 6.54698321571602e-02 6.58867569435940e-04
3.63771186440678e+00 6.50865640536770e-02 6.56557156216201e-04
3.65483050847458e+00 6.47055396461694e-02 6.54247600229405e-04
3.67194915254237e+00 6.43267458008134e-02 6.51939016544691e-04
3.68906779661017e+00 6.39501694596242e-02 6.49631519455654e-04
3.70618644067797e+00 6.35757976400649e-02 6.47325219888185e-04
3.72330508474576e+00 6.32036174376073e-02 6.45020227164555e-04
3.74042372881356e+00 6.28336160212792e-02 6.42716648635857e-04
3.75754237288136e+00 6.24657806371925e-02 6.40414589256602e-04
3.77466101694915e+00 6.21000986051295e-02 6.38114153314947e-04
3.79177966101695e+00 6.17365573181586e-02 6.35815441943941e-04
3.80889830508475e+00 6.13751442450559e-02 6.33518554812345e-04
3.82601694915254e+00 6.10158469260694e-02 6.31223589770678e-04
3.84313559322034e+00 6.06586529762579e-02 6.28930642838065e-04
3.86025423728814e+00 6.03035500813303e-02 6.26639808272711e-04
3.87737288135593e+00 5.99505260009203e-02 6.24351178167191e-04
3.89449152542373e+00 5.95995685653935e-02 6.22064844084093e-04
3.91161016949153e+00 5.92506656754776e-02 6.19780894698680e-04
3.92872881355932e+00 5.89038053045060e-02 6.17499417397633e-04
3.94584745762712e+00 5.85589754944585e-02 6.15220497941569e-04
3.96296610169492e+00 5.82161643590616e-02 6.12944220075482e-04
3.98008474576271e+00 5.78753600807469e-02 6.10670667097692e-04
3.99720338983051e+00 5.75365509102920e-02 6.08399919595325e-04
4.01432203389831e+00 5.71997251689412e-02 6.06132056978324e-04
4.03144067796610e+00 5.68648712446370e-02 6.03867157154092e-04
4.04855932203390e+00 5.65319775949562e-02 6.01605296152599e-04
4.06567796610170e+00 5.62010327442114e-02 5.99346549631805e-04
4.08279661016949e+00 5.58720252831015e-02 5.97090990701739e-04
4.09991525423729e+00 5.55449438707183e-02 5.94838691396925e-04
4.11703389830508e+00 5.52197772309569e-02 5.92589722362797e-04
4.13415254237288e+00 5.48965141552980e-02 5.90344152494639e-04
4.15127118644068e+00 5.45751435000451e-02 5.88102050382734e-04
4.16838983050847e+00 5.42556541859828e-02 5.85863482221244e-04
4.18550847457627e+00 5.39380352002779e-02 5.83628513221540e-04
4.20262711864407e+00 5.36222755930579e-02 5.81397207310266e-04
4.21974576271186e+00 5.33083644800487e-02 5.79169626781375e-04
4.23686440677966e+00 5.29962910399399e-02 5.76945833683938e-04
4.25398305084746e+00 5.26860445140518e-02 5.74725887812248e-04
4.27110169491525e+00 5.23776142081359e-02 5.72509848062511e-04
4.28822033898305e+00 5.20709894891134e-02 5.70297772142183e-04
4.30533898305085e+00 5.17661597875757e-02 5.68089716554761e-04
4.32245762711864e+00 5.14631145945782e-02 5.65885736651242e-04
4.33957627118644e+00 5.11618434640950e-02 5.63685886298971e-04
4.35669491525424e+00 5.08623360105484e-02 5.61490219196238e-04
4.37381355932203e+00 5.05645819084873e-02 5.59298786966152e-04
4.39093220338983e+00 5.02685708942611e-02 5.57111640441759e-04
4.40805084745763e+00 4.99742927629612e-02 5.54928829389154e-04
4.42516949152542e+00 4.96817373707506e-02 5.52750402188699e-04
4.44228813559322e+00 4.93908946325054e-02 5.50576407097832e-04
4.45940677966102e+00 4.91017545215013e-02 5.48406890418068e-04
4.47652542372881e+00 4.88143070710013e-02 5.46241897729802e-04
4.49364406779661e+00 4.85285423713361e-02 5.44081473625499e-04
4.51076271186441e+00 4.82444505721164e-02 5.41925661402740e-04
4.52788135593220e+00 4.79620218799796e-02 5.39774504277506e-04
4.54500000000000e+00 4.76812465582857e-02 5.37628043621226e-04
4.56211864406780e+00 4.74021149286220e-02 5.35486320147634e-04
4.57923728813559e+00 4.71246173680167e-02 5.33349373655474e-04
4.59635593220339e+00 4.68487443110394e-02 5.31217242732872e-04
4.61347457627119e+00 4.65744862476485e-02 5.29089965923528e-04
4.63059322033898e+00 4.63018337228951e-02 5.26967580030821e-04
4.64771186440678e+00 4.60307773383506e-02 5.24850121258555e-04
4.66483050847458e+00 4.57613077494457e-02 5.22737624963103e-04
4.68194915254237e+00 4.54934156674658e-02 5.20630125368555e-04
4.69906779661017e+00 4.52270918574939e-02 5.18527656687872e-04
4.71618644067797e+00 4.49623271381223e-02 5.16430251491281e-04
4.73330508474576e+00 4.46991123828071e-02 5.14337941802905e-04
4.75042372881356e+00 4.44374385173268e-02 5.12250758861910e-04
4.76754237288136e+00 4.41772965216777e-02 5.10168732848044e-04
4.78466101694915e+00 4.39186774281084e-02 5.08091893959900e-04
4.80177966101695e+00 4.36615723208380e-02 5.06020270844754e-04
4.81889830508475e+00 4.34059723373424e-02 5.03953891652881e-04
4.83601694915254e+00 4.31518686659262e-02 5.01892783807582e-04
4.85313559322034e+00 4.28992525475236e-02 4.99836973990371e-04
4.87025423728814e+00 4.26481152733090e-02 4.97786488177721e-04
4.88737288135593e+00 4.23984481864669e-02 4.95741351379851e-04
4.90449152542373e+00 4.21502426803426e-02 4.93701588663706e-04
4.92161016949153e+00 4.19034901981709e-02 4.91667223662019e-04
4.93872881355932e+00 4.16581822342757e-02 4.89638279573707e-04
4.95584745762712e+00 4.14143103317856e-02 4.87614778944784e-04
4.97296610169492e+00 4.11718660843171e-02 4.85596743416728e-04
4.99008474576271e+00 4.09308411342051e-02 4.83584194710401e-04
5.00720338983051e+00 4.06912271722389e-02 4.81577153190912e-04
5.02432203389831e+00 4.04530159388023e-02 4.79575638830056e-04
5.04144067796610e+00 4.02161992216885e-02 4.77579670995122e-04
5.05855932203390e+00 3.99807688577015e-02 4.75589268206459e-04
5.07567796610170e+00 3.97467167309623e-02 4.73604449083942e-04
5.09279661016949e+00 3.95140347726530e-02 4.71625230965434e-04
5.10991525423729e+00 3.92827149620990e-02 4.69651630832948e-04
5.12703389830509e+00 3.90527493246796e-02 4.67683665108849e-04
5.14415254237288e+00 3.88241299333511e-02 4.65721349422216e-04
5.16127118644068e+00 3.85968489070265e-02 4.63764699519831e-04
5.17838983050847e+00 3.83708984103249e-02 4.61813729935827e-04
5.19550847457627e+00 3.81462706546016e-02 4.59868454882853e-04
5.21262711864407e+00 3.79229578959480e-02 4.57928888055698e-04
5.22974576271186e+00 3.77009524366417e-02 4.55995042406047e-04
5.24686440677966e+00 3.74802466235945e-02 4.54066931019392e-04
5.26398305084746e+00 3.72608328481094e-02 4.52144565833798e-04
5.28110169491525e+00 3.70427035468591e-02 4.50227958497624e-04
5.29822033898305e+00 3.68258511999724e-02 4.48317120180252e-04
5.31533898305085e+00 3.66102683324142e-02 4.46412061558549e-04
5.33245762711864e+00 3.63959475121015e-02 4.44512792845320e-04
5.34957627118644e+00 3.61828813512607e-02 4.42619323574600e-04
5.36669491525424e+00 3.59710625049638e-02 4.40731663434634e-04
5.38381355932203e+00 3.57604836708951e-02 4.38849821050262e-04
5.40093220338983e+00 3.55511375902648e-02 4.36973804797504e-04
