Energy(eV)           EEDF(eV^-(3/2))      First Anisotropy
5.00000000000000e-02 6.01934551163040e-01 3.15960167815980e-05 
1.50000000000000e-01 6.01932323642790e-01 1.06711460558163e-04 
2.50000000000000e-01 6.01904992074504e-01 2.98830456507554e-04 
3.50000000000000e-01 6.01831318909063e-01 8.45009528912951e-04 
4.50000000000000e-01 6.01589296401819e-01 2.03186063111359e-03 
5.50000000000000e-01 6.01035642013904e-01 3.64728596735939e-03 
6.50000000000000e-01 6.00141323385596e-01 6.63067896496139e-03 
7.50000000000000e-01 5.98390000224484e-01 1.08636941384044e-02 
8.50000000000000e-01 5.95795844292251e-01 1.63328939590547e-02 
9.50000000000000e-01 5.91856840500439e-01 2.37422805633026e-02 
1.05000000000000e+00 5.86298929204535e-01 3.95971022831445e-02 
1.15000000000000e+00 5.75938801377002e-01 6.81994888802306e-02 
1.25000000000000e+00 5.58337133085572e-01 9.76334734239849e-02 
1.35000000000000e+00 5.34151667767994e-01 1.18339458877325e-01 
1.45000000000000e+00 5.05084373726548e-01 1.36769066493307e-01 
1.55000000000000e+00 4.69870217437712e-01 1.61102129165004e-01 
1.65000000000000e+00 4.25499986819139e-01 1.85853598731715e-01 
1.75000000000000e+00 3.71368102567336e-01 2.10143375667679e-01 
1.85000000000000e+00 3.03196922419901e-01 2.22960628455868e-01 
1.95000000000000e+00 2.15741655507693e-01 1.90774661614027e-01 
2.05000000000000e+00 1.38748982854629e-01 1.29916711756512e-01 
2.15000000000000e+00 8.45255075253179e-02 8.08390235015282e-02 
2.25000000000000e+00 4.90174319012551e-02 4.88955523812391e-02 
2.35000000000000e+00 2.80020882224842e-02 2.77562974971511e-02 
2.45000000000000e+00 1.62093868342192e-02 1.53349630348156e-02 
2.55000000000000e+00 9.66141106120347e-03 8.44417899430517e-03 
2.65000000000000e+00 6.07633897408762e-03 4.71589789082080e-03 
2.75000000000000e+00 4.03061372256649e-03 2.74668098639337e-03 
2.85000000000000e+00 2.90666206670612e-03 1.68057762429407e-03 
2.95000000000000e+00 2.24919843295109e-03 1.14121375167117e-03 
3.05000000000000e+00 1.84076681138721e-03 7.92136912094503e-04 
3.15000000000000e+00 1.58221804210599e-03 5.36463943919088e-04 
3.25000000000000e+00 1.42339728803904e-03 3.72650617216834e-04 
3.35000000000000e+00 1.31614523201354e-03 2.81423189849085e-04 
3.45000000000000e+00 1.23484362935000e-03 2.34228589099336e-04 
3.55000000000000e+00 1.16764423466001e-03 2.09498956697672e-04 
3.65000000000000e+00 1.10872519315909e-03 1.89190100966908e-04 
3.75000000000000e+00 1.05904904777958e-03 1.63220770266042e-04 
3.85000000000000e+00 1.01895370730160e-03 1.38649696850402e-04 
3.95000000000000e+00 9.85564669694699e-04 1.24574961485715e-04 
4.05000000000000e+00 9.55171303918187e-04 1.19387566895547e-04 
4.15000000000000e+00 9.26109644424840e-04 1.17020440388863e-04 
4.25000000000000e+00 8.98299353457246e-04 1.14845425390433e-04 
4.35000000000000e+00 8.71558051394569e-04 1.12792599839060e-04 
4.45000000000000e+00 8.45850778891804e-04 1.10788772224336e-04 
4.55000000000000e+00 8.21038355914528e-04 1.08850677410208e-04 
4.65000000000000e+00 7.96867959049998e-04 1.06995048944200e-04 
4.75000000000000e+00 7.73361347396731e-04 1.05175916009498e-04 
4.85000000000000e+00 7.50485365581912e-04 1.03358067350094e-04 
4.95000000000000e+00 7.28111171165013e-04 1.01522384033856e-04 
5.05000000000000e+00 7.06180985852008e-04 9.96751488782148e-05 
5.15000000000000e+00 6.84752476966415e-04 9.78374104942803e-05 
5.25000000000000e+00 6.63778251659574e-04 9.60301582460910e-05 
5.35000000000000e+00 6.43229036055467e-04 9.42609911174837e-05 
5.45000000000000e+00 6.23170616200255e-04 9.25270909160090e-05 
5.55000000000000e+00 6.03553418984723e-04 9.08343002809770e-05 
5.65000000000000e+00 5.84329868914535e-04 8.91833846906106e-05 
5.75000000000000e+00 5.65596969975599e-04 8.75688156249142e-05 
5.85000000000000e+00 5.47340800789771e-04 8.60230118133390e-05 
5.95000000000000e+00 5.29467304763896e-04 8.46005796754221e-05 
6.05000000000000e+00 5.12011598616458e-04 8.32888968463020e-05 
6.15000000000000e+00 4.94985701441777e-04 8.20308413099013e-05 
6.25000000000000e+00 4.78296922810982e-04 8.08024756842624e-05 
6.35000000000000e+00 4.61937488860427e-04 7.96002389214915e-05 
6.45000000000000e+00 4.45851865400695e-04 7.84254828301398e-05 
6.55000000000000e+00 4.30049687516386e-04 7.72740685917390e-05 
6.65000000000000e+00 4.14524957968861e-04 7.61459145539802e-05 
6.75000000000000e+00 3.99225821280737e-04 7.50437607380747e-05 
6.85000000000000e+00 3.84147243598418e-04 7.39659108022872e-05 
6.95000000000000e+00 3.69314006929132e-04 7.29104041906513e-05 
7.05000000000000e+00 3.54691440282730e-04 7.18721680484000e-05 
7.15000000000000e+00 3.40299126419209e-04 7.08414815836075e-05 
7.25000000000000e+00 3.26136273320298e-04 6.98201232397964e-05 
7.35000000000000e+00 3.12199103156489e-04 6.88094702743948e-05 
7.45000000000000e+00 2.98485462907614e-04 6.77626185988074e-05 
7.55000000000000e+00 2.84996687589956e-04 6.65940221923734e-05 
7.65000000000000e+00 2.71765124257034e-04 6.52904324521783e-05 
7.75000000000000e+00 2.58817711722764e-04 6.38964545634283e-05 
7.85000000000000e+00 2.46166402660097e-04 6.24397086239001e-05 
7.95000000000000e+00 2.33824657335070e-04 6.09144432603001e-05 
8.05000000000000e+00 2.21798420235426e-04 5.93070694551735e-05 
8.15000000000000e+00 2.10088298924509e-04 5.76476839651278e-05 
8.25000000000000e+00 1.98700415134176e-04 5.59567643466864e-05 
8.35000000000000e+00 1.87638348527235e-04 5.42258009951636e-05 
8.45000000000000e+00 1.76913425571911e-04 5.24495833624374e-05 
8.55000000000000e+00 1.66530910313864e-04 5.06220055550812e-05 
8.65000000000000e+00 1.56504080960384e-04 4.87530910382263e-05 
8.75000000000000e+00 1.46841599816987e-04 4.68496802078528e-05 
8.85000000000000e+00 1.37545651592368e-04 4.49067630438433e-05 
8.95000000000000e+00 1.28629991443293e-04 4.29204626797730e-05 
9.05000000000000e+00 1.20096828702845e-04 4.09026740388541e-05 
9.15000000000000e+00 1.11962661204122e-04 3.88874758645993e-05 
9.25000000000000e+00 1.04220898647098e-04 3.68983730599304e-05 
9.35000000000000e+00 9.68683328577615e-05 3.49362092686347e-05 
9.45000000000000e+00 8.98989144135052e-05 3.30045640947422e-05 
9.55000000000000e+00 8.33082788078155e-05 3.11088831954855e-05 
9.65000000000000e+00 7.70893123867095e-05 2.92595689415595e-05 
9.75000000000000e+00 7.12347891943156e-05 2.74643024574524e-05 
9.85000000000000e+00 6.57324394997182e-05 2.57265017689906e-05 
9.95000000000000e+00 6.05731720625178e-05 2.40440219869281e-05 
1.00500000000000e+01 5.57439527415330e-05 2.24210499067939e-05 
1.01500000000000e+01 5.12369954192234e-05 2.08717441945096e-05 
1.02500000000000e+01 4.70360802045514e-05 1.94044385201022e-05 
1.03500000000000e+01 4.31251450159854e-05 1.80161455309846e-05 
1.04500000000000e+01 3.94891592650555e-05 1.67043461904404e-05 
1.05500000000000e+01 3.61132599164669e-05 1.54670610796622e-05 
1.06500000000000e+01 3.29831165744954e-05 1.43022008464830e-05 
1.07500000000000e+01 3.00846125880859e-05 1.32075883356049e-05 
1.08500000000000e+01 2.74041424372032e-05 1.21808693917681e-05 
1.09500000000000e+01 2.49284428366679e-05 1.12196498847688e-05 
1.10500000000000e+01 2.26447590434526e-05 1.03212449382208e-05 
1.11500000000000e+01 2.05407068206028e-05 9.48284660826187e-06 
1.12500000000000e+01 1.86045978859691e-05 8.70164843782916e-06 
1.13500000000000e+01 1.68251266475157e-05 7.97499825143106e-06 
1.14500000000000e+01 1.51916324259685e-05 7.30036408847242e-06 
1.15500000000000e+01 1.36938280901039e-05 6.67533327766229e-06 
1.16500000000000e+01 1.23219327822216e-05 6.09697519313534e-06 
1.17500000000000e+01 1.10664917666922e-05 5.56222470019840e-06 
1.18500000000000e+01 9.91901486066752e-06 5.06605736228429e-06 
1.19500000000000e+01 8.87081642888041e-06 4.60294103113105e-06 
1.20500000000000e+01 7.91611059274524e-06 4.16991496531795e-06 
1.21500000000000e+01 7.05162538984867e-06 3.76540825615239e-06 
1.22500000000000e+01 6.27139600507175e-06 3.39033259749426e-06 
1.23500000000000e+01 5.56986093133657e-06 3.04582300714958e-06 
1.24500000000000e+01 4.94021826734760e-06 2.73383312661021e-06 
1.25500000000000e+01 4.37672632069414e-06 2.45562822602206e-06 
1.26500000000000e+01 3.87153293937908e-06 2.20798707639485e-06 
1.27500000000000e+01 3.41710638902781e-06 1.98469257701588e-06 
1.28500000000000e+01 3.00882498356711e-06 1.78053132660135e-06 
1.29500000000000e+01 2.64193323781162e-06 1.59223503450326e-06 
1.30500000000000e+01 2.31356940960949e-06 1.41876804163703e-06 
1.31500000000000e+01 2.02107730655009e-06 1.26075517101150e-06 
1.32500000000000e+01 1.76110949422240e-06 1.11753267236634e-06 
1.33500000000000e+01 1.53036658677944e-06 9.87561526820085e-07 
1.34500000000000e+01 1.32626800257979e-06 8.69089687052962e-07 
1.35500000000000e+01 1.14612929529097e-06 7.60713610591974e-07 
1.36500000000000e+01 9.88134651906528e-07 6.62297694882672e-07 
1.37500000000000e+01 8.50730072069896e-07 5.74339407021336e-07 
1.38500000000000e+01 7.31581316637781e-07 4.96751339947195e-07 
1.39500000000000e+01 6.28631067701830e-07 4.28704082232467e-07 
1.40500000000000e+01 5.39842361290295e-07 3.69434467083075e-07 
1.41500000000000e+01 4.63484573376620e-07 3.18085649921805e-07 
1.42500000000000e+01 3.97843258921773e-07 2.73743946933929e-07 
1.43500000000000e+01 3.41429839685267e-07 2.35434614910449e-07 
1.44500000000000e+01 2.92983841012989e-07 2.02366808882318e-07 
1.45500000000000e+01 2.51428970158444e-07 1.73880624523512e-07 
1.46500000000000e+01 2.15791530463088e-07 1.49396745735386e-07 
1.47500000000000e+01 1.85243908132786e-07 1.28380274380651e-07 
1.48500000000000e+01 1.59051108055162e-07 1.10327755396469e-07 
1.49500000000000e+01 1.36579661395125e-07 9.47778501578905e-08 
1.50500000000000e+01 1.17314425009605e-07 8.13891625072025e-08 
1.51500000000000e+01 1.00810624566707e-07 6.99081895877665e-08 
1.52500000000000e+01 8.66635632766974e-08 6.00846502313254e-08 
1.53500000000000e+01 7.45282018567791e-08 5.16741178855230e-08 
1.54500000000000e+01 6.41117595575500e-08 4.44713689877973e-08 
1.55500000000000e+01 5.51656203010514e-08 3.83032807720874e-08 
1.56500000000000e+01 4.74753477510102e-08 3.30167600326367e-08 
1.57500000000000e+01 4.08521813248709e-08 2.84633991801337e-08 
1.58500000000000e+01 3.51520639391999e-08 2.45367313552298e-08 
1.59500000000000e+01 3.02444303304901e-08 2.11561414965148e-08 
1.60500000000000e+01 2.60203790569850e-08 1.82443414151551e-08 
1.61500000000000e+01 2.23817330649170e-08 1.57377883485219e-08 
1.62500000000000e+01 1.92481555035116e-08 1.35766681338588e-08 
1.63500000000000e+01 1.65465513099283e-08 1.17121619037856e-08 
1.64500000000000e+01 1.42189488833716e-08 1.01000287539535e-08 
1.65500000000000e+01 1.22124986272634e-08 8.70575032307732e-09 
1.66500000000000e+01 1.04847718645264e-08 7.49896887802785e-09 
1.67500000000000e+01 8.99745233716114e-09 6.45586282917483e-09 
1.68500000000000e+01 7.71847647427496e-09 5.55435085099304e-09 
1.69500000000000e+01 6.61867679588397e-09 4.77572058021720e-09 
1.70500000000000e+01 5.67403719117293e-09 4.10406420845560e-09 
1.71500000000000e+01 4.86393952109343e-09 3.52613004199921e-09 
1.72500000000000e+01 4.16949173628990e-09 3.02950269762893e-09 
1.73500000000000e+01 3.57388770208838e-09 2.60285696408510e-09 
1.74500000000000e+01 3.06330013844822e-09 2.23600357512494e-09 
1.75500000000000e+01 2.62536859211278e-09 1.92054481719607e-09 
1.76500000000000e+01 2.25001776835530e-09 1.64918316600025e-09 
1.77500000000000e+01 1.92830710220278e-09 1.41600223750557e-09 
1.78500000000000e+01 1.65271418323446e-09 1.21578861406550e-09 
1.79500000000000e+01 1.41660909561885e-09 1.04415709690811e-09 
1.80500000000000e+01 1.21434655240701e-09 8.96970071124036e-10 
1.81500000000000e+01 1.04087520439828e-09 7.70644584998234e-10 
1.82500000000000e+01 8.92166649627304e-10 6.61767899553239e-10 
1.83500000000000e+01 7.64499202114420e-10 5.67587843892732e-10 
1.84500000000000e+01 6.55144475300373e-10 4.85992337734904e-10 
1.85500000000000e+01 5.61696774063556e-10 4.15521773727101e-10 
1.86500000000000e+01 4.81982145085887e-10 3.54748481591968e-10 
1.87500000000000e+01 4.14071734209915e-10 3.02332661272652e-10 
1.88500000000000e+01 3.56358762539056e-10 2.57054735408875e-10 
1.89500000000000e+01 3.07416148284244e-10 2.17879796394489e-10 
1.90500000000000e+01 2.66082696330679e-10 1.83897120214039e-10 
1.91500000000000e+01 2.31338423551225e-10 1.54347799329565e-10 
1.92500000000000e+01 2.02339099985129e-10 1.28524780499473e-10 
1.93500000000000e+01 1.78343617816751e-10 1.05813242375767e-10 
1.94500000000000e+01 1.58772463402647e-10 8.56586466317225e-11 
1.95500000000000e+01 1.43126177355488e-10 6.75908640870731e-11 
1.96500000000000e+01 1.31023060262435e-10 5.11794196354517e-11 
1.97500000000000e+01 1.22146258750839e-10 3.60419677111565e-11 
1.98500000000000e+01 1.16271817883190e-10 2.15828846382173e-11 
1.99500000000000e+01 1.13324953862564e-10 1.44369549153938e-11 
