################################
# DATA CONSIDERED FOR THE TESTS#
################################

# elastic momentum transfer constant rate coefficient = 1.000000e-12 (m3s-1)
#                                     gas temperature = 300.000000 (K)
#                           mass of the heavy species = 40.000000 (uam)
#               decades of decay ensured for the eedf = 15 
#                 number of cells for the energy grid = 5300 

E/N(Td)              Te_th(eV)            Te_sim(eV)           RelError(Te)         RelError(EEDF)
0.00000000000000e+00 2.58519910116516e-02 2.58509677254441e-02 3.95824912315240e-05 5.60569375731030e-05 
1.00000000000000e+00 3.01268347033801e-02 3.01256433830592e-02 3.95434944491863e-05 5.59464494376755e-05 
2.00000000000000e+00 4.29513657785653e-02 4.29496721192332e-02 3.94320250693101e-05 5.56312069731991e-05 
3.00000000000000e+00 6.43255842372075e-02 6.43230415767979e-02 3.95279800367777e-05 5.59025110541255e-05 
4.00000000000000e+00 9.42494900793065e-02 9.42457517451817e-02 3.96642371393948e-05 5.62889118014228e-05 
5.00000000000000e+00 1.32723083304862e-01 1.32717837967808e-01 3.95209101813870e-05 5.58825344348308e-05 
6.00000000000000e+00 1.79746363913875e-01 1.79739247234014e-01 3.95929002738546e-05 5.60864483898241e-05 
7.00000000000000e+00 2.35319331906345e-01 2.35310014883753e-01 3.95931031933090e-05 5.60870518545345e-05 
8.00000000000000e+00 2.99441987282271e-01 2.99430211504803e-01 3.93257391019301e-05 5.53314524761824e-05 
9.00000000000000e+00 3.72114330041654e-01 3.72099519236759e-01 3.98017590281457e-05 5.66801709478935e-05 
1.00000000000000e+01 4.53336360184494e-01 4.53318344394953e-01 3.97404468812432e-05 5.65055665953706e-05 
1.10000000000000e+01 5.43108077710791e-01 5.43086510253103e-01 3.97111708944137e-05 5.64222756526419e-05 
1.20000000000000e+01 6.41429482620545e-01 6.41404016799052e-01 3.97016697596407e-05 5.63952472490563e-05 
1.30000000000000e+01 7.48300574913756e-01 7.48271040769806e-01 3.94682898019785e-05 5.57336675143089e-05 
1.40000000000000e+01 8.63721354590423e-01 8.63687228791030e-01 3.95101952867620e-05 5.58521896461429e-05 
1.50000000000000e+01 9.87691821650547e-01 9.87652757503555e-01 3.95509471033445e-05 5.59675571153984e-05 
1.60000000000000e+01 1.12021197609413e+00 1.12016762692654e+00 3.95899780895511e-05 5.60781842387823e-05 
1.70000000000000e+01 1.26128181792117e+00 1.26123183705159e+00 3.96270435892432e-05 5.61833449388763e-05 
1.80000000000000e+01 1.41090134713166e+00 1.41084556456849e+00 3.95368274935471e-05 5.59275746424363e-05 
1.90000000000000e+01 1.56907056372561e+00 1.56900845613163e+00 3.95824097523442e-05 5.60567264156797e-05 
2.00000000000000e+01 1.73578946770302e+00 1.73572068841549e+00 3.96242106613499e-05 5.61752736002380e-05 
2.10000000000000e+01 1.91105805906389e+00 1.91098243800653e+00 3.95702563821097e-05 5.60222128337667e-05 
2.20000000000000e+01 2.09487633780821e+00 2.09479335179149e+00 3.96138021237898e-05 5.61457538039335e-05 
2.30000000000000e+01 2.28724430393599e+00 2.28715378286105e+00 3.95764784649921e-05 5.60398732146781e-05 
2.40000000000000e+01 2.48816195744723e+00 2.48806355472428e+00 3.95483592420759e-05 5.59602291345989e-05 
2.50000000000000e+01 2.69762929834192e+00 2.69752249058125e+00 3.95931941922107e-05 5.60872711813546e-05 
2.60000000000000e+01 2.91564632662007e+00 2.91553041334417e+00 3.97556023307108e-05 5.65486799748266e-05 
2.70000000000000e+01 3.14221304228167e+00 3.14208785333606e+00 3.98410113923906e-05 5.67921067100208e-05 
2.80000000000000e+01 3.37732944532674e+00 3.37719516515704e+00 3.97592748566451e-05 5.65591694958283e-05 
2.90000000000000e+01 3.62099553575526e+00 3.62085234785546e+00 3.95437935189196e-05 5.59473007568664e-05 
3.00000000000000e+01 3.87321131356724e+00 3.87305763373302e+00 3.96776271092927e-05 5.63269588195120e-05 
3.10000000000000e+01 4.13397677876267e+00 4.13381279052727e+00 3.96683978104165e-05 5.63007247186880e-05 
3.20000000000000e+01 4.40329193134156e+00 4.40311781831145e+00 3.95415595483322e-05 5.59409677302386e-05 
3.30000000000000e+01 4.68115677130391e+00 4.68097094947403e+00 3.96957074836779e-05 5.63783582491513e-05 
3.40000000000000e+01 4.96757129864971e+00 4.96737395151697e+00 3.97270861108004e-05 5.64675247352207e-05 
3.50000000000000e+01 5.26253551337897e+00 5.26232682497838e+00 3.96554854715034e-05 5.62640256799325e-05 
3.60000000000000e+01 5.56604941549169e+00 5.56582956883264e+00 3.94977914571894e-05 5.58170893619270e-05 
3.70000000000000e+01 5.87811300498787e+00 5.87788041677653e+00 3.95685164847323e-05 5.60173269576207e-05 
3.80000000000000e+01 6.19872628186750e+00 6.19848113515282e+00 3.95479173515233e-05 5.59589639305488e-05 
3.90000000000000e+01 6.52788924613059e+00 6.52763172399611e+00 3.94495256842488e-05 5.56806644719768e-05 
4.00000000000000e+01 6.86560189777713e+00 6.86533041754376e+00 3.95420878483416e-05 5.59424972085038e-05 
4.10000000000000e+01 7.21186423680714e+00 7.21157898156573e+00 3.95536066737888e-05 5.59750772596420e-05 
4.20000000000000e+01 7.56667626322060e+00 7.56637741622555e+00 3.94951474929553e-05 5.58096214336879e-05 
4.30000000000000e+01 7.93003797701751e+00 7.92972395488777e+00 3.95990700995160e-05 5.61039336423800e-05 
4.40000000000000e+01 8.30194937819788e+00 8.30162036437683e+00 3.96309114960033e-05 5.61942191766576e-05 
4.50000000000000e+01 8.68241046676172e+00 8.68206664468173e+00 3.95998416920260e-05 5.61061449597500e-05 
4.60000000000000e+01 9.07142124270900e+00 9.07106279528127e+00 3.95139215940192e-05 5.58627019348919e-05 
4.70000000000000e+01 9.46898170603975e+00 9.46860705032038e+00 3.95666325056704e-05 5.60120263008900e-05 
4.80000000000000e+01 9.87509185675395e+00 9.87470117613437e+00 3.95622263817951e-05 5.59995063496913e-05 
4.90000000000000e+01 1.02897516948516e+01 1.02893451723773e+01 3.95075106140390e-05 5.58445901888642e-05 
5.00000000000000e+01 1.07129612203327e+01 1.07125372727966e+01 3.95733287366272e-05 5.60309832755170e-05 
