Energy (eV)          EEDF (eV^-(3/2))     First Anisotropy
1.95312500000000e-02 1.62870901282708e-01 1.07539493014315e-04
5.85937500000000e-02 1.61123312278368e-01 1.77221353586091e-04
9.76562500000000e-02 1.59394474734774e-01 2.33008643478684e-04
1.36718750000000e-01 1.57684187450642e-01 2.74820784849342e-04
1.75781250000000e-01 1.55992251383499e-01 3.09224188720427e-04
2.14843750000000e-01 1.54318469626568e-01 3.38715911458177e-04
2.53906250000000e-01 1.52662647385859e-01 3.64595290895511e-04
2.92968750000000e-01 1.51024591957504e-01 3.87651162379468e-04
3.32031250000000e-01 1.49404112705325e-01 4.08409453068385e-04
3.71093750000000e-01 1.47801021038656e-01 4.27243812333359e-04
4.10156250000000e-01 1.46215130390386e-01 4.44432257373057e-04
4.49218750000000e-01 1.44646256195254e-01 4.60189067607523e-04
4.88281250000000e-01 1.43094215868365e-01 4.74684053992837e-04
5.27343750000000e-01 1.41558828783941e-01 4.88054853757709e-04
5.66406250000000e-01 1.40039916254304e-01 5.00415124891516e-04
6.05468750000000e-01 1.38537301509076e-01 5.11860206611593e-04
6.44531250000000e-01 1.37050809674607e-01 5.22471148000441e-04
6.83593750000000e-01 1.35580267753627e-01 5.32317648910681e-04
7.22656250000000e-01 1.34125504605106e-01 5.41460254198947e-04
7.61718750000000e-01 1.32686350924344e-01 5.49952022251706e-04
8.00781250000000e-01 1.31262639223264e-01 5.57839815102686e-04
8.39843750000000e-01 1.29854203810918e-01 5.65165310816408e-04
8.78906250000000e-01 1.28460880774206e-01 5.71965808477111e-04
9.17968750000000e-01 1.27082507958802e-01 5.78274875898579e-04
9.57031250000000e-01 1.25718924950277e-01 5.84122876392372e-04
9.96093750000000e-01 1.24369973055436e-01 5.89537401361427e-04
1.03515625000000e+00 1.23035495283844e-01 5.94543628719383e-04
1.07421875000000e+00 1.21715336329561e-01 5.99164622276238e-04
1.11328125000000e+00 1.20409342553064e-01 6.03421583688942e-04
1.15234375000000e+00 1.19117361963365e-01 6.07334065959525e-04
1.19140625000000e+00 1.17839244200326e-01 6.10920155508224e-04
1.23046875000000e+00 1.16574840517161e-01 6.14196628370289e-04
1.26953125000000e+00 1.15324003763118e-01 6.17179084935900e-04
1.30859375000000e+00 1.14086588366363e-01 6.19882066781388e-04
1.34765625000000e+00 1.12862450317030e-01 6.22319158461798e-04
1.38671875000000e+00 1.11651447150467e-01 6.24503076602709e-04
1.42578125000000e+00 1.10453437930654e-01 6.26445748208117e-04
1.46484375000000e+00 1.09268283233799e-01 6.28158379765696e-04
1.50390625000000e+00 1.08095845132116e-01 6.29651518461847e-04
1.54296875000000e+00 1.06935987177769e-01 6.30935106600819e-04
1.58203125000000e+00 1.05788574386995e-01 6.32018530146144e-04
1.62109375000000e+00 1.04653473224395e-01 6.32910662158102e-04
1.66015625000000e+00 1.03530551587388e-01 6.33619901781859e-04
1.69921875000000e+00 1.02419678790846e-01 6.34154209343292e-04
1.73828125000000e+00 1.01320725551875e-01 6.34521138027939e-04
1.77734375000000e+00 1.00233563974777e-01 6.34727862550667e-04
1.81640625000000e+00 9.91580675361619e-02 6.34781205166601e-04
1.85546875000000e+00 9.80941110702226e-02 6.34687659326311e-04
1.89453125000000e+00 9.70415707541694e-02 6.34453411237647e-04
1.93359375000000e+00 9.60003240938192e-02 6.34084359562194e-04
1.97265625000000e+00 9.49702499093395e-02 6.33586133445318e-04
2.01171875000000e+00 9.39512283211458e-02 6.32964109053947e-04
2.05078125000000e+00 9.29431407359498e-02 6.32223424774563e-04
2.08984375000000e+00 9.19458698329577e-02 6.31368995205571e-04
2.12890625000000e+00 9.09592995502168e-02 6.30405524062699e-04
2.16796875000000e+00 8.99833150711074e-02 6.29337516101981e-04
2.20703125000000e+00 8.90178028109813e-02 6.28169288153059e-04
2.24609375000000e+00 8.80626504039426e-02 6.26904979345360e-04
2.28515625000000e+00 8.71177466897705e-02 6.25548560600485e-04
2.32421875000000e+00 8.61829817009827e-02 6.24103843456437e-04
2.36328125000000e+00 8.52582466500373e-02 6.22574488282112e-04
2.40234375000000e+00 8.43434339166719e-02 6.20964011934605e-04
2.44140625000000e+00 8.34384370353797e-02 6.19275794906680e-04
2.48046875000000e+00 8.25431506830180e-02 6.17513088006498e-04
2.51953125000000e+00 8.16574706665514e-02 6.15679018608065e-04
2.55859375000000e+00 8.07812939109256e-02 6.13776596506759e-04
2.59765625000000e+00 7.99145184470719e-02 6.11808719411208e-04
2.63671875000000e+00 7.90570434000394e-02 6.09778178099867e-04
2.67578125000000e+00 7.82087689772561e-02 6.07687661267841e-04
2.71484375000000e+00 7.73695964569144e-02 6.05539760087275e-04
2.75390625000000e+00 7.65394281764821e-02 6.03336972502612e-04
2.79296875000000e+00 7.57181675213368e-02 6.01081707280092e-04
2.83203125000000e+00 7.49057189135213e-02 5.98776287828922e-04
2.87109375000000e+00 7.41019878006208e-02 5.96422955810496e-04
2.91015625000000e+00 7.33068806447588e-02 5.94023874550494e-04
2.94921875000000e+00 7.25203049117110e-02 5.91581132267152e-04
2.98828125000000e+00 7.17421690601365e-02 5.89096745128226e-04
3.02734375000000e+00 7.09723825309241e-02 5.86572660148250e-04
3.06640625000000e+00 7.02108557366531e-02 5.84010757936406e-04
3.10546875000000e+00 6.94575000511671e-02 5.81412855304694e-04
3.14453125000000e+00 6.87122277992599e-02 5.78780707745421e-04
3.18359375000000e+00 6.79749522464716e-02 5.76116011786198e-04
3.22265625000000e+00 6.72455875889949e-02 5.73420407230061e-04
3.26171875000000e+00 6.65240489436887e-02 5.70695479287792e-04
3.30078125000000e+00 6.58102523382001e-02 5.67942760608922e-04
3.33984375000000e+00 6.51041147011912e-02 5.65163733217466e-04
3.37890625000000e+00 6.44055538526718e-02 5.62359830358091e-04
3.41796875000000e+00 6.37144884944347e-02 5.59532438257836e-04
3.45703125000000e+00 6.30308382005948e-02 5.56682897808260e-04
3.49609375000000e+00 6.23545234082289e-02 5.53812506172559e-04
3.53515625000000e+00 6.16854654081163e-02 5.50922518321803e-04
3.57421875000000e+00 6.10235863355786e-02 5.48014148504297e-04
3.61328125000000e+00 6.03688091614179e-02 5.45088571651645e-04
3.65234375000000e+00 5.97210576829520e-02 5.42146924724962e-04
3.69140625000000e+00 5.90802565151462e-02 5.39190308004444e-04
3.73046875000000e+00 5.84463310818400e-02 5.36219786325222e-04
3.76953125000000e+00 5.78192076070678e-02 5.33236390262413e-04
3.80859375000000e+00 5.71988131064729e-02 5.30241117267815e-04
3.84765625000000e+00 5.65850753788139e-02 5.27234932760884e-04
3.88671875000000e+00 5.59779229975614e-02 5.24218771176203e-04
3.92578125000000e+00 5.53772853025860e-02 5.21193536969583e-04
3.96484375000000e+00 5.47830923919347e-02 5.18160105584910e-04
4.00390625000000e+00 5.41952751136954e-02 5.15119324383522e-04
4.04296875000000e+00 5.36137650579497e-02 5.12072013538102e-04
4.08203125000000e+00 5.30384945488105e-02 5.09018966892644e-04
4.12109375000000e+00 5.24693966365470e-02 5.05960952790072e-04
4.16015625000000e+00 5.19064050897921e-02 5.02898714869123e-04
4.19921875000000e+00 5.13494543878350e-02 4.99832972831846e-04
4.23828125000000e+00 5.07984797129958e-02 4.96764423183075e-04
4.27734375000000e+00 5.02534169430821e-02 4.93693739943077e-04
4.31640625000000e+00 4.97142026439262e-02 4.90621575334692e-04
4.35546875000000e+00 4.91807740620032e-02 4.87548560446084e-04
4.39453125000000e+00 4.86530691171271e-02 4.84475305869958e-04
4.43359375000000e+00 4.81310263952265e-02 4.81402402320574e-04
4.47265625000000e+00 4.76145851411970e-02 4.78330421229337e-04
4.51171875000000e+00 4.71036852518305e-02 4.75259915319794e-04
4.55078125000000e+00 4.65982672688207e-02 4.72191419163208e-04
4.58984375000000e+00 4.60982723718430e-02 4.69125449715194e-04
4.62890625000000e+00 4.56036423717092e-02 4.66062506834300e-04
4.66796875000000e+00 4.51143197035956e-02 4.63003073783395e-04
4.70703125000000e+00 4.46302474203433e-02 4.59947617714449e-04
4.74609375000000e+00 4.41513691858310e-02 4.56896590137366e-04
4.78515625000000e+00 4.36776292684185e-02 4.53850427373527e-04
4.82421875000000e+00 4.32089725344608e-02 4.50809550994715e-04
4.86328125000000e+00 4.27453444418914e-02 4.47774368247893e-04
4.90234375000000e+00 4.22866910338751e-02 4.44745272466377e-04
4.94140625000000e+00 4.18329589325280e-02 4.41722643468059e-04
4.98046875000000e+00 4.13840953327062e-02 4.38706847941071e-04
5.01953125000000e+00 4.09400479958594e-02 4.35698239817324e-04
5.05859375000000e+00 4.05007652439522e-02 4.32697160634509e-04
5.09765625000000e+00 4.00661959534494e-02 4.29703939886902e-04
5.13671875000000e+00 3.96362895493665e-02 4.26718895365351e-04
5.17578125000000e+00 3.92109959993834e-02 4.23742333486938e-04
5.21484375000000e+00 3.87902658080223e-02 4.20774549614647e-04
5.25390625000000e+00 3.83740500108869e-02 4.17815828367361e-04
5.29296875000000e+00 3.79623001689641e-02 4.14866443920608e-04
5.33203125000000e+00 3.75549683629868e-02 4.11926660298311e-04
5.37109375000000e+00 3.71520071878571e-02 4.08996731655915e-04
5.41015625000000e+00 3.67533697471289e-02 4.06076902555165e-04
5.44921875000000e+00 3.63590096475508e-02 4.03167408230817e-04
5.48828125000000e+00 3.59688809936662e-02 4.00268474849548e-04
5.52734375000000e+00 3.55829383824724e-02 3.97380319761412e-04
5.56640625000000e+00 3.52011368981367e-02 3.94503151744020e-04
5.60546875000000e+00 3.48234321067686e-02 3.91637171239653e-04
5.64453125000000e+00 3.44497800512492e-02 3.88782570585663e-04
5.68359375000000e+00 3.40801372461152e-02 3.85939534238306e-04
5.72265625000000e+00 3.37144606724981e-02 3.83108238990202e-04
5.76171875000000e+00 3.33527077731175e-02 3.80288854181702e-04
5.80078125000000e+00 3.29948364473288e-02 3.77481541906309e-04
5.83984375000000e+00 3.26408050462231e-02 3.74686457210383e-04
5.87890625000000e+00 3.22905723677802e-02 3.71903748287237e-04
5.91796875000000e+00 3.19440976520737e-02 3.69133556665911e-04
5.95703125000000e+00 3.16013405765272e-02 3.66376017394719e-04
5.99609375000000e+00 3.12622612512217e-02 3.63631259219736e-04
6.03515625000000e+00 3.09268202142531e-02 3.60899404758450e-04
6.07421875000000e+00 3.05949784271397e-02 3.58180570668619e-04
6.11328125000000e+00 3.02666972702789e-02 3.55474867812574e-04
6.15234375000000e+00 2.99419385384530e-02 3.52782401417073e-04
6.19140625000000e+00 2.96206644363822e-02 3.50103271228850e-04
6.23046875000000e+00 2.93028375743265e-02 3.47437571665972e-04
6.26953125000000e+00 2.89884209637343e-02 3.44785391965174e-04
6.30859375000000e+00 2.86773780129376e-02 3.42146816325195e-04
6.34765625000000e+00 2.83696725228932e-02 3.39521924046364e-04
6.38671875000000e+00 2.80652686829704e-02 3.36910789666493e-04
6.42578125000000e+00 2.77641310667831e-02 3.34313483093110e-04
6.46484375000000e+00 2.74662246280666e-02 3.31730069732263e-04
6.50390625000000e+00 2.71715146965995e-02 3.29160610613934e-04
6.54296875000000e+00 2.68799669741685e-02 3.26605162514137e-04
6.58203125000000e+00 2.65915475305767e-02 3.24063778073860e-04
6.62109375000000e+00 2.63062227996950e-02 3.21536505914901e-04
6.66015625000000e+00 2.60239595755555e-02 3.19023390752656e-04
6.69921875000000e+00 2.57447250084874e-02 3.16524473506045e-04
6.73828125000000e+00 2.54684866012934e-02 3.14039791404548e-04
6.77734375000000e+00 2.51952122054681e-02 3.11569378092496e-04
6.81640625000000e+00 2.49248700174564e-02 3.09113263730680e-04
6.85546875000000e+00 2.46574285749523e-02 3.06671475095344e-04
6.89453125000000e+00 2.43928567532374e-02 3.04244035674648e-04
6.93359375000000e+00 2.41311237615584e-02 3.01830965762656e-04
6.97265625000000e+00 2.38721991395437e-02 2.99432282550937e-04
7.01171875000000e+00 2.36160527536588e-02 2.97048000217819e-04
7.05078125000000e+00 2.33626547936989e-02 2.94678130015379e-04
7.08984375000000e+00 2.31119757693198e-02 2.92322680354238e-04
7.12890625000000e+00 2.28639865066061e-02 2.89981656886216e-04
7.16796875000000e+00 2.26186581446753e-02 2.87655062584845e-04
7.20703125000000e+00 2.23759621323197e-02 2.85342897823882e-04
7.24609375000000e+00 2.21358702246832e-02 2.83045160453872e-04
7.28515625000000e+00 2.18983544799742e-02 2.80761845876730e-04
7.32421875000000e+00 2.16633872562139e-02 2.78492947118485e-04
7.36328125000000e+00 2.14309412080191e-02 2.76238454900183e-04
7.40234375000000e+00 2.12009892834202e-02 2.73998357707008e-04
7.44140625000000e+00 2.09735047207124e-02 2.71772641855684e-04
7.48046875000000e+00 2.07484610453414e-02 2.69561291560200e-04
7.51953125000000e+00 2.05258320668224e-02 2.67364288995861e-04
7.55859375000000e+00 2.03055918756920e-02 2.65181614361751e-04
7.59765625000000e+00 2.00877148404926e-02 2.63013245941638e-04
7.63671875000000e+00 1.98721756047899e-02 2.60859160163378e-04
7.67578125000000e+00 1.96589490842217e-02 2.58719331656830e-04
7.71484375000000e+00 1.94480104635783e-02 2.56593733310316e-04
7.75390625000000e+00 1.92393351939151e-02 2.54482336325696e-04
7.79296875000000e+00 1.90328989896951e-02 2.52385110272047e-04
7.83203125000000e+00 1.88286778259629e-02 2.50302023138042e-04
7.87109375000000e+00 1.86266479355485e-02 2.48233041383012e-04
7.91015625000000e+00 1.84267858063013e-02 2.46178129986726e-04
7.94921875000000e+00 1.82290681783538e-02 2.44137252497961e-04
7.98828125000000e+00 1.80334720414147e-02 2.42110371081835e-04
8.02734375000000e+00 1.78399746320908e-02 2.40097446566022e-04
8.06640625000000e+00 1.76485534312380e-02 2.38098438485749e-04
8.10546875000000e+00 1.74591861613404e-02 2.36113305127704e-04
8.14453125000000e+00 1.72718507839175e-02 2.34142003572889e-04
8.18359375000000e+00 1.70865254969599e-02 2.32184489738359e-04
8.22265625000000e+00 1.69031887323915e-02 2.30240718417972e-04
8.26171875000000e+00 1.67218191535595e-02 2.28310643322064e-04
8.30078125000000e+00 1.65423956527513e-02 2.26394217116189e-04
8.33984375000000e+00 1.63648973487383e-02 2.24491391458920e-04
8.37890625000000e+00 1.61893035843450e-02 2.22602117038625e-04
8.41796875000000e+00 1.60155939240459e-02 2.20726343609380e-04
8.45703125000000e+00 1.58437481515862e-02 2.18864020026018e-04
8.49609375000000e+00 1.56737462676300e-02 2.17015094278251e-04
8.53515625000000e+00 1.55055684874321e-02 2.15179513523956e-04
8.57421875000000e+00 1.53391952385357e-02 2.13357224121642e-04
8.61328125000000e+00 1.51746071584946e-02 2.11548171662098e-04
8.65234375000000e+00 1.50117850926199e-02 2.09752300999256e-04
8.69140625000000e+00 1.48507100917506e-02 2.07969556280281e-04
8.73046875000000e+00 1.46913634100481e-02 2.06199880974880e-04
8.76953125000000e+00 1.45337265028151e-02 2.04443217903920e-04
8.80859375000000e+00 1.43777810243372e-02 2.02699509267303e-04
8.84765625000000e+00 1.42235088257474e-02 2.00968696671142e-04
8.88671875000000e+00 1.40708919529147e-02 1.99250721154253e-04
8.92578125000000e+00 1.39199126443537e-02 1.97545523213967e-04
8.96484375000000e+00 1.37705533291585e-02 1.95853042831322e-04
9.00390625000000e+00 1.36227966249570e-02 1.94173219495576e-04
9.04296875000000e+00 1.34766253358885e-02 1.92505992228134e-04
9.08203125000000e+00 1.33320224506019e-02 1.90851299605847e-04
9.12109375000000e+00 1.31889711402765e-02 1.89209079783716e-04
9.16015625000000e+00 1.30474547566633e-02 1.87579270517025e-04
9.19921875000000e+00 1.29074568301471e-02 1.85961809182911e-04
9.23828125000000e+00 1.27689610678304e-02 1.84356632801380e-04
9.27734375000000e+00 1.26319513516366e-02 1.82763678055778e-04
9.31640625000000e+00 1.24964117364347e-02 1.81182881312722e-04
9.35546875000000e+00 1.23623264481834e-02 1.79614178641549e-04
9.39453125000000e+00 1.22296798820953e-02 1.78057505833242e-04
9.43359375000000e+00 1.20984566008208e-02 1.76512798418862e-04
9.47265625000000e+00 1.19686413326517e-02 1.74979991687504e-04
9.51171875000000e+00 1.18402189697436e-02 1.73459020703788e-04
9.55078125000000e+00 1.17131745663580e-02 1.71949820324902e-04
9.58984375000000e+00 1.15874933371225e-02 1.70452325217164e-04
9.62890625000000e+00 1.14631606553105e-02 1.68966469872186e-04
9.66796875000000e+00 1.13401620511386e-02 1.67492188622600e-04
9.70703125000000e+00 1.12184832100830e-02 1.66029415657346e-04
9.74609375000000e+00 1.10981099712131e-02 1.64578085036579e-04
9.78515625000000e+00 1.09790283255439e-02 1.63138130706167e-04
9.82421875000000e+00 1.08612244144053e-02 1.61709486511791e-04
9.86328125000000e+00 1.07446845278296e-02 1.60292086212693e-04
9.90234375000000e+00 1.06293951029555e-02 1.58885863495034e-04
9.94140625000000e+00 1.05153427224501e-02 1.57490751984882e-04
9.98046875000000e+00 1.04025141129469e-02 1.56106685260865e-04
1.00195312500000e+01 1.02908961435016e-02 1.54733596866472e-04
1.00585937500000e+01 1.01804758240637e-02 1.53371420321997e-04
1.00976562500000e+01 1.00712403039643e-02 1.52020089136187e-04
1.01367187500000e+01 9.96317687042139e-03 1.50679536817542e-04
1.01757812500000e+01 9.85627294705961e-03 1.49349696885309e-04
1.02148437500000e+01 9.75051609244695e-03 1.48030502880164e-04
1.02539062500000e+01 9.64589399864680e-03 1.46721888374602e-04
1.02929687500000e+01 9.54239448978546e-03 1.45423786983035e-04
1.03320312500000e+01 9.44000552063523e-03 1.44136132371573e-04
1.03710937500000e+01 9.33871517521249e-03 1.42858858267553e-04
1.04101562500000e+01 9.23851166539101e-03 1.41591898468805e-04
1.04492187500000e+01 9.13938332952998e-03 1.40335186852622e-04
1.04882812500000e+01 9.04131863111690e-03 1.39088657384465e-04
1.05273437500000e+01 8.94430615742491e-03 1.37852244126459e-04
1.05664062500000e+01 8.84833461818461e-03 1.36625881245578e-04
1.06054687500000e+01 8.75339284427009e-03 1.35409503021618e-04
1.06445312500000e+01 8.65946978639910e-03 1.34203043854950e-04
1.06835937500000e+01 8.56655451384710e-03 1.33006438273998e-04
1.07226562500000e+01 8.47463621317517e-03 1.31819620942521e-04
1.07617187500000e+01 8.38370418697156e-03 1.30642526666646e-04
1.08007812500000e+01 8.29374785260668e-03 1.29475090401721e-04
1.08398437500000e+01 8.20475674100157e-03 1.28317247258932e-04
1.08789062500000e+01 8.11672049540944e-03 1.27168932511695e-04
1.09179687500000e+01 8.02962887021042e-03 1.26030081601891e-04
1.09570312500000e+01 7.94347172971911e-03 1.24900630145868e-04
1.09960937500000e+01 7.85823904700508e-03 1.23780513940249e-04
1.10351562500000e+01 7.77392090272585e-03 1.22669668967582e-04
1.10742187500000e+01 7.69050748397256e-03 1.21568031401772e-04
1.11132812500000e+01 7.60798908312788e-03 1.20475537613350e-04
1.11523437500000e+01 7.52635609673631e-03 1.19392124174575e-04
1.11914062500000e+01 7.44559902438646e-03 1.18317727864339e-04
1.12304687500000e+01 7.36570846760546e-03 1.17252285672915e-04
1.12695312500000e+01 7.28667512876514e-03 1.16195734806551e-04
1.13085937500000e+01 7.20848980999996e-03 1.15148012691897e-04
1.13476562500000e+01 7.13114341213663e-03 1.14109056980276e-04
1.13867187500000e+01 7.05462693363506e-03 1.13078805551791e-04
1.14257812500000e+01 6.97893146954085e-03 1.12057196519312e-04
1.14648437500000e+01 6.90404821044887e-03 1.11044168232283e-04
1.15039062500000e+01 6.82996844147809e-03 1.10039659280404e-04
1.15429687500000e+01 6.75668354125727e-03 1.09043608497184e-04
1.15820312500000e+01 6.68418498092168e-03 1.08055954963337e-04
1.16210937500000e+01 6.61246432312047e-03 1.07076638010064e-04
1.16601562500000e+01 6.54151322103475e-03 1.06105597222190e-04
1.16992187500000e+01 6.47132341740619e-03 1.05142772441186e-04
1.17382812500000e+01 6.40188674357602e-03 1.04188103768066e-04
1.17773437500000e+01 6.33319511853443e-03 1.03241531566162e-04
1.18164062500000e+01 6.26524054798004e-03 1.02302996463777e-04
1.18554687500000e+01 6.19801512338953e-03 1.01372439356740e-04
1.18945312500000e+01 6.13151102109731e-03 1.00449801410818e-04
1.19335937500000e+01 6.06572050138493e-03 9.95350240640528e-05
1.19726562500000e+01 6.00063590758040e-03 9.86280490289838e-05
1.20117187500000e+01 5.93624966516706e-03 9.77288182947489e-05
1.20507812500000e+01 5.87255428090208e-03 9.68372741290917e-05
1.20898437500000e+01 5.80954234194441e-03 9.59533590802765e-05
1.21289062500000e+01 5.74720651499205e-03 9.50770159789098e-05
1.21679687500000e+01 5.68553954542865e-03 9.42081879396549e-05
1.22070312500000e+01 5.62453425647915e-03 9.33468183628580e-05
1.22460937500000e+01 5.56418354837464e-03 9.24928509360964e-05
1.22851562500000e+01 5.50448039752601e-03 9.16462296356247e-05
1.23242187500000e+01 5.44541785570658e-03 9.08068987277427e-05
