Energy (eV)          EEDF (eV^-(3/2))     First Anisotropy
4.08928571428571e-04 2.32640286450366e+01 1.04790487130471e-02
1.22678571428571e-03 2.31211129651249e+01 1.73089264614043e-02
2.04464285714286e-03 2.29790752449262e+01 2.28630962690675e-02
2.86250000000000e-03 2.28379100918519e+01 2.70907805848152e-02
3.68035714285714e-03 2.26976121452742e+01 3.06234652158640e-02
4.49821428571429e-03 2.25581760776984e+01 3.36996508858884e-02
5.31607142857143e-03 2.24195965941896e+01 3.64426364390854e-02
6.13392857142857e-03 2.22818684328279e+01 3.89268044969681e-02
6.95178571428571e-03 2.21449863637376e+01 4.12014385017988e-02
7.76964285714286e-03 2.20089451890438e+01 4.33013369080216e-02
8.58750000000000e-03 2.18737397431228e+01 4.52522342389053e-02
9.40535714285714e-03 2.17393648919099e+01 4.70738458382974e-02
1.02232142857143e-02 2.16058155328836e+01 4.87817028736743e-02
1.10410714285714e-02 2.14730865943487e+01 5.03883201595148e-02
1.18589285714286e-02 2.13411730372506e+01 5.19039728551632e-02
1.26767857142857e-02 2.12100698524290e+01 5.33372316924628e-02
1.34946428571429e-02 2.10797720607810e+01 5.46953425274221e-02
1.43125000000000e-02 2.09502747154064e+01 5.59845032610514e-02
1.51303571428571e-02 2.08215728982620e+01 5.72100696762411e-02
1.59482142857143e-02 2.06936617229694e+01 5.83767116102243e-02
1.67660714285714e-02 2.05665363317853e+01 5.94885334161569e-02
1.75839285714286e-02 2.04401918981240e+01 6.05491681867368e-02
1.84017857142857e-02 2.03146236243583e+01 6.15618527456830e-02
1.92196428571429e-02 2.01898267418364e+01 6.25294873354602e-02
2.00375000000000e-02 2.00657965122743e+01 6.34546845062617e-02
2.08553571428571e-02 1.99425282254641e+01 6.43398089339594e-02
2.16732142857143e-02 1.98200172011255e+01 6.51870103571534e-02
2.24910714285714e-02 1.96982587867746e+01 6.59982510250655e-02
2.33089285714286e-02 1.95772483594288e+01 6.67753286791700e-02
2.41267857142857e-02 1.94569813240261e+01 6.75198961938421e-02
2.49446428571429e-02 1.93374531133606e+01 6.82334778602563e-02
2.57625000000000e-02 1.92186591890706e+01 6.89174837200702e-02
2.65803571428571e-02 1.91005950399117e+01 6.95732217024625e-02
2.73982142857143e-02 1.89832561830920e+01 7.02019081475284e-02
2.82160714285714e-02 1.88666381626413e+01 7.08046769574322e-02
2.90339285714286e-02 1.87507365506584e+01 7.13825875357014e-02
2.98517857142857e-02 1.86355469460842e+01 7.19366319349103e-02
3.06696428571429e-02 1.85210649746037e+01 7.24677407822890e-02
3.14875000000000e-02 1.84072862893850e+01 7.29767888644688e-02
3.23053571428571e-02 1.82942065697051e+01 7.34645999089492e-02
3.31232142857143e-02 1.81818215219627e+01 7.39319508622564e-02
3.39410714285714e-02 1.80701268783692e+01 7.43795757144815e-02
3.47589285714286e-02 1.79591183979031e+01 7.48081688806380e-02
3.55767857142857e-02 1.78487918653135e+01 7.52183884019627e-02
3.63946428571429e-02 1.77391430910075e+01 7.56108585062827e-02
3.72125000000000e-02 1.76301679116216e+01 7.59861722287572e-02
3.80303571428571e-02 1.75218621888883e+01 7.63448936329063e-02
3.88482142857143e-02 1.74142218104312e+01 7.66875598472820e-02
3.96660714285714e-02 1.73072426886791e+01 7.70146829232094e-02
4.04839285714286e-02 1.72009207616190e+01 7.73267514901289e-02
4.13017857142857e-02 1.70952519919620e+01 7.76242324146564e-02
4.21196428571429e-02 1.69902323670243e+01 7.79075720318435e-02
4.29375000000000e-02 1.68858578991790e+01 7.81771975510176e-02
4.37553571428571e-02 1.67821246248983e+01 7.84335182123350e-02
4.45732142857143e-02 1.66790286053924e+01 7.86769263708847e-02
4.53910714285714e-02 1.65765659256871e+01 7.89077985015502e-02
4.62089285714286e-02 1.64747326952320e+01 7.91264960934001e-02
4.70267857142857e-02 1.63735250471860e+01 7.93333666095251e-02
4.78446428571429e-02 1.62729391382966e+01 7.95287441180905e-02
4.86625000000000e-02 1.61729711492630e+01 7.97129501277804e-02
4.94803571428571e-02 1.60736172839117e+01 7.98862942423644e-02
5.02982142857143e-02 1.59748737697191e+01 8.00490747877473e-02
5.11160714285714e-02 1.58767368570140e+01 8.02015794013970e-02
5.19339285714286e-02 1.57792028194767e+01 8.03440855520450e-02
5.27517857142857e-02 1.56822679535175e+01 8.04768611453417e-02
5.35696428571429e-02 1.55859285781561e+01 8.06001648565538e-02
5.43875000000000e-02 1.54901810353173e+01 8.07142466691127e-02
5.52053571428571e-02 1.53950216891114e+01 8.08193482691162e-02
5.60232142857143e-02 1.53004469262662e+01 8.09157034321366e-02
5.68410714285714e-02 1.52064531554301e+01 8.10035383915132e-02
5.76589285714286e-02 1.51130368075855e+01 8.10830721574684e-02
5.84767857142857e-02 1.50201943355017e+01 8.11545169270855e-02
5.92946428571429e-02 1.49279222136155e+01 8.12180782578064e-02
6.01125000000000e-02 1.48362169382749e+01 8.12739554383931e-02
6.09303571428571e-02 1.47450750271029e+01 8.13223417384888e-02
6.17482142857143e-02 1.46544930193597e+01 8.13634246597474e-02
6.25660714285714e-02 1.45644674753256e+01 8.13973861779798e-02
6.33839285714286e-02 1.44749949766476e+01 8.14244029475862e-02
6.42017857142857e-02 1.43860721258524e+01 8.14446465955446e-02
6.50196428571429e-02 1.42976955462299e+01 8.14582838054331e-02
6.58375000000000e-02 1.42098618820344e+01 8.14654765872215e-02
6.66553571428571e-02 1.41225677979182e+01 8.14663824412716e-02
6.74732142857143e-02 1.40358099792369e+01 8.14611545283113e-02
6.82910714285714e-02 1.39495851314982e+01 8.14499418354295e-02
6.91089285714286e-02 1.38638899806559e+01 8.14328893114080e-02
6.99267857142857e-02 1.37787212726713e+01 8.14101380877801e-02
7.07446428571429e-02 1.36940757734009e+01 8.13818255106790e-02
7.15625000000000e-02 1.36099502687633e+01 8.13480853460196e-02
7.23803571428571e-02 1.35263415642306e+01 8.13090478905390e-02
7.31982142857143e-02 1.34432464850878e+01 8.12648400908893e-02
7.40160714285714e-02 1.33606618759375e+01 8.12155856614812e-02
7.48339285714286e-02 1.32785846009492e+01 8.11614051763662e-02
7.56517857142857e-02 1.31970115434633e+01 8.11024162420598e-02
7.64696428571429e-02 1.31159396058827e+01 8.10387334981886e-02
7.72875000000000e-02 1.30353657098107e+01 8.09704687794367e-02
7.81053571428571e-02 1.29552867955929e+01 8.08977311924927e-02
7.89232142857143e-02 1.28756998225376e+01 8.08206272019298e-02
7.97410714285714e-02 1.27966017684683e+01 8.07392607164116e-02
8.05589285714286e-02 1.27179896299365e+01 8.06537331522352e-02
8.13767857142857e-02 1.26398604218622e+01 8.05641435728765e-02
8.21946428571429e-02 1.25622111774280e+01 8.04705886707723e-02
8.30125000000000e-02 1.24850389481955e+01 8.03731628990206e-02
8.38303571428571e-02 1.24083408036881e+01 8.02719585256959e-02
8.46482142857143e-02 1.23321138315805e+01 8.01670656973396e-02
8.54660714285714e-02 1.22563551372917e+01 8.00585725036286e-02
8.62839285714286e-02 1.21810618441675e+01 7.99465650219287e-02
8.71017857142857e-02 1.21062310931520e+01 7.98311274329333e-02
8.79196428571429e-02 1.20318600426858e+01 7.97123419910713e-02
8.87375000000000e-02 1.19579458688027e+01 7.95902891343279e-02
8.95553571428571e-02 1.18844857647497e+01 7.94650475230799e-02
9.03732142857143e-02 1.18114769411492e+01 7.93366940880369e-02
9.11910714285714e-02 1.17389166256282e+01 7.92053040798522e-02
9.20089285714286e-02 1.16668020629745e+01 7.90709511005937e-02
9.28267857142857e-02 1.15951305148360e+01 7.89337072016635e-02
9.36446428571429e-02 1.15238992596222e+01 7.87936428475148e-02
9.44625000000000e-02 1.14531055925850e+01 7.86508270090604e-02
9.52803571428571e-02 1.13827468254707e+01 7.85053271917216e-02
9.60982142857143e-02 1.13128202866598e+01 7.83572094723056e-02
9.69160714285714e-02 1.12433233208271e+01 7.82065385377782e-02
9.77339285714286e-02 1.11742532890759e+01 7.80533777075655e-02
9.85517857142857e-02 1.11056075686622e+01 7.78977890179432e-02
9.93696428571429e-02 1.10373835528989e+01 7.77398331820152e-02
1.00187500000000e-01 1.09695786512234e+01 7.75795697172541e-02
1.01005357142857e-01 1.09021902886616e+01 7.74170568131291e-02
1.01823214285714e-01 1.08352159066554e+01 7.72523514666030e-02
1.02641071428571e-01 1.07686529620356e+01 7.70855096429147e-02
1.03458928571429e-01 1.07024989272559e+01 7.69165861002539e-02
1.04276785714286e-01 1.06367512902969e+01 7.67456344893931e-02
1.05094642857143e-01 1.05714075545717e+01 7.65727073803396e-02
1.05912500000000e-01 1.05064652388305e+01 7.63978563966668e-02
1.06730357142857e-01 1.04419218765796e+01 7.62211319136928e-02
1.07548214285714e-01 1.03777750174588e+01 7.60425833017584e-02
1.08366071428571e-01 1.03140222256664e+01 7.58622591709993e-02
1.09183928571429e-01 1.02506610803643e+01 7.56802070604104e-02
1.10001785714286e-01 1.01876891755857e+01 7.54964735716841e-02
1.10819642857143e-01 1.01251041201448e+01 7.53111043906648e-02
1.11637500000000e-01 1.00629035375452e+01 7.51241444094015e-02
1.12455357142857e-01 1.00010850654476e+01 7.49356374415015e-02
1.13273214285714e-01 9.93964635691665e+00 7.47456264460087e-02
1.14091071428571e-01 9.87858507898543e+00 7.45541537529823e-02
1.14908928571429e-01 9.81789891301901e+00 7.43612607706674e-02
1.15726785714286e-01 9.75758555462571e+00 7.41669881077219e-02
1.16544642857143e-01 9.69764271357088e+00 7.39713755906998e-02
1.17362500000000e-01 9.63806811368931e+00 7.37744623756234e-02
1.18180357142857e-01 9.57885949239548e+00 7.35762866797675e-02
1.18998214285714e-01 9.52001460181583e+00 7.33768859884370e-02
1.19816071428571e-01 9.46153120747677e+00 7.31762972636145e-02
1.20633928571429e-01 9.40340708863157e+00 7.29745566683090e-02
1.21451785714286e-01 9.34564003817548e+00 7.27716996787423e-02
1.22269642857143e-01 9.28822786256305e+00 7.25677610987622e-02
1.23087500000000e-01 9.23116838172428e+00 7.23627751622997e-02
1.23905357142857e-01 9.17445942861344e+00 7.21567752807559e-02
1.24723214285714e-01 9.11809885023934e+00 7.19497942346002e-02
1.25541071428571e-01 9.06208450646347e+00 7.17418643668936e-02
1.26358928571429e-01 9.00641427029464e+00 7.15330173238757e-02
1.27176785714286e-01 8.95108602780775e+00 7.13232841583492e-02
1.27994642857143e-01 8.89609767806453e+00 7.11126953416768e-02
1.28812500000000e-01 8.84144713303320e+00 7.09012808582616e-02
1.29630357142857e-01 8.78713231717203e+00 7.06890699676471e-02
1.30448214285714e-01 8.73315116836882e+00 7.04760913825007e-02
1.31266071428571e-01 8.67950163683747e+00 7.02623734485827e-02
1.32083928571429e-01 8.62618168538416e+00 7.00479439006031e-02
1.32901785714286e-01 8.57318928932954e+00 6.98328299577942e-02
1.33719642857143e-01 8.52052243643281e+00 6.96170583340073e-02
1.34537500000000e-01 8.46817912681474e+00 6.94006553251075e-02
1.35355357142857e-01 8.41615737257256e+00 6.91836465849366e-02
1.36173214285714e-01 8.36445519863828e+00 6.89660572910343e-02
1.36991071428571e-01 8.31307064176371e+00 6.87479123123153e-02
1.37808928571429e-01 8.26200175076131e+00 6.85292359792584e-02
1.38626785714286e-01 8.21124658642973e+00 6.83100521725503e-02
1.39444642857143e-01 8.16080322148094e+00 6.80903843316203e-02
1.40262500000000e-01 8.11066974046668e+00 6.78702555357157e-02
1.41080357142857e-01 8.06084423942151e+00 6.76496882929014e-02
1.41898214285714e-01 8.01132482664852e+00 6.74287046946250e-02
1.42716071428571e-01 7.96210962178394e+00 6.72073265722343e-02
1.43533928571429e-01 7.91319675601552e+00 6.69855752806232e-02
1.44351785714286e-01 7.86458437201115e+00 6.67634717806360e-02
1.45169642857143e-01 7.81627062384907e+00 6.65410366463081e-02
1.45987500000000e-01 7.76825367694742e+00 6.63182901402845e-02
1.46805357142857e-01 7.72053170773304e+00 6.60952520150479e-02
1.47623214285714e-01 7.67310290436177e+00 6.58719416573053e-02
1.48441071428571e-01 7.62596546585509e+00 6.56483782343331e-02
1.49258928571429e-01 7.57911760229825e+00 6.54245804902118e-02
1.50076785714286e-01 7.53255753477203e+00 6.52005668225694e-02
1.50894642857143e-01 7.48628349528582e+00 6.49763552888070e-02
1.51712500000000e-01 7.44029372671014e+00 6.47519636763674e-02
1.52530357142857e-01 7.39458648246888e+00 6.45274093154370e-02
1.53348214285714e-01 7.34916002720067e+00 6.43027092140197e-02
1.54166071428571e-01 7.30401263596069e+00 6.40778801949294e-02
1.54983928571429e-01 7.25914259440083e+00 6.38529387038483e-02
1.55801785714286e-01 7.21454819870433e+00 6.36279008809289e-02
1.56619642857143e-01 7.17022775552161e+00 6.34027825661603e-02
1.57437500000000e-01 7.12617958190568e+00 6.31775993649549e-02
1.58255357142857e-01 7.08240200502575e+00 6.29523664716031e-02
1.59073214285714e-01 7.03889336277537e+00 6.27270987958119e-02
1.59891071428571e-01 6.99565200303345e+00 6.25018110911006e-02
1.60708928571429e-01 6.95267628382823e+00 6.22765177738970e-02
1.61526785714286e-01 6.90996457327471e+00 6.20512329904621e-02
1.62344642857143e-01 6.86751524951315e+00 6.18259706215456e-02
1.63162500000000e-01 6.82532670064721e+00 6.16007443437061e-02
1.63980357142857e-01 6.78339732447714e+00 6.13755674628336e-02
1.64798214285714e-01 6.74172552905964e+00 6.11504530328103e-02
1.65616071428571e-01 6.70030973202290e+00 6.09254139759935e-02
1.66433928571429e-01 6.65914836071590e+00 6.07004629126543e-02
1.67251785714286e-01 6.61823985214859e+00 6.04756122236089e-02
1.68069642857143e-01 6.57758265293289e+00 6.02508740542756e-02
1.68887500000000e-01 6.53717521922352e+00 6.00262603720831e-02
1.69705357142857e-01 6.49701601646903e+00 5.98017828094365e-02
1.70523214285714e-01 6.45710351992799e+00 5.95774527751132e-02
1.71341071428571e-01 6.41743621403313e+00 5.93532815674052e-02
1.72158928571429e-01 6.37801259252765e+00 5.91292802132583e-02
1.72976785714286e-01 6.33883115840779e+00 5.89054595269653e-02
1.73794642857143e-01 6.29989042386642e+00 5.86818301137041e-02
1.74612500000000e-01 6.26118891023630e+00 5.84584024233458e-02
1.75430357142857e-01 6.22272514775766e+00 5.82351866022998e-02
1.76248214285714e-01 6.18449767605447e+00 5.80121925981589e-02
1.77066071428571e-01 6.14650504354369e+00 5.77894302660418e-02
1.77883928571429e-01 6.10874580755965e+00 5.75669092168387e-02
1.78701785714286e-01 6.07121853429911e+00 5.73446388722571e-02
1.79519642857143e-01 6.03392179876718e+00 5.71226284679308e-02
1.80337500000000e-01 5.99685418472299e+00 5.69008871039170e-02
1.81155357142857e-01 5.96001428446240e+00 5.66794236048368e-02
1.81973214285714e-01 5.92340069925809e+00 5.64582466182721e-02
1.82791071428571e-01 5.88701203880992e+00 5.62373647148123e-02
1.83608928571429e-01 5.85084692135869e+00 5.60167862448184e-02
1.84426785714286e-01 5.81490397363347e+00 5.57965193901088e-02
1.85244642857143e-01 5.77918183079978e+00 5.55765721667042e-02
1.86062500000000e-01 5.74367913640762e+00 5.53569524722376e-02
1.86880357142857e-01 5.70839454218809e+00 5.51376679539032e-02
1.87698214285714e-01 5.67332670846040e+00 5.49187261010579e-02
1.88516071428571e-01 5.63847430362012e+00 5.47001343393833e-02
1.89333928571429e-01 5.60383600424313e+00 5.44818998956534e-02
1.90151785714286e-01 5.56941049503527e+00 5.42640298463092e-02
1.90969642857143e-01 5.53519646878263e+00 5.40465311198829e-02
1.91787500000000e-01 5.50119262630179e+00 5.38294105415626e-02
1.92605357142857e-01 5.46739767624940e+00 5.36126747084661e-02
1.93423214285714e-01 5.43381033549888e+00 5.33963300768382e-02
1.94241071428571e-01 5.40042932866346e+00 5.31803830507418e-02
1.95058928571429e-01 5.36725338819134e+00 5.29648398543293e-02
1.95876785714286e-01 5.33428125431742e+00 5.27497065775332e-02
1.96694642857143e-01 5.30151167501576e+00 5.25349891782144e-02
1.97512500000000e-01 5.26894340595185e+00 5.23206935240855e-02
1.98330357142857e-01 5.23657521030417e+00 5.21068252748689e-02
1.99148214285714e-01 5.20440585911317e+00 5.18933899644357e-02
1.99966071428571e-01 5.17243413083635e+00 5.16803930844088e-02
2.00783928571429e-01 5.14065881143539e+00 5.14678399634930e-02
2.01601785714286e-01 5.10907869432997e+00 5.12557358104675e-02
2.02419642857143e-01 5.07769258035214e+00 5.10440857160912e-02
2.03237500000000e-01 5.04649927770072e+00 5.08328946925789e-02
2.04055357142857e-01 5.01549760177383e+00 5.06221675622181e-02
2.04873214285714e-01 4.98468637549251e+00 5.04119090348034e-02
2.05691071428571e-01 4.95406442888533e+00 5.02021237864831e-02
2.06508928571429e-01 4.92363059916823e+00 4.99928163457003e-02
2.07326785714286e-01 4.89338373070029e+00 4.97839911336896e-02
2.08144642857143e-01 4.86332267494004e+00 4.95756524661814e-02
2.08962500000000e-01 4.83344629040173e+00 4.93678045905734e-02
2.09780357142857e-01 4.80375344249819e+00 4.91604515806364e-02
2.10598214285714e-01 4.77424300384110e+00 4.89535974095552e-02
2.11416071428571e-01 4.74491385385287e+00 4.87472460242997e-02
2.12233928571429e-01 4.71576487883985e+00 4.85414012378159e-02
2.13051785714286e-01 4.68679497194997e+00 4.83360667671794e-02
2.13869642857143e-01 4.65800303313084e+00 4.81312462351098e-02
2.14687500000000e-01 4.62938796908797e+00 4.79269432050202e-02
2.15505357142857e-01 4.60094869313707e+00 4.77231610814336e-02
2.16323214285714e-01 4.57268412548293e+00 4.75199031789063e-02
2.17141071428571e-01 4.54459319285648e+00 4.73171727922358e-02
2.17958928571429e-01 4.51667482858200e+00 4.71149730945007e-02
2.18776785714286e-01 4.48892797253647e+00 4.69133071730404e-02
2.19594642857143e-01 4.46135157110951e+00 4.67121780308146e-02
2.20412500000000e-01 4.43394457716332e+00 4.65115886194409e-02
2.21230357142857e-01 4.40670594989386e+00 4.63115417450001e-02
2.22048214285714e-01 4.37963465509003e+00 4.61120401331081e-02
2.22866071428571e-01 4.35272966479401e+00 4.59130864952191e-02
2.23683928571429e-01 4.32598995736297e+00 4.57146834321743e-02
2.24501785714286e-01 4.29941451743016e+00 4.55168334681327e-02
2.25319642857143e-01 4.27300233586653e+00 4.53195390517985e-02
2.26137500000000e-01 4.24675240974231e+00 4.51228025875987e-02
2.26955357142857e-01 4.22066374219652e+00 4.49266263465457e-02
2.27773214285714e-01 4.19473534267791e+00 4.47310125277014e-02
2.28591071428571e-01 4.16896622662698e+00 4.45359633208108e-02
2.29408928571429e-01 4.14335541553261e+00 4.43414808150364e-02
2.30226785714286e-01 4.11790193689479e+00 4.41475670309933e-02
2.31044642857143e-01 4.09260482418786e+00 4.39542239218419e-02
2.31862500000000e-01 4.06746311682373e+00 4.37614534027222e-02
2.32680357142857e-01 4.04247586002907e+00 4.35692572663892e-02
2.33498214285714e-01 4.01764210506947e+00 4.33776372412766e-02
2.34316071428571e-01 3.99296090895157e+00 4.31865950507074e-02
2.35133928571429e-01 3.96843133447500e+00 4.29961323265056e-02
2.35951785714286e-01 3.94405245019675e+00 4.28062506392414e-02
2.36769642857143e-01 3.91982333039593e+00 4.26169514992192e-02
2.37587500000000e-01 3.89574305503853e+00 4.24282363842731e-02
2.38405357142857e-01 3.87181070966184e+00 4.22401066598944e-02
2.39223214285714e-01 3.84802538558307e+00 4.20525636341216e-02
2.40041071428571e-01 3.82438617962012e+00 4.18656086135120e-02
2.40858928571429e-01 3.80089219413935e+00 4.16792428213589e-02
2.41676785714286e-01 3.77754253702141e+00 4.14934674262676e-02
2.42494642857143e-01 3.75433632162747e+00 4.13082835430350e-02
2.43312500000000e-01 3.73127266676551e+00 4.11236922589198e-02
2.44130357142857e-01 3.70835069658139e+00 4.09396945579982e-02
2.44948214285714e-01 3.68556954075323e+00 4.07562913730657e-02
2.45766071428571e-01 3.66292833422948e+00 4.05734836385784e-02
2.46583928571429e-01 3.64042621727277e+00 4.03912722132065e-02
2.47401785714286e-01 3.61806233542722e+00 4.02096579068370e-02
2.48219642857143e-01 3.59583583948612e+00 4.00286414813667e-02
2.49037500000000e-01 3.57374588545959e+00 3.98482236755288e-02
2.49855357142857e-01 3.55179163447197e+00 3.96684051332452e-02
2.50673214285714e-01 3.52997225294290e+00 3.94891864527212e-02
2.51491071428571e-01 3.50828691234156e+00 3.93105682365300e-02
2.52308928571429e-01 3.48673478922698e+00 3.91325510182520e-02
2.53126785714286e-01 3.46531506521667e+00 3.89551352880037e-02
2.53944642857143e-01 3.44402692695573e+00 3.87783214931581e-02
2.54762500000000e-01 3.42286956608583e+00 3.86021100618141e-02
2.55580357142857e-01 3.40184217914845e+00 3.84265013349133e-02
2.56398214285714e-01 3.38094396775379e+00 3.82514956126963e-02
2.57216071428571e-01 3.36017413834992e+00 3.80770932020988e-02
2.58033928571429e-01 3.33953190225988e+00 3.79032943472492e-02
