Energy (eV)          EEDF (eV^-(3/2))     First Anisotropy
1.70769230769231e-03 2.19061173677498e+00 1.00178275756492e-03
5.12307692307692e-03 2.17897847730321e+00 1.65540080604282e-03
8.53846153846154e-03 2.16740699635753e+00 2.18842563238447e-03
1.19538461538462e-02 2.15589696588195e+00 2.59526665140994e-03
1.53692307692308e-02 2.14444805942746e+00 2.93615189223382e-03
1.87846153846154e-02 2.13305995249378e+00 3.23380111745483e-03
2.22000000000000e-02 2.12173232219673e+00 3.49994654915641e-03
2.56153846153846e-02 2.11046484736985e+00 3.74165806072188e-03
2.90307692307692e-02 2.09925720855450e+00 3.96361478666300e-03
3.24461538461538e-02 2.08810908799002e+00 4.16911701639668e-03
3.58615384615385e-02 2.07702016957245e+00 4.36060275753749e-03
3.92769230769231e-02 2.06599013894245e+00 4.53993774971242e-03
4.26923076923077e-02 2.05501868337487e+00 4.70859017604582e-03
4.61076923076923e-02 2.04410549180554e+00 4.86774180539647e-03
4.95230769230769e-02 2.03325025482205e+00 5.01836186651924e-03
5.29384615384615e-02 2.02245266465572e+00 5.16125792980102e-03
5.63538461538462e-02 2.01171241517238e+00 5.29711201888003e-03
5.97692307692308e-02 2.00102920184613e+00 5.42650688815873e-03
6.31846153846154e-02 1.99040272180454e+00 5.54994558103354e-03
6.66000000000000e-02 1.97983267376473e+00 5.66786625968672e-03
7.00153846153846e-02 1.96931875804376e+00 5.78065362800920e-03
7.34307692307692e-02 1.95886067655022e+00 5.88864787612597e-03
7.68461538461538e-02 1.94845813277584e+00 5.99215177124965e-03
8.02615384615385e-02 1.93811083177440e+00 6.09143633907536e-03
8.36769230769231e-02 1.92781848019189e+00 6.18674547813912e-03
8.70923076923077e-02 1.91758078621884e+00 6.27829973806470e-03
9.05076923076923e-02 1.90739745959544e+00 6.36629943181424e-03
9.39230769230769e-02 1.89726821160323e+00 6.45092723346590e-03
9.73384615384615e-02 1.88719275505714e+00 6.53235035587763e-03
1.00753846153846e-01 1.87717080429717e+00 6.61072238428596e-03
1.04169230769231e-01 1.86720207521672e+00 6.68618486292312e-03
1.07584615384615e-01 1.85728628510889e+00 6.75886860866191e-03
1.11000000000000e-01 1.84742315284214e+00 6.82889483450925e-03
1.14415384615385e-01 1.83761239886285e+00 6.89637621449628e-03
1.17830769230769e-01 1.82785374493207e+00 6.96141770644579e-03
1.21246153846154e-01 1.81814691437318e+00 7.02411726200015e-03
1.24661538461538e-01 1.80849163205611e+00 7.08456656838704e-03
1.28076923076923e-01 1.79888762415709e+00 7.14285157430946e-03
1.31492307692308e-01 1.78933461845514e+00 7.19905301221961e-03
1.34907692307692e-01 1.77983234403243e+00 7.25324686681062e-03
1.38323076923077e-01 1.77038053148076e+00 7.30550472603290e-03
1.41738461538462e-01 1.76097891288847e+00 7.35589421500255e-03
1.45153846153846e-01 1.75162722163532e+00 7.40447926865759e-03
1.48569230769231e-01 1.74232519264343e+00 7.45132042960933e-03
1.51984615384615e-01 1.73307256212068e+00 7.49647512087951e-03
1.55400000000000e-01 1.72386906773679e+00 7.53999783247844e-03
1.58815384615385e-01 1.71471444861117e+00 7.58194040077106e-03
1.62230769230769e-01 1.70560844513544e+00 7.62235216594720e-03
1.65646153846154e-01 1.69655079913642e+00 7.66128011233049e-03
1.69061538461538e-01 1.68754125386454e+00 7.69876909198266e-03
1.72476923076923e-01 1.67857955382837e+00 7.73486192610626e-03
1.75892307692308e-01 1.66966544499533e+00 7.76959954563828e-03
1.79307692307692e-01 1.66079867458311e+00 7.80302112377824e-03
1.82723076923077e-01 1.65197899120104e+00 7.83516414502313e-03
1.86138461538462e-01 1.64320614483987e+00 7.86606456718366e-03
1.89553846153846e-01 1.63447988672541e+00 7.89575687549927e-03
1.92969230769231e-01 1.62579996949444e+00 7.92427417706784e-03
1.96384615384615e-01 1.61716614701009e+00 7.95164829135455e-03
1.99800000000000e-01 1.60857817448629e+00 7.97790978539418e-03
2.03215384615385e-01 1.60003580847790e+00 8.00308809792323e-03
2.06630769230769e-01 1.59153880675052e+00 8.02721157476233e-03
2.10046153846154e-01 1.58308692839716e+00 8.05030750001793e-03
2.13461538461538e-01 1.57467993382880e+00 8.07240220470073e-03
2.16876923076923e-01 1.56631758465138e+00 8.09352108213533e-03
2.20292307692308e-01 1.55799964381224e+00 8.11368864282619e-03
2.23707692307692e-01 1.54972587544420e+00 8.13292856840271e-03
2.27123076923077e-01 1.54149604496927e+00 8.15126371835127e-03
2.30538461538462e-01 1.53330991908996e+00 8.16871621903963e-03
2.33953846153846e-01 1.52516726567826e+00 8.18530746689553e-03
2.37369230769231e-01 1.51706785390659e+00 8.20105816933059e-03
2.40784615384615e-01 1.50901145410710e+00 8.21598838559014e-03
2.44200000000000e-01 1.50099783786468e+00 8.23011752437317e-03
2.47615384615385e-01 1.49302677800852e+00 8.24346441908248e-03
2.51030769230769e-01 1.48509804851151e+00 8.25604733079196e-03
2.54446153846154e-01 1.47721142457823e+00 8.26788394994793e-03
2.57861538461538e-01 1.46936668263674e+00 8.27899146553596e-03
2.61276923076923e-01 1.46156360024286e+00 8.28938655724766e-03
2.64692307692308e-01 1.45380195619188e+00 8.29908542285450e-03
2.68107692307692e-01 1.44608153039697e+00 8.30810380616826e-03
2.71523076923077e-01 1.43840210396846e+00 8.31645698637681e-03
2.74938461538462e-01 1.43076345920620e+00 8.32415983867428e-03
2.78353846153846e-01 1.42316537951195e+00 8.33122682287312e-03
2.81769230769231e-01 1.41560764949072e+00 8.33767200537734e-03
2.85184615384615e-01 1.40809005483951e+00 8.34350908192456e-03
2.88600000000000e-01 1.40061238241934e+00 8.34875136429970e-03
2.92015384615385e-01 1.39317442024782e+00 8.35341183436845e-03
2.95430769230769e-01 1.38577595741882e+00 8.35750313687122e-03
2.98846153846154e-01 1.37841678417098e+00 8.36103757181092e-03
3.02261538461538e-01 1.37109669188045e+00 8.36402714542835e-03
3.05676923076923e-01 1.36381547298403e+00 8.36648355555284e-03
3.09092307692308e-01 1.35657292106712e+00 8.36841820784858e-03
3.12507692307692e-01 1.34936883076591e+00 8.36984223295773e-03
3.15923076923077e-01 1.34220299782984e+00 8.37076647085177e-03
3.19338461538462e-01 1.33507521911474e+00 8.37120151715082e-03
3.22753846153846e-01 1.32798529251183e+00 8.37115770758800e-03
3.26169230769231e-01 1.32093301702819e+00 8.37064513174871e-03
3.29584615384615e-01 1.31391819269651e+00 8.36967364772493e-03
3.33000000000000e-01 1.30694062063232e+00 8.36825286590953e-03
3.36415384615385e-01 1.30000010302731e+00 8.36639219146897e-03
3.39830769230769e-01 1.29309644308363e+00 8.36410081392698e-03
3.43246153846154e-01 1.28622944506854e+00 8.36138769664645e-03
3.46661538461538e-01 1.27939891430788e+00 8.35826161746579e-03
3.50076923076923e-01 1.27260465712295e+00 8.35473115247208e-03
3.53492307692308e-01 1.26584648090127e+00 8.35080468690971e-03
3.56907692307692e-01 1.25912419401623e+00 8.34649042699284e-03
3.60323076923077e-01 1.25243760587737e+00 8.34179638334690e-03
3.63738461538462e-01 1.24578652692408e+00 8.33673040867643e-03
3.67153846153846e-01 1.23917076856692e+00 8.33130018157661e-03
3.70569230769231e-01 1.23259014325285e+00 8.32551321610307e-03
3.73984615384615e-01 1.22604446439052e+00 8.31937687222248e-03
3.77400000000000e-01 1.21953354639667e+00 8.31289833941808e-03
3.80815384615385e-01 1.21305720469002e+00 8.30608467178936e-03
3.84230769230769e-01 1.20661525563656e+00 8.29894277693378e-03
3.87646153846154e-01 1.20020751659396e+00 8.29147940483910e-03
3.91061538461538e-01 1.19383380590564e+00 8.28370118173375e-03
3.94476923076923e-01 1.18749394284801e+00 8.27561459414106e-03
3.97892307692308e-01 1.18118774768838e+00 8.26722599686538e-03
4.01307692307692e-01 1.17491504161789e+00 8.25854162180796e-03
4.04723076923077e-01 1.16867564679259e+00 8.24956756195725e-03
4.08138461538462e-01 1.16246938632768e+00 8.24030980313509e-03
4.11553846153846e-01 1.15629608424825e+00 8.23077420841503e-03
4.14969230769231e-01 1.15015556554287e+00 8.22096652531190e-03
4.18384615384615e-01 1.14404765610101e+00 8.21089239376717e-03
4.21800000000000e-01 1.13797218275102e+00 8.20055733055585e-03
4.25215384615385e-01 1.13192897325462e+00 8.18996675915707e-03
4.28630769230769e-01 1.12591785626071e+00 8.17912599889726e-03
4.32046153846154e-01 1.11993866134191e+00 8.16804025415246e-03
4.35461538461538e-01 1.11399121898911e+00 8.15671464329321e-03
4.38876923076923e-01 1.10807536056690e+00 8.14515418368652e-03
4.42292307692308e-01 1.10219091836149e+00 8.13336379790586e-03
4.45707692307692e-01 1.09633772552405e+00 8.12134832068237e-03
4.49123076923077e-01 1.09051561610465e+00 8.10911248395235e-03
4.52538461538462e-01 1.08472442504704e+00 8.09666094420284e-03
4.55953846153846e-01 1.07896398814670e+00 8.08399826794298e-03
4.59369230769231e-01 1.07323414209552e+00 8.07112893739581e-03
4.62784615384615e-01 1.06753472442861e+00 8.05805735689784e-03
4.66200000000000e-01 1.06186557355589e+00 8.04478783843624e-03
4.69615384615385e-01 1.05622652875700e+00 8.03132462753944e-03
4.73030769230769e-01 1.05061743014185e+00 8.01767189305872e-03
4.76446153846154e-01 1.04503811868110e+00 8.00383371702275e-03
4.79861538461538e-01 1.03948843620110e+00 7.98981411980040e-03
4.83276923076923e-01 1.03396822534578e+00 7.97561704626184e-03
4.86692307692308e-01 1.02847732961678e+00 7.96124637081116e-03
4.90107692307692e-01 1.02301559332509e+00 7.94670590308047e-03
4.93523076923077e-01 1.01758286161936e+00 7.93199937417972e-03
4.96938461538461e-01 1.01217898048110e+00 7.91713046058480e-03
5.00353846153846e-01 1.00680379668869e+00 7.90210277078275e-03
5.03769230769231e-01 1.00145715785493e+00 7.88691984994560e-03
5.07184615384615e-01 9.96138912381426e-01 7.87158518523063e-03
5.10600000000000e-01 9.90848909485097e-01 7.85610219252073e-03
5.14015384615385e-01 9.85586999193465e-01 7.84047423914020e-03
5.17430769230769e-01 9.80353032310705e-01 7.82470463439579e-03
5.20846153846154e-01 9.75146860443200e-01 7.80879662019894e-03
5.24261538461538e-01 9.69968335994926e-01 7.79275339318761e-03
5.27676923076923e-01 9.64817312134534e-01 7.77657809206404e-03
5.31092307692308e-01 9.59693642829299e-01 7.76027380180179e-03
5.34507692307692e-01 9.54597182803391e-01 7.74384355842953e-03
5.37923076923077e-01 9.49527787561785e-01 7.72729033647549e-03
5.41338461538462e-01 9.44485313385798e-01 7.71061707004463e-03
5.44753846153846e-01 9.39469617301943e-01 7.69382664062256e-03
5.48169230769231e-01 9.34480557113770e-01 7.67692188101228e-03
5.51584615384615e-01 9.29517991362429e-01 7.65990557982587e-03
5.55000000000000e-01 9.24581779349074e-01 7.64278046939603e-03
5.58415384615385e-01 9.19671781130515e-01 7.62554924587680e-03
5.61830769230769e-01 9.14787857489749e-01 7.60821456056128e-03
5.65246153846154e-01 9.09929869957594e-01 7.59077901127992e-03
5.68661538461538e-01 9.05097680808410e-01 7.57324516200436e-03
5.72076923076923e-01 9.00291153031507e-01 7.55561553131349e-03
5.75492307692308e-01 8.95510150360023e-01 7.53789259598012e-03
5.78907692307692e-01 8.90754537234724e-01 7.52007879506867e-03
5.82323076923077e-01 8.86024178824284e-01 7.50217651850875e-03
5.85738461538462e-01 8.81318941021152e-01 7.48418812582009e-03
5.89153846153846e-01 8.76638690414428e-01 7.46611593501094e-03
5.92569230769231e-01 8.71983294317019e-01 7.44796222595610e-03
5.95984615384615e-01 8.67352620731336e-01 7.42972924426689e-03
5.99400000000000e-01 8.62746538368344e-01 7.41141919029579e-03
6.02815384615385e-01 8.58164916643544e-01 7.39303423703519e-03
6.06230769230769e-01 8.53607625651232e-01 7.37457652218248e-03
6.09646153846154e-01 8.49074536182920e-01 7.35604814028138e-03
6.13061538461538e-01 8.44565519723379e-01 7.33745116019886e-03
6.16476923076923e-01 8.40080448425633e-01 7.31878761463498e-03
6.19892307692308e-01 8.35619195135691e-01 7.30005950322671e-03
6.23307692307692e-01 8.31181633360942e-01 7.28126879610847e-03
6.26723076923077e-01 8.26767637287456e-01 7.26241742352608e-03
6.30138461538462e-01 8.22377081776166e-01 7.24350729256089e-03
6.33553846153846e-01 8.18009842339090e-01 7.22454027703538e-03
6.36969230769231e-01 8.13665795162637e-01 7.20551822045279e-03
6.40384615384615e-01 8.09344817077597e-01 7.18644293937244e-03
6.43800000000000e-01 8.05046785575429e-01 7.16731621341475e-03
6.47215384615385e-01 8.00771578804537e-01 7.14813980127775e-03
6.50630769230769e-01 7.96519075547672e-01 7.12891543350027e-03
6.54046153846154e-01 7.92289155237694e-01 7.10964480529612e-03
6.57461538461538e-01 7.88081697953908e-01 7.09032959220314e-03
6.60876923076923e-01 7.83896584400085e-01 7.07097144054823e-03
6.64292307692308e-01 7.79733695925748e-01 7.05157197016808e-03
6.67707692307692e-01 7.75592914498434e-01 7.03213277752996e-03
6.71123076923077e-01 7.71474122718542e-01 7.01265542629433e-03
6.74538461538462e-01 7.67377203815777e-01 6.99314146231564e-03
6.77953846153846e-01 7.63302041628223e-01 6.97359240446558e-03
6.81369230769231e-01 7.59248520622432e-01 6.95400974721740e-03
6.84784615384615e-01 7.55216525867045e-01 6.93439496361430e-03
6.88200000000000e-01 7.51205943046786e-01 6.91474949618681e-03
6.91615384615385e-01 7.47216658459002e-01 6.89507477134040e-03
6.95030769230769e-01 7.43248558993732e-01 6.87537219275840e-03
6.98446153846154e-01 7.39301532147261e-01 6.85564313487178e-03
7.01861538461538e-01 7.35375466018717e-01 6.83588895692703e-03
7.05276923076923e-01 7.31470249290670e-01 6.81611099431656e-03
7.08692307692308e-01 7.27585771247525e-01 6.79631056097920e-03
7.12107692307692e-01 7.23721921751086e-01 6.77648895216254e-03
7.15523076923077e-01 7.19878591253331e-01 6.75664743584283e-03
7.18938461538462e-01 7.16055670793124e-01 6.73678726622575e-03
7.22353846153846e-01 7.12253051977695e-01 6.71690967540148e-03
7.25769230769231e-01 7.08470627000046e-01 6.69701587563126e-03
7.29184615384615e-01 7.04708288615657e-01 6.67710706198137e-03
7.32600000000000e-01 7.00965930154555e-01 6.65718440406430e-03
7.36015384615385e-01 6.97243445518107e-01 6.63724905899981e-03
7.39430769230769e-01 6.93540729161365e-01 6.61730216540448e-03
7.42846153846154e-01 6.89857676104763e-01 6.59734483744407e-03
7.46261538461538e-01 6.86194181930959e-01 6.57737817751200e-03
7.49676923076923e-01 6.82550142767640e-01 6.55740326834493e-03
7.53092307692308e-01 6.78925455303482e-01 6.53742117515838e-03
7.56507692307692e-01 6.75320016766529e-01 6.51743294810159e-03
7.59923076923077e-01 6.71733724935235e-01 6.49743961445457e-03
7.63338461538462e-01 6.68166478135407e-01 6.47744219081115e-03
7.66753846153846e-01 6.64618175223774e-01 6.45744167548622e-03
7.70169230769231e-01 6.61088715603104e-01 6.43743905055382e-03
7.73584615384615e-01 6.57577999201568e-01 6.41743528419414e-03
7.77000000000000e-01 6.54085926483190e-01 6.39743132317789e-03
7.80415384615385e-01 6.50612398444859e-01 6.37742810457588e-03
7.83830769230769e-01 6.47157316600644e-01 6.35742655028222e-03
7.87246153846154e-01 6.43720582991919e-01 6.33742756159047e-03
7.90661538461538e-01 6.40302100184435e-01 6.31743203065207e-03
7.94076923076923e-01 6.36901771253019e-01 6.29744083330155e-03
7.97492307692308e-01 6.33519499795477e-01 6.27745483096364e-03
8.00907692307692e-01 6.30155189913394e-01 6.25747487284708e-03
8.04323076923077e-01 6.26808746221714e-01 6.23750178884328e-03
8.07738461538462e-01 6.23480073845892e-01 6.21753640054623e-03
8.11153846153846e-01 6.20169078407265e-01 6.19757951433782e-03
8.14569230769231e-01 6.16875666036232e-01 6.17763192321331e-03
8.17984615384615e-01 6.13599743353907e-01 6.15769440888223e-03
8.21400000000000e-01 6.10341217481192e-01 6.13776773492423e-03
8.24815384615385e-01 6.07099996036004e-01 6.11785265739150e-03
8.28230769230769e-01 6.03875987119281e-01 6.09794991981291e-03
8.31646153846154e-01 6.00669099323787e-01 6.07806024824769e-03
8.35061538461538e-01 5.97479241731380e-01 6.05818436166585e-03
8.38476923076923e-01 5.94306323899369e-01 6.03832296540895e-03
8.41892307692308e-01 5.91150255872654e-01 6.01847675290184e-03
8.45307692307692e-01 5.88010948166625e-01 5.99864640762314e-03
8.48723076923077e-01 5.84888311775495e-01 5.97883259663347e-03
8.52138461538462e-01 5.81782258169654e-01 5.95903598056640e-03
8.55553846153846e-01 5.78692699282594e-01 5.93925720732546e-03
8.58969230769231e-01 5.75619547522446e-01 5.91949691372246e-03
8.62384615384615e-01 5.72562715755611e-01 5.89975572736818e-03
8.65800000000000e-01 5.69522117314665e-01 5.88003426043594e-03
8.69215384615385e-01 5.66497665995778e-01 5.86033311927597e-03
8.72630769230769e-01 5.63489276046197e-01 5.84065289985589e-03
8.76046153846154e-01 5.60496862171924e-01 5.82099418324959e-03
8.79461538461538e-01 5.57520339535170e-01 5.80135754505557e-03
8.82876923076923e-01 5.54559623742148e-01 5.78174354943468e-03
8.86292307692308e-01 5.51614630853709e-01 5.76215275065059e-03
8.89707692307692e-01 5.48685277370064e-01 5.74258569484456e-03
8.93123076923077e-01 5.45771480238058e-01 5.72304291413473e-03
8.96538461538462e-01 5.42873156848700e-01 5.70352493568534e-03
8.99953846153846e-01 5.39990225025459e-01 5.68403227596076e-03
9.03369230769231e-01 5.37122603034376e-01 5.66456544220201e-03
9.06784615384615e-01 5.34270209569430e-01 5.64512493412861e-03
9.10200000000000e-01 5.31432963759440e-01 5.62571123825203e-03
9.13615384615385e-01 5.28610785165661e-01 5.60632483661040e-03
9.17030769230769e-01 5.25803593770563e-01 5.58696620260542e-03
9.20446153846154e-01 5.23011309984537e-01 5.56763579688314e-03
9.23861538461538e-01 5.20233854643526e-01 5.54833407589264e-03
9.27276923076923e-01 5.17471148998071e-01 5.52906148644637e-03
9.30692307692308e-01 5.14723114722660e-01 5.50981846711029e-03
9.34107692307692e-01 5.11989673902042e-01 5.49060544980649e-03
9.37523076923077e-01 5.09270749037585e-01 5.47142285442902e-03
9.40938461538462e-01 5.06566263044976e-01 5.45227109709035e-03
9.44353846153846e-01 5.03876139243720e-01 5.43315058487575e-03
9.47769230769231e-01 5.01200301366020e-01 5.41406171717823e-03
9.51184615384615e-01 4.98538673543667e-01 5.39500488723777e-03
9.54600000000000e-01 4.95891180314075e-01 5.37598047694771e-03
9.58015384615385e-01 4.93257746618040e-01 5.35698886480244e-03
9.61430769230769e-01 4.90638297789670e-01 5.33803042209594e-03
9.64846153846154e-01 4.88032759562237e-01 5.31910550915618e-03
9.68261538461538e-01 4.85441058065982e-01 5.30021448313266e-03
9.71676923076923e-01 4.82863119818271e-01 5.28135769303075e-03
9.75092307692308e-01 4.80298871731811e-01 5.26253548097070e-03
9.78507692307692e-01 4.77748241102379e-01 5.24374818363612e-03
9.81923076923077e-01 4.75211155614383e-01 5.22499612735651e-03
9.85338461538461e-01 4.72687543338726e-01 5.20627963561708e-03
9.88753846153846e-01 4.70177332723357e-01 5.18759902426581e-03
9.92169230769231e-01 4.67680452601088e-01 5.16895460272284e-03
9.95584615384615e-01 4.65196832177826e-01 5.15034667537523e-03
9.99000000000000e-01 4.62726401037856e-01 5.13177553450415e-03
1.00241538461538e+00 4.60269089146450e-01 5.11324148033232e-03
1.00583076923077e+00 4.57824826815004e-01 5.09474478964260e-03
1.00924615384615e+00 4.55393544767067e-01 5.07628574348125e-03
1.01266153846154e+00 4.52975174047642e-01 5.05786461521637e-03
1.01607692307692e+00 4.50569646113971e-01 5.03948167187285e-03
1.01949230769231e+00 4.48176892741623e-01 5.02113717534548e-03
1.02290769230769e+00 4.45796846113763e-01 5.00283137024048e-03
1.02632307692308e+00 4.43429438750902e-01 4.98456452957693e-03
1.02973846153846e+00 4.41074603510079e-01 4.96633688716635e-03
1.03315384615385e+00 4.38732273648850e-01 4.94814868233849e-03
1.03656923076923e+00 4.36402382735615e-01 4.93000014964928e-03
1.03998461538462e+00 4.34084864734793e-01 4.91189151787319e-03
1.04340000000000e+00 4.31779653918606e-01 4.89382301114811e-03
1.04681538461538e+00 4.29486684950852e-01 4.87579484798038e-03
1.05023076923077e+00 4.27205892800117e-01 4.85780724237290e-03
1.05364615384615e+00 4.24937212822171e-01 4.83986040284343e-03
1.05706153846154e+00 4.22680580674585e-01 4.82195453353572e-03
1.06047692307692e+00 4.20435932397775e-01 4.80408983324974e-03
1.06389230769231e+00 4.18203204330995e-01 4.78626649653878e-03
1.06730769230769e+00 4.15982333192059e-01 4.76848470260034e-03
1.07072307692308e+00 4.13773256014463e-01 4.75074465701598e-03
1.07413846153846e+00 4.11575910146564e-01 4.73304652997559e-03
1.07755384615385e+00 4.09390233308750e-01 4.71539049712914e-03
