Energy (eV)          EEDF (eV^-(3/2))     First Anisotropy
6.85000000000000e-02 5.00886561450996e-02 4.17992229749008e-05
2.05500000000000e-01 4.92307311203613e-02 6.86621139967646e-05
3.42500000000000e-01 4.83875007471553e-02 8.96923032619285e-05
4.79500000000000e-01 4.75587133335812e-02 1.05102910982222e-04
6.16500000000000e-01 4.67441214987468e-02 1.17495342554123e-04
7.53500000000000e-01 4.59434820989312e-02 1.27868866503936e-04
8.90500000000000e-01 4.51565561550107e-02 1.36748413291352e-04
1.02750000000000e+00 4.43831087811271e-02 1.44455590969495e-04
1.16450000000000e+00 4.36229091145778e-02 1.51206713636145e-04
1.30150000000000e+00 4.28757302469064e-02 1.57156769995950e-04
1.43850000000000e+00 4.21413491561744e-02 1.62422020798350e-04
1.57550000000000e+00 4.14195466403918e-02 1.67092769636393e-04
1.71250000000000e+00 4.07101072520890e-02 1.71241107184809e-04
1.84950000000000e+00 4.00128192340087e-02 1.74925870806541e-04
1.98650000000000e+00 3.93274744558994e-02 1.78195962571487e-04
2.12350000000000e+00 3.86538683523917e-02 1.81092649938809e-04
2.26050000000000e+00 3.79917998619385e-02 1.83651209492077e-04
2.39750000000000e+00 3.73410713668010e-02 1.85902131555229e-04
2.53450000000000e+00 3.67014886340628e-02 1.87872022534250e-04
2.67150000000000e+00 3.60728607576543e-02 1.89584293837928e-04
2.80850000000000e+00 3.54550001013696e-02 1.91059696740575e-04
2.94550000000000e+00 3.48477222428605e-02 1.92316743849288e-04
3.08250000000000e+00 3.42508459185886e-02 1.93372045648830e-04
3.21950000000000e+00 3.36641929697211e-02 1.94240582456085e-04
3.35650000000000e+00 3.30875882889529e-02 1.94935926559436e-04
3.49350000000000e+00 3.25208597682394e-02 1.95470425451330e-04
3.63050000000000e+00 3.19638382474252e-02 1.95855354323423e-04
3.76750000000000e+00 3.14163574637521e-02 1.96101044022723e-04
3.90450000000000e+00 3.08782540022320e-02 1.96216989228115e-04
4.04150000000000e+00 3.03493672468699e-02 1.96211940541872e-04
4.17850000000000e+00 2.98295393327226e-02 1.96093983393242e-04
4.31550000000000e+00 2.93186150987783e-02 1.95870606047151e-04
4.45250000000000e+00 2.88164420416429e-02 1.95548758548709e-04
4.58950000000000e+00 2.83228702700206e-02 1.95134904076883e-04
4.72650000000000e+00 2.78377524599731e-02 1.94635063902042e-04
4.86350000000000e+00 2.73609438109457e-02 1.94054856922942e-04
5.00050000000000e+00 2.68923020025464e-02 1.93399534585093e-04
5.13750000000000e+00 2.64316871520657e-02 1.92674011843725e-04
5.27450000000000e+00 2.59789617727229e-02 1.91882894723067e-04
5.41150000000000e+00 2.55339907326292e-02 1.91030504933430e-04
5.54850000000000e+00 2.50966412144521e-02 1.90120901934179e-04
5.68550000000000e+00 2.46667826757718e-02 1.89157902770391e-04
5.82250000000000e+00 2.42442868101160e-02 1.88145099961538e-04
5.95950000000000e+00 2.38290275086625e-02 1.87085877679468e-04
6.09650000000000e+00 2.34208808225973e-02 1.85983426418826e-04
6.23350000000000e+00 2.30197249261179e-02 1.84840756334581e-04
6.37050000000000e+00 2.26254400800698e-02 1.83660709397318e-04
6.50750000000000e+00 2.22379085962067e-02 1.82445970496826e-04
6.64450000000000e+00 2.18570148020615e-02 1.81199077607340e-04
6.78150000000000e+00 2.14826450064206e-02 1.79922431113340e-04
6.91850000000000e+00 2.11146874653880e-02 1.78618302382370e-04
7.05550000000000e+00 2.07530323490317e-02 1.77288841660767e-04
7.19250000000000e+00 2.03975717086014e-02 1.75936085359021e-04
7.32950000000000e+00 2.00481994443066e-02 1.74561962785695e-04
7.46650000000000e+00 1.97048112736482e-02 1.73168302381987e-04
7.60350000000000e+00 1.93673047002911e-02 1.71756837503165e-04
7.74050000000000e+00 1.90355789834709e-02 1.70329211787974e-04
7.87750000000000e+00 1.87095351079240e-02 1.68886984152637e-04
8.01450000000000e+00 1.83890757543333e-02 1.67431633442160e-04
8.15150000000000e+00 1.80741052702796e-02 1.65964562768269e-04
8.28850000000000e+00 1.77645296416906e-02 1.64487103560243e-04
8.42550000000000e+00 1.74602564647794e-02 1.63000519352280e-04
8.56250000000000e+00 1.71611949184633e-02 1.61506009328713e-04
8.69950000000000e+00 1.68672557372548e-02 1.60004711646289e-04
8.83650000000000e+00 1.65783511846174e-02 1.58497706550864e-04
8.97350000000000e+00 1.62943950267772e-02 1.56986019304310e-04
9.11050000000000e+00 1.60153025069839e-02 1.55470622935910e-04
9.24750000000000e+00 1.57409903202116e-02 1.53952440831209e-04
9.38450000000000e+00 1.54713765882940e-02 1.52432349170209e-04
9.52150000000000e+00 1.52063808354843e-02 1.50911179225663e-04
9.65850000000000e+00 1.49459239644353e-02 1.49389719531317e-04
9.79550000000000e+00 1.46899282325889e-02 1.47868717929154e-04
9.93250000000000e+00 1.44383172289721e-02 1.46348883503896e-04
1.00695000000000e+01 1.41910158513887e-02 1.44830888412317e-04
1.02065000000000e+01 1.39479502840030e-02 1.43315369614360e-04
1.03435000000000e+01 1.37090479753062e-02 1.41802930512466e-04
1.04805000000000e+01 1.34742376164614e-02 1.40294142505002e-04
1.06175000000000e+01 1.32434491200188e-02 1.38789546459237e-04
1.07545000000000e+01 1.30166135989953e-02 1.37289654108903e-04
1.08915000000000e+01 1.27936633463134e-02 1.35794949380975e-04
1.10285000000000e+01 1.25745318145908e-02 1.34305889655987e-04
1.11655000000000e+01 1.23591535962778e-02 1.32822906965861e-04
1.13025000000000e+01 1.21474644041335e-02 1.31346409132937e-04
1.14395000000000e+01 1.19394010520374e-02 1.29876780853667e-04
1.15765000000000e+01 1.17349014361290e-02 1.28414384730140e-04
1.17135000000000e+01 1.15339045162707e-02 1.26959562252409e-04
1.18505000000000e+01 1.13363502978286e-02 1.25512634734413e-04
1.19875000000000e+01 1.11421798137646e-02 1.24073904206041e-04
1.21245000000000e+01 1.09513351070354e-02 1.22643654263774e-04
1.22615000000000e+01 1.07637592132940e-02 1.21222150882139e-04
1.23985000000000e+01 1.05793961438858e-02 1.19809643188075e-04
1.25355000000000e+01 1.03981908691372e-02 1.18406364200187e-04
1.26725000000000e+01 1.02200893019302e-02 1.17012531534735e-04
1.28095000000000e+01 1.00450382815578e-02 1.15628348080078e-04
1.29465000000000e+01 9.87298555785657e-03 1.14254002641186e-04
1.30835000000000e+01 9.70387977561076e-03 1.12889670555763e-04
1.32205000000000e+01 9.53767045922337e-03 1.11535514283379e-04
1.33575000000000e+01 9.37430799765001e-03 1.10191683968992e-04
1.34945000000000e+01 9.21374362959072e-03 1.08858317982093e-04
1.36315000000000e+01 9.05592942893544e-03 1.07535543432680e-04
1.37685000000000e+01 8.90081829045877e-03 1.06223476665176e-04
1.39055000000000e+01 8.74836391575972e-03 1.04922223731355e-04
1.40425000000000e+01 8.59852079944237e-03 1.03631880843268e-04
1.41795000000000e+01 8.45124421553312e-03 1.02352534807111e-04
1.43165000000000e+01 8.30649020413069e-03 1.01084263438928e-04
1.44535000000000e+01 8.16421555828470e-03 9.98271359629935e-05
1.45905000000000e+01 8.02437781109906e-03 9.85812133936535e-05
1.47275000000000e+01 7.88693522305618e-03 9.73465489014038e-05
1.48645000000000e+01 7.75184676955839e-03 9.61231881638912e-05
1.50015000000000e+01 7.61907212868265e-03 9.49111697025326e-05
1.51385000000000e+01 7.48857166914509e-03 9.37105252053821e-05
1.52755000000000e+01 7.36030643847160e-03 9.25212798368575e-05
1.54125000000000e+01 7.23423815137114e-03 9.13434525348986e-05
1.55495000000000e+01 7.11032917830812e-03 9.01770562961124e-05
1.56865000000000e+01 6.98854253427054e-03 8.90220984494112e-05
1.58235000000000e+01 6.86884186773048e-03 8.78785809186513e-05
1.59605000000000e+01 6.75119144979374e-03 8.67465004747342e-05
1.60975000000000e+01 6.63555616353528e-03 8.56258489776129e-05
1.62345000000000e+01 6.52190149351729e-03 8.45166136086394e-05
1.63715000000000e+01 6.41019351548692e-03 8.34187770936508e-05
1.65085000000000e+01 6.30039888625031e-03 8.23323179171764e-05
1.66455000000000e+01 6.19248483372017e-03 8.12572105281413e-05
1.67825000000000e+01 6.08641914713380e-03 8.01934255374114e-05
1.69195000000000e+01 5.98217016743862e-03 7.91409299075097e-05
1.70565000000000e+01 5.87970677784244e-03 7.80996871348305e-05
1.71935000000000e+01 5.77899839452553e-03 7.70696574246494e-05
1.73305000000000e+01 5.68001495751182e-03 7.60507978592194e-05
1.74675000000000e+01 5.58272692169641e-03 7.50430625592389e-05
1.76045000000000e+01 5.48710524802680e-03 7.40464028389400e-05
1.77415000000000e+01 5.39312139483518e-03 7.30607673550622e-05
1.78785000000000e+01 5.30074730931913e-03 7.20861022499485e-05
1.80155000000000e+01 5.20995541916830e-03 7.11223512890002e-05
1.81525000000000e+01 5.12071862433443e-03 7.01694559927063e-05
1.82895000000000e+01 5.03301028894245e-03 6.92273557634552e-05
1.84265000000000e+01 4.94680423334001e-03 6.82959880073424e-05
1.85635000000000e+01 4.86207472628324e-03 6.73752882511600e-05
1.87005000000000e+01 4.77879647725639e-03 6.64651902547572e-05
1.88375000000000e+01 4.69694462892295e-03 6.55656261189471e-05
1.89745000000000e+01 4.61649474970611e-03 6.46765263891324e-05
1.91115000000000e+01 4.53742282649628e-03 6.37978201548116e-05
1.92485000000000e+01 4.45970525748353e-03 6.29294351451241e-05
1.93855000000000e+01 4.38331884511282e-03 6.20712978205858e-05
1.95225000000000e+01 4.30824078915986e-03 6.12233334611526e-05
1.96595000000000e+01 4.23444867992555e-03 6.03854662507592e-05
1.97965000000000e+01 4.16192049154704e-03 5.95576193584616e-05
1.99335000000000e+01 4.09063457542334e-03 5.87397150163077e-05
2.00705000000000e+01 4.02056965375350e-03 5.79316745940647e-05
2.02075000000000e+01 3.95170481318553e-03 5.71334186709122e-05
2.03445000000000e+01 3.88401949857404e-03 5.63448671042272e-05
2.04815000000000e+01 3.81749350684486e-03 5.55659390955549e-05
2.06185000000000e+01 3.75210698096469e-03 5.47965532538736e-05
2.07555000000000e+01 3.68784040401411e-03 5.40366276562671e-05
2.08925000000000e+01 3.62467459336201e-03 5.32860799060805e-05
2.10295000000000e+01 3.56259069493990e-03 5.25448271886615e-05
2.11665000000000e+01 3.50157017761421e-03 5.18127863247812e-05
2.13035000000000e+01 3.44159482765506e-03 5.10898738218105e-05
2.14405000000000e+01 3.38264674329971e-03 5.03760059227415e-05
2.15775000000000e+01 3.32470832940911e-03 4.96710986531289e-05
2.17145000000000e+01 3.26776229221608e-03 4.89750678660270e-05
2.18515000000000e+01 3.21179163416333e-03 4.82878292850045e-05
2.19885000000000e+01 3.15677964882991e-03 4.76092985452967e-05
2.21255000000000e+01 3.10270991594468e-03 4.69393912331647e-05
2.22625000000000e+01 3.04956629648499e-03 4.62780229235349e-05
2.23995000000000e+01 2.99733292785950e-03 4.56251092159738e-05
2.25365000000000e+01 2.94599421917340e-03 4.49805657690661e-05
2.26735000000000e+01 2.89553484657475e-03 4.43443083332450e-05
2.28105000000000e+01 2.84593974868053e-03 4.37162527821393e-05
2.29475000000000e+01 2.79719412208107e-03 4.30963151424890e-05
2.30845000000000e+01 2.74928341692142e-03 4.24844116226804e-05
2.32215000000000e+01 2.70219333255843e-03 4.18804586399539e-05
2.33585000000000e+01 2.65590981329225e-03 4.12843728463283e-05
2.34955000000000e+01 2.61041904417087e-03 4.06960711532954e-05
2.36325000000000e+01 2.56570744686658e-03 4.01154707553254e-05
2.37695000000000e+01 2.52176167562304e-03 3.95424891522265e-05
2.39065000000000e+01 2.47856861327176e-03 3.89770441704001e-05
2.40435000000000e+01 2.43611536731682e-03 3.84190539830378e-05
2.41805000000000e+01 2.39438926608665e-03 3.78684371292936e-05
2.43175000000000e+01 2.35337785495171e-03 3.73251125324682e-05
2.44545000000000e+01 2.31306889260699e-03 3.67889995172492e-05
2.45915000000000e+01 2.27345034741814e-03 3.62600178260322e-05
2.47285000000000e+01 2.23451039383021e-03 3.57380876343626e-05
2.48655000000000e+01 2.19623740883791e-03 3.52231295655345e-05
2.50025000000000e+01 2.15861996851627e-03 3.47150647043672e-05
2.51395000000000e+01 2.12164684461081e-03 3.42138146101978e-05
2.52765000000000e+01 2.08530700118606e-03 3.37193013291200e-05
2.54135000000000e+01 2.04958959133149e-03 3.32314474054913e-05
2.55505000000000e+01 2.01448395392385e-03 3.27501758927397e-05
2.56875000000000e+01 1.97997961044500e-03 3.22754103634996e-05
2.58245000000000e+01 1.94606626185425e-03 3.18070749190944e-05
2.59615000000000e+01 1.91273378551418e-03 3.13450941983947e-05
2.60985000000000e+01 1.87997223216926e-03 3.08893933860779e-05
2.62355000000000e+01 1.84777182297607e-03 3.04398982203072e-05
2.63725000000000e+01 1.81612294658452e-03 2.99965349998588e-05
2.65095000000000e+01 1.78501615626896e-03 2.95592305907103e-05
2.66465000000000e+01 1.75444216710850e-03 2.91279124321163e-05
2.67835000000000e+01 1.72439185321557e-03 2.87025085421913e-05
2.69205000000000e+01 1.69485624501200e-03 2.82829475230145e-05
2.70575000000000e+01 1.66582652655172e-03 2.78691585652816e-05
2.71945000000000e+01 1.63729403288934e-03 2.74610714525160e-05
2.73315000000000e+01 1.60925024749376e-03 2.70586165648586e-05
2.74685000000000e+01 1.58168679970616e-03 2.66617248824549e-05
2.76055000000000e+01 1.55459546224144e-03 2.62703279884506e-05
2.77425000000000e+01 1.52796814873251e-03 2.58843580716155e-05
2.78795000000000e+01 1.50179691131664e-03 2.55037479286116e-05
2.80165000000000e+01 1.47607393826312e-03 2.51284309659143e-05
2.81535000000000e+01 1.45079155164158e-03 2.47583412014043e-05
2.82905000000000e+01 1.42594220503023e-03 2.43934132656464e-05
2.84275000000000e+01 1.40151848126340e-03 2.40335824028631e-05
2.85645000000000e+01 1.37751309021758e-03 2.36787844716176e-05
2.87015000000000e+01 1.35391886663546e-03 2.33289559452202e-05
2.88385000000000e+01 1.33072876798718e-03 2.29840339118659e-05
2.89755000000000e+01 1.30793587236824e-03 2.26439560745182e-05
2.91125000000000e+01 1.28553337643344e-03 2.23086607505496e-05
2.92495000000000e+01 1.26351459336615e-03 2.19780868711465e-05
2.93865000000000e+01 1.24187295088242e-03 2.16521739804918e-05
2.95235000000000e+01 1.22060198926921e-03 2.13308622347341e-05
2.96605000000000e+01 1.19969535945631e-03 2.10140924007512e-05
2.97975000000000e+01 1.17914682112121e-03 2.07018058547198e-05
2.99345000000000e+01 1.15895024082643e-03 2.03939445805010e-05
3.00715000000000e+01 1.13909959018885e-03 2.00904511678440e-05
3.02085000000000e+01 1.11958894408023e-03 1.97912688104241e-05
3.03455000000000e+01 1.10041247885875e-03 1.94963413037174e-05
3.04825000000000e+01 1.08156447063064e-03 1.92056130427230e-05
3.06195000000000e+01 1.06303929354175e-03 1.89190290195380e-05
3.07565000000000e+01 1.04483141809830e-03 1.86365348207945e-05
3.08935000000000e+01 1.02693540951638e-03 1.83580766249635e-05
3.10305000000000e+01 1.00934592609979e-03 1.80836011995331e-05
3.11675000000000e+01 9.92057717645565e-04 1.78130558980689e-05
3.13045000000000e+01 9.75065623876930e-04 1.75463886571601e-05
3.14415000000000e+01 9.58364572902991e-04 1.72835479932590e-05
3.15785000000000e+01 9.41949579704861e-04 1.70244829994201e-05
3.17155000000000e+01 9.25815744647707e-04 1.67691433419424e-05
3.18525000000000e+01 9.09958252018279e-04 1.65174792569218e-05
3.19895000000000e+01 8.94372368587492e-04 1.62694415467201e-05
3.21265000000000e+01 8.79053442197623e-04 1.60249815763506e-05
3.22635000000000e+01 8.63996900373714e-04 1.57840512697909e-05
3.24005000000000e+01 8.49198248958753e-04 1.55466031062246e-05
3.25375000000000e+01 8.34653070772233e-04 1.53125901162155e-05
3.26745000000000e+01 8.20357024291693e-04 1.50819658778210e-05
3.28115000000000e+01 8.06305842356832e-04 1.48546845126489e-05
3.29485000000000e+01 7.92495330895825e-04 1.46307006818569e-05
3.30855000000000e+01 7.78921367673459e-04 1.44099695821048e-05
3.32225000000000e+01 7.65579901060698e-04 1.41924469414600e-05
3.33595000000000e+01 7.52466948825341e-04 1.39780890152602e-05
3.34965000000000e+01 7.39578596943374e-04 1.37668525819360e-05
3.36335000000000e+01 7.26910998430698e-04 1.35586949387988e-05
3.37705000000000e+01 7.14460372194858e-04 1.33535738977941e-05
3.39075000000000e+01 7.02223001906445e-04 1.31514477812264e-05
3.40445000000000e+01 6.90195234889821e-04 1.29522754174578e-05
3.41815000000000e+01 6.78373481032853e-04 1.27560161365802e-05
3.43185000000000e+01 6.66754211715316e-04 1.25626297660682e-05
3.44555000000000e+01 6.55333958755654e-04 1.23720766264133e-05
3.45925000000000e+01 6.44109313375773e-04 1.21843175267400e-05
3.47295000000000e+01 6.33076925183577e-04 1.19993137604105e-05
3.48665000000000e+01 6.22233501172918e-04 1.18170271006160e-05
3.50035000000000e+01 6.11575804740691e-04 1.16374197959600e-05
3.51405000000000e+01 6.01100654720747e-04 1.14604545660332e-05
3.52775000000000e+01 5.90804924434366e-04 1.12860945969849e-05
3.54145000000000e+01 5.80685540756989e-04 1.11143035370898e-05
3.55515000000000e+01 5.70739483200934e-04 1.09450454923142e-05
3.56885000000000e+01 5.60963783013825e-04 1.07782850218828e-05
3.58255000000000e+01 5.51355522292463e-04 1.06139871338473e-05
3.59625000000000e+01 5.41911833111877e-04 1.04521172806599e-05
3.60995000000000e+01 5.32629896669286e-04 1.02926413547508e-05
3.62365000000000e+01 5.23506942442730e-04 1.01355256841137e-05
3.63735000000000e+01 5.14540247364113e-04 9.98073702790016e-06
3.65105000000000e+01 5.05727135006400e-04 9.82824257202319e-06
3.66475000000000e+01 4.97064974784750e-04 9.67800992477171e-06
3.67845000000000e+01 4.88551181171320e-04 9.53000711243834e-06
3.69215000000000e+01 4.80183212923524e-04 9.38420257495975e-06
3.70585000000000e+01 4.71958572325511e-04 9.24056516157275e-06
3.71955000000000e+01 4.63874804442633e-04 9.09906412648618e-06
3.73325000000000e+01 4.55929496388681e-04 8.95966912456903e-06
3.74695000000000e+01 4.48120276605675e-04 8.82235020705782e-06
3.76065000000000e+01 4.40444814155990e-04 8.68707781728145e-06
3.77435000000000e+01 4.32900818026604e-04 8.55382278640660e-06
3.78805000000000e+01 4.25486036445264e-04 8.42255632920419e-06
3.80175000000000e+01 4.18198256208364e-04 8.29325003983601e-06
3.81545000000000e+01 4.11035302020341e-04 8.16587588766502e-06
3.82915000000000e+01 4.03995035844374e-04 8.04040621308780e-06
3.84285000000000e+01 3.97075356264218e-04 7.91681372339130e-06
3.85655000000000e+01 3.90274197856957e-04 7.79507148863296e-06
3.87025000000000e+01 3.83589530576507e-04 7.67515293754638e-06
3.88395000000000e+01 3.77019359147682e-04 7.55703185347332e-06
3.89765000000000e+01 3.70561722470624e-04 7.44068237032031e-06
3.91135000000000e+01 3.64214693035452e-04 7.32607896854234e-06
3.92505000000000e+01 3.57976376346924e-04 7.21319647115441e-06
3.93875000000000e+01 3.51844910358960e-04 7.10201003976982e-06
3.95245000000000e+01 3.45818464918846e-04 6.99249517066632e-06
3.96615000000000e+01 3.39895241220965e-04 6.88462769088135e-06
3.97985000000000e+01 3.34073471269873e-04 6.77838375433553e-06
3.99355000000000e+01 3.28351417352585e-04 6.67373983798551e-06
4.00725000000000e+01 3.22727371519890e-04 6.57067273800554e-06
4.02095000000000e+01 3.17199655076553e-04 6.46915956599944e-06
4.03465000000000e+01 3.11766618080248e-04 6.36917774524262e-06
4.04835000000000e+01 3.06426638849080e-04 6.27070500695351e-06
4.06205000000000e+01 3.01178123477528e-04 6.17371938659629e-06
4.07575000000000e+01 2.96019505360695e-04 6.07819922021392e-06
4.08945000000000e+01 2.90949244726697e-04 5.98412314079172e-06
4.10315000000000e+01 2.85965828177062e-04 5.89147007465222e-06
4.11685000000000e+01 2.81067768235005e-04 5.80021923788116e-06
4.13055000000000e+01 2.76253602901436e-04 5.71035013278480e-06
4.14425000000000e+01 2.71521895218577e-04 5.62184254437851e-06
4.15795000000000e+01 2.66871232841050e-04 5.53467653690680e-06
4.17165000000000e+01 2.62300227614311e-04 5.44883245039492e-06
4.18535000000000e+01 2.57807515160308e-04 5.36429089723199e-06
4.19905000000000e+01 2.53391754470237e-04 5.28103275878600e-06
4.21275000000000e+01 2.49051627504263e-04 5.19903918205029e-06
4.22645000000000e+01 2.44785838798112e-04 5.11829157632215e-06
4.24015000000000e+01 2.40593115076390e-04 5.03877160991266e-06
4.25385000000000e+01 2.36472204872529e-04 4.96046120688816e-06
4.26755000000000e+01 2.32421878155244e-04 4.88334254384414e-06
4.28125000000000e+01 2.28440925961386e-04 4.80739804670998e-06
4.29495000000000e+01 2.24528160035084e-04 4.73261038758553e-06
4.30865000000000e+01 2.20682412473069e-04 4.65896248161006e-06
4.32235000000000e+01 2.16902535376070e-04 4.58643748386176e-06
