Energy (eV)          EEDF (eV^-(3/2))     First Anisotropy
1.88372093023256e-02 1.10958267901327e-01 6.34176707836230e-05
5.65116279069767e-02 1.10068843733549e-01 1.04652709567470e-04
9.41860465116279e-02 1.09186549051519e-01 1.37973700871620e-04
1.31860465116279e-01 1.08311326704115e-01 1.63178791063897e-04
1.69534883720930e-01 1.07443120006502e-01 1.84110029791792e-04
2.07209302325581e-01 1.06581872716439e-01 2.02222484781929e-04
2.44883720930233e-01 1.05727529048634e-01 2.18270354045240e-04
2.82558139534884e-01 1.04880033668674e-01 2.32709783600824e-04
3.20232558139535e-01 1.04039331678319e-01 2.45843761101371e-04
3.57906976744186e-01 1.03205368625475e-01 2.57886757301436e-04
3.95581395348837e-01 1.02378090489477e-01 2.68997774450253e-04
4.33255813953488e-01 1.01557443685144e-01 2.79298925618564e-04
4.70930232558140e-01 1.00743375058750e-01 2.88886644581521e-04
5.08604651162791e-01 9.99358318788093e-02 2.97838826484256e-04
5.46279069767442e-01 9.91347618399395e-02 3.06219580655547e-04
5.83953488372093e-01 9.83401130529730e-02 3.14082509023192e-04
6.21627906976744e-01 9.75518340461926e-02 3.21473035229676e-04
6.59302325581395e-01 9.67698737617349e-02 3.28430103591276e-04
6.96976744186046e-01 9.59941815484806e-02 3.34987443694321e-04
7.34651162790698e-01 9.52247071636473e-02 3.41174531018825e-04
7.72325581395349e-01 9.44614007650439e-02 3.47017328662264e-04
8.10000000000000e-01 9.37042129110781e-02 3.52538867884608e-04
8.47674418604651e-01 9.29530945573974e-02 3.57759710049071e-04
8.85348837209302e-01 9.22079970509301e-02 3.62698316852199e-04
9.23023255813954e-01 9.14688721295221e-02 3.67371350884379e-04
9.60697674418605e-01 9.07356719186849e-02 3.71793922943560e-04
9.98372093023256e-01 9.00083489260689e-02 3.75979795514541e-04
1.03604651162791e+00 8.92868560429093e-02 3.79941553623879e-04
1.07372093023256e+00 8.85711465331759e-02 3.83690747381476e-04
1.11139534883721e+00 8.78611740383143e-02 3.87238012265844e-04
1.14906976744186e+00 8.71568925713538e-02 3.90593173082717e-04
1.18674418604651e+00 8.64582565139738e-02 3.93765331764843e-04
1.22441860465116e+00 8.57652206135158e-02 3.96762942512831e-04
1.26209302325581e+00 8.50777399855600e-02 3.99593879882924e-04
1.29976744186047e+00 8.43957700942816e-02 4.02265494336666e-04
1.33744186046512e+00 8.37192667665312e-02 4.04784660558419e-04
1.37511627906977e+00 8.30481861832346e-02 4.07157823699168e-04
1.41279069767442e+00 8.23824848765435e-02 4.09391037133453e-04
1.45046511627907e+00 8.17221197270622e-02 4.11489996574924e-04
1.48813953488372e+00 8.10670479610296e-02 4.13460069677783e-04
1.52581395348837e+00 8.04172271518347e-02 4.15306325019015e-04
1.56348837209302e+00 7.97726152042598e-02 4.17033554796886e-04
1.60116279069767e+00 7.91331703649207e-02 4.18646295010811e-04
1.63883720930233e+00 7.84988512151192e-02 4.20148846921717e-04
1.67651162790698e+00 7.78696166681425e-02 4.21545293794334e-04
1.71418604651163e+00 7.72454259666399e-02 4.22839516658296e-04
1.75186046511628e+00 7.66262386799633e-02 4.24035207998235e-04
1.78953488372093e+00 7.60120147049911e-02 4.25135886476993e-04
1.82720930232558e+00 7.54027142530897e-02 4.26144907526940e-04
1.86488372093023e+00 7.47982978580936e-02 4.27065472888787e-04
1.90255813953488e+00 7.41987263701902e-02 4.27900642242669e-04
1.94023255813953e+00 7.36039609533738e-02 4.28653341576888e-04
1.97790697674419e+00 7.30139630829497e-02 4.29326371425089e-04
2.01558139534884e+00 7.24286945430322e-02 4.29922413922205e-04
2.05325581395349e+00 7.18481174268968e-02 4.30444041332512e-04
2.09093023255814e+00 7.12721941259486e-02 4.30893721424198e-04
2.12860465116279e+00 7.07008873359517e-02 4.31273822341956e-04
2.16627906976744e+00 7.01341600516939e-02 4.31586619694476e-04
2.20395348837209e+00 6.95719755645838e-02 4.31834301098500e-04
2.24162790697674e+00 6.90142974602830e-02 4.32018970893337e-04
2.27930232558140e+00 6.84610896163470e-02 4.32142654064711e-04
2.31697674418605e+00 6.79123162022486e-02 4.32207301708574e-04
2.35465116279070e+00 6.73679416698900e-02 4.32214793896141e-04
2.39232558139535e+00 6.68279307585372e-02 4.32166942273495e-04
2.43000000000000e+00 6.62922484901002e-02 4.32065494790122e-04
2.46767441860465e+00 6.57608601668633e-02 4.31912138313291e-04
2.50534883720930e+00 6.52337313692423e-02 4.31708501521067e-04
2.54302325581395e+00 6.47108279535578e-02 4.31456157616282e-04
2.58069767441860e+00 6.41921160498203e-02 4.31156626465720e-04
2.61837209302326e+00 6.36775620615021e-02 4.30811378215799e-04
2.65604651162791e+00 6.31671326574094e-02 4.30421834716843e-04
2.69372093023256e+00 6.26607947755305e-02 4.29989370805410e-04
2.73139534883721e+00 6.21585156188711e-02 4.29515317550702e-04
2.76906976744186e+00 6.16602626533308e-02 4.29000963709289e-04
2.80674418604651e+00 6.11660036056005e-02 4.28447557497626e-04
2.84441860465116e+00 6.06757064610683e-02 4.27856307900950e-04
2.88209302325581e+00 6.01893394634322e-02 4.27228387358180e-04
2.91976744186047e+00 5.97068711075403e-02 4.26564932518692e-04
2.95744186046512e+00 5.92282701424983e-02 4.25867044910606e-04
2.99511627906977e+00 5.87535055679130e-02 4.25135793413349e-04
3.03279069767442e+00 5.82825466318827e-02 4.24372215150565e-04
3.07046511627907e+00 5.78153628290112e-02 4.23577316699057e-04
3.10813953488372e+00 5.73519238984285e-02 4.22752074907571e-04
3.14581395348837e+00 5.68921998232890e-02 4.21897438984617e-04
3.18348837209302e+00 5.64361608244149e-02 4.21014330867547e-04
3.22116279069767e+00 5.59837773628179e-02 4.20103645532986e-04
3.25883720930233e+00 5.55350201362890e-02 4.19166252958575e-04
3.29651162790698e+00 5.50898600774978e-02 4.18202998675149e-04
3.33418604651163e+00 5.46482683521161e-02 4.17214704621292e-04
3.37186046511628e+00 5.42102163569470e-02 4.16202169660461e-04
3.40953488372093e+00 5.37756757193428e-02 4.15166171263650e-04
3.44720930232558e+00 5.33446182915235e-02 4.14107465646659e-04
3.48488372093023e+00 5.29170161526296e-02 4.13026787866614e-04
3.52255813953488e+00 5.24928416056105e-02 4.11924853427908e-04
3.56023255813954e+00 5.20720671754285e-02 4.10802358620978e-04
3.59790697674419e+00 5.16546656072831e-02 4.09659981144734e-04
3.63558139534884e+00 5.12406098648443e-02 4.08498380431174e-04
3.67325581395349e+00 5.08298731296147e-02 4.07318199040207e-04
3.71093023255814e+00 5.04224287958239e-02 4.06120062655790e-04
3.74860465116279e+00 5.00182504721013e-02 4.04904580052644e-04
3.78627906976744e+00 4.96173119786251e-02 4.03672344443489e-04
3.82395348837209e+00 4.92195873454251e-02 4.02423933680194e-04
3.86162790697674e+00 4.88250508107034e-02 4.01159910718775e-04
3.89930232558140e+00 4.84336768191646e-02 3.99880823818335e-04
3.93697674418605e+00 4.80454400213427e-02 3.98587207722420e-04
3.97465116279070e+00 4.76603152689898e-02 3.97279583569065e-04
4.01232558139535e+00 4.72782776164398e-02 3.95958458778590e-04
4.05000000000000e+00 4.68993023179868e-02 3.94624328205423e-04
4.08767441860465e+00 4.65233648262817e-02 3.93277674248858e-04
4.12534883720930e+00 4.61504407907430e-02 3.91918967207936e-04
4.16302325581395e+00 4.57805060559805e-02 3.90548665624328e-04
4.20069767441860e+00 4.54135366602295e-02 3.89167216387445e-04
4.23837209302326e+00 4.50495088346551e-02 3.87775055732619e-04
4.27604651162791e+00 4.46883989992248e-02 3.86372609092926e-04
4.31372093023256e+00 4.43301837637886e-02 3.84960290934242e-04
4.35139534883721e+00 4.39748399256879e-02 3.83538505736911e-04
4.38906976744186e+00 4.36223444682524e-02 3.82107648038332e-04
4.42674418604651e+00 4.32726745593107e-02 3.80668102700345e-04
4.46441860465116e+00 4.29258075497104e-02 3.79220244961224e-04
4.50209302325581e+00 4.25817209726123e-02 3.77764441308131e-04
4.53976744186046e+00 4.22403925397342e-02 3.76301049301147e-04
4.57744186046512e+00 4.19018001422257e-02 3.74830417383544e-04
4.61511627906977e+00 4.15659218484573e-02 3.73352885745143e-04
4.65279069767442e+00 4.12327359025989e-02 3.71868786326487e-04
4.69046511627907e+00 4.09022207232130e-02 3.70378443030578e-04
4.72813953488372e+00 4.05743549018550e-02 3.68882171738703e-04
4.76581395348837e+00 4.02491172023669e-02 3.67380281080835e-04
4.80348837209302e+00 3.99264865574474e-02 3.65873072244847e-04
4.84116279069767e+00 3.96064420693569e-02 3.64360838774399e-04
4.87883720930233e+00 3.92889630078687e-02 3.62843867335110e-04
4.91651162790698e+00 3.89740288089249e-02 3.61322437692851e-04
4.95418604651163e+00 3.86616190733071e-02 3.59796822883712e-04
4.99186046511628e+00 3.83517135653140e-02 3.58267289205072e-04
5.02953488372093e+00 3.80442922120582e-02 3.56734096901596e-04
5.06720930232558e+00 3.77393351003288e-02 3.55197499968154e-04
5.10488372093023e+00 3.74368224771529e-02 3.53657745943248e-04
5.14255813953488e+00 3.71367347478939e-02 3.52115076593819e-04
5.18023255813953e+00 3.68390524749823e-02 3.50569727876484e-04
5.21790697674419e+00 3.65437563766576e-02 3.49021930075544e-04
5.25558139534884e+00 3.62508273257187e-02 3.47471907777054e-04
5.29325581395349e+00 3.59602463488313e-02 3.45919880483846e-04
5.33093023255814e+00 3.56719946236491e-02 3.44366062417787e-04
5.36860465116279e+00 3.53860534792559e-02 3.42810662313915e-04
5.40627906976744e+00 3.51024043943989e-02 3.41253884036143e-04
5.44395348837209e+00 3.48210289962880e-02 3.39695926527399e-04
5.48162790697674e+00 3.45419090594068e-02 3.38136983922866e-04
5.51930232558140e+00 3.42650265043321e-02 3.36577245512548e-04
5.55697674418605e+00 3.39903633970536e-02 3.35016896295709e-04
5.59465116279070e+00 3.37179019463281e-02 3.33456116786109e-04
5.63232558139535e+00 3.34476245040221e-02 3.31895082810261e-04
5.67000000000000e+00 3.31795135634669e-02 3.30333966063751e-04
5.70767441860465e+00 3.29135517583239e-02 3.28772934054311e-04
5.74534883720930e+00 3.26497218614605e-02 3.27212150195645e-04
5.78302325581395e+00 3.23880067838344e-02 3.25651773899176e-04
5.82069767441860e+00 3.21283895733862e-02 3.24091960528001e-04
5.85837209302326e+00 3.18708534143789e-02 3.22532861892371e-04
5.89604651162791e+00 3.16153816249876e-02 3.20974626060891e-04
5.93372093023256e+00 3.13619576575490e-02 3.19417397165820e-04
5.97139534883721e+00 3.11105650970435e-02 3.17861315901347e-04
6.00906976744186e+00 3.08611876600311e-02 3.16306519461790e-04
6.04674418604651e+00 3.06138091935981e-02 3.14753141618329e-04
6.08441860465116e+00 3.03684136743095e-02 3.13201312668683e-04
6.12209302325581e+00 3.01249852075674e-02 3.11651159887589e-04
6.15976744186047e+00 2.98835080253865e-02 3.10102807345109e-04
6.19744186046512e+00 2.96439664865756e-02 3.08556375719561e-04
6.23511627906977e+00 2.94063450753209e-02 3.07011982751469e-04
6.27279069767442e+00 2.91706284001805e-02 3.05469743179878e-04
6.31046511627907e+00 2.89368011930882e-02 3.03929768806870e-04
6.34813953488372e+00 2.87048483083643e-02 3.02392168444987e-04
6.38581395348837e+00 2.84747547220928e-02 3.00857048328039e-04
6.42348837209302e+00 2.82465055300658e-02 2.99324511937249e-04
6.46116279069767e+00 2.80200859479082e-02 2.97794659822607e-04
6.49883720930233e+00 2.77954813097540e-02 2.96267590017538e-04
6.53651162790698e+00 2.75726770672961e-02 2.94743397974749e-04
6.57418604651163e+00 2.73516587888447e-02 2.93222176620876e-04
6.61186046511628e+00 2.71324121583923e-02 2.91704016302929e-04
6.64953488372093e+00 2.69149229750111e-02 2.90189005163903e-04
6.68720930232558e+00 2.66991771509517e-02 2.88677228977203e-04
6.72488372093023e+00 2.64851607117189e-02 2.87168770976759e-04
6.76255813953488e+00 2.62728597948350e-02 2.85663712236668e-04
6.80023255813953e+00 2.60622606489411e-02 2.84162131607631e-04
6.83790697674419e+00 2.58533496329078e-02 2.82664105763513e-04
6.87558139534884e+00 2.56461132149504e-02 2.81169709147688e-04
6.91325581395349e+00 2.54405379720485e-02 2.79679014317302e-04
6.95093023255814e+00 2.52366105881841e-02 2.78192091786134e-04
6.98860465116279e+00 2.50343178543773e-02 2.76709009863536e-04
7.02627906976744e+00 2.48336466675293e-02 2.75229835002672e-04
7.06395348837209e+00 2.46345840295734e-02 2.73754631738362e-04
7.10162790697674e+00 2.44371170466335e-02 2.72283462726848e-04
7.13930232558140e+00 2.42412329281891e-02 2.70816388692714e-04
7.17697674418605e+00 2.40469189865151e-02 2.69353468745166e-04
7.21465116279070e+00 2.38541626350483e-02 2.67894760229176e-04
7.25232558139535e+00 2.36629513883895e-02 2.66440318573152e-04
7.29000000000000e+00 2.34732728612206e-02 2.64990197609069e-04
7.32767441860465e+00 2.32851147675020e-02 2.63544449512035e-04
7.36534883720930e+00 2.30984649196772e-02 2.62103124834415e-04
7.40302325581395e+00 2.29133112278833e-02 2.60666272539450e-04
7.44069767441860e+00 2.27296416991678e-02 2.59233939949381e-04
7.47837209302326e+00 2.25474444369540e-02 2.57806173033178e-04
7.51604651162791e+00 2.23667076395392e-02 2.56383016266945e-04
7.55372093023256e+00 2.21874196000661e-02 2.54964512491086e-04
7.59139534883721e+00 2.20095687055180e-02 2.53550703201825e-04
7.62906976744186e+00 2.18331434359658e-02 2.52141628493019e-04
7.66674418604651e+00 2.16581323638230e-02 2.50737327085094e-04
7.70441860465116e+00 2.14845241531044e-02 2.49337836274781e-04
7.74209302325581e+00 2.13123075589135e-02 2.47943192200225e-04
7.77976744186047e+00 2.11414714260464e-02 2.46553429709295e-04
7.81744186046512e+00 2.09720046889414e-02 2.45168582224991e-04
7.85511627906977e+00 2.08038963707362e-02 2.43788682014267e-04
7.89279069767442e+00 2.06371355825576e-02 2.42413760132072e-04
7.93046511627907e+00 2.04717115228157e-02 2.41043846446437e-04
7.96813953488372e+00 2.03076134765047e-02 2.39678969589933e-04
8.00581395348837e+00 2.01448308147104e-02 2.38319157204314e-04
8.04348837209302e+00 1.99833529933121e-02 2.36964435816455e-04
8.08116279069768e+00 1.98231695529134e-02 2.35614830711555e-04
8.11883720930233e+00 1.96642701179589e-02 2.34270366181423e-04
8.15651162790698e+00 1.95066443960616e-02 2.32931065470867e-04
8.19418604651163e+00 1.93502821773371e-02 2.31596950799401e-04
8.23186046511628e+00 1.91951733337418e-02 2.30268043314699e-04
8.26953488372093e+00 1.90413078186014e-02 2.28944363318559e-04
8.30720930232558e+00 1.88886756654028e-02 2.27625930150098e-04
8.34488372093023e+00 1.87372669877097e-02 2.26312762066482e-04
8.38255813953488e+00 1.85870719783339e-02 2.25004876472391e-04
8.42023255813953e+00 1.84380809087000e-02 2.23702289868872e-04
8.45790697674419e+00 1.82902841282154e-02 2.22405017872222e-04
8.49558139534884e+00 1.81436720636452e-02 2.21113075169356e-04
8.53325581395349e+00 1.79982352186612e-02 2.19826475726818e-04
8.57093023255814e+00 1.78539641727159e-02 2.18545232680905e-04
8.60860465116279e+00 1.77108495809467e-02 2.17269358225514e-04
8.64627906976744e+00 1.75688821733979e-02 2.15998863824423e-04
8.68395348837209e+00 1.74280527544202e-02 2.14733760162622e-04
8.72162790697674e+00 1.72883522020752e-02 2.13474057162742e-04
8.75930232558140e+00 1.71497714675446e-02 2.12219763942411e-04
8.79697674418605e+00 1.70123015746992e-02 2.10970889007782e-04
8.83465116279070e+00 1.68759336190489e-02 2.09727440150181e-04
8.87232558139535e+00 1.67406587676376e-02 2.08489424340716e-04
8.91000000000000e+00 1.66064682583128e-02 2.07256847926856e-04
8.94767441860465e+00 1.64733533991578e-02 2.06029716586173e-04
8.98534883720930e+00 1.63413055679292e-02 2.04808035340698e-04
9.02302325581395e+00 1.62103162114979e-02 2.03591808571087e-04
9.06069767441861e+00 1.60803768452958e-02 2.02381039976164e-04
9.09837209302326e+00 1.59514790529059e-02 2.01175732750366e-04
9.13604651162791e+00 1.58236144850934e-02 1.99975889487442e-04
9.17372093023256e+00 1.56967748596917e-02 1.98781512082207e-04
9.21139534883721e+00 1.55709519609226e-02 1.97592601910914e-04
9.24906976744186e+00 1.54461376388644e-02 1.96409159787614e-04
9.28674418604651e+00 1.53223238089242e-02 1.95231185976535e-04
9.32441860465116e+00 1.51995024513134e-02 1.94058680153606e-04
9.36209302325581e+00 1.50776656106584e-02 1.92891641571003e-04
9.39976744186047e+00 1.49568053950947e-02 1.91730068966694e-04
9.43744186046512e+00 1.48369139761482e-02 1.90573960472155e-04
9.47511627906977e+00 1.47179835880968e-02 1.89423313779704e-04
9.51279069767442e+00 1.46000065274672e-02 1.88278126101120e-04
9.55046511627907e+00 1.44829751525357e-02 1.87138394178474e-04
9.58813953488372e+00 1.43668818828337e-02 1.86004114247596e-04
9.62581395348837e+00 1.42517191987753e-02 1.84875282190785e-04
9.66348837209302e+00 1.41374796408114e-02 1.83751893451827e-04
9.70116279069767e+00 1.40241558093075e-02 1.82633942949350e-04
9.73883720930232e+00 1.39117403639437e-02 1.81521425232164e-04
9.77651162790698e+00 1.38002260232386e-02 1.80414334440050e-04
9.81418604651163e+00 1.36896055640782e-02 1.79312664313263e-04
9.85186046511628e+00 1.35798718212479e-02 1.78216408157922e-04
9.88953488372093e+00 1.34710176870774e-02 1.77125558987734e-04
9.92720930232558e+00 1.33630361106509e-02 1.76040109444219e-04
9.96488372093023e+00 1.32559200976819e-02 1.74960051715373e-04
1.00025581395349e+01 1.31496627099492e-02 1.73885377469269e-04
1.00402325581395e+01 1.30442570653666e-02 1.72816078787248e-04
1.00779069767442e+01 1.29396963351454e-02 1.71752146654302e-04
1.01155813953488e+01 1.28359737476211e-02 1.70693571379593e-04
1.01532558139535e+01 1.27330825843680e-02 1.69640343938972e-04
1.01909302325581e+01 1.26310161808136e-02 1.68592454560960e-04
1.02286046511628e+01 1.25297679258084e-02 1.67549893565452e-04
1.02662790697674e+01 1.24293312602269e-02 1.66512650170660e-04
1.03039534883721e+01 1.23296996794733e-02 1.65480713304584e-04
1.03416279069767e+01 1.22308667301088e-02 1.64454072427938e-04
1.03793023255814e+01 1.21328260104240e-02 1.63432716312111e-04
1.04169767441860e+01 1.20355711700251e-02 1.62416633837064e-04
1.04546511627907e+01 1.19390959085069e-02 1.61405812855187e-04
1.04923255813953e+01 1.18433939778098e-02 1.60400240963719e-04
1.05300000000000e+01 1.17484591790306e-02 1.59399906287843e-04
1.05676744186047e+01 1.16542853629552e-02 1.58404796317203e-04
1.06053488372093e+01 1.15608664296606e-02 1.57414898304332e-04
1.06430232558140e+01 1.14681963281206e-02 1.56430199628238e-04
1.06806976744186e+01 1.13762690549597e-02 1.55450686723226e-04
1.07183720930233e+01 1.12850786566417e-02 1.54476345806306e-04
1.07560465116279e+01 1.11946192264891e-02 1.53507163614764e-04
1.07937209302326e+01 1.11048849051709e-02 1.52543126309301e-04
1.08313953488372e+01 1.10158698803242e-02 1.51584220189512e-04
1.08690697674419e+01 1.09275683853716e-02 1.50630430673668e-04
1.09067441860465e+01 1.08399747015810e-02 1.49681742991201e-04
1.09444186046512e+01 1.07530831552451e-02 1.48738142885029e-04
1.09820930232558e+01 1.06668881181357e-02 1.47799615566684e-04
1.10197674418605e+01 1.05813840071400e-02 1.46866146397417e-04
1.10574418604651e+01 1.04965652831378e-02 1.45937719915987e-04
1.10951162790698e+01 1.04124264529410e-02 1.45014320498282e-04
1.11327906976744e+01 1.03289620666237e-02 1.44095933026005e-04
1.11704651162791e+01 1.02461667179456e-02 1.43182541891411e-04
1.12081395348837e+01 1.01640350440018e-02 1.42274131337106e-04
1.12458139534884e+01 1.00825617248759e-02 1.41370685766276e-04
1.12834883720930e+01 1.00017414825855e-02 1.40472188825750e-04
1.13211627906977e+01 9.92156908288422e-03 1.39578624027427e-04
1.13588372093023e+01 9.84203933276407e-03 1.38689975378648e-04
1.13965116279070e+01 9.76314708084264e-03 1.37806226443250e-04
1.14341860465116e+01 9.68488721703094e-03 1.36927360952972e-04
1.14718604651163e+01 9.60725467153048e-03 1.36053361933780e-04
1.15095348837209e+01 9.53024441653215e-03 1.35184212297744e-04
1.15472093023256e+01 9.45385146384953e-03 1.34319895443489e-04
1.15848837209302e+01 9.37807086528038e-03 1.33460394361513e-04
1.16225581395349e+01 9.30289771228673e-03 1.32605691939159e-04
1.16602325581395e+01 9.22832713567693e-03 1.31755771239133e-04
1.16979069767442e+01 9.15435430466324e-03 1.30910614674858e-04
1.17355813953488e+01 9.08097442844205e-03 1.30070204568664e-04
1.17732558139535e+01 9.00818275397748e-03 1.29234523717724e-04
1.18109302325581e+01 8.93597456633302e-03 1.28403554550000e-04
1.18486046511628e+01 8.86434518836684e-03 1.27577279673543e-04
1.18862790697674e+01 8.79328997983562e-03 1.26755681090535e-04
