Energy (eV)          EEDF (eV^-(3/2))     First Anisotropy
1.42083333333333e-02 1.13285785975403e+00 1.19905610648939e-03
4.26250000000000e-02 1.10072686937429e+00 1.95848759249955e-03
7.10416666666667e-02 1.06950720305377e+00 2.52910040321644e-03
9.94583333333333e-02 1.03917301302938e+00 2.92976562782424e-03
1.27875000000000e-01 1.00969918464815e+00 3.23777023856918e-03
1.56291666666667e-01 9.81061315929692e-01 3.48335253955853e-03
1.84708333333333e-01 9.53235696524759e-01 3.68266446759196e-03
2.13125000000000e-01 9.26199288797863e-01 3.84575356358100e-03
2.41541666666667e-01 8.99929708648743e-01 3.97947160676896e-03
2.69958333333333e-01 8.74405206604418e-01 4.08878872938143e-03
2.98375000000000e-01 8.49604650187354e-01 4.17747371817040e-03
3.26791666666667e-01 8.25507506375594e-01 4.24848133559217e-03
3.55208333333333e-01 8.02093824360663e-01 4.30418891458683e-03
3.83625000000000e-01 7.79344219272944e-01 4.34654902356674e-03
4.12041666666667e-01 7.57239856108020e-01 4.37719241342540e-03
4.40458333333333e-01 7.35762433961019e-01 4.39749994041533e-03
4.68875000000000e-01 7.14894171047632e-01 4.40865436214329e-03
4.97291666666667e-01 6.94617789966488e-01 4.41167862711218e-03
5.25708333333333e-01 6.74916503266387e-01 4.40746477600190e-03
5.54125000000000e-01 6.55773999676998e-01 4.39679619163944e-03
5.82541666666667e-01 6.37174430593518e-01 4.38036503782143e-03
6.10958333333333e-01 6.19102396855795e-01 4.35878610298038e-03
6.39375000000000e-01 6.01542936099357e-01 4.33260794884990e-03
6.67791666666667e-01 5.84481510359791e-01 4.30232201217670e-03
6.96208333333333e-01 5.67903993957480e-01 4.26837008953817e-03
7.24625000000000e-01 5.51796661882347e-01 4.23115056350696e-03
7.53041666666667e-01 5.36146178424602e-01 4.19102364128462e-03
7.81458333333333e-01 5.20939586069954e-01 4.14831577520564e-03
8.09875000000000e-01 5.06164294836292e-01 4.10332343027702e-03
8.38291666666667e-01 4.91808071845471e-01 4.05631632863707e-03
8.66708333333333e-01 4.77859031143074e-01 4.00754024078350e-03
8.95125000000000e-01 4.64305623910671e-01 3.95721940947624e-03
9.23541666666667e-01 4.51136628900582e-01 3.90555867593419e-03
9.51958333333333e-01 4.38341143102102e-01 3.85274533617794e-03
9.80375000000000e-01 4.25908572758566e-01 3.79895077700771e-03
1.00879166666667e+00 4.13828624593534e-01 3.74433193268358e-03
1.03720833333333e+00 4.02091297252380e-01 3.68903257362669e-03
1.06562500000000e+00 3.90686873026825e-01 3.63318444146459e-03
1.09404166666667e+00 3.79605909964434e-01 3.57690830416022e-03
1.12245833333333e+00 3.68839233709823e-01 3.52031486845669e-03
1.15087500000000e+00 3.58377930219794e-01 3.46350558495626e-03
1.17929166666667e+00 3.48213338363393e-01 3.40657344460627e-03
1.20770833333333e+00 3.38337042491057e-01 3.34960363607811e-03
1.23612500000000e+00 3.28740865731073e-01 3.29267414138994e-03
1.26454166666667e+00 3.19416863203263e-01 3.23585633699212e-03
1.29295833333333e+00 3.10357315219158e-01 3.17921548508591e-03
1.32137500000000e+00 3.01554721116120e-01 3.12281118160363e-03
1.34979166666667e+00 2.93001793033537e-01 3.06669781874799e-03
1.37820833333333e+00 2.84691449688492e-01 3.01092495863137e-03
1.40662500000000e+00 2.76616810706467e-01 2.95553767572932e-03
1.43504166666667e+00 2.68771190913219e-01 2.90057691856166e-03
1.46345833333333e+00 2.61148094635819e-01 2.84607979789859e-03
1.49187500000000e+00 2.53741210491433e-01 2.79207985204362e-03
1.52029166666667e+00 2.46544406152042e-01 2.73860733342491e-03
1.54870833333333e+00 2.39551723125392e-01 2.68568943349050e-03
1.57712500000000e+00 2.32757371965999e-01 2.63335049044555e-03
1.60554166666667e+00 2.26155727473441e-01 2.58161221885507e-03
1.63395833333333e+00 2.19741323911967e-01 2.53049388679151e-03
1.66237500000000e+00 2.13508850610392e-01 2.48001247993962e-03
1.69079166666667e+00 2.07453147557984e-01 2.43018288723016e-03
1.71920833333333e+00 2.01569201025207e-01 2.38101804143300e-03
1.74762500000000e+00 1.95852139521611e-01 2.33252904970327e-03
1.77604166666667e+00 1.90297229756335e-01 2.28472534480807e-03
1.80445833333333e+00 1.84899872625811e-01 2.23761479737206e-03
1.83287500000000e+00 1.79655599501054e-01 2.19120382029593e-03
1.86129166666667e+00 1.74560068522560e-01 2.14549749272878e-03
1.88970833333333e+00 1.69609060923808e-01 2.10049965008715e-03
1.91812500000000e+00 1.64798477621534e-01 2.05621296791753e-03
1.94654166666667e+00 1.60124335817305e-01 2.01263906405257e-03
1.97495833333333e+00 1.55582765628392e-01 1.96977857103808e-03
2.00337500000000e+00 1.51170006956645e-01 1.92763120367812e-03
2.03179166666667e+00 1.46882406371323e-01 1.88619584356919e-03
2.06020833333333e+00 1.42716414021398e-01 1.84547059749143e-03
2.08862500000000e+00 1.38668580760513e-01 1.80545285190196e-03
2.11704166666667e+00 1.34735555287792e-01 1.76613934312330e-03
2.14545833333333e+00 1.30914081317841e-01 1.72752620445975e-03
2.17387500000000e+00 1.27200994941076e-01 1.68960901018368e-03
2.20229166666667e+00 1.23593222001135e-01 1.65238283396661e-03
2.23070833333333e+00 1.20087775500907e-01 1.61584228688656e-03
2.25912500000000e+00 1.16681753179135e-01 1.57998155291027e-03
2.28754166666667e+00 1.13372335104833e-01 1.54479443763219e-03
2.31595833333333e+00 1.10156781299526e-01 1.51027439888768e-03
2.34437500000000e+00 1.07032429512546e-01 1.47641457532131e-03
2.37279166666667e+00 1.03996693014490e-01 1.44320782709652e-03
2.40120833333333e+00 1.01047058417542e-01 1.41064676048349e-03
2.42962500000000e+00 9.81810836332752e-02 1.37872375078602e-03
2.45804166666667e+00 9.53963958486904e-02 1.34743097637105e-03
2.48645833333333e+00 9.26906895280069e-02 1.31676043833126e-03
2.51487500000000e+00 9.00617245381143e-02 1.28670397879603e-03
2.54329166666667e+00 8.75073242920591e-02 1.25725330938310e-03
2.57170833333333e+00 8.50253739171344e-02 1.22840002682600e-03
2.60012500000000e+00 8.26138185342872e-02 1.20013562750003e-03
2.62854166666667e+00 8.02706615552001e-02 1.17245153120236e-03
2.65695833333333e+00 7.79939630027743e-02 1.14533909346822e-03
2.68537500000000e+00 7.57818379319140e-02 1.11878961698903e-03
2.71379166666667e+00 7.36324548674903e-02 1.09279437147017e-03
2.74220833333333e+00 7.15440342644897e-02 1.06734460322735e-03
2.77062500000000e+00 6.95148470586110e-02 1.04243154405143e-03
2.79904166666667e+00 6.75432132334541e-02 1.01804642776578e-03
2.82745833333333e+00 6.56275004086752e-02 9.94180497588536e-04
2.85587500000000e+00 6.37661225097708e-02 9.70825012899400e-04
2.88429166666667e+00 6.19575384537981e-02 9.47971263015779e-04
2.91270833333333e+00 6.02002508548586e-02 9.25610572720614e-04
2.94112500000000e+00 5.84928048033070e-02 9.03734307306695e-04
2.96954166666667e+00 5.68337866601930e-02 8.82333884006113e-04
2.99795833333333e+00 5.52218228702951e-02 8.61400776013847e-04
3.02637500000000e+00 5.36555788417820e-02 8.40926516120050e-04
3.05479166666667e+00 5.21337578403820e-02 8.20902706157849e-04
3.08320833333333e+00 5.06550999010042e-02 8.01321019796105e-04
3.11162500000000e+00 4.92183807996142e-02 7.82173205016875e-04
3.14004166666667e+00 4.78224110388789e-02 7.63451091888995e-04
3.16845833333333e+00 4.64660348501658e-02 7.45146594356800e-04
3.19687500000000e+00 4.51481292500647e-02 7.27251711776396e-04
3.22529166666667e+00 4.38676031099393e-02 7.09758535274593e-04
3.25370833333333e+00 4.26233962407820e-02 6.92659248721992e-04
3.28212500000000e+00 4.14144785274308e-02 6.75946129505569e-04
3.31054166666667e+00 4.02398490750863e-02 6.59611553692659e-04
3.33895833333333e+00 3.90985353701273e-02 6.43647996345074e-04
3.36737500000000e+00 3.79895924856412e-02 6.28048031675642e-04
3.39579166666667e+00 3.69121022985386e-02 6.12804337203524e-04
3.42420833333333e+00 3.58651727200116e-02 5.97909693539684e-04
3.45262500000000e+00 3.48479369665170e-02 5.83356984050273e-04
3.48104166666667e+00 3.38595528416479e-02 5.69139198161343e-04
3.50945833333333e+00 3.28992020304446e-02 5.55249430724143e-04
3.53787500000000e+00 3.19660894304494e-02 5.41680881287642e-04
3.56629166666667e+00 3.10594424929778e-02 5.28426856686992e-04
3.59470833333333e+00 3.01785105759750e-02 5.15480770078830e-04
3.62312500000000e+00 2.93225643302009e-02 5.02836139907980e-04
3.65154166666667e+00 2.84908950949888e-02 4.90486591893980e-04
3.67995833333333e+00 2.76828143047804e-02 4.78425857811352e-04
3.70837500000000e+00 2.68976529259081e-02 4.66647774221107e-04
3.73679166666667e+00 2.61347609023309e-02 4.55146283952638e-04
3.76520833333333e+00 2.53935066113916e-02 4.43915434691115e-04
3.79362500000000e+00 2.46732763470298e-02 4.32949377532416e-04
3.82204166666667e+00 2.39734738113635e-02 4.22242368043231e-04
3.85045833333333e+00 2.32935196155779e-02 4.11788764707057e-04
3.87887500000000e+00 2.26328508057491e-02 4.01583027351018e-04
3.90729166666667e+00 2.19909203964780e-02 3.91619717854715e-04
3.93570833333333e+00 2.13671969131634e-02 3.81893498497340e-04
3.96412500000000e+00 2.07611639569286e-02 3.72399130296390e-04
3.99254166666667e+00 2.01723197768281e-02 3.63131473425336e-04
4.02095833333333e+00 1.96001768500704e-02 3.54085485496781e-04
4.04937500000000e+00 1.90442614828258e-02 3.45256219845941e-04
4.07779166666667e+00 1.85041134178172e-02 3.36638825708261e-04
4.10620833333333e+00 1.79792854493409e-02 3.28228546467247e-04
4.13462500000000e+00 1.74693430570016e-02 3.20020717909572e-04
4.16304166666667e+00 1.69738640457587e-02 3.12010768206131e-04
4.19145833333333e+00 1.64924381928588e-02 3.04194216147839e-04
4.21987500000000e+00 1.60246669117844e-02 2.96566669394218e-04
4.24829166666667e+00 1.55701629220715e-02 2.89123824294816e-04
4.27670833333333e+00 1.51285499255057e-02 2.81861464131804e-04
4.30512500000000e+00 1.46994622977947e-02 2.74775457379657e-04
4.33354166666667e+00 1.42825447856955e-02 2.67861757398301e-04
4.36195833333333e+00 1.38774522100452e-02 2.61116400697571e-04
4.39037500000000e+00 1.34838491828737e-02 2.54535505222056e-04
4.41879166666667e+00 1.31014098295806e-02 2.48115269942521e-04
4.44720833333333e+00 1.27298175165756e-02 2.41851973154175e-04
4.47562500000000e+00 1.23687645917334e-02 2.35741970797767e-04
4.50404166666667e+00 1.20179521295494e-02 2.29781695971727e-04
4.53245833333333e+00 1.16770896813478e-02 2.23967657273545e-04
4.56087500000000e+00 1.13458950371553e-02 2.18296437165734e-04
4.58929166666667e+00 1.10240939919339e-02 2.12764691427612e-04
4.61770833333333e+00 1.07114201164859e-02 2.07369147546892e-04
4.64612500000000e+00 1.04076145389800e-02 2.02106603137022e-04
4.67454166666667e+00 1.01124257305184e-02 1.96973925344558e-04
4.70295833333333e+00 9.82560929502222e-03 1.91968049296209e-04
4.73137500000000e+00 9.54692776878939e-03 1.87085976572353e-04
4.75979166666667e+00 9.27615042379670e-03 1.82324774583331e-04
4.78820833333333e+00 9.01305307499239e-03 1.77681575075700e-04
4.81662500000000e+00 8.75741789639861e-03 1.73153572665276e-04
4.84504166666667e+00 8.50903324068156e-03 1.68738024193472e-04
4.87345833333333e+00 8.26769346240804e-03 1.64432247295233e-04
4.90187500000000e+00 8.03319874932788e-03 1.60233618993781e-04
4.93029166666667e+00 7.80535495686690e-03 1.56139575046229e-04
4.95870833333333e+00 7.58397344602378e-03 1.52147608574648e-04
4.98712500000000e+00 7.36887092858057e-03 1.48255268723681e-04
5.01554166666667e+00 7.15986931528398e-03 1.44460160003071e-04
5.04395833333333e+00 6.95679556716926e-03 1.40759940982429e-04
5.07237500000000e+00 6.75948155354965e-03 1.37152323012110e-04
5.10079166666667e+00 6.56776391275395e-03 1.33635069568901e-04
5.12920833333333e+00 6.38148391576455e-03 1.30205995014379e-04
5.15762500000000e+00 6.20048733593153e-03 1.26862963378789e-04
5.18604166666667e+00 6.02462432122793e-03 1.23603887714946e-04
5.21445833333333e+00 5.85374926918148e-03 1.20426728919516e-04
5.24287500000000e+00 5.68772070734593e-03 1.17329494579115e-04
5.27129166666667e+00 5.52640117612144e-03 1.14310238336483e-04
5.29970833333333e+00 5.36965711404408e-03 1.11367058773585e-04
5.32812500000000e+00 5.21735874812678e-03 1.08498098318711e-04
5.35654166666667e+00 5.06937998637097e-03 1.05701542628143e-04
5.38495833333333e+00 4.92559831255570e-03 1.02975619529611e-04
5.41337500000000e+00 4.78589468563359e-03 1.00318597988857e-04
5.44179166666667e+00 4.65015344113231e-03 9.77287875092937e-05
5.47020833333333e+00 4.51826219465613e-03 9.52045371340795e-05
5.49862500000000e+00 4.39011174958967e-03 9.27442344703694e-05
5.52704166666667e+00 4.26559600665381e-03 9.03463051088357e-05
5.55545833333333e+00 4.14461187539805e-03 8.80092116824252e-05
5.58387500000000e+00 4.02705918952616e-03 8.57314529463400e-05
5.61229166666667e+00 3.91284062393230e-03 8.35115632187854e-05
5.64070833333333e+00 3.80186161352196e-03 8.13481114943169e-05
5.66912500000000e+00 3.69403027553065e-03 7.92397005774496e-05
5.69754166666667e+00 3.58925733342134e-03 7.71849665455756e-05
5.72595833333333e+00 3.48745604242707e-03 7.51825779147166e-05
5.75437500000000e+00 3.38854211828525e-03 7.32312348245645e-05
5.78279166666667e+00 3.29243366742909e-03 7.13296685241483e-05
5.81120833333333e+00 3.19905111869504e-03 6.94766405877418e-05
5.83962500000000e+00 3.10831715794307e-03 6.76709421490946e-05
5.86804166666667e+00 3.02015666402154e-03 6.59113934101284e-05
5.89645833333333e+00 2.93449664612885e-03 6.41968429047167e-05
5.92487500000000e+00 2.85126618383379e-03 6.25261667798422e-05
5.95329166666667e+00 2.77039636833632e-03 6.08982683273517e-05
5.98170833333333e+00 2.69182024501511e-03 5.93120772933268e-05
6.01012500000000e+00 2.61547275840215e-03 5.77665492039036e-05
6.03854166666667e+00 2.54129069830145e-03 5.62606649199145e-05
6.06695833333333e+00 2.46921264709295e-03 5.47934299895836e-05
6.09537500000000e+00 2.39917892925234e-03 5.33638740167647e-05
6.12379166666667e+00 2.33113156192583e-03 5.19710502381401e-05
6.15220833333333e+00 2.26501420659669e-03 5.06140349170058e-05
6.18062500000000e+00 2.20077212277480e-03 4.92919267517245e-05
6.20904166666667e+00 2.13835212265913e-03 4.80038464750112e-05
6.23745833333333e+00 2.07770252680540e-03 4.67489362866250e-05
6.26587500000000e+00 2.01877312164128e-03 4.55263592998863e-05
6.29429166666667e+00 1.96151511787832e-03 4.43352991624811e-05
6.32270833333333e+00 1.90588110984958e-03 4.31749595259295e-05
6.35112500000000e+00 1.85182503653437e-03 4.20445635280695e-05
6.37954166666667e+00 1.79930214340969e-03 4.09433534347365e-05
6.40795833333333e+00 1.74826894515381e-03 3.98705901439487e-05
6.43637500000000e+00 1.69868318989085e-03 3.88255527023296e-05
6.46479166666667e+00 1.65050382419716e-03 3.78075379669510e-05
6.49320833333333e+00 1.60369095889222e-03 3.68158601422490e-05
6.52162500000000e+00 1.55820583623705e-03 3.58498503284349e-05
6.55004166666667e+00 1.51401079783474e-03 3.49088562027463e-05
6.57845833333333e+00 1.47106925325289e-03 3.39922415871832e-05
6.60687500000000e+00 1.42934564993206e-03 3.30993860270288e-05
6.63529166666667e+00 1.38880544374091e-03 3.22296844907315e-05
6.66370833333333e+00 1.34941507019588e-03 3.13825469666264e-05
6.69212500000000e+00 1.31114191685578e-03 3.05573980697690e-05
6.72054166666667e+00 1.27395429631204e-03 2.97536767596478e-05
6.74895833333333e+00 1.23782141979057e-03 2.89708359641433e-05
6.77737500000000e+00 1.20271337182714e-03 2.82083422129562e-05
6.80579166666667e+00 1.16860108549134e-03 2.74656753723471e-05
6.83420833333333e+00 1.13545631817343e-03 2.67423282946589e-05
6.86262500000000e+00 1.10325162835208e-03 2.60378064767056e-05
6.89104166666667e+00 1.07196035286735e-03 2.53516278107333e-05
6.91945833333333e+00 1.04155658471163e-03 2.46833222579193e-05
6.94787500000000e+00 1.01201515171684e-03 2.40324315301640e-05
6.97629166666667e+00 9.83311595707075e-04 2.33985088564760e-05
7.00470833333333e+00 9.55422152127615e-04 2.27811186789394e-05
7.03312500000000e+00 9.28323730493163e-04 2.21798363564312e-05
7.06154166666667e+00 9.01993895264560e-04 2.15942479456469e-05
7.08995833333333e+00 8.76410847163811e-04 2.10239499181061e-05
7.11837500000000e+00 8.51553405237816e-04 2.04685488843964e-05
7.14679166666667e+00 8.27400989316618e-04 1.99276613890712e-05
7.17520833333333e+00 8.03933602874844e-04 1.94009136473400e-05
7.20362500000000e+00 7.81131816577493e-04 1.88879412885160e-05
7.23204166666667e+00 7.58976752188912e-04 1.83883891640408e-05
7.26045833333333e+00 7.37450066852639e-04 1.79019111025793e-05
7.28887500000000e+00 7.16533937996821e-04 1.74281696714208e-05
7.31729166666667e+00 6.96211048573932e-04 1.69668359969055e-05
7.34570833333333e+00 6.76464572641613e-04 1.65175895367190e-05
7.37412500000000e+00 6.57278161515390e-04 1.60801178580685e-05
7.40254166666667e+00 6.38635930229084e-04 1.56541164698117e-05
7.43095833333333e+00 6.20522444308954e-04 1.52392886108138e-05
7.45937500000000e+00 6.02922707070669e-04 1.48353450437870e-05
7.48779166666667e+00 5.85822147199460e-04 1.44420038984500e-05
7.51620833333333e+00 5.69206606618786e-04 1.40589904748776e-05
7.54462500000000e+00 5.53062328837031e-04 1.36860370519581e-05
7.57304166666667e+00 5.37375947554787e-04 1.33228827409378e-05
7.60145833333333e+00 5.22134475537454e-04 1.29692733027570e-05
7.62987500000000e+00 5.07325293924928e-04 1.26249609701427e-05
7.65829166666667e+00 4.92936141781074e-04 1.22897043109209e-05
7.68670833333333e+00 4.78955105887162e-04 1.19632680583936e-05
7.71512500000000e+00 4.65370610934984e-04 1.16454229461436e-05
7.74354166666667e+00 4.52171409940595e-04 1.13359455805256e-05
7.77195833333333e+00 4.39346574882369e-04 1.10346182831968e-05
7.80037500000000e+00 4.26885487704555e-04 1.07412289377688e-05
7.82879166666667e+00 4.14777831523806e-04 1.04555708709149e-05
7.85720833333333e+00 4.03013582041956e-04 1.01774427062234e-05
7.88562500000000e+00 3.91582999293041e-04 9.90664822188331e-06
7.91404166666667e+00 3.80476619577062e-04 9.64299623987584e-06
7.94245833333333e+00 3.69685247583358e-04 9.38630049037022e-06
7.97087500000000e+00 3.59199948819664e-04 9.13637947968316e-06
7.99929166666667e+00 3.49012042212966e-04 8.89305638704737e-06
8.02770833333333e+00 3.39113092884648e-04 8.65615893882050e-06
8.05612500000000e+00 3.29494905205253e-04 8.42551928600676e-06
8.08454166666667e+00 3.20149516007234e-04 8.20097390812258e-06
8.11295833333333e+00 3.11069187957960e-04 7.98236349653594e-06
8.14137500000000e+00 3.02246403188450e-04 7.76953284088377e-06
8.16979166666667e+00 2.93673857067442e-04 7.56233073958086e-06
8.19820833333333e+00 2.85344452122761e-04 7.36060989165152e-06
8.22662500000000e+00 2.77251292196607e-04 7.16422679142029e-06
8.25504166666667e+00 2.69387676734516e-04 6.97304164523533e-06
8.28345833333333e+00 2.61747095209708e-04 6.78691827119582e-06
8.31187500000000e+00 2.54323221761422e-04 6.60572400153423e-06
8.34029166666667e+00 2.47109909956183e-04 6.42932960514929e-06
8.36870833333333e+00 2.40101187673504e-04 6.25760919467229e-06
8.39712500000000e+00 2.33291252187358e-04 6.09044013599812e-06
8.42554166666667e+00 2.26674465360682e-04 5.92770297624644e-06
8.45395833333333e+00 2.20245348954264e-04 5.76928135764690e-06
8.48237500000000e+00 2.13998580114719e-04 5.61506193371183e-06
8.51079166666667e+00 2.07928986966415e-04 5.46493430226658e-06
8.53920833333333e+00 2.02031544308511e-04 5.31879092566886e-06
8.56762500000000e+00 1.96301369475858e-04 5.17652705315054e-06
8.59604166666667e+00 1.90733718295466e-04 5.03804065857908e-06
8.62445833333333e+00 1.85323981139588e-04 4.90323236655893e-06
8.65287500000000e+00 1.80067679128712e-04 4.77200538050178e-06
8.68129166666667e+00 1.74960460422434e-04 4.64426542480160e-06
8.70970833333333e+00 1.69998096599114e-04 4.51992067639669e-06
8.73812500000000e+00 1.65176479172696e-04 4.39888169815787e-06
8.76654166666667e+00 1.60491616190329e-04 4.28106138517893e-06
8.79495833333333e+00 1.55939628911568e-04 4.16637490140690e-06
8.82337500000000e+00 1.51516748613093e-04 4.05473961796552e-06
8.85179166666667e+00 1.47219313467702e-04 3.94607506328157e-06
8.88020833333333e+00 1.43043765498280e-04 3.84030286441784e-06
8.90862500000000e+00 1.38986647646610e-04 3.73734668997595e-06
8.93704166666667e+00 1.35044600910485e-04 3.63713220379629e-06
8.96545833333333e+00 1.31214361549689e-04 3.53958701065368e-06
