Energy (eV)          EEDF (eV^-(3/2))     First Anisotropy
2.48333333333333e-02 1.36514604729201e+00 2.01032464581073e-03
7.45000000000000e-02 1.28883982250388e+00 3.23772528825716e-03
1.24166666666667e-01 1.21679881174097e+00 4.06257066576857e-03
1.73833333333333e-01 1.14878460642025e+00 4.57281278632308e-03
2.23500000000000e-01 1.08457212405305e+00 4.91034779014920e-03
2.73166666666667e-01 1.02394886379232e+00 5.13309547040407e-03
3.22833333333333e-01 9.66714202163876e-01 5.27302399303391e-03
3.72500000000000e-01 9.12678730017881e-01 5.35050447678975e-03
4.22166666666667e-01 8.61663625555756e-01 5.37965438920178e-03
4.71833333333333e-01 8.13500062129775e-01 5.37080421009216e-03
5.21500000000000e-01 7.68028649963593e-01 5.33180258431512e-03
5.71166666666667e-01 7.25098908613885e-01 5.26877598509192e-03
6.20833333333333e-01 6.84568768731736e-01 5.18660325671495e-03
6.70500000000000e-01 6.46304102159520e-01 5.08922873585999e-03
7.20166666666667e-01 6.10178278020901e-01 4.97987808774978e-03
7.69833333333333e-01 5.76071743495133e-01 4.86121243230720e-03
8.19500000000000e-01 5.43871628340724e-01 4.73544169646430e-03
8.69166666666667e-01 5.13471371348393e-01 4.60441007286024e-03
9.18833333333333e-01 4.84770367583248e-01 4.46966178498022e-03
9.68500000000000e-01 4.57673635561897e-01 4.33249261506144e-03
1.01816666666667e+00 4.32091502912577e-01 4.19399091005638e-03
1.06783333333333e+00 4.07939309540210e-01 4.05507063275859e-03
1.11750000000000e+00 3.85137127476599e-01 3.91649829956693e-03
1.16716666666667e+00 3.63609496661823e-01 3.77891520613219e-03
1.21683333333333e+00 3.43285174576780e-01 3.64285586055259e-03
1.26650000000000e+00 3.24096901065272e-01 3.50876339676063e-03
1.31616666666667e+00 3.05981175681576e-01 3.37700263176923e-03
1.36583333333333e+00 2.88878047123038e-01 3.24787107517799e-03
1.41550000000000e+00 2.72730915267118e-01 3.12160830879642e-03
1.46516666666667e+00 2.57486343814683e-01 2.99840406576750e-03
1.51483333333333e+00 2.43093883133006e-01 2.87840512503385e-03
1.56450000000000e+00 2.29505903629183e-01 2.76172125482461e-03
1.61416666666667e+00 2.16677438092426e-01 2.64843039311787e-03
1.66383333333333e+00 2.04566032640196e-01 2.53858310066745e-03
1.71350000000000e+00 1.93131606473876e-01 2.43220642935222e-03
1.76316666666667e+00 1.82336319211402e-01 2.32930732209203e-03
1.81283333333333e+00 1.72144445474671e-01 2.22987554595165e-03
1.86250000000000e+00 1.62522256854167e-01 2.13388625167954e-03
1.91216666666667e+00 1.53437910270201e-01 2.04130223612479e-03
1.96183333333333e+00 1.44861342449455e-01 1.95207589512809e-03
2.01150000000000e+00 1.36764170584057e-01 1.86615093092862e-03
2.06116666666667e+00 1.29119598387925e-01 1.78346386674904e-03
2.11083333333333e+00 1.21902327306668e-01 1.70394535111446e-03
2.16050000000000e+00 1.15088472911901e-01 1.62752129757184e-03
2.21016666666667e+00 1.08655485847747e-01 1.55411389738668e-03
2.25983333333333e+00 1.02582077119563e-01 1.48364248684868e-03
2.30950000000000e+00 9.68481477321638e-02 1.41602430267928e-03
2.35916666666667e+00 9.14347221662465e-02 1.35117515307743e-03
2.40883333333333e+00 8.63238855128475e-02 1.28900998695650e-03
2.45850000000000e+00 8.14987242582489e-02 1.22944338646369e-03
2.50816666666667e+00 7.69432703042515e-02 1.17239000337512e-03
2.55783333333333e+00 7.26424480696921e-02 1.11776492359429e-03
2.60750000000000e+00 6.85820246566844e-02 1.06548397885824e-03
2.65716666666667e+00 6.47485627434991e-02 1.01546402129444e-03
2.70683333333333e+00 6.11293760725679e-02 9.67623146955104e-04
2.75650000000000e+00 5.77124875121421e-02 9.21880883057564e-04
2.80616666666667e+00 5.44865894154578e-02 8.78158350958567e-04
2.85583333333333e+00 5.14410061653998e-02 8.36378392858957e-04
2.90550000000000e+00 4.85656588809134e-02 7.96465673704755e-04
2.95516666666667e+00 4.58510320590498e-02 7.58346767621894e-04
3.00483333333333e+00 4.32881420573993e-02 7.21950218606535e-04
3.05450000000000e+00 4.08685073926312e-02 6.87206584466386e-04
3.10416666666667e+00 3.85841206695925e-02 6.54048471316700e-04
3.15383333333333e+00 3.64274220600777e-02 6.22410549890968e-04
3.20350000000000e+00 3.43912743075722e-02 5.92229560767099e-04
3.25316666666667e+00 3.24689391054214e-02 5.63444314257203e-04
3.30283333333333e+00 3.06540547798011e-02 5.35995677563612e-04
3.35250000000000e+00 2.89406152550578e-02 5.09826554834517e-04
3.40216666666667e+00 2.73229501757854e-02 4.84881864665628e-04
3.45183333333333e+00 2.57957061274741e-02 4.61108508807144e-04
3.50150000000000e+00 2.43538289349413e-02 4.38455336563683e-04
3.55116666666667e+00 2.29925469349237e-02 4.16873108497752e-04
3.60083333333333e+00 2.17073551735669e-02 3.96314454183890e-04
3.65050000000000e+00 2.04940005098443e-02 3.76733827600599e-04
3.70016666666667e+00 1.93484675393239e-02 3.58087463037119e-04
3.74983333333333e+00 1.82669652965842e-02 3.40333327100863e-04
3.79950000000000e+00 1.72459147191797e-02 3.23431069700921e-04
3.84916666666667e+00 1.62819368023860e-02 3.07341976306710e-04
3.89883333333333e+00 1.53718414094491e-02 2.92028917776561e-04
3.94850000000000e+00 1.45126167220668e-02 2.77456300066755e-04
3.99816666666667e+00 1.37014192725149e-02 2.63590015662509e-04
4.04783333333333e+00 1.29355645275939e-02 2.50397393623400e-04
4.09750000000000e+00 1.22125180108524e-02 2.37847150103584e-04
4.14716666666667e+00 1.15298869145441e-02 2.25909340824750e-04
4.19683333333333e+00 1.08854121761044e-02 2.14555312897099e-04
4.24650000000000e+00 1.02769610072188e-02 2.03757657488811e-04
4.29616666666667e+00 9.70251983521602e-03 1.93490164532228e-04
4.34583333333333e+00 9.16018763548569e-03 1.83727777284305e-04
4.39550000000000e+00 8.64816964446157e-03 1.74446547953377e-04
4.44516666666667e+00 8.16477141974562e-03 1.65623595348877e-04
4.49483333333333e+00 7.70839322938170e-03 1.57237062725887e-04
4.54450000000000e+00 7.27752476114781e-03 1.49266076804825e-04
4.59416666666667e+00 6.87074012410055e-03 1.41690708737435e-04
4.64383333333333e+00 6.48669312717978e-03 1.34491935487980e-04
4.69350000000000e+00 6.12411282693057e-03 1.27651602423413e-04
4.74316666666667e+00 5.78179932126003e-03 1.21152387734825e-04
4.79283333333333e+00 5.45861977640435e-03 1.14977767407945e-04
4.84250000000000e+00 5.15350468021764e-03 1.09111981386074e-04
4.89216666666667e+00 4.86544430258177e-03 1.03540001428034e-04
4.94183333333333e+00 4.59348535211333e-03 9.82474995874133e-05
4.99150000000000e+00 4.33672782320963e-03 9.32208178349799e-05
5.04116666666667e+00 4.09432201745249e-03 8.84469392305140e-05
5.09083333333333e+00 3.86546573023626e-03 8.39134597448831e-05
5.14050000000000e+00 3.64940159747873e-03 7.96085611560262e-05
5.19016666666667e+00 3.44541458910584e-03 7.55209853474064e-05
5.23983333333333e+00 3.25282964160482e-03 7.16400092559182e-05
5.28950000000000e+00 3.07100942521759e-03 6.79554208133929e-05
5.33916666666667e+00 2.89935223468576e-03 6.44574961475845e-05
5.38883333333333e+00 2.73728999704693e-03 6.11369774119711e-05
5.43850000000000e+00 2.58428639267624e-03 5.79850515240810e-05
5.48816666666667e+00 2.43983508032897e-03 5.49933300275996e-05
5.53783333333333e+00 2.30345802070252e-03 5.21538295500190e-05
5.58750000000000e+00 2.17470389525044e-03 4.94589530832742e-05
5.63716666666667e+00 2.05314661253958e-03 4.69014722616962e-05
5.68683333333333e+00 1.93838389752755e-03 4.44745101948007e-05
5.73650000000000e+00 1.83003596096011e-03 4.21715250399263e-05
5.78616666666667e+00 1.72774424245696e-03 3.99862944559498e-05
5.83583333333333e+00 1.63117022338801e-03 3.79129005673888e-05
5.88550000000000e+00 1.53999430714290e-03 3.59457155894498e-05
5.93516666666667e+00 1.45391476142611e-03 3.40793882284502e-05
5.98483333333333e+00 1.37264671929104e-03 3.23088305470359e-05
6.03450000000000e+00 1.29592123686373e-03 3.06292054167464e-05
6.08416666666667e+00 1.22348440327415e-03 2.90359146506593e-05
6.13383333333333e+00 1.15509650002503e-03 2.75245875558681e-05
6.18350000000000e+00 1.09053120804723e-03 2.60910700055685e-05
6.23316666666667e+00 1.02957485869863e-03 2.47314141059139e-05
6.28283333333333e+00 9.72025726371331e-04 2.34418682395366e-05
6.33250000000000e+00 9.17693361213125e-04 2.22188675669907e-05
6.38216666666667e+00 8.66397958835942e-04 2.10590250470283e-05
6.43183333333333e+00 8.17969765043241e-04 1.99591227929079e-05
6.48150000000000e+00 7.72248514302181e-04 1.89161038309141e-05
6.53116666666667e+00 7.29082899347323e-04 1.79270643104555e-05
6.58083333333333e+00 6.88330070257126e-04 1.69892460125051e-05
6.63050000000000e+00 6.49855161917667e-04 1.61000292102923e-05
6.68016666666667e+00 6.13530847689089e-04 1.52569259222479e-05
6.72983333333333e+00 5.79236917876965e-04 1.44575734287416e-05
6.77950000000000e+00 5.46859882084260e-04 1.36997280965221e-05
6.82916666666667e+00 5.16292593617370e-04 1.29812595432739e-05
6.87883333333333e+00 4.87433894768366e-04 1.23001450345799e-05
6.92850000000000e+00 4.60188282186943e-04 1.16544641490630e-05
6.97816666666667e+00 4.34465590814492e-04 1.10423937379624e-05
7.02783333333333e+00 4.10180695387807e-04 1.04622030888255e-05
7.07750000000000e+00 3.87253228843617e-04 9.91224932245547e-06
7.12716666666667e+00 3.65607316346052e-04 9.39097304437863e-06
7.17683333333333e+00 3.45171324100843e-04 8.89689417508662e-06
7.22650000000000e+00 3.25877622387798e-04 8.42860798278878e-06
7.27616666666667e+00 3.07662361742333e-04 7.98478133589234e-06
7.32583333333333e+00 2.90465261581576e-04 7.56414911167844e-06
7.37550000000000e+00 2.74229410792101e-04 7.16551078050766e-06
7.42516666666667e+00 2.58901079384524e-04 6.78772717948946e-06
7.47483333333333e+00 2.44429540621415e-04 6.42971742232300e-06
7.52450000000000e+00 2.30766903208505e-04 6.09045596105494e-06
7.57416666666667e+00 2.17867952800187e-04 5.76896981102660e-06
7.62383333333333e+00 2.05690002319322e-04 5.46433589430269e-06
7.67350000000000e+00 1.94192750743339e-04 5.17567851440259e-06
7.72316666666667e+00 1.83338149729562e-04 4.90216697144997e-06
7.77283333333333e+00 1.73090277658594e-04 4.64301328022942e-06
7.82250000000000e+00 1.63415220800496e-04 4.39747000158863e-06
7.87216666666667e+00 1.54280961078692e-04 4.16482819455334e-06
7.92183333333333e+00 1.45657270076832e-04 3.94441545767910e-06
7.97150000000000e+00 1.37515609038206e-04 3.73559406813667e-06
8.02116666666667e+00 1.29829034417964e-04 3.53775922448153e-06
8.07083333333333e+00 1.22572108689330e-04 3.35033736669326e-06
8.12050000000000e+00 1.15720816191507e-04 3.17278458039931e-06
8.17016666666667e+00 1.09252483650940e-04 3.00458509008596e-06
8.21983333333333e+00 1.03145705124257e-04 2.84524981912815e-06
8.26950000000000e+00 9.73802711829455e-05 2.69431502226329e-06
8.31916666666667e+00 9.19371020312193e-05 2.55134099438274e-06
8.36883333333333e+00 8.67981843450683e-05 2.41591083703413e-06
8.41850000000000e+00 8.19465116800653e-05 2.28762928720909e-06
8.46816666666667e+00 7.73660281893850e-05 2.16612161153865e-06
8.51783333333333e+00 7.30415754734980e-05 2.05103255027694e-06
8.56750000000000e+00 6.89588424324201e-05 1.94202531479229e-06
8.61716666666667e+00 6.51043179038673e-05 1.83878064107992e-06
8.66683333333333e+00 6.14652459369548e-05 1.74099588618358e-06
8.71650000000000e+00 5.80295835920997e-05 1.64838417054863e-06
8.76616666666667e+00 5.47859610855584e-05 1.56067356832892e-06
8.81583333333333e+00 5.17236441519688e-05 1.47760633463866e-06
8.86550000000000e+00 4.88324985323322e-05 1.39893817220412e-06
8.91516666666667e+00 4.61029564352453e-05 1.32443753904056e-06
8.96483333333333e+00 4.35259848647418e-05 1.25388498791072e-06
9.01450000000000e+00 4.10930557363999e-05 1.18707253955805e-06
9.06416666666667e+00 3.87961176541343e-05 1.12380309101931e-06
9.11383333333333e+00 3.66275692578718e-05 1.06388985125434e-06
9.16350000000000e+00 3.45802340758134e-05 1.00715580571067e-06
9.21316666666667e+00 3.26473367743241e-05 9.53433210868563e-07
9.26283333333333e+00 3.08224807298261e-05 9.02563112248018e-07
9.31250000000000e+00 2.90996268666100e-05 8.54394887189716e-07
9.36216666666667e+00 2.74730736708796e-05 8.08785813246829e-07
9.41183333333333e+00 2.59374383173498e-05 7.65600656713243e-07
9.46150000000000e+00 2.44876388609585e-05 7.24711282351493e-07
9.51116666666667e+00 2.31188774184845e-05 6.85996284989353e-07
9.56083333333333e+00 2.18266242864523e-05 6.49340638387024e-07
9.61050000000000e+00 2.06066029552007e-05 6.14635362236162e-07
9.66016666666667e+00 1.94547759560464e-05 5.81777207824465e-07
9.70983333333333e+00 1.83673314963909e-05 5.50668358503570e-07
9.75950000000000e+00 1.73406708488457e-05 5.21216145657367e-07
9.80916666666667e+00 1.63713964414788e-05 4.93332780595716e-07
9.85883333333333e+00 1.54563006111628e-05 4.66935099129183e-07
9.90850000000000e+00 1.45923549913460e-05 4.41944319388554e-07
9.95816666666667e+00 1.37767004898748e-05 4.18285813226891e-07
1.00078333333333e+01 1.30066378248564e-05 3.95888888725925e-07
1.00575000000000e+01 1.22796185922619e-05 3.74686582532594e-07
1.01071666666667e+01 1.15932368424268e-05 3.54615467196457e-07
1.01568333333333e+01 1.09452210954321e-05 3.35615464753727e-07
1.02065000000000e+01 1.03334268448223e-05 3.17629668237294e-07
1.02561666666667e+01 9.75582945883088e-06 3.00604180008662e-07
1.03058333333333e+01 9.21051746354921e-06 2.84487951569429e-07
1.03555000000000e+01 8.69568623447156e-06 2.69232631833124e-07
1.04051666666667e+01 8.20963202282648e-06 2.54792429336985e-07
1.04548333333333e+01 7.75074630349448e-06 2.41123975844657e-07
1.05045000000000e+01 7.31751046616884e-06 2.28186197162635e-07
1.05541666666667e+01 6.90849078847047e-06 2.15940195740147e-07
1.06038333333333e+01 6.52233367982649e-06 2.04349134560377e-07
1.06535000000000e+01 6.15776121385593e-06 1.93378127180498e-07
1.07031666666667e+01 5.81356689820943e-06 1.82994137731798e-07
1.07528333333333e+01 5.48861167237813e-06 1.73165882106651e-07
1.08025000000000e+01 5.18182014801003e-06 1.63863734384959e-07
1.08521666666667e+01 4.89217704919905e-06 1.55059641679082e-07
1.09018333333333e+01 4.61872384470959e-06 1.46727040060595e-07
1.09515000000000e+01 4.36055558404942e-06 1.38840774950310e-07
1.10011666666667e+01 4.11681790194633e-06 1.31377028623474e-07
1.10508333333333e+01 3.88670418442029e-06 1.24313248694255e-07
1.11005000000000e+01 3.66945290621221e-06 1.17628080401195e-07
1.11501666666667e+01 3.46434511002857e-06 1.11301304906057e-07
1.11998333333333e+01 3.27070202183539e-06 1.05313778473908e-07
1.12495000000000e+01 3.08788281020029e-06 9.96473748892952e-08
1.12991666666667e+01 2.91528246505761e-06 9.42849329544050e-08
1.13488333333333e+01 2.75232979101397e-06 8.92102047762596e-08
1.13985000000000e+01 2.59848552174849e-06 8.44078068083267e-08
1.14481666666667e+01 2.45324053497740e-06 7.98631751868196e-08
1.14978333333333e+01 2.31611416384927e-06 7.55625217703708e-08
1.15475000000000e+01 2.18665261014181e-06 7.14927925235601e-08
1.15971666666667e+01 2.06442744214068e-06 6.76416295296587e-08
1.16468333333333e+01 1.94903417370168e-06 6.39973336279768e-08
1.16965000000000e+01 1.84009092889713e-06 6.05488290452297e-08
1.17461666666667e+01 1.73723717796916e-06 5.72856310936404e-08
1.17958333333333e+01 1.64013254162905e-06 5.41978144218187e-08
1.18455000000000e+01 1.54845566730872e-06 5.12759829616510e-08
1.18951666666667e+01 1.46190316545537e-06 4.85112424665268e-08
1.19448333333333e+01 1.38018860336434e-06 4.58951735372989e-08
1.19945000000000e+01 1.30304155950464e-06 4.34198060904681e-08
1.20441666666667e+01 1.23020672840243e-06 4.10775960159187e-08
1.20938333333333e+01 1.16144307396330e-06 3.88614022638389e-08
1.21435000000000e+01 1.09652303365413e-06 3.67644651577964e-08
1.21931666666667e+01 1.03523176525530e-06 3.47803865578097e-08
1.22428333333333e+01 9.77366434391058e-07 3.29031104001678e-08
1.22925000000000e+01 9.22735544821088e-07 3.11269042794935e-08
1.23421666666667e+01 8.71158304576480e-07 2.94463425938533e-08
1.23918333333333e+01 8.22464026424171e-07 2.78562900198582e-08
1.24415000000000e+01 7.76491564284671e-07 2.63518858735102e-08
1.24911666666667e+01 7.33088779830322e-07 2.49285297916075e-08
1.25408333333333e+01 6.92112037982296e-07 2.35818677016115e-08
1.25905000000000e+01 6.53425732637358e-07 2.23077785441194e-08
1.26401666666667e+01 6.16901837805930e-07 2.11023621109885e-08
1.26898333333333e+01 5.82419483077766e-07 1.99619271351618e-08
1.27395000000000e+01 5.49864554505494e-07 1.88829800198566e-08
1.27891666666667e+01 5.19129316883600e-07 1.78622145102606e-08
1.28388333333333e+01 4.90112056506753e-07 1.68965015844892e-08
1.28885000000000e+01 4.62716745300455e-07 1.59828798876068e-08
1.29381666666667e+01 4.36852722965663e-07 1.51185469618582e-08
1.29878333333333e+01 4.12434396363100e-07 1.43008506676091e-08
1.30375000000000e+01 3.89380956868543e-07 1.35272810654780e-08
1.30871666666667e+01 3.67616112894873e-07 1.27954629710705e-08
1.31368333333333e+01 3.47067836926504e-07 1.21031486753511e-08
1.31865000000000e+01 3.27668127665040e-07 1.14482110566180e-08
1.32361666666667e+01 3.09352784944327e-07 1.08286372606391e-08
1.32858333333333e+01 2.92061196861958e-07 1.02425225244687e-08
1.33355000000000e+01 2.75736139617530e-07 9.68806433272122e-09
1.33851666666667e+01 2.60323588101756e-07 9.16355705377271e-09
1.34348333333333e+01 2.45772536769246e-07 8.66738670044217e-09
1.34845000000000e+01 2.32034831196338e-07 8.19802597287801e-09
1.35341666666667e+01 2.19065008690226e-07 7.75402970682591e-09
1.35838333333333e+01 2.06820147554699e-07 7.33403042962298e-09
1.36335000000000e+01 1.95259725341022e-07 6.93673415570426e-09
1.36831666666667e+01 1.84345484719163e-07 6.56091652451486e-09
1.37328333333333e+01 1.74041306635937e-07 6.20541903155107e-09
1.37825000000000e+01 1.64313091028951e-07 5.86914546265144e-09
1.38321666666667e+01 1.55128643956092e-07 5.55105861749243e-09
1.38818333333333e+01 1.46457570858923e-07 5.25017711351554e-09
1.39315000000000e+01 1.38271176180007e-07 4.96557236230829e-09
1.39811666666667e+01 1.30542368381399e-07 4.69636579024801e-09
1.40308333333333e+01 1.23245570126442e-07 4.44172612854722e-09
1.40805000000000e+01 1.16356633804873e-07 4.20086684960374e-09
1.41301666666667e+01 1.09852761605064e-07 3.97304380964997e-09
1.41798333333333e+01 1.03712429932513e-07 3.75755295123514e-09
1.42295000000000e+01 9.79153183218453e-08 3.55372812981233e-09
1.42791666666667e+01 9.24422421768987e-08 3.36093911455629e-09
1.43288333333333e+01 8.72750891693022e-08 3.17858964072385e-09
1.43785000000000e+01 8.23967594159353e-08 3.00611556727435e-09
1.44281666666667e+01 7.77911088791298e-08 2.84298318163345e-09
1.44778333333333e+01 7.34428958463923e-08 2.68868754882442e-09
1.45275000000000e+01 6.93377305880931e-08 2.54275094986520e-09
1.45771666666667e+01 6.54620277282393e-08 2.40472144442984e-09
1.46268333333333e+01 6.18029612074159e-08 2.27417147167326e-09
1.46765000000000e+01 5.83484219183645e-08 2.15069652674955e-09
1.47261666666667e+01 5.50869776255695e-08 2.03391394226993e-09
1.47758333333333e+01 5.20078350667741e-08 1.92346170256578e-09
1.48255000000000e+01 4.91008043021831e-08 1.81899732212889e-09
1.48751666666667e+01 4.63562649864418e-08 1.72019681266976e-09
1.49248333333333e+01 4.37651344772178e-08 1.62675367835714e-09
1.49745000000000e+01 4.13188378341125e-08 1.53837796546453e-09
1.50241666666667e+01 3.90092794362311e-08 1.45479538685001e-09
1.50738333333333e+01 3.68288161456785e-08 1.37574647063029e-09
1.51235000000000e+01 3.47702320608578e-08 1.30098575497422e-09
1.51731666666667e+01 3.28267146324032e-08 1.23028104608741e-09
1.52228333333333e+01 3.09918320803579e-08 1.16341269695638e-09
1.52725000000000e+01 2.92595121484221e-08 1.10017292518298e-09
1.53221666666667e+01 2.76240220052978e-08 1.04036518417756e-09
1.53718333333333e+01 2.60799492413178e-08 9.83803552155099e-10
1.54215000000000e+01 2.46221839896037e-08 9.30312154260236e-10
1.54711666666667e+01 2.32459020128669e-08 8.79724629747604e-10
1.55208333333333e+01 2.19465487121299e-08 8.31883614421698e-10
1.55705000000000e+01 2.07198240812292e-08 7.86640251150717e-10
1.56201666666667e+01 1.95616684742065e-08 7.43853738423461e-10
1.56698333333333e+01 1.84682491486920e-08 7.03390891979306e-10
