Energy (eV)          EEDF (eV^-(3/2))     First Anisotropy
3.34313725490196e-03 1.14561519967553e+00 5.94625943421030e-04
1.00294117647059e-02 1.13788600946354e+00 9.81885038587943e-04
1.67156862745098e-02 1.13020896624478e+00 1.29616930847567e-03
2.34019607843137e-02 1.12258371819026e+00 1.53491519976802e-03
3.00882352941176e-02 1.11500991585049e+00 1.73401711221673e-03
3.67745098039216e-02 1.10748721213359e+00 1.90704362502733e-03
4.34607843137255e-02 1.10001526227141e+00 2.06101519528209e-03
5.01470588235294e-02 1.09259372386090e+00 2.20017050425440e-03
5.68333333333333e-02 1.08522225678724e+00 2.32732021781466e-03
6.35196078431373e-02 1.07790052323064e+00 2.44445049973456e-03
7.02058823529412e-02 1.07062818765063e+00 2.55303134837584e-03
7.68921568627451e-02 1.06340491677059e+00 2.65418982970200e-03
8.35784313725490e-02 1.05623037956260e+00 2.74881451375986e-03
9.02647058823529e-02 1.04910424723219e+00 2.83762196830642e-03
9.69509803921569e-02 1.04202619320320e+00 2.92120098572541e-03
1.03637254901961e-01 1.03499589307449e+00 3.00004305419345e-03
1.10323529411765e-01 1.02801302472463e+00 3.07456402642725e-03
1.17009803921569e-01 1.02107726807789e+00 3.14511987515985e-03
1.23696078431373e-01 1.01418830534317e+00 3.21201843706808e-03
1.30382352941176e-01 1.00734582075663e+00 3.27552832254454e-03
1.37068627450980e-01 1.00054950079427e+00 3.33588578612044e-03
1.43754901960784e-01 9.93799033944534e-01 3.39330010954507e-03
1.50441176470588e-01 9.87094110894507e-01 3.44795786895824e-03
1.57127450980392e-01 9.80434424326510e-01 3.50002636378387e-03
1.63813725490196e-01 9.73819669083094e-01 3.54965639586185e-03
1.70500000000000e-01 9.67249541983207e-01 3.59698454931369e-03
1.77186274509804e-01 9.60723741969705e-01 3.64213507228019e-03
1.83872549019608e-01 9.54241969941883e-01 3.68522144758277e-03
1.90558823529412e-01 9.47803928888332e-01 3.72634770884677e-03
1.97245098039216e-01 9.41409323733316e-01 3.76560955540035e-03
2.03931372549020e-01 9.35057861457193e-01 3.80309529845446e-03
2.10617647058824e-01 9.28749250954675e-01 3.83888667294361e-03
2.17303921568627e-01 9.22483203144556e-01 3.87305953399903e-03
2.23990196078431e-01 9.16259430838280e-01 3.90568446129307e-03
2.30676470588235e-01 9.10077648840400e-01 3.93682728231876e-03
2.37362745098039e-01 9.03937573826163e-01 3.96654953102246e-03
2.44049019607843e-01 8.97838924433856e-01 3.99490884808493e-03
2.50735294117647e-01 8.91781421150355e-01 4.02195933492951e-03
2.57421568627451e-01 8.85764786396318e-01 4.04775186481581e-03
2.64107843137255e-01 8.79788744418814e-01 4.07233436024202e-03
2.70794117647059e-01 8.73853021370170e-01 4.09575203816465e-03
2.77480392156863e-01 8.67957345206933e-01 4.11804763032034e-03
2.84166666666667e-01 8.62101445763047e-01 4.13926157898385e-03
2.90852941176471e-01 8.56285054654527e-01 4.15943221409208e-03
2.97539215686275e-01 8.50507905347543e-01 4.17859591130905e-03
3.04225490196078e-01 8.44769733068255e-01 4.19678723599336e-03
3.10911764705882e-01 8.39070274866312e-01 4.21403907215546e-03
3.17598039215686e-01 8.33409269529379e-01 4.23038274064789e-03
3.24284313725490e-01 8.27786457642477e-01 4.24584810536910e-03
3.30970588235294e-01 8.22201581506802e-01 4.26046367118288e-03
3.37656862745098e-01 8.16654385195278e-01 4.27425667213758e-03
3.44343137254902e-01 8.11144614475311e-01 4.28725315616750e-03
3.51029411764706e-01 8.05672016845616e-01 4.29947804735240e-03
3.57715686274510e-01 8.00236341523777e-01 4.31095523208862e-03
3.64401960784314e-01 7.94837339388764e-01 4.32170761027552e-03
3.71088235294118e-01 7.89474763030092e-01 4.33175715569471e-03
3.77774509803922e-01 7.84148366677478e-01 4.34112496994599e-03
3.84460784313725e-01 7.78857906247075e-01 4.34983133126830e-03
3.91147058823529e-01 7.73603139274235e-01 4.35789574072028e-03
3.97833333333333e-01 7.68383824957056e-01 4.36533696400998e-03
4.04519607843137e-01 7.63199724092033e-01 4.37217307127248e-03
4.11205882352941e-01 7.58050599115113e-01 4.37842147310790e-03
4.17892156862745e-01 7.52936214040034e-01 4.38409895503181e-03
4.24578431372549e-01 7.47856334497089e-01 4.38922170868767e-03
4.31264705882353e-01 7.42810727673963e-01 4.39380536183890e-03
4.37950980392157e-01 7.37799162352364e-01 4.39786500553057e-03
4.44637254901961e-01 7.32821408851210e-01 4.40141522032768e-03
4.51323529411765e-01 7.27877239061279e-01 4.40447010006101e-03
4.58009803921569e-01 7.22966426390583e-01 4.40704327488487e-03
4.64696078431373e-01 7.18088745797180e-01 4.40914793212513e-03
4.71382352941177e-01 7.13243973736612e-01 4.41079683662996e-03
4.78068627450980e-01 7.08431888192996e-01 4.41200234914637e-03
4.84754901960784e-01 7.03652268628394e-01 4.41277644435479e-03
4.91441176470588e-01 6.98904896012308e-01 4.41313072712811e-03
4.98127450980392e-01 6.94189552772871e-01 4.41307644857519e-03
5.04813725490196e-01 6.89506022824841e-01 4.41262452047776e-03
5.11500000000000e-01 6.84854091522515e-01 4.41178552961373e-03
5.18186274509804e-01 6.80233545686317e-01 4.41056975061932e-03
5.24872549019608e-01 6.75644173557341e-01 4.40898715882102e-03
5.31558823529412e-01 6.71085764822616e-01 4.40704744173119e-03
5.38245098039216e-01 6.66558110571197e-01 4.40476001058052e-03
5.44931372549020e-01 6.62061003318184e-01 4.40213401062351e-03
5.51617647058824e-01 6.57594236962276e-01 4.39917833153522e-03
5.58303921568628e-01 6.53157606808627e-01 4.39590161667644e-03
5.64990196078431e-01 6.48750909527785e-01 4.39231227249486e-03
5.71676470588235e-01 6.44373943177448e-01 4.38841847687562e-03
5.78362745098039e-01 6.40026507162724e-01 4.38422818766591e-03
5.85049019607843e-01 6.35708402256854e-01 4.37974915022299e-03
5.91735294117647e-01 6.31419430562717e-01 4.37498890516352e-03
5.98421568627451e-01 6.27159395532588e-01 4.36995479520121e-03
6.05107843137255e-01 6.22928101930833e-01 4.36465397221133e-03
6.11794117647059e-01 6.18725355852740e-01 4.35909340343888e-03
6.18480392156863e-01 6.14550964688357e-01 4.35327987795296e-03
6.25166666666667e-01 6.10404737140455e-01 4.34722001229764e-03
6.31852941176471e-01 6.06286483189445e-01 4.34092025640239e-03
6.38539215686275e-01 6.02196014110522e-01 4.33438689873557e-03
6.45225490196078e-01 5.98133142439620e-01 4.32762607173008e-03
6.51911764705882e-01 5.94097681989770e-01 4.32064375649156e-03
6.58598039215686e-01 5.90089447818052e-01 4.31344578778907e-03
6.65284313725490e-01 5.86108256241215e-01 4.30603785836754e-03
6.71970588235294e-01 5.82153924803574e-01 4.29842552354603e-03
6.78656862745098e-01 5.78226272291930e-01 4.29061420517274e-03
6.85343137254902e-01 5.74325118704379e-01 4.28260919732937e-03
6.92029411764706e-01 5.70450285259105e-01 4.27441566412933e-03
6.98715686274510e-01 5.66601594385934e-01 4.26603865236188e-03
7.05401960784314e-01 5.62778869701811e-01 4.25748308919878e-03
7.12088235294118e-01 5.58981936024419e-01 4.24875378692346e-03
7.18774509803922e-01 5.55210619342807e-01 4.23985544644449e-03
7.25460784313726e-01 5.51464746830408e-01 4.23079266025391e-03
7.32147058823529e-01 5.47744146816470e-01 4.22156991569243e-03
7.38833333333333e-01 5.44048648798500e-01 4.21219159768254e-03
7.45519607843137e-01 5.40378083414468e-01 4.20266199176718e-03
7.52205882352941e-01 5.36732282454709e-01 4.19298528663962e-03
7.58892156862745e-01 5.33111078834862e-01 4.18316557697681e-03
7.65578431372549e-01 5.29514306607260e-01 4.17320686578186e-03
7.72264705882353e-01 5.25941800934576e-01 4.16311306703036e-03
7.78950980392157e-01 5.22393398100724e-01 4.15288800784468e-03
7.85637254901961e-01 5.18868935485192e-01 4.14253543096661e-03
7.92323529411765e-01 5.15368251573469e-01 4.13205899677801e-03
7.99009803921569e-01 5.11891185932040e-01 4.12146228561664e-03
8.05696078431373e-01 5.08437579218365e-01 4.11074879965479e-03
8.12382352941177e-01 5.05007273156515e-01 4.09992196507081e-03
8.19068627450980e-01 5.01600110546716e-01 4.08898513379919e-03
8.25754901960784e-01 4.98215935241603e-01 4.07794158556780e-03
8.32441176470588e-01 4.94854592155357e-01 4.06679452953071e-03
8.39127450980392e-01 4.91515927240548e-01 4.05554710618315e-03
8.45813725490196e-01 4.88199787496888e-01 4.04420238888449e-03
8.52500000000000e-01 4.84906020948641e-01 4.03276338566076e-03
8.59186274509804e-01 4.81634476653003e-01 4.02123304062807e-03
8.65872549019608e-01 4.78385004678070e-01 4.00961423569094e-03
8.72558823529412e-01 4.75157456110857e-01 3.99790979187285e-03
8.79245098039216e-01 4.71951683035801e-01 3.98612247091817e-03
8.85931372549020e-01 4.68767538542443e-01 3.97425497653842e-03
8.92617647058824e-01 4.65604876704446e-01 3.96230995592433e-03
8.99303921568627e-01 4.62463552586947e-01 3.95029000091375e-03
9.05990196078431e-01 4.59343422226078e-01 3.93819764942112e-03
9.12676470588235e-01 4.56244342636011e-01 3.92603538653270e-03
9.19362745098039e-01 4.53166171788955e-01 3.91380564585889e-03
9.26049019607843e-01 4.50108768621903e-01 3.90151081056283e-03
9.32735294117647e-01 4.47071993017105e-01 3.88915321464063e-03
9.39421568627451e-01 4.44055705808521e-01 3.87673514388710e-03
9.46107843137255e-01 4.41059768762749e-01 3.86425883711073e-03
9.52794117647059e-01 4.38084044585212e-01 3.85172648704166e-03
9.59480392156863e-01 4.35128396901514e-01 3.83914024148315e-03
9.66166666666667e-01 4.32192690263371e-01 3.82650220416675e-03
9.72852941176471e-01 4.29276790130395e-01 3.81381443584612e-03
9.79539215686275e-01 4.26380562875766e-01 3.80107895510202e-03
9.86225490196079e-01 4.23503875768437e-01 3.78829773938166e-03
9.92911764705882e-01 4.20646596978562e-01 3.77547272575725e-03
9.99598039215686e-01 4.17808595560100e-01 3.76260581544077e-03
1.00628431372549e+00 4.14989741445062e-01 3.74969885950683e-03
1.01297058823529e+00 4.12189905473066e-01 3.73675368527273e-03
1.01965686274510e+00 4.09408959306310e-01 3.72377207548202e-03
1.02634313725490e+00 4.06646775526521e-01 3.71075576946093e-03
1.03302941176471e+00 4.03903227547955e-01 3.69770649701522e-03
1.03971568627451e+00 4.01178189613619e-01 3.68462592749464e-03
1.04640196078431e+00 3.98471536866176e-01 3.67151570448603e-03
1.05308823529412e+00 3.95783145240088e-01 3.65837743880731e-03
1.05977450980392e+00 3.93112891556826e-01 3.64521270812447e-03
1.06646078431373e+00 3.90460653419553e-01 3.63202305867425e-03
1.07314705882353e+00 3.87826309305977e-01 3.61881000486751e-03
1.07983333333333e+00 3.85209738465513e-01 3.60557503095992e-03
1.08651960784314e+00 3.82610821009845e-01 3.59231959064346e-03
1.09320588235294e+00 3.80029437812490e-01 3.57904510867028e-03
1.09989215686275e+00 3.77465470597135e-01 3.56575297285319e-03
1.10657843137255e+00 3.74918801861989e-01 3.55244456599351e-03
1.11326470588235e+00 3.72389314876055e-01 3.53912122008720e-03
1.11995098039216e+00 3.69876893740309e-01 3.52578424734950e-03
1.12663725490196e+00 3.67381423293776e-01 3.51243493383333e-03
1.13332352941176e+00 3.64902789195818e-01 3.49907453900204e-03
1.14000980392157e+00 3.62440877834362e-01 3.48570429718140e-03
1.14669607843137e+00 3.59995576406207e-01 3.47232541712643e-03
1.15338235294118e+00 3.57566772827346e-01 3.45893908343291e-03
1.16006862745098e+00 3.55154355811345e-01 3.44554644916701e-03
1.16675490196078e+00 3.52758214801702e-01 3.43214866501707e-03
1.17344117647059e+00 3.50378239968224e-01 3.41874683732121e-03
1.18012745098039e+00 3.48014322261318e-01 3.40534205640990e-03
1.18681372549020e+00 3.45666353327979e-01 3.39193539070755e-03
1.19350000000000e+00 3.43334225584925e-01 3.37852788629216e-03
1.20018627450980e+00 3.41017832136467e-01 3.36512056816839e-03
1.20687254901961e+00 3.38717066845918e-01 3.35171443982646e-03
1.21355882352941e+00 3.36431824255302e-01 3.33831048447998e-03
1.22024509803922e+00 3.34161999655081e-01 3.32490966462306e-03
1.22693137254902e+00 3.31907489005649e-01 3.31151292323780e-03
1.23361764705882e+00 3.29668189005429e-01 3.29812117710326e-03
1.24030392156863e+00 3.27443997031573e-01 3.28473534299293e-03
1.24699019607843e+00 3.25234811136481e-01 3.27135629982371e-03
1.25367647058824e+00 3.23040530094973e-01 3.25798491413212e-03
1.26036274509804e+00 3.20861053330599e-01 3.24462203470616e-03
1.26704901960784e+00 3.18696280979298e-01 3.23126849214706e-03
1.27373529411765e+00 3.16546113817324e-01 3.21792509996395e-03
1.28042156862745e+00 3.14410453323438e-01 3.20459265413515e-03
1.28710784313725e+00 3.12289201608400e-01 3.19127193417604e-03
1.29379411764706e+00 3.10182261475740e-01 3.17796369696883e-03
1.30048039215686e+00 3.08089536368434e-01 3.16466870077513e-03
1.30716666666667e+00 3.06010930365536e-01 3.15138767045816e-03
1.31385294117647e+00 3.03946348224293e-01 3.13812132083513e-03
1.32053921568627e+00 3.01895695313844e-01 3.12487035172167e-03
1.32722549019608e+00 2.99858877672124e-01 3.11163544750129e-03
1.33391176470588e+00 2.97835801940999e-01 3.09841727809816e-03
1.34059803921569e+00 2.95826375421878e-01 3.08521649855036e-03
1.34728431372549e+00 2.93830506012231e-01 3.07203374995991e-03
1.35397058823529e+00 2.91848102259954e-01 3.05886965906738e-03
1.36065686274510e+00 2.89879073301232e-01 3.04572483917901e-03
1.36734313725490e+00 2.87923328913689e-01 3.03259988456616e-03
1.37402941176471e+00 2.85980779469325e-01 3.01949539212093e-03
1.38071568627451e+00 2.84051335931333e-01 3.00641192991124e-03
1.38740196078431e+00 2.82134909890896e-01 2.99335005825289e-03
1.39408823529412e+00 2.80231413508688e-01 2.98031032519611e-03
1.40077450980392e+00 2.78340759564701e-01 2.96729326611418e-03
1.40746078431373e+00 2.76462861400979e-01 2.95429940455255e-03
1.41414705882353e+00 2.74597632970343e-01 2.94132925182003e-03
1.42083333333333e+00 2.72744988780317e-01 2.92838330781816e-03
1.42751960784314e+00 2.70904843940782e-01 2.91546206063533e-03
1.43420588235294e+00 2.69077114109064e-01 2.90256598735900e-03
1.44089215686275e+00 2.67261715536542e-01 2.88969554898410e-03
1.44757843137255e+00 2.65458565027014e-01 2.87685120998211e-03
1.45426470588235e+00 2.63667579933669e-01 2.86403340983390e-03
1.46095098039216e+00 2.61888678191344e-01 2.85124258206835e-03
1.46763725490196e+00 2.60121778264756e-01 2.83847915015665e-03
1.47432352941176e+00 2.58366799192262e-01 2.82574352712196e-03
1.48100980392157e+00 2.56623660535154e-01 2.81303611628474e-03
1.48769607843137e+00 2.54892282420473e-01 2.80035731087542e-03
1.49438235294118e+00 2.53172585491338e-01 2.78770749476323e-03
1.50106862745098e+00 2.51464490948834e-01 2.77508703775673e-03
1.50775490196078e+00 2.49767920514304e-01 2.76249631361138e-03
1.51444117647059e+00 2.48082796426462e-01 2.74993567379202e-03
1.52112745098039e+00 2.46409041470370e-01 2.73740546499715e-03
1.52781372549020e+00 2.44746578930557e-01 2.72490602536333e-03
1.53450000000000e+00 2.43095332630393e-01 2.71243768409393e-03
1.54118627450980e+00 2.41455226886152e-01 2.70000076212978e-03
1.54787254901961e+00 2.39826186545551e-01 2.68759557178208e-03
1.55455882352941e+00 2.38208136942736e-01 2.67522241738951e-03
1.56124509803922e+00 2.36601003935994e-01 2.66288159495413e-03
1.56793137254902e+00 2.35004713863653e-01 2.65057339278558e-03
1.57461764705882e+00 2.33419193580982e-01 2.63829808722601e-03
1.58130392156863e+00 2.31844370426676e-01 2.62605595896198e-03
1.58799019607843e+00 2.30280172220128e-01 2.61384726922244e-03
1.59467647058824e+00 2.28726527286948e-01 2.60167227565553e-03
1.60136274509804e+00 2.27183364417282e-01 2.58953122887050e-03
1.60804901960784e+00 2.25650612900547e-01 2.57742437209001e-03
1.61473529411765e+00 2.24128202484587e-01 2.56535194174480e-03
1.62142156862745e+00 2.22616063409669e-01 2.55331416712936e-03
1.62810784313726e+00 2.21114126368452e-01 2.54131127098414e-03
1.63479411764706e+00 2.19622322539267e-01 2.52934346554363e-03
1.64148039215686e+00 2.18140583555662e-01 2.51741096757895e-03
1.64816666666667e+00 2.16668841503797e-01 2.50551397642402e-03
1.65485294117647e+00 2.15207028945452e-01 2.49365268861600e-03
1.66153921568627e+00 2.13755078880155e-01 2.48182729469724e-03
1.66822549019608e+00 2.12312924776537e-01 2.47003797888636e-03
1.67491176470588e+00 2.10880500535206e-01 2.45828491961724e-03
1.68159803921569e+00 2.09457740519448e-01 2.44656828921447e-03
1.68828431372549e+00 2.08044579518832e-01 2.43488825442122e-03
1.69497058823529e+00 2.06640952779271e-01 2.42324497607854e-03
1.70165686274510e+00 2.05246795967339e-01 2.41163860964311e-03
1.70834313725490e+00 2.03862045199706e-01 2.40006930158962e-03
1.71502941176471e+00 2.02486637015957e-01 2.38853720306330e-03
1.72171568627451e+00 2.01120508376153e-01 2.37704244991131e-03
1.72840196078431e+00 1.99763596681153e-01 2.36558517597548e-03
1.73508823529412e+00 1.98415839738832e-01 2.35416551017512e-03
1.74177450980392e+00 1.97077175791831e-01 2.34278357620172e-03
1.74846078431373e+00 1.95747543484431e-01 2.33143949299849e-03
1.75514705882353e+00 1.94426881889740e-01 2.32013337445943e-03
1.76183333333333e+00 1.93115130477199e-01 2.30886532989913e-03
1.76851960784314e+00 1.91812229139211e-01 2.29763546375490e-03
1.77520588235294e+00 1.90518118159279e-01 2.28644387604898e-03
1.78189215686275e+00 1.89232738238086e-01 2.27529065910904e-03
1.78857843137255e+00 1.87956030469194e-01 2.26417590997517e-03
1.79526470588235e+00 1.86687936336758e-01 2.25309971223726e-03
1.80195098039216e+00 1.85428397733511e-01 2.24206214811279e-03
1.80863725490196e+00 1.84177356930569e-01 2.23106329578729e-03
1.81532352941176e+00 1.82934756602050e-01 2.22010322913079e-03
1.82200980392157e+00 1.81700539795452e-01 2.20918201812644e-03
1.82869607843137e+00 1.80474649955768e-01 2.19829972859076e-03
1.83538235294118e+00 1.79257030896433e-01 2.18745642259383e-03
1.84206862745098e+00 1.78047626822951e-01 2.17665215542412e-03
1.84875490196078e+00 1.76846382310716e-01 2.16588698705642e-03
1.85544117647059e+00 1.75653242302831e-01 2.15516096534882e-03
1.86212745098039e+00 1.74468152126403e-01 2.14447413720871e-03
1.86881372549020e+00 1.73291057464981e-01 2.13382654612800e-03
1.87550000000000e+00 1.72121904380876e-01 2.12321823191697e-03
1.88218627450980e+00 1.70960639288120e-01 2.11264923109554e-03
1.88887254901961e+00 1.69807208974341e-01 2.10211957663051e-03
1.89555882352941e+00 1.68661560574233e-01 2.09162929831943e-03
1.90224509803922e+00 1.67523641590985e-01 2.08117842253133e-03
1.90893137254902e+00 1.66393399870261e-01 2.07076697258334e-03
1.91561764705882e+00 1.65270783621191e-01 2.06039496597224e-03
1.92230392156863e+00 1.64155741396487e-01 2.05006242481071e-03
1.92899019607843e+00 1.63048222090406e-01 2.03976936052323e-03
1.93567647058824e+00 1.61948174953203e-01 2.02951578400889e-03
1.94236274509804e+00 1.60855549566439e-01 2.01930170339072e-03
1.94904901960784e+00 1.59770295862820e-01 2.00912712376985e-03
1.95573529411765e+00 1.58692364101965e-01 1.99899204757612e-03
1.96242156862745e+00 1.57621704889855e-01 1.98889647432540e-03
1.96910784313726e+00 1.56558269155046e-01 1.97884040096364e-03
1.97579411764706e+00 1.55502008167739e-01 1.96882381930082e-03
1.98248039215686e+00 1.54452873521581e-01 1.95884672567071e-03
1.98916666666667e+00 1.53410817131732e-01 1.94890910675651e-03
1.99585294117647e+00 1.52375791247988e-01 1.93901094899700e-03
2.00253921568627e+00 1.51347748432187e-01 1.92915223650008e-03
2.00922549019608e+00 1.50326641576240e-01 1.91933295081221e-03
2.01591176470588e+00 1.49312423879960e-01 1.90955307123900e-03
2.02259803921569e+00 1.48305048868740e-01 1.89981257461798e-03
2.02928431372549e+00 1.47304470371789e-01 1.89011143563359e-03
2.03597058823529e+00 1.46310642539465e-01 1.88044962659288e-03
2.04265686274510e+00 1.45323519821907e-01 1.87082711773472e-03
2.04934313725490e+00 1.44343056986031e-01 1.86124387488748e-03
2.05602941176471e+00 1.43369209099166e-01 1.85169986827151e-03
2.06271568627451e+00 1.42401931527249e-01 1.84219505957270e-03
2.06940196078431e+00 1.41441179946503e-01 1.83272941051600e-03
2.07608823529412e+00 1.40486910323131e-01 1.82330288095821e-03
2.08277450980392e+00 1.39539078929396e-01 1.81391542867515e-03
2.08946078431373e+00 1.38597642323691e-01 1.80456700965021e-03
2.09614705882353e+00 1.37662557366305e-01 1.79525757786470e-03
2.10283333333333e+00 1.36733781199860e-01 1.78598708558090e-03
2.10951960784314e+00 1.35811271264763e-01 1.77675548313510e-03
