Energy (eV)          EEDF (eV^-(3/2))     First Anisotropy
6.09090909090909e-02 1.45682310419206e-01 1.62609976039802e-04
1.82727272727273e-01 1.41171326413454e-01 2.65249782064765e-04
3.04545454545455e-01 1.36800022899056e-01 3.41614118109551e-04
4.26363636363636e-01 1.32564074749884e-01 3.94673664194110e-04
5.48181818181818e-01 1.28459290733968e-01 4.34997563377548e-04
6.70000000000000e-01 1.24481609416672e-01 4.66738640904801e-04
7.91818181818182e-01 1.20627095123261e-01 4.92123390106005e-04
9.13636363636364e-01 1.16891934045231e-01 5.12541264332909e-04
1.03545454545455e+00 1.13272430466852e-01 5.28942330798078e-04
1.15727272727273e+00 1.09765003098140e-01 5.42017256786662e-04
1.27909090909091e+00 1.06366181569804e-01 5.52290659016493e-04
1.40090909090909e+00 1.03072602951561e-01 5.60174345187567e-04
1.52272727272727e+00 9.98810084446515e-02 5.65999899025568e-04
1.64454545454545e+00 9.67882401584522e-02 5.70039749868877e-04
1.76636363636364e+00 9.37912379679367e-02 5.72521401666311e-04
1.88818181818182e+00 9.08870365397621e-02 5.73637400156241e-04
2.01000000000000e+00 8.80727623414383e-02 5.73552526197498e-04
2.13181818181818e+00 8.53456308180818e-02 5.72409117375744e-04
2.25363636363636e+00 8.27029436373811e-02 5.70331098620624e-04
2.37545454545455e+00 8.01420860197959e-02 5.67427091613855e-04
2.49727272727273e+00 7.76605241413776e-02 5.63792852264602e-04
2.61909090909091e+00 7.52558026575090e-02 5.59513214281574e-04
2.74090909090909e+00 7.29255422413370e-02 5.54663657860071e-04
2.86272727272727e+00 7.06674372406927e-02 5.49311587869428e-04
2.98454545454545e+00 6.84792533969897e-02 5.43517391455421e-04
3.10636363636364e+00 6.63588256276336e-02 5.37335317296575e-04
3.22818181818182e+00 6.43040559049376e-02 5.30814216781274e-04
3.35000000000000e+00 6.23129111582899e-02 5.23998172306245e-04
3.47181818181818e+00 6.03834212701469e-02 5.16927031431301e-04
3.59363636363636e+00 5.85136771267528e-02 5.09636867617963e-04
3.71545454545455e+00 5.67018287292030e-02 5.02160378492515e-04
3.83727272727273e+00 5.49460833584297e-02 4.94527230912778e-04
3.95909090909091e+00 5.32447038154282e-02 4.86764364037938e-04
4.08090909090909e+00 5.15960066878916e-02 4.78896255586340e-04
4.20272727272727e+00 4.99983606895621e-02 4.70945155039510e-04
4.32454545454545e+00 4.84501850462370e-02 4.62931291711967e-04
4.44636363636364e+00 4.69499479283080e-02 4.54873058431945e-04
4.56818181818182e+00 4.54961649454506e-02 4.46787176587285e-04
4.69000000000000e+00 4.40873976672212e-02 4.38688843918463e-04
4.81181818181818e+00 4.27222522034933e-02 4.30591865872776e-04
4.93363636363636e+00 4.13993778252995e-02 4.22508774878831e-04
5.05545454545454e+00 4.01174656283734e-02 4.14450937927969e-04
5.17727272727273e+00 3.88752472356928e-02 4.06428653154281e-04
5.29909090909091e+00 3.76714935498035e-02 3.98451238323898e-04
5.42090909090909e+00 3.65050135291638e-02 3.90527111295057e-04
5.54272727272727e+00 3.53746530122635e-02 3.82663862257237e-04
5.66454545454545e+00 3.42792935756766e-02 3.74868320565422e-04
5.78636363636364e+00 3.32178514256234e-02 3.67146614995551e-04
5.90818181818182e+00 3.21892763312143e-02 3.59504229623620e-04
6.03000000000000e+00 3.11925505795462e-02 3.51946055074721e-04
6.15181818181818e+00 3.02266879707145e-02 3.44476434729548e-04
6.27363636363636e+00 2.92907328420331e-02 3.37099207823567e-04
6.39545454545455e+00 2.83837591224666e-02 3.29817749050038e-04
6.51727272727273e+00 2.75048694150083e-02 3.22635004555117e-04
6.63909090909091e+00 2.66531941128521e-02 3.15553525699877e-04
6.76090909090909e+00 2.58278905347562e-02 3.08575500243379e-04
6.88272727272727e+00 2.50281420927020e-02 3.01702780498897e-04
7.00454545454545e+00 2.42531574839417e-02 2.94936909957653e-04
7.12636363636364e+00 2.35021699070071e-02 2.88279147399694e-04
7.24818181818182e+00 2.27744363062072e-02 2.81730489684801e-04
7.37000000000000e+00 2.20692366331263e-02 2.75291692884555e-04
7.49181818181818e+00 2.13858731353071e-02 2.68963291339445e-04
7.61363636363636e+00 2.07236696658698e-02 2.62745615739082e-04
7.73545454545455e+00 2.00819710145069e-02 2.56638809864788e-04
7.85727272727273e+00 1.94601422584123e-02 2.50642845818933e-04
7.97909090909091e+00 1.88575681364602e-02 2.44757538536688e-04
8.10090909090909e+00 1.82736524379772e-02 2.38982559280108e-04
8.22272727272727e+00 1.77078174136705e-02 2.33317447757900e-04
8.34454545454545e+00 1.71595032039856e-02 2.27761623772557e-04
8.46636363636364e+00 1.66281672845379e-02 2.22314397709163e-04
8.58818181818182e+00 1.61132839312204e-02 2.16974980591287e-04
8.71000000000000e+00 1.56143436980766e-02 2.11742493442603e-04
8.83181818181818e+00 1.51308529139031e-02 2.06615975647255e-04
8.95363636363636e+00 1.46623331937935e-02 2.01594392987536e-04
9.07545454545454e+00 1.42083209658058e-02 1.96676645096433e-04
9.19727272727273e+00 1.37683670118153e-02 1.91861572182982e-04
9.31909090909091e+00 1.33420360244866e-02 1.87147961526482e-04
9.44090909090909e+00 1.29289061750783e-02 1.82534553522440e-04
9.56272727272727e+00 1.25285686965756e-02 1.78020047028011e-04
9.68454545454545e+00 1.21406274792438e-02 1.73603104578926e-04
9.80636363636364e+00 1.17646986783226e-02 1.69282357013569e-04
9.92818181818182e+00 1.14004103353954e-02 1.65056407966259e-04
1.00500000000000e+01 1.10474020091673e-02 1.60923838082701e-04
1.01718181818182e+01 1.07053244189049e-02 1.56883208627501e-04
1.02936363636364e+01 1.03738390992307e-02 1.52933064967409e-04
1.04154545454545e+01 1.00526180655333e-02 1.49071939574927e-04
1.05372727272727e+01 9.74134349199924e-03 1.45298356085101e-04
1.06590909090909e+01 9.43970738819886e-03 1.41610831347806e-04
1.07809090909091e+01 9.14741130350921e-03 1.38007877267776e-04
1.09027272727273e+01 8.86416602867935e-03 1.34488004276069e-04
1.10245454545455e+01 8.58969130969222e-03 1.31049722862244e-04
1.11463636363636e+01 8.32371557280986e-03 1.27691546427683e-04
1.12681818181818e+01 8.06597564865704e-03 1.24411992565619e-04
1.13900000000000e+01 7.81621651921447e-03 1.21209584155282e-04
1.15118181818182e+01 7.57419106297023e-03 1.18082851833641e-04
1.16336363636364e+01 7.33965981041168e-03 1.15030335106387e-04
1.17554545454545e+01 7.11239070708776e-03 1.12050583429023e-04
1.18772727272727e+01 6.89215888582864e-03 1.09142158068168e-04
1.19990909090909e+01 6.67874643864543e-03 1.06303632723590e-04
1.21209090909091e+01 6.47194220686473e-03 1.03533594021575e-04
1.22427272727273e+01 6.27154157023575e-03 1.00830643133086e-04
1.23645454545455e+01 6.07734624448041e-03 9.81933961356519e-05
1.24863636363636e+01 5.88916408658036e-03 9.56204852908607e-05
1.26081818181818e+01 5.70680890011328e-03 9.31105593028315e-05
1.27300000000000e+01 5.53010025568026e-03 9.06622834821251e-05
1.28518181818182e+01 5.35886331079054e-03 8.82743408581941e-05
1.29736363636364e+01 5.19292863686752e-03 8.59454324091527e-05
1.30954545454545e+01 5.03213205161111e-03 8.36742772957791e-05
1.32172727272727e+01 4.87631445770797e-03 8.14596136421635e-05
1.33390909090909e+01 4.72532168185246e-03 7.93001985080636e-05
1.34609090909091e+01 4.57900432584720e-03 7.71948077958489e-05
1.35827272727273e+01 4.43721761753596e-03 7.51422369313047e-05
1.37045454545455e+01 4.29982126756578e-03 7.31413007207053e-05
1.38263636363636e+01 4.16667933152292e-03 7.11908338405219e-05
1.39481818181818e+01 4.03766007251917e-03 6.92896906592721e-05
1.40700000000000e+01 3.91263583381910e-03 6.74367450116103e-05
1.41918181818182e+01 3.79148291151606e-03 6.56308906250193e-05
1.43136363636364e+01 3.67408143213582e-03 6.38710409675911e-05
1.44354545454545e+01 3.56031523403003e-03 6.21561291118281e-05
1.45572727272727e+01 3.45007175318528e-03 6.04851079797368e-05
1.46790909090909e+01 3.34324190956152e-03 5.88569500555651e-05
1.48009090909091e+01 3.23972000150355e-03 5.72706470659988e-05
1.49227272727273e+01 3.13940360035599e-03 5.57252101929088e-05
1.50445454545455e+01 3.04219344911941e-03 5.42196697413108e-05
1.51663636363636e+01 2.94799336485019e-03 5.27530752442617e-05
1.52881818181818e+01 2.85671014162087e-03 5.13244951263568e-05
1.54100000000000e+01 2.76825346021440e-03 4.99330163439597e-05
1.55318181818182e+01 2.68253579810460e-03 4.85777444747626e-05
1.56536363636364e+01 2.59947234285861e-03 4.72578034246328e-05
1.57754545454545e+01 2.51898090822068e-03 4.59723351528945e-05
1.58972727272727e+01 2.44098185327566e-03 4.47204996631430e-05
1.60190909090909e+01 2.36539800216896e-03 4.35014746409336e-05
1.61409090909091e+01 2.29215456926011e-03 4.23144550761840e-05
1.62627272727273e+01 2.22117908460947e-03 4.11586532525022e-05
1.63845454545455e+01 2.15240132227545e-03 4.00332983738874e-05
1.65063636363636e+01 2.08575323122580e-03 3.89376364934146e-05
1.66281818181818e+01 2.02116886678860e-03 3.78709301483519e-05
1.67500000000000e+01 1.95858432664867e-03 3.68324579848565e-05
1.68718181818182e+01 1.89793768719521e-03 3.58215146924764e-05
1.69936363636364e+01 1.83916894225252e-03 3.48374106841129e-05
1.71154545454545e+01 1.78221994370793e-03 3.38794717930781e-05
1.72372727272727e+01 1.72703434429199e-03 3.29470391550274e-05
1.73590909090909e+01 1.67355754086099e-03 3.20394688543749e-05
1.74809090909091e+01 1.62173662135791e-03 3.11561315644266e-05
1.76027272727273e+01 1.57152031212185e-03 3.02964124407052e-05
1.77245454545455e+01 1.52285892715696e-03 2.94597107716873e-05
1.78463636363636e+01 1.47570431922999e-03 2.86454398385004e-05
1.79681818181818e+01 1.43000983143574e-03 2.78530265784163e-05
1.80900000000000e+01 1.38573025184689e-03 2.70819112445576e-05
1.82118181818182e+01 1.34282176850167e-03 2.63315472795474e-05
1.83336363636364e+01 1.30124192605491e-03 2.56014010190690e-05
1.84554545454545e+01 1.26094958377118e-03 2.48909514099173e-05
1.85772727272727e+01 1.22190487502484e-03 2.41996898568267e-05
1.86990909090909e+01 1.18406916722097e-03 2.35271199115380e-05
1.88209090909091e+01 1.14740502421871e-03 2.28727569601520e-05
1.89427272727273e+01 1.11187616906914e-03 2.22361280854839e-05
1.90645454545455e+01 1.07744744812213e-03 2.16167717664740e-05
1.91863636363636e+01 1.04408479641429e-03 2.10142377223841e-05
1.93081818181818e+01 1.01175520344020e-03 2.04280866253482e-05
1.94300000000000e+01 9.80426681025982e-04 1.98578898124312e-05
1.95518181818182e+01 9.50068231496208e-04 1.93032291456687e-05
1.96736363636364e+01 9.20649817003729e-04 1.87636967580126e-05
1.97954545454545e+01 8.92142329809178e-04 1.82388948109943e-05
1.99172727272727e+01 8.64517563616718e-04 1.77284353421497e-05
2.00390909090909e+01 8.37748185247785e-04 1.72319400063999e-05
2.01609090909091e+01 8.11807708023894e-04 1.67490398179074e-05
2.02827272727273e+01 7.86670465413759e-04 1.62793750130749e-05
2.04045454545455e+01 7.62311585638244e-04 1.58225948037389e-05
2.05263636363636e+01 7.38706967173869e-04 1.53783572308181e-05
2.06481818181818e+01 7.15833254559714e-04 1.49463289293504e-05
2.07700000000000e+01 6.93667815642551e-04 1.45261848945407e-05
2.08918181818182e+01 6.72188719062935e-04 1.41176083503247e-05
2.10136363636364e+01 6.51374712555544e-04 1.37202905411617e-05
2.11354545454545e+01 6.31205201921435e-04 1.33339305330273e-05
2.12572727272727e+01 6.11660230741523e-04 1.29582350770288e-05
2.13790909090909e+01 5.92720460354029e-04 1.25929184015342e-05
2.15009090909091e+01 5.74367151003201e-04 1.22377020056962e-05
2.16227272727273e+01 5.56582143200789e-04 1.18923145369627e-05
2.17445454545455e+01 5.39347839758600e-04 1.15564915943877e-05
2.18663636363636e+01 5.22647188451941e-04 1.12299756017297e-05
2.19881818181818e+01 5.06463664917676e-04 1.09125156207451e-05
2.21100000000000e+01 4.90781256539359e-04 1.06038671660603e-05
2.22318181818182e+01 4.75584446523552e-04 1.03037920911620e-05
2.23536363636364e+01 4.60858198546957e-04 1.00120584225975e-05
2.24754545454545e+01 4.46587941878934e-04 9.72844020125978e-06
2.25972727272727e+01 4.32759557024670e-04 9.45271736740313e-06
2.27190909090909e+01 4.19359361570561e-04 9.18467559734955e-06
2.28409090909091e+01 4.06374096834679e-04 8.92410614185809e-06
2.29627272727273e+01 3.93790914683806e-04 8.67080572280148e-06
2.30845454545455e+01 3.81597364821147e-04 8.42457637958524e-06
2.32063636363636e+01 3.69781382517377e-04 8.18522536411029e-06
2.33281818181818e+01 3.58331276520165e-04 7.95256499528228e-06
2.34500000000000e+01 3.47235717642994e-04 7.72641251518922e-06
2.35718181818182e+01 3.36483727502192e-04 7.50658999468402e-06
2.36936363636364e+01 3.26064667654527e-04 7.29292420395041e-06
2.38154545454545e+01 3.15968229071141e-04 7.08524648845428e-06
2.39372727272727e+01 3.06184421977476e-04 6.88339267545806e-06
2.40590909090909e+01 2.96703565845982e-04 6.68720294782205e-06
2.41809090909091e+01 2.87516279943598e-04 6.49652171941845e-06
2.43027272727273e+01 2.78613474007157e-04 6.31119755107621e-06
2.44245454545455e+01 2.69986339249231e-04 6.13108303241787e-06
2.45463636363636e+01 2.61626339675710e-04 5.95603469750149e-06
2.46681818181818e+01 2.53525203537538e-04 5.78591291304540e-06
2.47900000000000e+01 2.45674915251032e-04 5.62058176819199e-06
2.49118181818182e+01 2.38067707431233e-04 5.45990899863383e-06
2.50336363636364e+01 2.30696053206572e-04 5.30376588702043e-06
2.51554545454545e+01 2.23552658771506e-04 5.15202716741701e-06
2.52772727272727e+01 2.16630456196589e-04 5.00457095114259e-06
2.53990909090909e+01 2.09922596352789e-04 4.86127863041694e-06
2.55209090909091e+01 2.03422442218932e-04 4.72203478343225e-06
2.56427272727273e+01 1.97123562286022e-04 4.58672710763256e-06
2.57645454545455e+01 1.91019724193719e-04 4.45524632980476e-06
2.58863636363636e+01 1.85104888586171e-04 4.32748613973573e-06
2.60081818181818e+01 1.79373203067733e-04 4.20334310525756e-06
2.61300000000000e+01 1.73818996482615e-04 4.08271658861585e-06
2.62518181818182e+01 1.68436773279661e-04 3.96550868676488e-06
2.63736363636364e+01 1.63221208074851e-04 3.85162415556952e-06
2.64954545454545e+01 1.58167140382166e-04 3.74097033703338e-06
2.66172727272727e+01 1.53269569525640e-04 3.63345710149419e-06
2.67390909090909e+01 1.48523649636146e-04 3.52899677474227e-06
2.68609090909091e+01 1.43924684913285e-04 3.42750406633388e-06
2.69827272727273e+01 1.39468124959867e-04 3.32889601755669e-06
2.71045454545455e+01 1.35149560279618e-04 3.23309193360691e-06
2.72263636363636e+01 1.30964717929290e-04 3.14001333221113e-06
2.73481818181818e+01 1.26909457244644e-04 3.04958387959494e-06
2.74700000000000e+01 1.22979765790746e-04 2.96172932754242e-06
2.75918181818182e+01 1.19171755375797e-04 2.87637746713313e-06
2.77136363636364e+01 1.15481658204015e-04 2.79345807154481e-06
2.78354545454545e+01 1.11905823147633e-04 2.71290284110290e-06
2.79572727272727e+01 1.08440712146485e-04 2.63464535881619e-06
2.80790909090909e+01 1.05082896670028e-04 2.55862103565542e-06
2.82009090909091e+01 1.01829054363126e-04 2.48476705680059e-06
2.83227272727273e+01 9.86759657457830e-05 2.41302234159385e-06
2.84445454545455e+01 9.56205110276872e-05 2.34332749272771e-06
2.85663636363636e+01 9.26596670315151e-05 2.27562475691927e-06
2.86881818181818e+01 8.97905041705281e-05 2.20985797697141e-06
2.88100000000000e+01 8.70101835817697e-05 2.14597254470804e-06
2.89318181818182e+01 8.43159543063230e-05 2.08391536554547e-06
2.90536363636364e+01 8.17051505674102e-05 2.02363481562535e-06
2.91754545454545e+01 7.91751891327723e-05 1.96508070060752e-06
2.92972727272727e+01 7.67235667669200e-05 1.90820422181498e-06
2.94190909090909e+01 7.43478577291705e-05 1.85295793539269e-06
2.95409090909091e+01 7.20457113992465e-05 1.79929571223381e-06
2.96627272727273e+01 6.98148499427045e-05 1.74717270747276e-06
2.97845454545455e+01 6.76530660571734e-05 1.69654532263050e-06
2.99063636363636e+01 6.55582207952196e-05 1.64737117578874e-06
3.00281818181818e+01 6.35282414269381e-05 1.59960906589489e-06
3.01500000000000e+01 6.15611194106290e-05 1.55321893775387e-06
3.02718181818182e+01 5.96549083981304e-05 1.50816185514525e-06
3.03936363636364e+01 5.78077223090287e-05 1.46439996887484e-06
3.05154545454545e+01 5.60177334644999e-05 1.42189648604789e-06
3.06372727272727e+01 5.42831707844804e-05 1.38061564450060e-06
3.07590909090909e+01 5.26023180182691e-05 1.34052268246806e-06
3.08809090909091e+01 5.09735120638005e-05 1.30158380885017e-06
3.10027272727273e+01 4.93951413161708e-05 1.26376618016117e-06
3.11245454545455e+01 4.78656440730639e-05 1.22703787245819e-06
3.12463636363636e+01 4.63835069941846e-05 1.19136785888668e-06
3.13681818181818e+01 4.49472635896478e-05 1.15672598322239e-06
3.14900000000000e+01 4.35554927835435e-05 1.12308293394493e-06
3.16118181818182e+01 4.22068175029016e-05 1.09041022399003e-06
3.17336363636364e+01 4.08999033151642e-05 1.05868016704873e-06
3.18554545454545e+01 3.96334571078468e-05 1.02786585476271e-06
3.19772727272727e+01 3.84062258128440e-05 9.97941137540878e-07
3.20990909090909e+01 3.72169951550566e-05 9.68880602125039e-07
3.22209090909091e+01 3.60645884627330e-05 9.40659549615595e-07
3.23427272727273e+01 3.49478654992012e-05 9.13253978169988e-07
3.24645454545455e+01 3.38657213346808e-05 8.86640562267141e-07
3.25863636363636e+01 3.28170852561725e-05 8.60796635904094e-07
3.27081818181818e+01 3.18009196983838e-05 8.35700173059307e-07
3.28300000000000e+01 3.08162192270034e-05 8.11329768563108e-07
3.29518181818182e+01 2.98620095405154e-05 7.87664622939605e-07
3.30736363636364e+01 2.89373465061886e-05 7.64684524892726e-07
3.31954545454545e+01 2.80413152259161e-05 7.42369834448007e-07
3.33172727272727e+01 2.71730291335326e-05 7.20701468637932e-07
3.34390909090909e+01 2.63316291097777e-05 6.99660884966899e-07
3.35609090909091e+01 2.55162826402557e-05 6.79230065226546e-07
3.36827272727273e+01 2.47261829889826e-05 6.59391502580328e-07
3.38045454545455e+01 2.39605484001741e-05 6.40128186297441e-07
3.39263636363636e+01 2.32186213268863e-05 6.21423589241398e-07
3.40481818181818e+01 2.24996676748999e-05 6.03261653491061e-07
3.41700000000000e+01 2.18029760830923e-05 5.85626776270562e-07
3.42918181818182e+01 2.11278572173003e-05 5.68503798658708e-07
3.44136363636364e+01 2.04736430882663e-05 5.51877992689912e-07
3.45354545454545e+01 1.98396863907047e-05 5.35735048933731e-07
3.46572727272727e+01 1.92253598645692e-05 5.20061065862003e-07
3.47790909090909e+01 1.86300556690898e-05 5.04842537698342e-07
3.49009090909091e+01 1.80531847867961e-05 4.90066342532366e-07
3.50227272727273e+01 1.74941764388629e-05 4.75719732722743e-07
3.51445454545455e+01 1.69524775203626e-05 4.61790323689959e-07
3.52663636363636e+01 1.64275520544583e-05 4.48266084639951e-07
3.53881818181818e+01 1.59188806576160e-05 4.35135328010912e-07
3.55100000000000e+01 1.54259600302759e-05 4.22386699152755e-07
3.56318181818182e+01 1.49483024573096e-05 4.10009167953027e-07
3.57536363636364e+01 1.44854353254573e-05 3.97992019363944e-07
3.58754545454545e+01 1.40369006557049e-05 3.86324844278036e-07
3.59972727272727e+01 1.36022546513256e-05 3.74997531660716e-07
3.61190909090909e+01 1.31810672551412e-05 3.64000259644870e-07
3.62409090909091e+01 1.27729217277147e-05 3.53323486824201e-07
3.63627272727273e+01 1.23774142337474e-05 3.42957945149927e-07
3.64845454545455e+01 1.19941534425103e-05 3.32894631723615e-07
3.66063636363636e+01 1.16227601416394e-05 3.23124801944289e-07
3.67281818181818e+01 1.12628668588804e-05 3.13639961781995e-07
3.68500000000000e+01 1.09141175016118e-05 3.04431860225557e-07
3.69718181818182e+01 1.05761670034510e-05 2.95492483094273e-07
3.70936363636364e+01 1.02486809828325e-05 2.86814046098373e-07
3.72154545454545e+01 9.93133541215804e-06 2.78388988152990e-07
3.73372727272727e+01 9.62381629799779e-06 2.70209965576323e-07
3.74590909090909e+01 9.32581936793833e-06 2.62269845577459e-07
3.75809090909091e+01 9.03704977205245e-06 2.54561699892610e-07
3.77027272727273e+01 8.75722179030066e-06 2.47078799545153e-07
3.78245454545455e+01 8.48605854982989e-06 2.39814608848548e-07
3.79463636363636e+01 8.22329175170224e-06 2.32762780359543e-07
3.80681818181818e+01 7.96866140334998e-06 2.25917149233463e-07
3.81900000000000e+01 7.72191556345386e-06 2.19271727709272e-07
3.83118181818182e+01 7.48281009193796e-06 2.12820700550872e-07
3.84336363636364e+01 7.25110840840827e-06 2.06558419974607e-07
