Energy (eV)          EEDF (eV^-(3/2))     First Anisotropy
5.35714285714286e-03 4.91877262488128e-01 2.45269594417360e-04
1.60714285714286e-02 4.88850456195031e-01 4.05125636368044e-04
2.67857142857143e-02 4.85842275596788e-01 5.35118671069054e-04
3.75000000000000e-02 4.82852606079648e-01 6.34062464769328e-04
4.82142857142857e-02 4.79881333727415e-01 7.16737823947745e-04
5.89285714285714e-02 4.76928345340283e-01 7.88727274668867e-04
6.96428571428571e-02 4.73993528405746e-01 8.52916883953561e-04
8.03571428571429e-02 4.71076771103969e-01 9.11047756368863e-04
9.10714285714286e-02 4.68177962303262e-01 9.64273504918399e-04
1.01785714285714e-01 4.65296991555992e-01 1.01340869357692e-03
1.12500000000000e-01 4.62433749096643e-01 1.05905572663318e-03
1.23214285714286e-01 4.59588125822929e-01 1.10167611436260e-03
1.33928571428571e-01 4.56760013314662e-01 1.14163342204768e-03
1.44642857142857e-01 4.53949303839417e-01 1.17922061671451e-03
1.55357142857143e-01 4.51155890285641e-01 1.21467823896500e-03
1.66071428571429e-01 4.48379666221744e-01 1.24820692223615e-03
1.76785714285714e-01 4.45620525887496e-01 1.27997629730879e-03
1.87500000000000e-01 4.42878364140770e-01 1.31013146245321e-03
1.98214285714286e-01 4.40153076502817e-01 1.33879779936920e-03
2.08928571428571e-01 4.37444559137783e-01 1.36608463288170e-03
2.19642857142857e-01 4.34752708861437e-01 1.39208805348854e-03
2.30357142857143e-01 4.32077423098881e-01 1.41689312118659e-03
2.41071428571429e-01 4.29418599919168e-01 1.44057561111117e-03
2.51785714285714e-01 4.26776138029396e-01 1.46320342738785e-03
2.62500000000000e-01 4.24149936738421e-01 1.48483773813001e-03
2.73214285714286e-01 4.21539895985524e-01 1.50553390572972e-03
2.83928571428571e-01 4.18945916325707e-01 1.52534226106314e-03
2.94642857142857e-01 4.16367898934837e-01 1.54430874833564e-03
3.05357142857143e-01 4.13805745578907e-01 1.56247546161995e-03
3.16071428571429e-01 4.11259358637373e-01 1.57988109655657e-03
3.26785714285714e-01 4.08728641098291e-01 1.59656134534160e-03
3.37500000000000e-01 4.06213496530943e-01 1.61254922445677e-03
3.48214285714286e-01 4.03713829105907e-01 1.62787535728401e-03
3.58928571428571e-01 4.01229543583447e-01 1.64256822311457e-03
3.69642857142857e-01 3.98760545316656e-01 1.65665437336595e-03
3.80357142857143e-01 3.96306740227428e-01 1.67015861622112e-03
3.91071428571429e-01 3.93868034823372e-01 1.68310417706074e-03
4.01785714285714e-01 3.91444336193506e-01 1.69551284898913e-03
4.12500000000000e-01 3.89035551986397e-01 1.70740511687975e-03
4.23214285714286e-01 3.86641590425018e-01 1.71880026800852e-03
4.33928571428571e-01 3.84262360297100e-01 1.72971649449377e-03
4.44642857142857e-01 3.81897770957007e-01 1.74017098457163e-03
4.55357142857143e-01 3.79547732306127e-01 1.75018000069879e-03
4.66071428571429e-01 3.77212154805658e-01 1.75975894847868e-03
4.76785714285714e-01 3.74890949472682e-01 1.76892244691962e-03
4.87500000000000e-01 3.72584027862047e-01 1.77768438393421e-03
4.98214285714286e-01 3.70291302077772e-01 1.78605796719074e-03
5.08928571428571e-01 3.68012684764750e-01 1.79405577379722e-03
5.19642857142857e-01 3.65748089109792e-01 1.80168979533664e-03
5.30357142857143e-01 3.63497428825130e-01 1.80897147568886e-03
5.41071428571429e-01 3.61260618158367e-01 1.81591174454031e-03
5.51785714285714e-01 3.59037571888833e-01 1.82252105535537e-03
5.62500000000000e-01 3.56828205312186e-01 1.82880941309760e-03
5.73214285714286e-01 3.54632434249377e-01 1.83478640028587e-03
5.83928571428571e-01 3.52450175039355e-01 1.84046120415364e-03
5.94642857142857e-01 3.50281344539537e-01 1.84584264155802e-03
6.05357142857143e-01 3.48125860111628e-01 1.85093917908714e-03
6.16071428571429e-01 3.45983639629520e-01 1.85575895075876e-03
6.26785714285714e-01 3.43854601475876e-01 1.86030978098741e-03
6.37500000000000e-01 3.41738664528796e-01 1.86459919949045e-03
6.48214285714286e-01 3.39635748168983e-01 1.86863445569576e-03
6.58928571428571e-01 3.37545772273237e-01 1.87242253501828e-03
6.69642857142857e-01 3.35468657214498e-01 1.87597017390761e-03
6.80357142857143e-01 3.33404323849475e-01 1.87928387126692e-03
6.91071428571429e-01 3.31352693525006e-01 1.88236989832537e-03
7.01785714285714e-01 3.29313688074825e-01 1.88523431382376e-03
7.12500000000000e-01 3.27287229807865e-01 1.88788297242112e-03
7.23214285714286e-01 3.25273241514050e-01 1.89032153310062e-03
7.33928571428571e-01 3.23271646458422e-01 1.89255546966725e-03
7.44642857142857e-01 3.21282368380879e-01 1.89459008050465e-03
7.55357142857143e-01 3.19305331485244e-01 1.89643049536781e-03
7.66071428571429e-01 3.17340460444433e-01 1.89808168106976e-03
7.76785714285714e-01 3.15387680397401e-01 1.89954845226352e-03
7.87500000000000e-01 3.13446916938746e-01 1.90083547630776e-03
7.98214285714286e-01 3.11518096123446e-01 1.90194727835410e-03
8.08928571428571e-01 3.09601144461505e-01 1.90288824853731e-03
8.19642857142857e-01 3.07695988917468e-01 1.90366264868029e-03
8.30357142857143e-01 3.05802556900658e-01 1.90427461646159e-03
8.41071428571429e-01 3.03920776269420e-01 1.90472816872734e-03
8.51785714285714e-01 3.02050575328214e-01 1.90502720959447e-03
8.62500000000000e-01 3.00191882818305e-01 1.90517553327909e-03
8.73214285714286e-01 2.98344627921655e-01 1.90517682724463e-03
8.83928571428571e-01 2.96508740256005e-01 1.90503467737886e-03
8.94642857142857e-01 2.94684149874231e-01 1.90475257283004e-03
9.05357142857143e-01 2.92870787255558e-01 1.90433390860839e-03
9.16071428571429e-01 2.91068583309054e-01 1.90378198748858e-03
9.26785714285714e-01 2.89277469370864e-01 1.90310002638094e-03
9.37500000000000e-01 2.87497377195811e-01 1.90229115793652e-03
9.48214285714286e-01 2.85728238960605e-01 1.90135843251195e-03
9.58928571428571e-01 2.83969987259310e-01 1.90030482205618e-03
9.69642857142857e-01 2.82222555102568e-01 1.89913322374298e-03
9.80357142857143e-01 2.80485875909651e-01 1.89784646160132e-03
9.91071428571429e-01 2.78759883511338e-01 1.89644728755044e-03
1.00178571428571e+00 2.77044512147289e-01 1.89493838795709e-03
1.01250000000000e+00 2.75339696453396e-01 1.89332237768075e-03
1.02321428571429e+00 2.73645371489421e-01 1.89160181390449e-03
1.03392857142857e+00 2.71961472683442e-01 1.88977918902775e-03
1.04464285714286e+00 2.70287935893249e-01 1.88785693566651e-03
1.05535714285714e+00 2.68624697339576e-01 1.88583743304868e-03
1.06607142857143e+00 2.66971693651514e-01 1.88372299105090e-03
1.07678571428571e+00 2.65328861863347e-01 1.88151587809286e-03
1.08750000000000e+00 2.63696139366327e-01 1.87921830567934e-03
1.09821428571429e+00 2.62073463966919e-01 1.87683243378095e-03
1.10892857142857e+00 2.60460773824896e-01 1.87436037302321e-03
1.11964285714286e+00 2.58858007509453e-01 1.87180418551131e-03
1.13035714285714e+00 2.57265103939437e-01 1.86916589082579e-03
1.14107142857143e+00 2.55682002423752e-01 1.86644745094721e-03
1.15178571428571e+00 2.54108642658399e-01 1.86365079576580e-03
1.16250000000000e+00 2.52544964683183e-01 1.86077780848955e-03
1.17321428571429e+00 2.50990908933685e-01 1.85783033036858e-03
1.18392857142857e+00 2.49446416185680e-01 1.85481016245367e-03
1.19464285714286e+00 2.47911427605276e-01 1.85171906613233e-03
1.20535714285714e+00 2.46385884695170e-01 1.84855876844682e-03
1.21607142857143e+00 2.44869729330759e-01 1.84533094790341e-03
1.22678571428571e+00 2.43362903757358e-01 1.84203725791977e-03
1.23750000000000e+00 2.41865350551170e-01 1.83867931309108e-03
1.24821428571429e+00 2.40377012665861e-01 1.83525869339437e-03
1.25892857142857e+00 2.38897833382436e-01 1.83177694563050e-03
1.26964285714286e+00 2.37427756354236e-01 1.82823558376285e-03
1.28035714285714e+00 2.35966725558409e-01 1.82463609368550e-03
1.29107142857143e+00 2.34514685328317e-01 1.82097991988990e-03
1.30178571428571e+00 2.33071580350909e-01 1.81726848710259e-03
1.31250000000000e+00 2.31637355631402e-01 1.81350318737922e-03
1.32321428571429e+00 2.30211956535181e-01 1.80968538388568e-03
1.33392857142857e+00 2.28795328742427e-01 1.80581641210095e-03
1.34464285714286e+00 2.27387418288642e-01 1.80189758001914e-03
1.35535714285714e+00 2.25988171520680e-01 1.79793017246195e-03
1.36607142857143e+00 2.24597535125923e-01 1.79391543856142e-03
1.37678571428571e+00 2.23215456129807e-01 1.78985461179220e-03
1.38750000000000e+00 2.21841881863749e-01 1.78574889785264e-03
1.39821428571429e+00 2.20476760002957e-01 1.78159947809353e-03
1.40892857142857e+00 2.19120038525239e-01 1.77740751053706e-03
1.41964285714286e+00 2.17771665747614e-01 1.77317412998268e-03
1.43035714285714e+00 2.16431590286339e-01 1.76890045193383e-03
1.44107142857143e+00 2.15099761083276e-01 1.76458756085128e-03
1.45178571428571e+00 2.13776127403540e-01 1.76023652874742e-03
1.46250000000000e+00 2.12460638806293e-01 1.75584840381041e-03
1.47321428571429e+00 2.11153245178971e-01 1.75142421353343e-03
1.48392857142857e+00 2.09853896699767e-01 1.74696496558879e-03
1.49464285714286e+00 2.08562543870811e-01 1.74247164786617e-03
1.50535714285714e+00 2.07279137481725e-01 1.73794523206776e-03
1.51607142857143e+00 2.06003628633511e-01 1.73338666268490e-03
1.52678571428571e+00 2.04735968736323e-01 1.72879687429541e-03
1.53750000000000e+00 2.03476109482793e-01 1.72417678088489e-03
1.54821428571429e+00 2.02224002879098e-01 1.71952727871777e-03
1.55892857142857e+00 2.00979601210705e-01 1.71484924709584e-03
1.56964285714286e+00 1.99742857072510e-01 1.71014354834812e-03
1.58035714285714e+00 1.98513723335535e-01 1.70541103113753e-03
1.59107142857143e+00 1.97292153168614e-01 1.70065252011408e-03
1.60178571428571e+00 1.96078100036291e-01 1.69586883203560e-03
1.61250000000000e+00 1.94871517674389e-01 1.69106076574148e-03
1.62321428571429e+00 1.93672360118288e-01 1.68622910479842e-03
1.63392857142857e+00 1.92480581671559e-01 1.68137461816420e-03
1.64464285714286e+00 1.91296136933418e-01 1.67649806014421e-03
1.65535714285714e+00 1.90118980768216e-01 1.67160017344352e-03
1.66607142857143e+00 1.88949068325180e-01 1.66668167945144e-03
1.67678571428571e+00 1.87786355036413e-01 1.66174329329103e-03
1.68750000000000e+00 1.86630796594481e-01 1.65678571440125e-03
1.69821428571429e+00 1.85482348978198e-01 1.65180962898398e-03
1.70892857142857e+00 1.84340968423856e-01 1.64681571058999e-03
1.71964285714286e+00 1.83206611450277e-01 1.64180462005165e-03
1.73035714285714e+00 1.82079234830803e-01 1.63677700830902e-03
1.74107142857143e+00 1.80958795611306e-01 1.63173350728352e-03
1.75178571428571e+00 1.79845251108287e-01 1.62667474394676e-03
1.76250000000000e+00 1.78738558888267e-01 1.62160133147104e-03
1.77321428571429e+00 1.77638676791352e-01 1.61651387149884e-03
1.78392857142857e+00 1.76545562904783e-01 1.61141295466413e-03
1.79464285714286e+00 1.75459175585848e-01 1.60629916050862e-03
1.80535714285714e+00 1.74379473436118e-01 1.60117306010517e-03
1.81607142857143e+00 1.73306415317904e-01 1.59603520748084e-03
1.82678571428571e+00 1.72239960352454e-01 1.59088615278546e-03
1.83750000000000e+00 1.71180067900964e-01 1.58572643397259e-03
1.84821428571429e+00 1.70126697586153e-01 1.58055657890957e-03
1.85892857142857e+00 1.69079809267907e-01 1.57537710584368e-03
1.86964285714286e+00 1.68039363064266e-01 1.57018852330778e-03
1.88035714285714e+00 1.67005319327687e-01 1.56499133256090e-03
1.89107142857143e+00 1.65977638660110e-01 1.55978601952379e-03
1.90178571428571e+00 1.64956281911236e-01 1.55457306711851e-03
1.91250000000000e+00 1.63941210161015e-01 1.54935294744380e-03
1.92321428571429e+00 1.62932384739424e-01 1.54412612374169e-03
1.93392857142857e+00 1.61929767204006e-01 1.53889305081638e-03
1.94464285714286e+00 1.60933319359122e-01 1.53365417493306e-03
1.95535714285714e+00 1.59943003234045e-01 1.52840993609304e-03
1.96607142857143e+00 1.58958781096777e-01 1.52316076044712e-03
1.97678571428571e+00 1.57980615452410e-01 1.51790707186992e-03
1.98750000000000e+00 1.57008469026937e-01 1.51264928459693e-03
1.99821428571429e+00 1.56042304785423e-01 1.50738780506037e-03
2.00892857142857e+00 1.55082085911252e-01 1.50212303226808e-03
2.01964285714286e+00 1.54127775823817e-01 1.49685535769784e-03
2.03035714285714e+00 1.53179338158277e-01 1.49158516742188e-03
2.04107142857143e+00 1.52236736778242e-01 1.48631283496619e-03
2.05178571428571e+00 1.51299935774211e-01 1.48103873217672e-03
2.06250000000000e+00 1.50368899448594e-01 1.47576322228829e-03
2.07321428571429e+00 1.49443592332419e-01 1.47048666164038e-03
2.08392857142857e+00 1.48523979166135e-01 1.46520940002100e-03
2.09464285714286e+00 1.47610024915894e-01 1.45993178055968e-03
2.10535714285714e+00 1.46701694754810e-01 1.45465414171335e-03
2.11607142857143e+00 1.45798954074626e-01 1.44937681054259e-03
2.12678571428571e+00 1.44901768484226e-01 1.44410011292177e-03
2.13750000000000e+00 1.44010103795750e-01 1.43882436701030e-03
2.14821428571429e+00 1.43123926039989e-01 1.43354988485921e-03
2.15892857142857e+00 1.42243201448594e-01 1.42827697272446e-03
2.16964285714286e+00 1.41367896469084e-01 1.42300593095944e-03
2.18035714285714e+00 1.40497977747473e-01 1.41773705587450e-03
2.19107142857143e+00 1.39633412139015e-01 1.41247063340231e-03
2.20178571428571e+00 1.38774166706786e-01 1.40720694869844e-03
2.21250000000000e+00 1.37920208708800e-01 1.40194627998943e-03
2.22321428571429e+00 1.37071505612201e-01 1.39668890007860e-03
2.23392857142857e+00 1.36228025076767e-01 1.39143507663247e-03
2.24464285714286e+00 1.35389734968756e-01 1.38618507207408e-03
2.25535714285714e+00 1.34556603344780e-01 1.38093914532585e-03
2.26607142857143e+00 1.33728598461717e-01 1.37569754583921e-03
2.27678571428571e+00 1.32905688775355e-01 1.37046052262830e-03
2.28750000000000e+00 1.32087842928422e-01 1.36522831847009e-03
2.29821428571429e+00 1.31275029763690e-01 1.36000117131747e-03
2.30892857142857e+00 1.30467218308659e-01 1.35477931456184e-03
2.31964285714286e+00 1.29664377788341e-01 1.34956297692819e-03
2.33035714285714e+00 1.28866477610285e-01 1.34435238411036e-03
2.34107142857143e+00 1.28073487373718e-01 1.33914775314127e-03
2.35178571428571e+00 1.27285376868259e-01 1.33394930089848e-03
2.36250000000000e+00 1.26502116062780e-01 1.32875723863421e-03
2.37321428571429e+00 1.25723675117522e-01 1.32357177330263e-03
2.38392857142857e+00 1.24950024369857e-01 1.31839310780126e-03
2.39464285714286e+00 1.24181134346102e-01 1.31322144086819e-03
2.40535714285714e+00 1.23416975747603e-01 1.30805696861781e-03
2.41607142857143e+00 1.22657519459173e-01 1.30289987923035e-03
2.42678571428571e+00 1.21902736547866e-01 1.29775036096464e-03
2.43750000000000e+00 1.21152598252610e-01 1.29260859699700e-03
2.44821428571429e+00 1.20407075995411e-01 1.28747476666921e-03
2.45892857142857e+00 1.19666141368108e-01 1.28234904571069e-03
2.46964285714286e+00 1.18929766143308e-01 1.27723160613861e-03
2.48035714285714e+00 1.18197922261430e-01 1.27212261770144e-03
2.49107142857143e+00 1.17470581838508e-01 1.26702224286713e-03
2.50178571428571e+00 1.16747717165021e-01 1.26193064437605e-03
2.51250000000000e+00 1.16029300696234e-01 1.25684798036957e-03
2.52321428571429e+00 1.15315305062571e-01 1.25177440556410e-03
2.53392857142857e+00 1.14605703057281e-01 1.24671007145624e-03
2.54464285714286e+00 1.13900467646567e-01 1.24165512622590e-03
2.55535714285714e+00 1.13199571957511e-01 1.23660971609405e-03
2.56607142857143e+00 1.12502989285305e-01 1.23157398059117e-03
2.57678571428571e+00 1.11810693092126e-01 1.22654805968046e-03
2.58750000000000e+00 1.11122656998129e-01 1.22153208915784e-03
2.59821428571429e+00 1.10438854791065e-01 1.21652620175726e-03
2.60892857142857e+00 1.09759260414778e-01 1.21153052734052e-03
2.61964285714286e+00 1.09083847978598e-01 1.20654519280373e-03
2.63035714285714e+00 1.08412591746086e-01 1.20157032335518e-03
2.64107142857143e+00 1.07745466141724e-01 1.19660603804666e-03
2.65178571428571e+00 1.07082445749846e-01 1.19165245649458e-03
2.66250000000000e+00 1.06423505306230e-01 1.18670969453474e-03
2.67321428571429e+00 1.05768619707019e-01 1.18177786526363e-03
2.68392857142857e+00 1.05117763997989e-01 1.17685707921426e-03
2.69464285714286e+00 1.04470913383267e-01 1.17194744426606e-03
2.70535714285714e+00 1.03828043214821e-01 1.16704906684845e-03
2.71607142857143e+00 1.03189128998669e-01 1.16216204771895e-03
2.72678571428571e+00 1.02554146393858e-01 1.15728648830768e-03
2.73750000000000e+00 1.01923071204604e-01 1.15242248661122e-03
2.74821428571429e+00 1.01295879388575e-01 1.14757013817422e-03
2.75892857142857e+00 1.00672547046875e-01 1.14272953625284e-03
2.76964285714286e+00 1.00053050432136e-01 1.13790077172773e-03
2.78035714285714e+00 9.94373659387029e-02 1.13308393423856e-03
2.79107142857143e+00 9.88254701083947e-02 1.12827910819383e-03
2.80178571428571e+00 9.82173396295264e-02 1.12348637876205e-03
2.81250000000000e+00 9.76129513295638e-02 1.11870582799080e-03
2.82321428571429e+00 9.70122821828202e-02 1.11393753573243e-03
2.83392857142857e+00 9.64153093010915e-02 1.10918157979577e-03
2.84464285714286e+00 9.58220099411810e-02 1.10443803586284e-03
2.85535714285714e+00 9.52323614957256e-02 1.09970697855841e-03
2.86607142857143e+00 9.46463414985422e-02 1.09498847767765e-03
2.87678571428571e+00 9.40639276236954e-02 1.09028260384639e-03
2.88750000000000e+00 9.34850976786240e-02 1.08558942485117e-03
2.89821428571429e+00 9.29098296112984e-02 1.08090900651291e-03
2.90892857142857e+00 9.23381015014623e-02 1.07624141282809e-03
2.91964285714286e+00 9.17698915676315e-02 1.07158670588885e-03
2.93035714285714e+00 9.12051781585132e-02 1.06694494689212e-03
2.94107142857143e+00 9.06439397579727e-02 1.06231619257184e-03
2.95178571428571e+00 9.00861549841440e-02 1.05770050054843e-03
2.96250000000000e+00 8.95318025829933e-02 1.05309792585771e-03
2.97321428571429e+00 8.89808614349783e-02 1.04850852177567e-03
2.98392857142857e+00 8.84333105468537e-02 1.04393233995001e-03
2.99464285714286e+00 8.78891290581832e-02 1.03936943032353e-03
3.00535714285714e+00 8.73482962333094e-02 1.03481984208648e-03
3.01607142857143e+00 8.68107914659711e-02 1.03028362030174e-03
3.02678571428571e+00 8.62765942784527e-02 1.02576081096221e-03
3.03750000000000e+00 8.57456843155549e-02 1.02125145770650e-03
3.04821428571429e+00 8.52180413507945e-02 1.01675560259806e-03
3.05892857142857e+00 8.46936452787310e-02 1.01227328624794e-03
3.06964285714286e+00 8.41724761210313e-02 1.00780454774138e-03
3.08035714285714e+00 8.36545140189490e-02 1.00334942553722e-03
3.09107142857143e+00 8.31397392376193e-02 9.98907954274344e-04
3.10178571428571e+00 8.26281321652467e-02 9.94480169554298e-04
3.11250000000000e+00 8.21196733074526e-02 9.90066104833405e-04
3.12321428571429e+00 8.16143432930509e-02 9.85665792158970e-04
3.13392857142857e+00 8.11121228668588e-02 9.81279262283693e-04
3.14464285714286e+00 8.06129928953478e-02 9.76906544595429e-04
3.15535714285714e+00 8.01169343595957e-02 9.72547667967043e-04
3.16607142857143e+00 7.96239283592848e-02 9.68202657733450e-04
3.17678571428571e+00 7.91339561119254e-02 9.63871540216157e-04
3.18750000000000e+00 7.86469989475535e-02 9.59554339781228e-04
3.19821428571429e+00 7.81630383141149e-02 9.55251079534996e-04
3.20892857142857e+00 7.76820557707253e-02 9.50961781431184e-04
3.21964285714286e+00 7.72040329929389e-02 9.46686466203714e-04
3.23035714285714e+00 7.67289517661402e-02 9.42425154169665e-04
3.24107142857143e+00 7.62567939892673e-02 9.38177862367477e-04
3.25178571428571e+00 7.57875416740696e-02 9.33944608838445e-04
3.26250000000000e+00 7.53211769401319e-02 9.29725409840803e-04
3.27321428571429e+00 7.48576820198955e-02 9.25520280507671e-04
3.28392857142857e+00 7.43970392523365e-02 9.21329234947371e-04
3.29464285714286e+00 7.39392310878807e-02 9.17152286179121e-04
3.30535714285714e+00 7.34842400822036e-02 9.12989446892146e-04
3.31607142857143e+00 7.30320488997001e-02 9.08840726735462e-04
3.32678571428571e+00 7.25826403127749e-02 9.04706136370511e-04
3.33750000000000e+00 7.21359971971705e-02 9.00585684832888e-04
3.34821428571429e+00 7.16921025366517e-02 8.96479380154513e-04
3.35892857142857e+00 7.12509394170735e-02 8.92387229457396e-04
3.36964285714286e+00 7.08124910309681e-02 8.88309238892464e-04
3.38035714285714e+00 7.03767406717253e-02 8.84245414357289e-04
