Energy (eV)          EEDF (eV^-(3/2))     First Anisotropy
1.15178571428571e-03 4.95545784133128e+00 2.40502320152347e-03
3.45535714285714e-03 4.92487576963962e+00 3.97247711262159e-03
5.75892857142857e-03 4.89448243189743e+00 5.24703544981292e-03
8.06250000000000e-03 4.86427666335574e+00 6.21710432140587e-03
1.03660714285714e-02 4.83425730647974e+00 7.02762614894924e-03
1.26696428571429e-02 4.80442321089422e+00 7.73334530750794e-03
1.49732142857143e-02 4.77477323304546e+00 8.36256433612824e-03
1.72767857142857e-02 4.74530623689070e+00 8.93235797593012e-03
1.95803571428571e-02 4.71602109315161e+00 9.45403982873236e-03
2.18839285714286e-02 4.68691667940765e+00 9.93559856829122e-03
2.41875000000000e-02 4.65799188044563e+00 1.03829422817806e-02
2.64910714285714e-02 4.62924558778150e+00 1.08005973659351e-02
2.87946428571429e-02 4.60067669977548e+00 1.11921297063170e-02
3.10982142857143e-02 4.57228412150396e+00 1.15604127608863e-02
3.34017857142857e-02 4.54406676498253e+00 1.19078058322876e-02
3.57053571428571e-02 4.51602354884294e+00 1.22362769238387e-02
3.80089285714286e-02 4.48815339832414e+00 1.25474899021171e-02
4.03125000000000e-02 4.46045524544417e+00 1.28428680290321e-02
4.26160714285714e-02 4.43292802873473e+00 1.31236412424573e-02
4.49196428571429e-02 4.40557069327894e+00 1.33908819925752e-02
4.72232142857143e-02 4.37838219061743e+00 1.36455328832211e-02
4.95267857142857e-02 4.35136147887328e+00 1.38884283295803e-02
5.18303571428571e-02 4.32450752254035e+00 1.41203117423793e-02
5.41339285714286e-02 4.29781929245779e+00 1.43418492677253e-02
5.64375000000000e-02 4.27129576591242e+00 1.45536409810644e-02
5.87410714285714e-02 4.24493592645250e+00 1.47562300514089e-02
6.10446428571429e-02 4.21873876389945e+00 1.49501102916623e-02
6.33482142857143e-02 4.19270327427104e+00 1.51357324496948e-02
6.56517857142857e-02 4.16682845986002e+00 1.53135095068101e-02
6.79553571428572e-02 4.14111332907523e+00 1.54838211609366e-02
7.02589285714286e-02 4.11555689641148e+00 1.56470175960118e-02
7.25625000000000e-02 4.09015818251576e+00 1.58034227482235e-02
7.48660714285714e-02 4.06491621404280e+00 1.59533371116782e-02
7.71696428571429e-02 4.03983002365430e+00 1.60970401451897e-02
7.94732142857143e-02 4.01489864995283e+00 1.62347923642498e-02
8.17767857142857e-02 3.99012113753405e+00 1.63668371828042e-02
8.40803571428572e-02 3.96549653685878e+00 1.64934025321051e-02
8.63839285714286e-02 3.94102390422170e+00 1.66147022475754e-02
8.86875000000000e-02 3.91670230179575e+00 1.67309373299557e-02
9.09910714285714e-02 3.89253079751369e+00 1.68422970595389e-02
9.32946428571429e-02 3.86850846506050e+00 1.69489599705138e-02
9.55982142857143e-02 3.84463438381471e+00 1.70510947210654e-02
9.79017857142857e-02 3.82090763888386e+00 1.71488608862411e-02
1.00205357142857e-01 3.79732732099722e+00 1.72424096772539e-02
1.02508928571429e-01 3.77389252645254e+00 1.73318845269753e-02
1.04812500000000e-01 3.75060235729541e+00 1.74174217448001e-02
1.07116071428571e-01 3.72745592077873e+00 1.74991509418088e-02
1.09419642857143e-01 3.70445233007605e+00 1.75771955534709e-02
1.11723214285714e-01 3.68159070343210e+00 1.76516732556894e-02
1.14026785714286e-01 3.65887016492581e+00 1.77226963144780e-02
1.16330357142857e-01 3.63628984384027e+00 1.77903720768524e-02
1.18633928571429e-01 3.61384887465958e+00 1.78548030914910e-02
1.20937500000000e-01 3.59154639756537e+00 1.79160875381557e-02
1.23241071428571e-01 3.56938155769692e+00 1.79743194693877e-02
1.25544642857143e-01 3.54735350581041e+00 1.80295890558838e-02
1.27848214285714e-01 3.52546139756886e+00 1.80819828209116e-02
1.30151785714286e-01 3.50370439417322e+00 1.81315838185725e-02
1.32455357142857e-01 3.48208166183353e+00 1.81784719525717e-02
1.34758928571429e-01 3.46059237175968e+00 1.82227239759991e-02
1.37062500000000e-01 3.43923570057610e+00 1.82644137786608e-02
1.39366071428571e-01 3.41801082969459e+00 1.83036125159169e-02
1.41669642857143e-01 3.39691694586707e+00 1.83403887495764e-02
1.43973214285714e-01 3.37595324058154e+00 1.83748085864322e-02
1.46276785714286e-01 3.35511891059299e+00 1.84069357732174e-02
1.48580357142857e-01 3.33441315747191e+00 1.84368319244138e-02
1.50883928571429e-01 3.31383518759127e+00 1.84645564676499e-02
1.53187500000000e-01 3.29338421247794e+00 1.84901668535865e-02
1.55491071428571e-01 3.27305944827321e+00 1.85137186270622e-02
1.57794642857143e-01 3.25286011620289e+00 1.85352655131838e-02
1.60098214285714e-01 3.23278544205626e+00 1.85548595047017e-02
1.62401785714286e-01 3.21283465663887e+00 1.85725509132038e-02
1.64705357142857e-01 3.19300699538178e+00 1.85883885438190e-02
1.67008928571429e-01 3.17330169832625e+00 1.86024196160688e-02
1.69312500000000e-01 3.15371801042493e+00 1.86146899273736e-02
1.71616071428571e-01 3.13425518107250e+00 1.86252438926537e-02
1.73919642857143e-01 3.11491246450989e+00 1.86341245995629e-02
1.76223214285714e-01 3.09568911936999e+00 1.86413738665843e-02
1.78526785714286e-01 3.07658440906785e+00 1.86470322698587e-02
1.80830357142857e-01 3.05759760145893e+00 1.86511392842071e-02
1.83133928571429e-01 3.03872796882242e+00 1.86537331937977e-02
1.85437500000000e-01 3.01997478812175e+00 1.86548512256105e-02
1.87741071428571e-01 3.00133734059236e+00 1.86545295708948e-02
1.90044642857143e-01 2.98281491209256e+00 1.86528034220171e-02
1.92348214285714e-01 2.96440679270375e+00 1.86497070128088e-02
1.94651785714286e-01 2.94611227706975e+00 1.86452736312376e-02
1.96955357142857e-01 2.92793066409527e+00 1.86395357375417e-02
1.99258928571429e-01 2.90986125692837e+00 1.86325248719542e-02
2.01562500000000e-01 2.89190336318758e+00 1.86242717673888e-02
2.03866071428571e-01 2.87405629459706e+00 1.86148063600594e-02
2.06169642857143e-01 2.85631936729336e+00 1.86041578148460e-02
2.08473214285714e-01 2.83869190147109e+00 1.85923545543709e-02
2.10776785714286e-01 2.82117322168012e+00 1.85794242631927e-02
2.13080357142857e-01 2.80376265655754e+00 1.85653939894517e-02
2.15383928571429e-01 2.78645953880979e+00 1.85502900534079e-02
2.17687500000000e-01 2.76926320541189e+00 1.85341381449451e-02
2.19991071428571e-01 2.75217299728236e+00 1.85169633275324e-02
2.22294642857143e-01 2.73518825955331e+00 1.84987900561486e-02
2.24598214285714e-01 2.71830834125424e+00 1.84796421989038e-02
2.26901785714286e-01 2.70153259557403e+00 1.84595430360561e-02
2.29205357142857e-01 2.68486037962121e+00 1.84385153492066e-02
2.31508928571429e-01 2.66829105440598e+00 1.84165813325878e-02
2.33812500000000e-01 2.65182398501597e+00 1.83937626789659e-02
2.36116071428571e-01 2.63545854032498e+00 1.83700805794485e-02
2.38419642857143e-01 2.61919409323200e+00 1.83455557364209e-02
2.40723214285714e-01 2.60303002037765e+00 1.83202083800608e-02
2.43026785714286e-01 2.58696570237623e+00 1.82940582641776e-02
2.45330357142857e-01 2.57100052360026e+00 1.82671247456264e-02
2.47633928571429e-01 2.55513387216253e+00 1.82394266993172e-02
2.49937500000000e-01 2.53936514007191e+00 1.82109825949232e-02
2.52241071428571e-01 2.52369372297113e+00 1.81818104940712e-02
2.54544642857143e-01 2.50811902034935e+00 1.81519280598430e-02
2.56848214285714e-01 2.49264043528658e+00 1.81213525696931e-02
2.59151785714286e-01 2.47725737466025e+00 1.80901009093435e-02
2.61455357142857e-01 2.46196924895060e+00 1.80581896442679e-02
2.63758928571429e-01 2.44677547222297e+00 1.80256349388611e-02
2.66062500000000e-01 2.43167546226646e+00 1.79924526256339e-02
2.68366071428571e-01 2.41666864035689e+00 1.79586582007685e-02
2.70669642857143e-01 2.40175443144656e+00 1.79242668311951e-02
2.72973214285714e-01 2.38693226393300e+00 1.78892933649013e-02
2.75276785714286e-01 2.37220156984361e+00 1.78537523236787e-02
2.77580357142857e-01 2.35756178465918e+00 1.78176579680073e-02
2.79883928571429e-01 2.34301234729642e+00 1.77810242205235e-02
2.82187500000000e-01 2.32855270023193e+00 1.77438647289245e-02
2.84491071428571e-01 2.31418228928701e+00 1.77061928605193e-02
2.86794642857143e-01 2.29990056379780e+00 1.76680217075656e-02
2.89098214285714e-01 2.28570697640519e+00 1.76293640956447e-02
2.91401785714286e-01 2.27160098322049e+00 1.75902325757709e-02
2.93705357142857e-01 2.25758204366474e+00 1.75506394836672e-02
2.96008928571429e-01 2.24364962045171e+00 1.75105968674979e-02
2.98312500000000e-01 2.22980317969898e+00 1.74701165454114e-02
3.00616071428571e-01 2.21604219073200e+00 1.74292100995031e-02
3.02919642857143e-01 2.20236612623706e+00 1.73878888798754e-02
3.05223214285714e-01 2.18877446206993e+00 1.73461640115497e-02
3.07526785714286e-01 2.17526667740482e+00 1.73040463862713e-02
3.09830357142857e-01 2.16184225458780e+00 1.72615467169465e-02
3.12133928571429e-01 2.14850067912013e+00 1.72186754695148e-02
3.14437500000000e-01 2.13524143975815e+00 1.71754429158339e-02
3.16741071428571e-01 2.12206402833434e+00 1.71318591273411e-02
3.19044642857143e-01 2.10896793989528e+00 1.70879339781635e-02
3.21348214285714e-01 2.09595267252673e+00 1.70436771508981e-02
3.23651785714286e-01 2.08301772748814e+00 1.69990981283402e-02
3.25955357142857e-01 2.07016260907834e+00 1.69542062436808e-02
3.28258928571429e-01 2.05738682461943e+00 1.69090106163380e-02
3.30562500000000e-01 2.04468988454674e+00 1.68635202007613e-02
3.32866071428571e-01 2.03207130224501e+00 1.68177437799724e-02
3.35169642857143e-01 2.01953059417311e+00 1.67716899679605e-02
3.37473214285714e-01 2.00706727970384e+00 1.67253672145773e-02
3.39776785714286e-01 1.99468088124551e+00 1.66787837973316e-02
3.42080357142857e-01 1.98237092411875e+00 1.66319478678370e-02
3.44383928571429e-01 1.97013693654086e+00 1.65848673913980e-02
3.46687500000000e-01 1.95797844970705e+00 1.65375501921974e-02
3.48991071428571e-01 1.94589499764009e+00 1.64900039468463e-02
3.51294642857143e-01 1.93388611730333e+00 1.64422361862293e-02
3.53598214285714e-01 1.92195134845361e+00 1.63942542996950e-02
3.55901785714286e-01 1.91009023375147e+00 1.63460655270174e-02
3.58205357142857e-01 1.89830231864785e+00 1.62976770014911e-02
3.60508928571429e-01 1.88658715136888e+00 1.62490956930673e-02
3.62812500000000e-01 1.87494428298949e+00 1.62003284502996e-02
3.65116071428571e-01 1.86337326729503e+00 1.61513819939902e-02
3.67419642857143e-01 1.85187366088402e+00 1.61022629186141e-02
3.69723214285714e-01 1.84044502303265e+00 1.60529776959389e-02
3.72026785714286e-01 1.82908691579506e+00 1.60035326672127e-02
3.74330357142857e-01 1.81779890389878e+00 1.59539340832442e-02
3.76633928571429e-01 1.80658055473007e+00 1.59041880508826e-02
3.78937500000000e-01 1.79543143840068e+00 1.58543005720422e-02
3.81241071428571e-01 1.78435112762031e+00 1.58042775374989e-02
3.83544642857143e-01 1.77333919779008e+00 1.57541247279868e-02
3.85848214285714e-01 1.76239522687763e+00 1.57038478173536e-02
3.88151785714286e-01 1.75151879550838e+00 1.56534523650124e-02
3.90455357142857e-01 1.74070948686898e+00 1.56029438532940e-02
3.92758928571429e-01 1.72996688669313e+00 1.55523276370655e-02
3.95062500000000e-01 1.71929058332222e+00 1.55016089801060e-02
3.97366071428571e-01 1.70868016758760e+00 1.54507930490925e-02
3.99669642857143e-01 1.69813523289577e+00 1.53998849144407e-02
4.01973214285714e-01 1.68765537511301e+00 1.53488895530755e-02
4.04276785714286e-01 1.67724019264858e+00 1.52978118411706e-02
4.06580357142857e-01 1.66688928636543e+00 1.52466565890162e-02
4.08883928571429e-01 1.65660225956650e+00 1.51954284935812e-02
4.11187500000000e-01 1.64637871804985e+00 1.51441321724813e-02
4.13491071428571e-01 1.63621826999987e+00 1.50927721581735e-02
4.15794642857143e-01 1.62612052606496e+00 1.50413528985963e-02
4.18098214285714e-01 1.61608509925088e+00 1.49898787596145e-02
4.20401785714286e-01 1.60611160499669e+00 1.49383540180620e-02
4.22705357142857e-01 1.59619966109201e+00 1.48867828943416e-02
4.25008928571429e-01 1.58634888766379e+00 1.48351695077417e-02
4.27312500000000e-01 1.57655890722663e+00 1.47835179082026e-02
4.29616071428571e-01 1.56682934458190e+00 1.47318320707362e-02
4.31919642857143e-01 1.55715982688884e+00 1.46801158959024e-02
4.34223214285714e-01 1.54754998356571e+00 1.46283732119854e-02
4.36526785714286e-01 1.53799944635927e+00 1.45766077683388e-02
4.38830357142857e-01 1.52850784926798e+00 1.45248232659026e-02
4.41133928571429e-01 1.51907482852926e+00 1.44730233151076e-02
4.43437500000000e-01 1.50970002266539e+00 1.44212114656175e-02
4.45741071428571e-01 1.50038307238994e+00 1.43693912009771e-02
4.48044642857143e-01 1.49112362067290e+00 1.43175659389639e-02
4.50348214285714e-01 1.48192131264891e+00 1.42657390335296e-02
4.52651785714286e-01 1.47277579568096e+00 1.42139137684495e-02
4.54955357142857e-01 1.46368671928893e+00 1.41620933859261e-02
4.57258928571429e-01 1.45465373513742e+00 1.41102810469109e-02
4.59562500000000e-01 1.44567649707762e+00 1.40584798589853e-02
4.61866071428571e-01 1.43675466106043e+00 1.40066928712444e-02
4.64169642857143e-01 1.42788788519614e+00 1.39549230745401e-02
4.66473214285714e-01 1.41907582966921e+00 1.39031734032265e-02
4.68776785714286e-01 1.41031815679665e+00 1.38514467291098e-02
4.71080357142857e-01 1.40161453096157e+00 1.37997458882816e-02
4.73383928571429e-01 1.39296461860141e+00 1.37480736437080e-02
4.75687500000000e-01 1.38436808824629e+00 1.36964327113935e-02
4.77991071428571e-01 1.37582461043815e+00 1.36448257554935e-02
4.80294642857143e-01 1.36733385778562e+00 1.35932553884754e-02
4.82598214285714e-01 1.35889550488464e+00 1.35417241726966e-02
4.84901785714286e-01 1.35050922837217e+00 1.34902346146374e-02
4.87205357142857e-01 1.34217470686420e+00 1.34387891901003e-02
4.89508928571429e-01 1.33389162094448e+00 1.33873903089307e-02
4.91812500000000e-01 1.32565965319959e+00 1.33360403395841e-02
4.94116071428571e-01 1.31747848814370e+00 1.32847416044673e-02
4.96419642857143e-01 1.30934781226896e+00 1.32334963800353e-02
4.98723214285714e-01 1.30126731397161e+00 1.31823068982148e-02
5.01026785714286e-01 1.29323668360129e+00 1.31311753409210e-02
5.03330357142857e-01 1.28525561340331e+00 1.30801038637404e-02
5.05633928571429e-01 1.27732379750775e+00 1.30290945626464e-02
5.07937500000000e-01 1.26944093196160e+00 1.29781494970905e-02
5.10241071428571e-01 1.26160671465866e+00 1.29272706855605e-02
5.12544642857143e-01 1.25382084538589e+00 1.28764601056278e-02
5.14848214285714e-01 1.24608302575452e+00 1.28257196952386e-02
5.17151785714286e-01 1.23839295924542e+00 1.27750513475007e-02
5.19455357142857e-01 1.23075035115520e+00 1.27244569329618e-02
5.21758928571429e-01 1.22315490858574e+00 1.26739382681903e-02
5.24062500000000e-01 1.21560634047367e+00 1.26234971374985e-02
5.26366071428572e-01 1.20810435752499e+00 1.25731352887144e-02
5.28669642857143e-01 1.20064867225767e+00 1.25228544331824e-02
5.30973214285714e-01 1.19323899893748e+00 1.24726562469453e-02
5.33276785714286e-01 1.18587505361969e+00 1.24225423657858e-02
5.35580357142857e-01 1.17855655409874e+00 1.23725144061946e-02
5.37883928571429e-01 1.17128321989815e+00 1.23225739357106e-02
5.40187500000000e-01 1.16405477229760e+00 1.22727224933655e-02
5.42491071428571e-01 1.15687093427190e+00 1.22229615856603e-02
5.44794642857143e-01 1.14973143053021e+00 1.21732926865336e-02
5.47098214285714e-01 1.14263598745611e+00 1.21237172384405e-02
5.49401785714286e-01 1.13558433314608e+00 1.20742366476433e-02
5.51705357142857e-01 1.12857619736234e+00 1.20248523039583e-02
5.54008928571429e-01 1.12161131152326e+00 1.19755655527423e-02
5.56312500000000e-01 1.11468940872819e+00 1.19263777141517e-02
5.58616071428572e-01 1.10781022370037e+00 1.18772900793152e-02
5.60919642857143e-01 1.10097349282319e+00 1.18283039102743e-02
5.63223214285714e-01 1.09417895408413e+00 1.17794204409688e-02
5.65526785714286e-01 1.08742634711024e+00 1.17306408727685e-02
5.67830357142857e-01 1.08071541312403e+00 1.16819663930806e-02
5.70133928571429e-01 1.07404589493423e+00 1.16333981488817e-02
5.72437500000000e-01 1.06741753695860e+00 1.15849372648701e-02
5.74741071428571e-01 1.06083008517061e+00 1.15365848398257e-02
5.77044642857143e-01 1.05428328713281e+00 1.14883419465297e-02
5.79348214285714e-01 1.04777689194445e+00 1.14402096326688e-02
5.81651785714286e-01 1.04131065027418e+00 1.13921889165927e-02
5.83955357142857e-01 1.03488431431880e+00 1.13442808048588e-02
5.86258928571429e-01 1.02849763779432e+00 1.12964862672178e-02
5.88562500000000e-01 1.02215037595698e+00 1.12488062537285e-02
5.90866071428572e-01 1.01584228555329e+00 1.12012416912991e-02
5.93169642857143e-01 1.00957312485095e+00 1.11537934835915e-02
5.95473214285714e-01 1.00334265358969e+00 1.11064625118522e-02
5.97776785714286e-01 9.97150633011569e-01 1.10592496308808e-02
6.00080357142857e-01 9.90996825822253e-01 1.10121556855850e-02
6.02383928571429e-01 9.84880996182452e-01 1.09651814873318e-02
6.04687500000000e-01 9.78802909727269e-01 1.09183278300943e-02
6.06991071428571e-01 9.72762333519399e-01 1.08715954871636e-02
6.09294642857143e-01 9.66759036077679e-01 1.08249852110390e-02
6.11598214285714e-01 9.60792787331082e-01 1.07784977341947e-02
6.13901785714286e-01 9.54863358646695e-01 1.07321337652540e-02
6.16205357142857e-01 9.48970522793390e-01 1.06858940046121e-02
6.18508928571429e-01 9.43114053933614e-01 1.06397791220717e-02
6.20812500000000e-01 9.37293727641207e-01 1.05937897720843e-02
6.23116071428572e-01 9.31509320857528e-01 1.05479265906273e-02
6.25419642857143e-01 9.25760611917860e-01 1.05021901950830e-02
6.27723214285714e-01 9.20047380508283e-01 1.04565811849449e-02
6.30026785714286e-01 9.14369407691547e-01 1.04111001381866e-02
6.32330357142857e-01 9.08726475872972e-01 1.03657476260139e-02
6.34633928571429e-01 9.03118368792566e-01 1.03205241917100e-02
6.36937500000000e-01 8.97544871541442e-01 1.02754303650260e-02
6.39241071428571e-01 8.92005770520666e-01 1.02304666592137e-02
6.41544642857143e-01 8.86500853465693e-01 1.01856335708967e-02
6.43848214285714e-01 8.81029909405907e-01 1.01409315807254e-02
6.46151785714286e-01 8.75592728688568e-01 1.00963611499295e-02
6.48455357142857e-01 8.70189102946778e-01 1.00519227342505e-02
6.50758928571429e-01 8.64818825091921e-01 1.00076167639278e-02
6.53062500000000e-01 8.59481689328793e-01 9.96344365729210e-03
6.55366071428572e-01 8.54177491116981e-01 9.91940381794454e-03
6.57669642857143e-01 8.48906027193488e-01 9.87549763462530e-03
6.59973214285714e-01 8.43667095534748e-01 9.83172548181792e-03
6.62276785714286e-01 8.38460495378814e-01 9.78808771647713e-03
6.64580357142857e-01 8.33286027195238e-01 9.74458469119579e-03
6.66883928571429e-01 8.28143492677819e-01 9.70121673526059e-03
6.69187500000000e-01 8.23032694758560e-01 9.65798416749922e-03
6.71491071428571e-01 8.17953437571397e-01 9.61488729360006e-03
6.73794642857143e-01 8.12905526473157e-01 9.57192640597673e-03
6.76098214285714e-01 8.07888768007885e-01 9.52910178432949e-03
6.78401785714286e-01 8.02902969927397e-01 9.48641369253699e-03
6.80705357142857e-01 7.97947941162959e-01 9.44386239110460e-03
6.83008928571429e-01 7.93023491818324e-01 9.40144811923130e-03
6.85312500000000e-01 7.88129433182615e-01 9.35917110695033e-03
6.87616071428572e-01 7.83265577696236e-01 9.31703157258597e-03
6.89919642857143e-01 7.78431738970306e-01 9.27502972261662e-03
6.92223214285714e-01 7.73627731753127e-01 9.23316575219313e-03
6.94526785714286e-01 7.68853371949242e-01 9.19143984218947e-03
6.96830357142857e-01 7.64108476592784e-01 9.14985217097409e-03
6.99133928571429e-01 7.59392863840795e-01 9.10840289742723e-03
7.01437500000000e-01 7.54706352985124e-01 9.06709217242394e-03
7.03741071428571e-01 7.50048764420368e-01 9.02592013641799e-03
7.06044642857143e-01 7.45419919661901e-01 8.98488691930171e-03
7.08348214285714e-01 7.40819641314343e-01 8.94399264088883e-03
7.10651785714286e-01 7.36247753089234e-01 8.90323740811442e-03
7.12955357142857e-01 7.31704079779947e-01 8.86262132616887e-03
7.15258928571429e-01 7.27188447255280e-01 8.82214448241369e-03
7.17562500000000e-01 7.22700682470432e-01 8.78180695724391e-03
7.19866071428572e-01 7.18240613436863e-01 8.74160882179146e-03
7.22169642857143e-01 7.13808069239009e-01 8.70155013778560e-03
7.24473214285714e-01 7.09402880004624e-01 8.66163095800336e-03
7.26776785714286e-01 7.05024876921179e-01 8.62185132360972e-03
