Energy (eV)          EEDF (eV^-(3/2))     First Anisotropy
1.40277777777778e-02 2.25548651874945e-01 1.40609417551290e-04
4.20833333333333e-02 2.23388721274193e-01 2.31853813945791e-04
7.01388888888889e-02 2.21249474909058e-01 3.05194252993319e-04
9.81944444444444e-02 2.19130714693147e-01 3.60379451606300e-04
1.26250000000000e-01 2.17032244450167e-01 4.05966341944067e-04
1.54305555555556e-01 2.14953869864578e-01 4.45203216040659e-04
1.82361111111111e-01 2.12895398508243e-01 4.79777496844107e-04
2.10416666666667e-01 2.10856639768806e-01 5.10711967365766e-04
2.38472222222222e-01 2.08837404881286e-01 5.38687446229706e-04
2.66527777777778e-01 2.06837506870144e-01 5.64186871370587e-04
2.94583333333333e-01 2.04856760559137e-01 5.87569023845534e-04
3.22638888888889e-01 2.02894982552421e-01 6.09110016283652e-04
3.50694444444444e-01 2.00951991196385e-01 6.29028338751689e-04
3.78750000000000e-01 1.99027606589471e-01 6.47500830649361e-04
4.06805555555556e-01 1.97121650541783e-01 6.64673319439886e-04
4.34861111111111e-01 1.95233946579920e-01 6.80667964403414e-04
4.62916666666667e-01 1.93364319911286e-01 6.95588480358305e-04
4.90972222222222e-01 1.91512597425569e-01 7.09523948163086e-04
5.19027777777778e-01 1.89678607662482e-01 7.22551656569260e-04
5.47083333333333e-01 1.87862180807519e-01 7.34739259916857e-04
5.75138888888889e-01 1.86063148675749e-01 7.46146448612383e-04
6.03194444444444e-01 1.84281344686122e-01 7.56826256138641e-04
6.31250000000000e-01 1.82516603859098e-01 7.66826098882920e-04
6.59305555555556e-01 1.80768762789172e-01 7.76188612172905e-04
6.87361111111111e-01 1.79037659641175e-01 7.84952329501306e-04
7.15416666666667e-01 1.77323134124545e-01 7.93152240136610e-04
7.43472222222222e-01 1.75625027488612e-01 8.00820250591570e-04
7.71527777777778e-01 1.73943182498328e-01 8.07985570240498e-04
7.99583333333333e-01 1.72277443426683e-01 8.14675034213883e-04
8.27638888888889e-01 1.70627656040050e-01 8.20913379300543e-04
8.55694444444444e-01 1.68993667577623e-01 8.26723476723009e-04
8.83750000000000e-01 1.67375326745457e-01 8.32126532724507e-04
9.11805555555556e-01 1.65772483694670e-01 8.37142261385893e-04
9.39861111111111e-01 1.64184990014989e-01 8.41789034208325e-04
9.67916666666667e-01 1.62612698713928e-01 8.46084010477952e-04
9.95972222222222e-01 1.61055464209940e-01 8.50043251139830e-04
1.02402777777778e+00 1.59513142312471e-01 8.53681819948190e-04
1.05208333333333e+00 1.57985590207424e-01 8.57013867386919e-04
1.08013888888889e+00 1.56472666468939e-01 8.60052715442722e-04
1.10819444444444e+00 1.54974230996577e-01 8.62810922561244e-04
1.13625000000000e+00 1.53490145059327e-01 8.65300346195822e-04
1.16430555555556e+00 1.52020271228025e-01 8.67532198655139e-04
1.19236111111111e+00 1.50564473415255e-01 8.69517096132067e-04
1.22041666666667e+00 1.49122616812108e-01 8.71265103815753e-04
1.24847222222222e+00 1.47694567924463e-01 8.72785775598863e-04
1.27652777777778e+00 1.46280194513634e-01 8.74088192562132e-04
1.30458333333333e+00 1.44879365618753e-01 8.75180988904262e-04
1.33263888888889e+00 1.43491951543741e-01 8.76072392094037e-04
1.36069444444444e+00 1.42117823813203e-01 8.76770243558022e-04
1.38875000000000e+00 1.40756855202675e-01 8.77282024895627e-04
1.41680555555556e+00 1.39408919686128e-01 8.77614881074905e-04
1.44486111111111e+00 1.38073892463660e-01 8.77775640884382e-04
1.47291666666667e+00 1.36751649911862e-01 8.77770836491324e-04
1.50097222222222e+00 1.35442069609227e-01 8.77606720677773e-04
1.52902777777778e+00 1.34145030289128e-01 8.77289284829755e-04
1.55708333333333e+00 1.32860411854960e-01 8.76824268059411e-04
1.58513888888889e+00 1.31588095368370e-01 8.76217179605351e-04
1.61319444444444e+00 1.30327963013647e-01 8.75473306140464e-04
1.64125000000000e+00 1.29079898119187e-01 8.74597724803850e-04
1.66930555555556e+00 1.27843785115284e-01 8.73595314593413e-04
1.69736111111111e+00 1.26619509553907e-01 8.72470766324099e-04
1.72541666666667e+00 1.25406958068514e-01 8.71228592523759e-04
1.75347222222222e+00 1.24206018392288e-01 8.69873136058388e-04
1.78152777777778e+00 1.23016579319831e-01 8.68408579942071e-04
1.80958333333333e+00 1.21838530717529e-01 8.66838950164023e-04
1.83763888888889e+00 1.20671763512880e-01 8.65168130239592e-04
1.86569444444444e+00 1.19516169665012e-01 8.63399863351406e-04
1.89375000000000e+00 1.18371642180224e-01 8.61537759739158e-04
1.92180555555556e+00 1.17238075077227e-01 8.59585303000008e-04
1.94986111111111e+00 1.16115363401519e-01 8.57545855492863e-04
1.97791666666667e+00 1.15003403192118e-01 8.55422663930844e-04
2.00597222222222e+00 1.13902091494868e-01 8.53218864155983e-04
2.03402777777778e+00 1.12811326330568e-01 8.50937487126840e-04
2.06208333333333e+00 1.11731006702096e-01 8.48581459132331e-04
2.09013888888889e+00 1.10661032584680e-01 8.46153612236153e-04
2.11819444444444e+00 1.09601304901061e-01 8.43656684234631e-04
2.14625000000000e+00 1.08551725532876e-01 8.41093323278766e-04
2.17430555555556e+00 1.07512197291531e-01 8.38466091678739e-04
2.20236111111111e+00 1.06482623928748e-01 8.35777469079842e-04
2.23041666666667e+00 1.05462910108586e-01 8.33029855895616e-04
2.25847222222222e+00 1.04452961417217e-01 8.30225576155885e-04
2.28652777777778e+00 1.03452684336028e-01 8.27366881482222e-04
2.31458333333333e+00 1.02461986246441e-01 8.24455950170240e-04
2.34263888888889e+00 1.01480775421041e-01 8.21494895192205e-04
2.37069444444444e+00 1.00508961002373e-01 8.18485763202521e-04
2.39875000000000e+00 9.95464530113204e-02 8.15430537652430e-04
2.42680555555556e+00 9.85931623223718e-02 8.12331141247292e-04
2.45486111111111e+00 9.76490006713931e-02 8.09189437928829e-04
2.48291666666667e+00 9.67138806317975e-02 8.06007235120956e-04
2.51097222222222e+00 9.57877156217506e-02 8.02786285527916e-04
2.53902777777778e+00 9.48704198812002e-02 7.99528289947579e-04
2.56708333333333e+00 9.39619084750449e-02 7.96234895877161e-04
2.59513888888889e+00 9.30620972850361e-02 7.92907703915080e-04
2.62319444444444e+00 9.21709029914819e-02 7.89548266368948e-04
2.65125000000000e+00 9.12882430794227e-02 7.86158089477849e-04
2.67930555555556e+00 9.04140358174064e-02 7.82738635085213e-04
2.70736111111111e+00 8.95482002632075e-02 7.79291321934984e-04
2.73541666666667e+00 8.86906562433345e-02 7.75817527215913e-04
2.76347222222222e+00 8.78413243583239e-02 7.72318587748085e-04
2.79152777777778e+00 8.70001259629433e-02 7.68795802072273e-04
2.81958333333333e+00 8.61669831681624e-02 7.65250428887874e-04
2.84763888888889e+00 8.53418188337504e-02 7.61683692325357e-04
2.87569444444444e+00 8.45245565523661e-02 7.58096780421079e-04
2.90375000000000e+00 8.37151206540807e-02 7.54490846774630e-04
2.93180555555556e+00 8.29134361880164e-02 7.50867011735951e-04
2.95986111111111e+00 8.21194289265247e-02 7.47226363284591e-04
2.98791666666667e+00 8.13330253474255e-02 7.43569958134468e-04
3.01597222222222e+00 8.05541526378635e-02 7.39898822544273e-04
3.04402777777778e+00 7.97827386771200e-02 7.36213953927955e-04
3.07208333333333e+00 7.90187120377062e-02 7.32516319274961e-04
3.10013888888889e+00 7.82620019785936e-02 7.28806859580914e-04
3.12819444444444e+00 7.75125384312875e-02 7.25086488319316e-04
3.15625000000000e+00 7.67702520031012e-02 7.21356092720500e-04
3.18430555555556e+00 7.60350739611640e-02 7.17616534642767e-04
3.21236111111111e+00 7.53069362354332e-02 7.13868651186279e-04
3.24041666666667e+00 7.45857714032008e-02 7.10113255508882e-04
3.26847222222222e+00 7.38715126918602e-02 7.06351137395131e-04
3.29652777777778e+00 7.31640939638906e-02 7.02583064533369e-04
3.32458333333333e+00 7.24634497173072e-02 6.98809780992032e-04
3.35263888888889e+00 7.17695150794663e-02 6.95032010996674e-04
3.38069444444444e+00 7.10822257948108e-02 6.91250457462051e-04
3.40875000000000e+00 7.04015182271927e-02 6.87465803006116e-04
3.43680555555556e+00 6.97273293458678e-02 6.83678710606631e-04
3.46486111111111e+00 6.90595967276173e-02 6.79889824039750e-04
3.49291666666667e+00 6.83982585431616e-02 6.76099768498267e-04
3.52097222222222e+00 6.77432535590936e-02 6.72309150999880e-04
3.54902777777778e+00 6.70945211246950e-02 6.68518561422483e-04
3.57708333333333e+00 6.64520011719158e-02 6.64728571070948e-04
3.60513888888889e+00 6.58156342097026e-02 6.60939735931119e-04
3.63319444444444e+00 6.51853613131680e-02 6.57152595292022e-04
3.66125000000000e+00 6.45611241251846e-02 6.53367672566848e-04
3.68930555555556e+00 6.39428648440618e-02 6.49585475798923e-04
3.71736111111111e+00 6.33305262249859e-02 6.45806497980679e-04
3.74541666666667e+00 6.27240515680523e-02 6.42031217532085e-04
3.77347222222222e+00 6.21233847195609e-02 6.38260098598826e-04
3.80152777777778e+00 6.15284700603905e-02 6.34493591906046e-04
3.82958333333333e+00 6.09392525056358e-02 6.30732133429687e-04
3.85763888888889e+00 6.03556774994145e-02 6.26976147222384e-04
3.88569444444444e+00 5.97776910052576e-02 6.23226044137465e-04
3.91375000000000e+00 5.92052395071456e-02 6.19482222504781e-04
3.94180555555556e+00 5.86382699986222e-02 6.15745068527674e-04
3.96986111111111e+00 5.80767299837114e-02 6.12014956518323e-04
3.99791666666667e+00 5.75205674663354e-02 6.08292249274522e-04
4.02597222222222e+00 5.69697309511197e-02 6.04577298300202e-04
4.05402777777778e+00 5.64241694331050e-02 6.00870444519268e-04
4.08208333333333e+00 5.58838323971375e-02 5.97172017054689e-04
4.11013888888889e+00 5.53486698131136e-02 5.93482335697620e-04
4.13819444444444e+00 5.48186321274267e-02 5.89801709735545e-04
4.16625000000000e+00 5.42936702635752e-02 5.86130438516018e-04
4.19430555555556e+00 5.37737356125126e-02 5.82468811762887e-04
4.22236111111111e+00 5.32587800331638e-02 5.78817109751790e-04
4.25041666666667e+00 5.27487558430375e-02 5.75175603610949e-04
4.27847222222222e+00 5.22436158186556e-02 5.71544555486009e-04
4.30652777777778e+00 5.17433131864200e-02 5.67924219143534e-04
4.33458333333333e+00 5.12478016218296e-02 5.64314838855256e-04
4.36263888888889e+00 5.07570352451252e-02 5.60716651565942e-04
4.39069444444444e+00 5.02709686136552e-02 5.57129885822830e-04
4.41875000000000e+00 4.97895567221565e-02 5.53554762251054e-04
4.44680555555556e+00 4.93127549941754e-02 5.49991493808535e-04
4.47486111111111e+00 4.88405192822768e-02 5.46440285917828e-04
4.50291666666667e+00 4.83728058596935e-02 5.42901336709284e-04
4.53097222222222e+00 4.79095714204683e-02 5.39374837145073e-04
4.55902777777778e+00 4.74507730713238e-02 5.35860971533777e-04
4.58708333333333e+00 4.69963683307625e-02 5.32359916514580e-04
4.61513888888889e+00 4.65463151250764e-02 5.28871842968072e-04
4.64319444444444e+00 4.61005717815185e-02 5.25396915041414e-04
4.67125000000000e+00 4.56590970283331e-02 5.21935290552877e-04
4.69930555555556e+00 4.52218499871098e-02 5.18487121199420e-04
4.72736111111111e+00 4.47887901727597e-02 5.15052552656252e-04
4.75541666666667e+00 4.43598774860677e-02 5.11631724775325e-04
4.78347222222222e+00 4.39350722136176e-02 5.08224771679018e-04
4.81152777777778e+00 4.35143350205367e-02 5.04831822202113e-04
4.83958333333333e+00 4.30976269495221e-02 5.01452998969086e-04
4.86763888888889e+00 4.26849094171837e-02 4.98088420083793e-04
4.89569444444444e+00 4.22761442079239e-02 4.94738198243802e-04
4.92375000000000e+00 4.18712934737785e-02 4.91402441087014e-04
4.95180555555556e+00 4.14703197275872e-02 4.88081251362205e-04
4.97986111111111e+00 4.10731858427944e-02 4.84774727004401e-04
5.00791666666667e+00 4.06798550467922e-02 4.81482961298179e-04
5.03597222222222e+00 4.02902909206830e-02 4.78206042948587e-04
5.06402777777778e+00 3.99044573927908e-02 4.74944056463066e-04
5.09208333333333e+00 3.95223187376457e-02 4.71697081314384e-04
5.12013888888889e+00 3.91438395726333e-02 4.68465193438902e-04
5.14819444444444e+00 3.87689848524973e-02 4.65248464433166e-04
5.17625000000000e+00 3.83977198690411e-02 4.62046961852575e-04
5.20430555555556e+00 3.80300102450143e-02 4.58860749352504e-04
5.23236111111111e+00 3.76658219337834e-02 4.55689886745395e-04
5.26041666666667e+00 3.73051212133709e-02 4.52534430135986e-04
5.28847222222222e+00 3.69478746860966e-02 4.49394431974898e-04
5.31652777777778e+00 3.65940492727651e-02 4.46269941390318e-04
5.34458333333333e+00 3.62436122116322e-02 4.43161003429474e-04
5.37263888888889e+00 3.58965310553345e-02 4.40067660390111e-04
5.40069444444444e+00 3.55527736659444e-02 4.36989951092213e-04
5.42875000000000e+00 3.52123082145691e-02 4.33927911136841e-04
5.45680555555556e+00 3.48751031758689e-02 4.30881573023585e-04
5.48486111111111e+00 3.45411273276333e-02 4.27850966193505e-04
5.51291666666667e+00 3.42103497454336e-02 4.24836117141916e-04
5.54097222222222e+00 3.38827398021780e-02 4.21837049458724e-04
5.56902777777778e+00 3.35582671628946e-02 4.18853784117574e-04
5.59708333333333e+00 3.32369017836992e-02 4.15886338788808e-04
5.62513888888889e+00 3.29186139089811e-02 4.12934729025171e-04
5.65319444444444e+00 3.26033740669491e-02 4.09998967602089e-04
5.68125000000000e+00 3.22911530691569e-02 4.07079064742725e-04
5.70930555555556e+00 3.19819220055807e-02 4.04175028216312e-04
5.73736111111111e+00 3.16756522441283e-02 4.01286863370246e-04
5.76541666666667e+00 3.13723154258353e-02 3.98414573224541e-04
5.79347222222222e+00 3.10718834643590e-02 3.95558158501910e-04
5.82152777777778e+00 3.07743285412905e-02 3.92717617880802e-04
5.84958333333333e+00 3.04796231051365e-02 3.89892947373370e-04
5.87763888888889e+00 3.01877398687398e-02 3.87084141383003e-04
5.90569444444444e+00 2.98986518052631e-02 3.84291192106844e-04
5.93375000000000e+00 2.96123321476637e-02 3.81514089732364e-04
5.96180555555556e+00 2.93287543842674e-02 3.78752822519955e-04
5.98986111111111e+00 2.90478922582321e-02 3.76007376826582e-04
6.01791666666667e+00 2.87697197632272e-02 3.73277737185239e-04
6.04597222222222e+00 2.84942111428866e-02 3.70563886327117e-04
6.07402777777778e+00 2.82213408865907e-02 3.67865805403635e-04
6.10208333333333e+00 2.79510837284722e-02 3.65183473423300e-04
6.13013888888889e+00 2.76834146450527e-02 3.62516868196433e-04
6.15819444444444e+00 2.74183088516156e-02 3.59865965794157e-04
6.18625000000000e+00 2.71557418016496e-02 3.57230740720509e-04
6.21430555555556e+00 2.68956891828635e-02 3.54611165982030e-04
6.24236111111111e+00 2.66381269166221e-02 3.52007213104980e-04
6.27041666666667e+00 2.63830311540543e-02 3.49418852202367e-04
6.29847222222222e+00 2.61303782754831e-02 3.46846051989845e-04
6.32652777777778e+00 2.58801448866243e-02 3.44288779981163e-04
6.35458333333333e+00 2.56323078176254e-02 3.41747001978351e-04
6.38263888888889e+00 2.53868441208983e-02 3.39220682916698e-04
6.41069444444444e+00 2.51437310678417e-02 3.36709786374905e-04
6.43875000000000e+00 2.49029461482669e-02 3.34214274726163e-04
6.46680555555556e+00 2.46644670668056e-02 3.31734109197067e-04
6.49486111111111e+00 2.44282717423317e-02 3.29269249879656e-04
6.52291666666667e+00 2.41943383044521e-02 3.26819655788143e-04
6.55097222222222e+00 2.39626450929247e-02 3.24385284870055e-04
6.57902777777778e+00 2.37331706542309e-02 3.21966094178513e-04
6.60708333333333e+00 2.35058937406507e-02 3.19562039410694e-04
6.63513888888889e+00 2.32807933082767e-02 3.17173075664571e-04
6.66319444444444e+00 2.30578485140482e-02 3.14799156995235e-04
6.69125000000000e+00 2.28370387151717e-02 3.12440236547896e-04
6.71930555555556e+00 2.26183434658790e-02 3.10096266607799e-04
6.74736111111111e+00 2.24017425168451e-02 3.07767198608312e-04
6.77541666666667e+00 2.21872158120211e-02 3.05452983179017e-04
6.80347222222222e+00 2.19747434880511e-02 3.03153570153100e-04
6.83152777777778e+00 2.17643058711767e-02 3.00868908719587e-04
6.85958333333333e+00 2.15558834763539e-02 2.98598947005348e-04
6.88763888888889e+00 2.13494570054315e-02 2.96343632753580e-04
6.91569444444444e+00 2.11450073444662e-02 2.94102912921917e-04
6.94375000000000e+00 2.09425155631457e-02 2.91876733799674e-04
6.97180555555556e+00 2.07419629118598e-02 2.89665041050319e-04
6.99986111111111e+00 2.05433308211238e-02 2.87467779716394e-04
7.02791666666667e+00 2.03466008987160e-02 2.85284894260423e-04
7.05597222222222e+00 2.01517549291014e-02 2.83116328569289e-04
7.08402777777778e+00 1.99587748706346e-02 2.80962026089042e-04
7.11208333333333e+00 1.97676428547185e-02 2.78821929446347e-04
7.14013888888889e+00 1.95783411841350e-02 2.76695981057214e-04
7.16819444444444e+00 1.93908523306118e-02 2.74584122762996e-04
7.19625000000000e+00 1.92051589342546e-02 2.72486295933950e-04
7.22430555555556e+00 1.90212438008995e-02 2.70402441505339e-04
7.25236111111111e+00 1.88390899015463e-02 2.68332499979977e-04
7.28041666666667e+00 1.86586803697710e-02 2.66276411463018e-04
7.30847222222222e+00 1.84799985011605e-02 2.64234115664027e-04
7.33652777777778e+00 1.83030277507833e-02 2.62205552016544e-04
7.36458333333333e+00 1.81277517323917e-02 2.60190659335106e-04
7.39263888888889e+00 1.79541542168910e-02 2.58189376361966e-04
7.42069444444444e+00 1.77822191301341e-02 2.56201641437275e-04
7.44875000000000e+00 1.76119305523668e-02 2.54227392590714e-04
7.47680555555556e+00 1.74432727158326e-02 2.52266567572214e-04
7.50486111111111e+00 1.72762300042215e-02 2.50319103852641e-04
7.53291666666667e+00 1.71107869503278e-02 2.48384938653442e-04
7.56097222222222e+00 1.69469282355017e-02 2.46464008946935e-04
7.58902777777778e+00 1.67846386873594e-02 2.44556251562453e-04
7.61708333333333e+00 1.66239032790290e-02 2.42661602875573e-04
7.64513888888889e+00 1.64647071277479e-02 2.40779999299483e-04
7.67319444444444e+00 1.63070354928606e-02 2.38911376986098e-04
7.70125000000000e+00 1.61508737752828e-02 2.37055671907237e-04
7.72930555555556e+00 1.59962075153319e-02 2.35212819880801e-04
7.75736111111111e+00 1.58430223921946e-02 2.33382756569989e-04
7.78541666666667e+00 1.56913042218057e-02 2.31565417508606e-04
7.81347222222222e+00 1.55410389563189e-02 2.29760738100001e-04
7.84152777777778e+00 1.53922126820328e-02 2.27968653711359e-04
7.86958333333333e+00 1.52448116186801e-02 2.26189099392079e-04
7.89763888888889e+00 1.50988221181413e-02 2.24422010315742e-04
7.92569444444444e+00 1.49542306626277e-02 2.22667321509127e-04
7.95375000000000e+00 1.48110238641649e-02 2.20924967924225e-04
7.98180555555556e+00 1.46691884626277e-02 2.19194884460596e-04
8.00986111111111e+00 1.45287113252282e-02 2.17477005963485e-04
8.03791666666667e+00 1.43895794445936e-02 2.15771267245349e-04
8.06597222222222e+00 1.42517799382583e-02 2.14077603083790e-04
8.09402777777778e+00 1.41153000467840e-02 2.12395948305502e-04
8.12208333333333e+00 1.39801271330916e-02 2.10726237530893e-04
8.15013888888889e+00 1.38462486812820e-02 2.09068405571915e-04
8.17819444444445e+00 1.37136522949852e-02 2.07422387186340e-04
8.20625000000000e+00 1.35823256968659e-02 2.05788117141707e-04
8.23430555555556e+00 1.34522567268423e-02 2.04165530234393e-04
8.26236111111111e+00 1.33234333415959e-02 2.02554561286872e-04
8.29041666666667e+00 1.31958436128290e-02 2.00955145166134e-04
8.31847222222222e+00 1.30694757267794e-02 1.99367216780819e-04
8.34652777777778e+00 1.29443179825155e-02 1.97790711155966e-04
8.37458333333333e+00 1.28203587913096e-02 1.96225563201438e-04
8.40263888888889e+00 1.26975866755562e-02 1.94671708070219e-04
8.43069444444444e+00 1.25759902672724e-02 1.93129080935553e-04
8.45875000000000e+00 1.24555583076259e-02 1.91597617047762e-04
8.48680555555556e+00 1.23362796453197e-02 1.90077251750525e-04
8.51486111111111e+00 1.22181432361249e-02 1.88567920477546e-04
8.54291666666667e+00 1.21011381413001e-02 1.87069558768250e-04
8.57097222222222e+00 1.19852535271290e-02 1.85582102264310e-04
8.59902777777778e+00 1.18704786633744e-02 1.84105486776332e-04
8.62708333333333e+00 1.17568029226900e-02 1.82639648073821e-04
8.65513888888889e+00 1.16442157796299e-02 1.81184522208000e-04
8.68319444444444e+00 1.15327068092840e-02 1.79740045309641e-04
8.71125000000000e+00 1.14222656868306e-02 1.78306153639626e-04
8.73930555555556e+00 1.13128821860696e-02 1.76882783602826e-04
8.76736111111111e+00 1.12045461789795e-02 1.75469871744304e-04
8.79541666666667e+00 1.10972476342824e-02 1.74067354762728e-04
8.82347222222222e+00 1.09909766170060e-02 1.72675169506510e-04
8.85152777777778e+00 1.08857232870792e-02 1.71293253033266e-04
