Energy (eV)          EEDF (eV^-(3/2))     First Anisotropy
1.39285714285714e-02 1.81044447927077e-01 1.04631245720459e-04
4.17857142857143e-02 1.79557276783895e-01 1.72646705055634e-04
6.96428571428571e-02 1.78082321860210e-01 2.27571144671637e-04
9.75000000000000e-02 1.76619482802242e-01 2.69090059876561e-04
1.25357142857143e-01 1.75168660091728e-01 3.03545959241682e-04
1.53214285714286e-01 1.73729755014174e-01 3.33341598411050e-04
1.81071428571429e-01 1.72302669674049e-01 3.59722736027163e-04
2.08928571428571e-01 1.70887306979723e-01 3.83443024233615e-04
2.36785714285714e-01 1.69483570636809e-01 4.05003199623419e-04
2.64642857142857e-01 1.68091365142085e-01 4.24757805068959e-04
2.92500000000000e-01 1.66710595776744e-01 4.42969757077610e-04
3.20357142857143e-01 1.65341168604473e-01 4.59841028942267e-04
3.48214285714286e-01 1.63982990451248e-01 4.75531161549493e-04
3.76071428571429e-01 1.62635968913259e-01 4.90169057831498e-04
4.03928571428571e-01 1.61300012345716e-01 5.03860834766691e-04
4.31785714285714e-01 1.59975029856574e-01 5.16695238683043e-04
4.59642857142857e-01 1.58660931300455e-01 5.28747494404703e-04
4.87500000000000e-01 1.57357627272458e-01 5.40082110987911e-04
5.15357142857143e-01 1.56065029104648e-01 5.50754973180691e-04
5.43214285714286e-01 1.54783048852170e-01 5.60814928401028e-04
5.71071428571429e-01 1.53511599295287e-01 5.70305011930350e-04
5.98928571428571e-01 1.52250593930710e-01 5.79263408226998e-04
6.26785714285714e-01 1.50999946965700e-01 5.87724213246400e-04
6.54642857142857e-01 1.49759573312273e-01 5.95718047143107e-04
6.82500000000000e-01 1.48529388581386e-01 6.03272551615493e-04
7.10357142857143e-01 1.47309309078940e-01 6.10412798531085e-04
7.38214285714286e-01 1.46099251794780e-01 6.17161627002293e-04
7.66071428571429e-01 1.44899134402440e-01 6.23539924433265e-04
7.93928571428571e-01 1.43708875251712e-01 6.29566863695815e-04
8.21785714285714e-01 1.42528393363085e-01 6.35260103001065e-04
8.49642857142857e-01 1.41357608422254e-01 6.40635956269703e-04
8.77500000000000e-01 1.40196440774649e-01 6.45709538876488e-04
9.05357142857143e-01 1.39044811421290e-01 6.50494893852034e-04
9.33214285714286e-01 1.37902642009525e-01 6.55005100303566e-04
9.61071428571429e-01 1.36769854831642e-01 6.59252367670873e-04
9.88928571428571e-01 1.35646372818251e-01 6.63248118475896e-04
1.01678571428571e+00 1.34532119536266e-01 6.67003063224523e-04
1.04464285714286e+00 1.33427019166434e-01 6.70527259507568e-04
1.07250000000000e+00 1.32330996533944e-01 6.73830170784177e-04
1.10035714285714e+00 1.31243977070382e-01 6.76920720250105e-04
1.12821428571429e+00 1.30165886819897e-01 6.79807331978254e-04
1.15607142857143e+00 1.29096652425025e-01 6.82497968116358e-04
1.18392857142857e+00 1.28036201149654e-01 6.85000167610791e-04
1.21178571428571e+00 1.26984460845488e-01 6.87321082587526e-04
1.23964285714286e+00 1.25941359948604e-01 6.89467498638566e-04
1.26750000000000e+00 1.24906827500057e-01 6.91445865318601e-04
1.29535714285714e+00 1.23880793115019e-01 6.93262322579529e-04
1.32321428571429e+00 1.22863186986844e-01 6.94922719236566e-04
1.35107142857143e+00 1.21853939874944e-01 6.96432630149472e-04
1.37892857142857e+00 1.20852983122604e-01 6.97797376642511e-04
1.40678571428571e+00 1.19860248629327e-01 6.99022046528104e-04
1.43464285714286e+00 1.18875668847263e-01 7.00111501461839e-04
1.46250000000000e+00 1.17899176797342e-01 7.01070394420746e-04
1.49035714285714e+00 1.16930706043581e-01 7.01903184699448e-04
1.51821428571429e+00 1.15970190695736e-01 7.02614146847035e-04
1.54607142857143e+00 1.15017565398736e-01 7.03207379236979e-04
1.57392857142857e+00 1.14072765346790e-01 7.03686816205466e-04
1.60178571428571e+00 1.13135726260087e-01 7.04056240473932e-04
1.62964285714286e+00 1.12206384381211e-01 7.04319284926833e-04
1.65750000000000e+00 1.11284676488015e-01 7.04479443800881e-04
1.68535714285714e+00 1.10370539871799e-01 7.04540082119850e-04
1.71321428571429e+00 1.09463912338988e-01 7.04504440150642e-04
1.74107142857143e+00 1.08564732201792e-01 7.04375637842333e-04
1.76892857142857e+00 1.07672938289547e-01 7.04156682742505e-04
1.79678571428571e+00 1.06788469928761e-01 7.03850478444383e-04
1.82464285714286e+00 1.05911266939592e-01 7.03459823797013e-04
1.85250000000000e+00 1.05041269646248e-01 7.02987420700746e-04
1.88035714285714e+00 1.04178418858197e-01 7.02435880542542e-04
1.90821428571429e+00 1.03322655871127e-01 7.01807726369953e-04
1.93607142857143e+00 1.02473922458619e-01 7.01105395187177e-04
1.96392857142857e+00 1.01632160881364e-01 7.00331243506826e-04
1.99178571428571e+00 1.00797313869853e-01 6.99487553511329e-04
2.01964285714286e+00 9.99693246209646e-02 6.98576531056627e-04
2.04750000000000e+00 9.91481368064451e-02 6.97600311465064e-04
2.07535714285714e+00 9.83336945565434e-02 6.96560964201757e-04
2.10321428571429e+00 9.75259424604483e-02 6.95460493819341e-04
2.13107142857143e+00 9.67248255588047e-02 6.94300841077221e-04
2.15892857142857e+00 9.59302893512645e-02 6.93083887063315e-04
2.18678571428571e+00 9.51422797813226e-02 6.91811457935067e-04
2.21464285714286e+00 9.43607432330338e-02 6.90485322377461e-04
2.24250000000000e+00 9.35856265379778e-02 6.89107196123678e-04
2.27035714285714e+00 9.28168769608751e-02 6.87678745525910e-04
2.29821428571429e+00 9.20544421996369e-02 6.86201587812824e-04
2.32607142857143e+00 9.12982703785960e-02 6.84677291536443e-04
2.35392857142857e+00 9.05483100547339e-02 6.83107379771710e-04
2.38178571428571e+00 8.98045102042882e-02 6.81493333915605e-04
2.40964285714286e+00 8.90668202196048e-02 6.79836590936471e-04
2.43750000000000e+00 8.83351899148956e-02 6.78138547034893e-04
2.46535714285714e+00 8.76095695134965e-02 6.76400560477996e-04
2.49321428571429e+00 8.68899096476305e-02 6.74623951464724e-04
2.52107142857143e+00 8.61761613522524e-02 6.72810002178754e-04
2.54892857142857e+00 8.54682760702101e-02 6.70959959360334e-04
2.57678571428571e+00 8.47662056403356e-02 6.69075037445674e-04
2.60464285714286e+00 8.40699022944371e-02 6.67156415784674e-04
2.63250000000000e+00 8.33793186620791e-02 6.65205241689848e-04
2.66035714285714e+00 8.26944077592241e-02 6.63222632755113e-04
2.68821428571429e+00 8.20151229877815e-02 6.61209676496705e-04
2.71607142857143e+00 8.13414181299873e-02 6.59167430173002e-04
2.74392857142857e+00 8.06732473526967e-02 6.57096922908856e-04
2.77178571428571e+00 8.00105651967341e-02 6.54999158350917e-04
2.79964285714286e+00 7.93533265740262e-02 6.52875111948061e-04
2.82750000000000e+00 7.87014867715822e-02 6.50725733545277e-04
2.85535714285714e+00 7.80550014413151e-02 6.48551949325935e-04
2.88321428571429e+00 7.74138265994321e-02 6.46354661327444e-04
2.91107142857143e+00 7.67779186212837e-02 6.44134747123997e-04
2.93892857142857e+00 7.61472342449434e-02 6.41893061619185e-04
2.96678571428571e+00 7.55217305616371e-02 6.39630439332377e-04
2.99464285714286e+00 7.49013650130150e-02 6.37347691790486e-04
3.02250000000000e+00 7.42860953944727e-02 6.35045609771371e-04
3.05035714285714e+00 7.36758798459883e-02 6.32724964961169e-04
3.07821428571429e+00 7.30706768513956e-02 6.30386509404425e-04
3.10607142857143e+00 7.24704452336506e-02 6.28030975108742e-04
3.13392857142857e+00 7.18751441578200e-02 6.25659075583030e-04
3.16178571428571e+00 7.12847331224448e-02 6.23271507833623e-04
3.18964285714286e+00 7.06991719569484e-02 6.20868949891336e-04
3.21750000000000e+00 7.01184208244105e-02 6.18452062776407e-04
3.24535714285714e+00 6.95424402132853e-02 6.16021491933528e-04
3.27321428571429e+00 6.89711909365915e-02 6.13577866653235e-04
3.30107142857143e+00 6.84046341275504e-02 6.11121799635393e-04
3.32892857142857e+00 6.78427312420826e-02 6.08653888327046e-04
3.35678571428571e+00 6.72854440509857e-02 6.06174716683810e-04
3.38464285714286e+00 6.67327346374752e-02 6.03684852841847e-04
3.41250000000000e+00 6.61845653995006e-02 6.01184850856180e-04
3.44035714285714e+00 6.56408990422354e-02 5.98675251957639e-04
3.46821428571429e+00 6.51016985772083e-02 5.96156583968482e-04
3.49607142857143e+00 6.45669273182753e-02 5.93629360848207e-04
3.52392857142857e+00 6.40365488837048e-02 5.91094083869342e-04
3.55178571428571e+00 6.35105271890705e-02 5.88551243185271e-04
3.57964285714286e+00 6.29888264449187e-02 5.86001315648415e-04
3.60750000000000e+00 6.24714111587024e-02 5.83444766360174e-04
3.63535714285714e+00 6.19582461279492e-02 5.80882049782419e-04
3.66321428571429e+00 6.14492964393544e-02 5.78313609161272e-04
3.69107142857143e+00 6.09445274650547e-02 5.75739876070312e-04
3.71892857142857e+00 6.04439048643659e-02 5.73161271452968e-04
3.74678571428571e+00 5.99473945773090e-02 5.70578207027353e-04
3.77464285714286e+00 5.94549628223987e-02 5.67991083247620e-04
3.80250000000000e+00 5.89665760982548e-02 5.65400290694746e-04
3.83035714285714e+00 5.84822011773715e-02 5.62806211066676e-04
3.85821428571429e+00 5.80018051051873e-02 5.60209216619129e-04
3.88607142857143e+00 5.75253551966317e-02 5.57609669715718e-04
3.91392857142857e+00 5.70528190375715e-02 5.55007923758586e-04
3.94178571428571e+00 5.65841644788965e-02 5.52404324454112e-04
3.96964285714286e+00 5.61193596344261e-02 5.49799207911577e-04
3.99750000000000e+00 5.56583728822474e-02 5.47192901897744e-04
4.02535714285714e+00 5.52011728590192e-02 5.44585726724247e-04
4.05321428571429e+00 5.47477284590316e-02 5.41977994710575e-04
4.08107142857143e+00 5.42980088310010e-02 5.39370009747177e-04
4.10892857142857e+00 5.38519833792690e-02 5.36762068131038e-04
4.13678571428571e+00 5.34096217583890e-02 5.34154459711206e-04
4.16464285714286e+00 5.29708938711437e-02 5.31547466117690e-04
4.19250000000000e+00 5.25357698696525e-02 5.28941361897984e-04
4.22035714285714e+00 5.21042201501535e-02 5.26336415316437e-04
4.24821428571429e+00 5.16762153520620e-02 5.23732887842256e-04
4.27607142857143e+00 5.12517263549923e-02 5.21131033729234e-04
4.30392857142857e+00 5.08307242797472e-02 5.18531100769478e-04
4.33178571428571e+00 5.04131804833521e-02 5.15933331334228e-04
4.35964285714286e+00 4.99990665571796e-02 5.13337960725242e-04
4.38750000000000e+00 4.95883543278603e-02 5.10745218207856e-04
4.41535714285714e+00 4.91810158524935e-02 5.08155327734328e-04
4.44321428571429e+00 4.87770234177130e-02 5.05568507458117e-04
4.47107142857143e+00 4.83763495369158e-02 5.02984969332338e-04
4.49892857142857e+00 4.79789669510735e-02 5.00404919792451e-04
4.52678571428571e+00 4.75848486241700e-02 4.97828560704780e-04
4.55464285714286e+00 4.71939677414263e-02 4.95256087832561e-04
4.58250000000000e+00 4.68062977100454e-02 4.92687691777890e-04
4.61035714285714e+00 4.64218121548085e-02 4.90123558638612e-04
4.63821428571429e+00 4.60404849171535e-02 4.87563869549161e-04
4.66607142857143e+00 4.56622900525946e-02 4.85008800298761e-04
4.69392857142857e+00 4.52872018313816e-02 4.82458521951918e-04
4.72178571428571e+00 4.49151947343012e-02 4.79913201715080e-04
4.74964285714286e+00 4.45462434509982e-02 4.77373001509776e-04
4.77750000000000e+00 4.41803228805781e-02 4.74838078833639e-04
4.80535714285714e+00 4.38174081275522e-02 4.72308587358609e-04
4.83321428571429e+00 4.34574745009335e-02 4.69784676498198e-04
4.86107142857143e+00 4.31004975118309e-02 4.67266491045774e-04
4.88892857142857e+00 4.27464528739801e-02 4.64754171740113e-04
4.91678571428571e+00 4.23953164998734e-02 4.62247856059126e-04
4.94464285714286e+00 4.20470644991721e-02 4.59747676892608e-04
4.97250000000000e+00 4.17016731791887e-02 4.57253763331026e-04
5.00035714285714e+00 4.13591190411469e-02 4.54766241211686e-04
5.02821428571429e+00 4.10193787792992e-02 4.52285232711725e-04
5.05607142857143e+00 4.06824292786824e-02 4.49810856006437e-04
5.08392857142857e+00 4.03482476155378e-02 4.47343225785943e-04
5.11178571428571e+00 4.00168110537403e-02 4.44882453983508e-04
5.13964285714286e+00 3.96880970432969e-02 4.42428648540913e-04
5.16750000000000e+00 3.93620832207258e-02 4.39981914132473e-04
5.19535714285714e+00 3.90387474056038e-02 4.37542352664814e-04
5.22321428571429e+00 3.87180675997064e-02 4.35110062894617e-04
5.25107142857143e+00 3.84000219849132e-02 4.32685140106489e-04
5.27892857142857e+00 3.80845889235343e-02 4.30267676585999e-04
5.30678571428571e+00 3.77717469550103e-02 4.27857762289184e-04
5.33464285714286e+00 3.74614747944931e-02 4.25455483693910e-04
5.36250000000000e+00 3.71537513331375e-02 4.23060924465451e-04
5.39035714285714e+00 3.68485556349095e-02 4.20674165914778e-04
5.41821428571429e+00 3.65458669357519e-02 4.18295286639929e-04
5.44607142857143e+00 3.62456646416273e-02 4.15924362222807e-04
5.47392857142857e+00 3.59479283287649e-02 4.13561465663072e-04
5.50178571428571e+00 3.56526377406080e-02 4.11206667994487e-04
5.52964285714286e+00 3.53597727864723e-02 4.08860037216053e-04
5.55750000000000e+00 3.50693135417633e-02 4.06521638904844e-04
5.58535714285714e+00 3.47812402450217e-02 4.04191536636950e-04
5.61321428571429e+00 3.44955332971172e-02 4.01869791651200e-04
5.64107142857143e+00 3.42121732594182e-02 3.99556462564166e-04
5.66892857142857e+00 3.39311408539710e-02 3.97251605768866e-04
5.69678571428571e+00 3.36524169606734e-02 3.94955276002810e-04
5.72464285714286e+00 3.33759826160062e-02 3.92667525353255e-04
5.75250000000000e+00 3.31018190131876e-02 3.90388403822144e-04
5.78035714285714e+00 3.28299074994365e-02 3.88117959713260e-04
5.80821428571429e+00 3.25602295751931e-02 3.85856239317299e-04
5.83607142857143e+00 3.22927668924077e-02 3.83603286644107e-04
5.86392857142857e+00 3.20275012546622e-02 3.81359143789501e-04
5.89178571428571e+00 3.17644146145501e-02 3.79123851459616e-04
5.91964285714286e+00 3.15034890724781e-02 3.76897448044771e-04
5.94750000000000e+00 3.12447068767667e-02 3.74679970140805e-04
5.97535714285714e+00 3.09880504211122e-02 3.72471452905833e-04
6.00321428571429e+00 3.07335022438365e-02 3.70271929765259e-04
6.03107142857143e+00 3.04810450262848e-02 3.68081432160406e-04
6.05892857142857e+00 3.02306615928990e-02 3.65899989886555e-04
6.08678571428571e+00 2.99823349087870e-02 3.63727631577319e-04
6.11464285714286e+00 2.97360480785901e-02 3.61564383842220e-04
6.14250000000000e+00 2.94917843465382e-02 3.59410271748395e-04
6.17035714285714e+00 2.92495270940948e-02 3.57265319149533e-04
6.19821428571429e+00 2.90092598392347e-02 3.55129548409791e-04
6.22607142857143e+00 2.87709662349447e-02 3.53002980167944e-04
6.25392857142857e+00 2.85346300692549e-02 3.50885633649176e-04
6.28178571428571e+00 2.83002352629822e-02 3.48777527113015e-04
6.30964285714286e+00 2.80677658686605e-02 3.46678677050036e-04
6.33750000000000e+00 2.78372060705572e-02 3.44589098627317e-04
6.36535714285714e+00 2.76085401824861e-02 3.42508805992071e-04
6.39321428571429e+00 2.73817526471137e-02 3.40437812013277e-04
6.42107142857143e+00 2.71568280345546e-02 3.38376128060544e-04
6.44892857142857e+00 2.69337510423683e-02 3.36323764291974e-04
6.47678571428571e+00 2.67125064934627e-02 3.34280730068710e-04
6.50464285714286e+00 2.64930793350833e-02 3.32247033206549e-04
6.53250000000000e+00 2.62754546387974e-02 3.30222680388189e-04
6.56035714285714e+00 2.60596175984615e-02 3.28207677443840e-04
6.58821428571429e+00 2.58455535295555e-02 3.26202029109440e-04
6.61607142857143e+00 2.56332478678670e-02 3.24205738819324e-04
6.64392857142857e+00 2.54226861694590e-02 3.22218808972279e-04
6.67178571428571e+00 2.52138541087203e-02 3.20241241315522e-04
6.69964285714286e+00 2.50067374774107e-02 3.18273036247236e-04
6.72750000000000e+00 2.48013221846183e-02 3.16314193198399e-04
6.75535714285714e+00 2.45975942548692e-02 3.14364710892350e-04
6.78321428571429e+00 2.43955398274894e-02 3.12424587118500e-04
6.81107142857143e+00 2.41951451553715e-02 3.10493818538031e-04
6.83892857142857e+00 2.39963966049184e-02 3.08572400930042e-04
6.86678571428571e+00 2.37992806542292e-02 3.06660329547382e-04
6.89464285714286e+00 2.36037838921969e-02 3.04757598466534e-04
6.92250000000000e+00 2.34098930184444e-02 3.02864200941503e-04
6.95035714285714e+00 2.32175948415641e-02 3.00980129644037e-04
6.97821428571429e+00 2.30268762785078e-02 2.99105376451951e-04
7.00607142857143e+00 2.28377243534302e-02 2.97239932267039e-04
7.03392857142857e+00 2.26501261976124e-02 2.95383787242910e-04
7.06178571428571e+00 2.24640690477731e-02 2.93536931115033e-04
7.08964285714286e+00 2.22795402452165e-02 2.91699352594534e-04
7.11750000000000e+00 2.20965272357493e-02 2.89871039696444e-04
7.14535714285714e+00 2.19150175680418e-02 2.88051979962181e-04
7.17321428571429e+00 2.17349988930447e-02 2.86242160261514e-04
7.20107142857143e+00 2.15564589629035e-02 2.84441566621925e-04
7.22892857142857e+00 2.13793856308666e-02 2.82650184439678e-04
7.25678571428571e+00 2.12037668497113e-02 2.80867998786180e-04
7.28464285714286e+00 2.10295906709396e-02 2.79094993842467e-04
7.31250000000000e+00 2.08568452446798e-02 2.77331153203888e-04
7.34035714285714e+00 2.06855188181596e-02 2.75576460086346e-04
7.36821428571429e+00 2.05155997351485e-02 2.73830897140951e-04
7.39607142857143e+00 2.03470764349403e-02 2.72094446294180e-04
7.42392857142857e+00 2.01799374522462e-02 2.70367088943528e-04
7.45178571428571e+00 2.00141714157296e-02 2.68648806241935e-04
7.47964285714286e+00 1.98497670472451e-02 2.66939578570274e-04
7.50750000000000e+00 1.96867131617286e-02 2.65239385820220e-04
7.53535714285714e+00 1.95249986657741e-02 2.63548207585524e-04
7.56321428571429e+00 1.93646125571010e-02 2.61866022988627e-04
7.59107142857143e+00 1.92055439235989e-02 2.60192810530858e-04
7.61892857142857e+00 1.90477819432112e-02 2.58528548273909e-04
7.64678571428571e+00 1.88913158825675e-02 2.56873214104121e-04
7.67464285714286e+00 1.87361350962657e-02 2.55226785240173e-04
7.70250000000000e+00 1.85822290267526e-02 2.53589238495905e-04
7.73035714285714e+00 1.84295872029956e-02 2.51960550457838e-04
7.75821428571429e+00 1.82781992399754e-02 2.50340697322845e-04
7.78607142857143e+00 1.81280548377892e-02 2.48729654757876e-04
7.81392857142857e+00 1.79791437815252e-02 2.47127398068369e-04
7.84178571428571e+00 1.78314559399878e-02 2.45533902443865e-04
7.86964285714286e+00 1.76849812650189e-02 2.43949142498515e-04
7.89750000000000e+00 1.75397097913710e-02 2.42373092515335e-04
7.92535714285714e+00 1.73956316354683e-02 2.40805726611046e-04
7.95321428571429e+00 1.72527369949227e-02 2.39247018584193e-04
7.98107142857143e+00 1.71110161476911e-02 2.37696941783670e-04
8.00892857142857e+00 1.69704594519451e-02 2.36155469265087e-04
8.03678571428572e+00 1.68310573448796e-02 2.34622574019178e-04
8.06464285714286e+00 1.66928003420729e-02 2.33098228542840e-04
8.09250000000000e+00 1.65556790373538e-02 2.31582405066269e-04
8.12035714285714e+00 1.64196841016450e-02 2.30075075706041e-04
8.14821428571429e+00 1.62848062825020e-02 2.28576212322950e-04
8.17607142857143e+00 1.61510364033218e-02 2.27085786398827e-04
8.20392857142857e+00 1.60183653632076e-02 2.25603769181863e-04
8.23178571428572e+00 1.58867841358568e-02 2.24130131899070e-04
8.25964285714286e+00 1.57562837689562e-02 2.22664845355640e-04
8.28750000000000e+00 1.56268553840453e-02 2.21207880146285e-04
8.31535714285714e+00 1.54984901754363e-02 2.19759206797506e-04
8.34321428571429e+00 1.53711794097750e-02 2.18318795634533e-04
8.37107142857143e+00 1.52449144252971e-02 2.16886616665909e-04
8.39892857142857e+00 1.51196866316900e-02 2.15462639718510e-04
8.42678571428571e+00 1.49954875090540e-02 2.14046834635274e-04
8.45464285714286e+00 1.48723086073312e-02 2.12639170901052e-04
8.48250000000000e+00 1.47501415461662e-02 2.11239617839225e-04
8.51035714285714e+00 1.46289780138969e-02 2.09848144743998e-04
8.53821428571429e+00 1.45088097671366e-02 2.08464720755815e-04
8.56607142857143e+00 1.43896286300756e-02 2.07089314753226e-04
8.59392857142857e+00 1.42714264943405e-02 2.05721895478459e-04
8.62178571428571e+00 1.41541953180236e-02 2.04362431721444e-04
8.64964285714286e+00 1.40379271251442e-02 2.03010891970297e-04
8.67750000000000e+00 1.39226140055068e-02 2.01667244594373e-04
8.70535714285714e+00 1.38082481137589e-02 2.00331457967272e-04
8.73321428571429e+00 1.36948216689926e-02 1.99003500350260e-04
8.76107142857143e+00 1.35823269540889e-02 1.97683339790914e-04
8.78892857142857e+00 1.34707563155757e-02 1.96370944239856e-04
