Energy (eV)          EEDF (eV^-(3/2))     First Anisotropy
9.13333333333333e-02 4.99419100543700e-02 4.79871919229305e-05
2.74000000000000e-01 4.88046079758314e-02 7.86024872617516e-05
4.56666666666667e-01 4.76932051113851e-02 1.02087617794300e-04
6.39333333333333e-01 4.66071116663472e-02 1.18940952689078e-04
8.22000000000000e-01 4.55457512821408e-02 1.32201412338390e-04
1.00466666666667e+00 4.45085607266788e-02 1.43047091964855e-04
1.18733333333333e+00 4.34949895913298e-02 1.52102127659084e-04
1.37000000000000e+00 4.25045000003540e-02 1.59751933556947e-04
1.55266666666667e+00 4.15365663370140e-02 1.66257642164041e-04
1.73533333333333e+00 4.05906749396443e-02 1.71807616304536e-04
1.91800000000000e+00 3.96663238509672e-02 1.76544016317935e-04
2.10066666666667e+00 3.87630225493134e-02 1.80577869726198e-04
2.28333333333333e+00 3.78802916738736e-02 1.83998240528057e-04
2.46600000000000e+00 3.70176627847628e-02 1.86878122545222e-04
2.64866666666667e+00 3.61746781130876e-02 1.89278398408883e-04
2.83133333333333e+00 3.53508903076117e-02 1.91250593544024e-04
3.01400000000000e+00 3.45458622078058e-02 1.92838851181968e-04
3.19666666666667e+00 3.37591666109953e-02 1.94081386880184e-04
3.37933333333333e+00 3.29903860377385e-02 1.95011581118444e-04
3.56200000000000e+00 3.22391125182437e-02 1.95658816767439e-04
3.74466666666667e+00 3.15049473752715e-02 1.96049133220265e-04
3.92733333333333e+00 3.07875010063289e-02 1.96205742868327e-04
4.11000000000000e+00 3.00863926832013e-02 1.96149445192251e-04
4.29266666666667e+00 2.94012503494692e-02 1.95898963905983e-04
4.47533333333333e+00 2.87317104180312e-02 1.95471222532366e-04
4.65800000000000e+00 2.80774175832369e-02 1.94881572650060e-04
4.84066666666667e+00 2.74380246320001e-02 1.94143985638553e-04
5.02333333333333e+00 2.68131922553989e-02 1.93271213379388e-04
5.20600000000000e+00 2.62025888727953e-02 1.92274924669253e-04
5.38866666666667e+00 2.56058904556105e-02 1.91165822699684e-04
5.57133333333333e+00 2.50227803519149e-02 1.89953745351365e-04
5.75400000000000e+00 2.44529491218811e-02 1.88647751978488e-04
5.93666666666667e+00 2.38960943733610e-02 1.87256199695006e-04
6.11933333333333e+00 2.33519205984976e-02 1.85786809400072e-04
6.30200000000000e+00 2.28201390198546e-02 1.84246723791390e-04
6.48466666666667e+00 2.23004674369979e-02 1.82642559257766e-04
6.66733333333333e+00 2.17926300742556e-02 1.80980451248071e-04
6.85000000000000e+00 2.12963574368821e-02 1.79266094633948e-04
7.03266666666667e+00 2.08113861679031e-02 1.77504780367702e-04
7.21533333333333e+00 2.03374589062267e-02 1.75701427766529e-04
7.39800000000000e+00 1.98743241522253e-02 1.73860613530147e-04
7.58066666666667e+00 1.94217361341526e-02 1.71986598454946e-04
7.76333333333333e+00 1.89794546758778e-02 1.70083351080053e-04
7.94600000000000e+00 1.85472450712936e-02 1.68154569122742e-04
8.12866666666667e+00 1.81248779596639e-02 1.66203699456638e-04
8.31133333333333e+00 1.77121292023086e-02 1.64233955852612e-04
8.49400000000000e+00 1.73087797652783e-02 1.62248335176432e-04
8.67666666666667e+00 1.69146156030333e-02 1.60249632657295e-04
8.85933333333333e+00 1.65294275434595e-02 1.58240455469793e-04
9.04200000000000e+00 1.61530111782800e-02 1.56223235209430e-04
9.22466666666667e+00 1.57851667545076e-02 1.54200239777414e-04
9.40733333333333e+00 1.54256990672179e-02 1.52173583957472e-04
9.59000000000000e+00 1.50744173571984e-02 1.50145239180836e-04
9.77266666666667e+00 1.47311352096550e-02 1.48117042921974e-04
9.95533333333333e+00 1.43956704542095e-02 1.46090707160465e-04
1.01380000000000e+01 1.40678450683399e-02 1.44067825606702e-04
1.03206666666667e+01 1.37474850877019e-02 1.42049882157260e-04
1.05033333333333e+01 1.34344205032486e-02 1.40038257191051e-04
1.06860000000000e+01 1.31284851806351e-02 1.38034232739030e-04
1.08686666666667e+01 1.28295167715779e-02 1.36039000404872e-04
1.10513333333333e+01 1.25373566192877e-02 1.34053665878526e-04
1.12340000000000e+01 1.22518496827946e-02 1.32079253131558e-04
1.14166666666667e+01 1.19728444542551e-02 1.30116711063408e-04
1.15993333333333e+01 1.17001928710831e-02 1.28166917098410e-04
1.17820000000000e+01 1.14337502449406e-02 1.26230680538302e-04
1.19646666666667e+01 1.11733751845895e-02 1.24308748186716e-04
1.21473333333333e+01 1.09189295142150e-02 1.22401807232950e-04
1.23300000000000e+01 1.06702782068294e-02 1.20510487945930e-04
1.25126666666667e+01 1.04272893122953e-02 1.18635368468999e-04
1.26953333333333e+01 1.01898338813781e-02 1.16776977142621e-04
1.28780000000000e+01 9.95778590331855e-03 1.14935794678514e-04
1.30606666666667e+01 9.73102223867758e-03 1.13112258273033e-04
1.32433333333333e+01 9.50942254869628e-03 1.11306763484409e-04
1.34260000000000e+01 9.29286923679846e-03 1.09519665992802e-04
1.36086666666667e+01 9.08124738593346e-03 1.07751285148520e-04
1.37913333333333e+01 8.87444469285486e-03 1.06001905492641e-04
1.39740000000000e+01 8.67235141332502e-03 1.04271778184662e-04
1.41566666666667e+01 8.47486030365326e-03 1.02561124077814e-04
1.43393333333333e+01 8.28186655953666e-03 1.00870134952159e-04
1.45220000000000e+01 8.09326776474790e-03 9.91989746735844e-05
1.47046666666667e+01 7.90896383658694e-03 9.75477818703238e-05
1.48873333333333e+01 7.72885696895542e-03 9.59166709328202e-05
1.50700000000000e+01 7.55285158431934e-03 9.43057329542826e-05
1.52526666666667e+01 7.38085428281141e-03 9.27150380686038e-05
1.54353333333333e+01 7.21277378923622e-03 9.11446362600174e-05
1.56180000000000e+01 7.04852090810946e-03 8.95945581251624e-05
1.58006666666667e+01 6.88800847616599e-03 8.80648169217383e-05
1.59833333333333e+01 6.73115131301616e-03 8.65554092223485e-05
1.61660000000000e+01 6.57786617907340e-03 8.50663155300912e-05
1.63486666666667e+01 6.42807173123965e-03 8.35975020787520e-05
1.65313333333333e+01 6.28168847695435e-03 8.21489213585380e-05
1.67140000000000e+01 6.13863873483242e-03 8.07205126110340e-05
1.68966666666667e+01 5.99884659331394e-03 7.93122034149534e-05
1.70793333333333e+01 5.86223786786678e-03 7.79239101062121e-05
1.72620000000000e+01 5.72874006416662e-03 7.65555381732549e-05
1.74446666666667e+01 5.59828233951228e-03 7.52069836569285e-05
1.76273333333333e+01 5.47079546296063e-03 7.38781334831995e-05
1.78100000000000e+01 5.34621178088976e-03 7.25688657760159e-05
1.79926666666667e+01 5.22446518099470e-03 7.12790510954341e-05
1.81753333333333e+01 5.10549105514954e-03 7.00085526980035e-05
1.83580000000000e+01 4.98922626720400e-03 6.87572267812584e-05
1.85406666666667e+01 4.87560911938673e-03 6.75249235806167e-05
1.87233333333333e+01 4.76457931770447e-03 6.63114875698009e-05
1.89060000000000e+01 4.65607794183105e-03 6.51167576485921e-05
1.90886666666667e+01 4.55004741375701e-03 6.39405681160416e-05
1.92713333333333e+01 4.44643146554953e-03 6.27827488211540e-05
1.94540000000000e+01 4.34517511120108e-03 6.16431253035517e-05
1.96366666666667e+01 4.24622461737501e-03 6.05215196580617e-05
1.98193333333333e+01 4.14952747336262e-03 5.94177506441542e-05
2.00020000000000e+01 4.05503236476667e-03 5.83316337875351e-05
2.01846666666667e+01 3.96268914620267e-03 5.72629821490995e-05
2.03673333333333e+01 3.87244881330112e-03 5.62116064002104e-05
2.05500000000000e+01 3.78426347810867e-03 5.51773148919038e-05
2.07326666666667e+01 3.69808634361425e-03 5.41599143394595e-05
2.09153333333333e+01 3.61387167765535e-03 5.31592098694366e-05
2.10980000000000e+01 3.53157478992675e-03 5.21750050620906e-05
2.12806666666667e+01 3.45115200820937e-03 5.12071025613369e-05
2.14633333333333e+01 3.37256065404950e-03 5.02553040984934e-05
2.16460000000000e+01 3.29575902127180e-03 4.93194105126050e-05
2.18286666666667e+01 3.22070635379692e-03 4.83992222943305e-05
2.20113333333333e+01 3.14736282297182e-03 4.74945395905484e-05
2.21940000000000e+01 3.07568950749013e-03 4.66051622065264e-05
2.23766666666667e+01 3.00564837269229e-03 4.57308900911923e-05
2.25593333333333e+01 2.93720224943362e-03 4.48715233260960e-05
2.27420000000000e+01 2.87031481532117e-03 4.40268621127424e-05
2.29246666666667e+01 2.80495057539721e-03 4.31967072057869e-05
2.31073333333333e+01 2.74107484243975e-03 4.23808598892921e-05
2.32900000000000e+01 2.67865371943060e-03 4.15791219520159e-05
2.34726666666667e+01 2.61765408152980e-03 4.07912960742863e-05
2.36553333333333e+01 2.55804355771046e-03 4.00171857940290e-05
2.38380000000000e+01 2.49979051437831e-03 3.92565954723595e-05
2.40206666666667e+01 2.44286403855067e-03 3.85093306392084e-05
2.42033333333333e+01 2.38723392073452e-03 3.77751979512025e-05
2.43860000000000e+01 2.33287063962267e-03 3.70540051495500e-05
2.45686666666667e+01 2.27974534639683e-03 3.63455613688894e-05
2.47513333333333e+01 2.22782984876393e-03 3.56496770887789e-05
2.49340000000000e+01 2.17709659665901e-03 3.49661640855467e-05
2.51166666666667e+01 2.12751866759709e-03 3.42948357083243e-05
2.52993333333333e+01 2.07906975178895e-03 3.36355068256264e-05
2.54820000000000e+01 2.03172413878501e-03 3.29879937725674e-05
2.56646666666667e+01 1.98545670380603e-03 3.23521145975922e-05
2.58473333333333e+01 1.94024289386468e-03 3.17276890053888e-05
2.60300000000000e+01 1.89605871528915e-03 3.11145383006591e-05
2.62126666666667e+01 1.85288072096716e-03 3.05124856086607e-05
2.63953333333333e+01 1.81068599740497e-03 2.99213558154934e-05
2.65780000000000e+01 1.76945215307320e-03 2.93409755094197e-05
2.67606666666667e+01 1.72915730650315e-03 2.87711731779886e-05
2.69433333333333e+01 1.68978007421949e-03 2.82117791465699e-05
2.71260000000000e+01 1.65129955985456e-03 2.76626255180589e-05
2.73086666666667e+01 1.61369534303999e-03 2.71235463490455e-05
2.74913333333333e+01 1.57694746815378e-03 2.65943775873290e-05
2.76740000000000e+01 1.54103643415276e-03 2.60749570107013e-05
2.78566666666667e+01 1.50594318420634e-03 2.55651243843575e-05
2.80393333333333e+01 1.47164909520271e-03 2.50647213980005e-05
2.82220000000000e+01 1.43813596825243e-03 2.45735916042812e-05
2.84046666666667e+01 1.40538601901472e-03 2.40915805594132e-05
2.85873333333333e+01 1.37338186791127e-03 2.36185357603662e-05
2.87700000000000e+01 1.34210653125695e-03 2.31543065834465e-05
2.89526666666667e+01 1.31154341223238e-03 2.26987444098636e-05
2.91353333333333e+01 1.28167629175736e-03 2.22517025634285e-05
2.93180000000000e+01 1.25248932020758e-03 2.18130362496691e-05
2.95006666666667e+01 1.22396700899026e-03 2.13826026679126e-05
2.96833333333333e+01 1.19609422203253e-03 2.09602609498285e-05
2.98660000000000e+01 1.16885616804566e-03 2.05458720993996e-05
3.00486666666667e+01 1.14223839266340e-03 2.01392990929206e-05
3.02313333333333e+01 1.11622677050382e-03 1.97404068186591e-05
3.04140000000000e+01 1.09080749794493e-03 1.93490620179458e-05
3.05966666666667e+01 1.06596708578823e-03 1.89651333743395e-05
3.07793333333333e+01 1.04169235185514e-03 1.85884914546253e-05
3.09620000000000e+01 1.01797041424039e-03 1.82190086512326e-05
3.11446666666667e+01 9.94788684465728e-04 1.78565592616880e-05
3.13273333333333e+01 9.72134860574720e-04 1.75010194311256e-05
3.15100000000000e+01 9.49996920832552e-04 1.71522670961940e-05
3.16926666666667e+01 9.28363117337063e-04 1.68101820558049e-05
3.18753333333333e+01 9.07221969578274e-04 1.64746459152852e-05
3.20580000000000e+01 8.86562258555198e-04 1.61455420319020e-05
3.22406666666667e+01 8.66373020813640e-04 1.58227555778058e-05
3.24233333333333e+01 8.46643542439071e-04 1.55061734859255e-05
3.26060000000000e+01 8.27363353562947e-04 1.51956843972046e-05
3.27886666666667e+01 8.08522222798774e-04 1.48911787165469e-05
3.29713333333333e+01 7.90110151639072e-04 1.45925485605253e-05
3.31540000000000e+01 7.72117369325513e-04 1.42996877063966e-05
3.33366666666667e+01 7.54534327656647e-04 1.40124916417756e-05
3.35193333333333e+01 7.37351695761681e-04 1.37308575142036e-05
3.37020000000000e+01 7.20560355310435e-04 1.34546840819839e-05
3.38846666666667e+01 7.04151395667906e-04 1.31838717582370e-05
3.40673333333333e+01 6.88116109019430e-04 1.29183225623561e-05
3.42500000000000e+01 6.72445985898042e-04 1.26579400726875e-05
3.44326666666667e+01 6.57132710662691e-04 1.24026294655509e-05
3.46153333333333e+01 6.42168156951097e-04 1.21522974685909e-05
3.47980000000000e+01 6.27544383503554e-04 1.19068523153111e-05
3.49806666666667e+01 6.13253629943179e-04 1.16662037795843e-05
3.51633333333333e+01 5.99288312534371e-04 1.14302631308961e-05
3.53460000000000e+01 5.85641020283472e-04 1.11989430907269e-05
3.55286666666667e+01 5.72304511000873e-04 1.09721578630241e-05
3.57113333333333e+01 5.59271707344480e-04 1.07498230913211e-05
3.58940000000000e+01 5.46535693178941e-04 1.05318558169502e-05
3.60766666666667e+01 5.34089709900776e-04 1.03181745059013e-05
3.62593333333333e+01 5.21927152747656e-04 1.01086990077905e-05
3.64420000000000e+01 5.10041567399090e-04 9.90335051587751e-06
3.66246666666667e+01 4.98426646547021e-04 9.70205159069254e-06
3.68073333333333e+01 4.87076226453003e-04 9.50472612081972e-06
3.69900000000000e+01 4.75984283774395e-04 9.31129928468675e-06
3.71726666666667e+01 4.65144932364012e-04 9.12169757130071e-06
3.73553333333333e+01 4.54552420058518e-04 8.93584874280801e-06
3.75380000000000e+01 4.44201125715204e-04 8.75368179801565e-06
3.77206666666667e+01 4.34085556225395e-04 8.57512699054427e-06
3.79033333333333e+01 4.24200343518496e-04 8.40011579311918e-06
3.80860000000000e+01 4.14540241795412e-04 8.22858086277896e-06
3.82686666666667e+01 4.05100124741445e-04 8.06045605672270e-06
3.84513333333333e+01 3.95874982731465e-04 7.89567639828273e-06
3.86340000000000e+01 3.86859920246972e-04 7.73417804377243e-06
3.88166666666667e+01 3.78050153275142e-04 7.57589829627644e-06
3.89993333333333e+01 3.69441006701603e-04 7.42077557325341e-06
3.91820000000000e+01 3.61027911898975e-04 7.26874937497203e-06
3.93646666666667e+01 3.52806404299627e-04 7.11976029646733e-06
3.95473333333333e+01 3.44772120963447e-04 6.97374999671938e-06
3.97300000000000e+01 3.36920798326495e-04 6.83066116862543e-06
3.99126666666667e+01 3.29248269935874e-04 6.69043754932268e-06
4.00953333333333e+01 3.21750464180723e-04 6.55302389088736e-06
4.02780000000000e+01 3.14423402190374e-04 6.41836593178855e-06
4.04606666666667e+01 3.07263195720513e-04 6.28641040575787e-06
4.06433333333333e+01 3.00266045036417e-04 6.15710501395289e-06
4.08260000000000e+01 2.93428236950712e-04 6.03039839783802e-06
4.10086666666667e+01 2.86746142850716e-04 5.90624014676228e-06
4.11913333333333e+01 2.80216216723687e-04 5.78458077153085e-06
4.13740000000000e+01 2.73834993324931e-04 5.66537167865802e-06
4.15566666666667e+01 2.67599086336894e-04 5.54856517679805e-06
4.17393333333333e+01 2.61505186526879e-04 5.43411445166849e-06
4.19220000000000e+01 2.55550060036861e-04 5.32197354161994e-06
4.21046666666667e+01 2.49730546665527e-04 5.21209734305075e-06
4.22873333333333e+01 2.44043558149565e-04 5.10444158662597e-06
4.24700000000000e+01 2.38486076567109e-04 4.99896281410939e-06
4.26526666666667e+01 2.33055152734522e-04 4.89561838287895e-06
4.28353333333333e+01 2.27747904602950e-04 4.79436644338597e-06
4.30180000000000e+01 2.22561515767866e-04 4.69516591719536e-06
4.32006666666667e+01 2.17493233972924e-04 4.59797650070684e-06
4.33833333333333e+01 2.12540369614043e-04 4.50275864380038e-06
4.35660000000000e+01 2.07700294348007e-04 4.40947352903162e-06
4.37486666666667e+01 2.02970439696244e-04 4.31808307465259e-06
4.39313333333333e+01 1.98348295649211e-04 4.22854991439006e-06
4.41140000000000e+01 1.93831409367483e-04 4.14083737774480e-06
4.42966666666667e+01 1.89417383878781e-04 4.05490949239571e-06
4.44793333333333e+01 1.85103876775923e-04 3.97073096505933e-06
4.46620000000000e+01 1.80888599004266e-04 3.88826716284244e-06
4.48446666666667e+01 1.76769313645752e-04 3.80748411510469e-06
4.50273333333333e+01 1.72743834704145e-04 3.72834849534920e-06
4.52100000000000e+01 1.68810025973094e-04 3.65082760357912e-06
4.53926666666667e+01 1.64965799901383e-04 3.57488936768635e-06
4.55753333333333e+01 1.61209116459600e-04 3.50050232632392e-06
4.57580000000000e+01 1.57537982083462e-04 3.42763561221916e-06
4.59406666666667e+01 1.53950448614852e-04 3.35625895314873e-06
4.61233333333333e+01 1.50444612244452e-04 3.28634265574560e-06
4.63060000000000e+01 1.47018612525329e-04 3.21785758972273e-06
4.64886666666667e+01 1.43670631384704e-04 3.15077518848756e-06
4.66713333333333e+01 1.40398892137441e-04 3.08506743383845e-06
4.68540000000000e+01 1.37201658565245e-04 3.02070684105415e-06
4.70366666666667e+01 1.34077233994420e-04 2.95766645919620e-06
4.72193333333333e+01 1.31023960375476e-04 2.89591985665016e-06
4.74020000000000e+01 1.28040217423566e-04 2.83544110703816e-06
4.75846666666667e+01 1.25124421757838e-04 2.77620478925198e-06
4.77673333333333e+01 1.22275026042718e-04 2.71818597379678e-06
4.79500000000000e+01 1.19490518185520e-04 2.66136020948552e-06
4.81326666666667e+01 1.16769420533280e-04 2.60570352324060e-06
4.83153333333333e+01 1.14110289071570e-04 2.55119240719959e-06
4.84980000000000e+01 1.11511712675491e-04 2.49780380615159e-06
4.86806666666667e+01 1.08972312360148e-04 2.44551511714148e-06
4.88633333333333e+01 1.06490740533133e-04 2.39430417729846e-06
4.90460000000000e+01 1.04065680295361e-04 2.34414925197663e-06
4.92286666666667e+01 1.01695844741588e-04 2.29502903419157e-06
4.94113333333333e+01 9.93799762629869e-05 2.24692263313438e-06
4.95940000000000e+01 9.71168458944891e-05 2.19980956298007e-06
4.97766666666667e+01 9.49052526620277e-05 2.15366974218323e-06
4.99593333333333e+01 9.27440229318242e-05 2.10848348264162e-06
5.01420000000000e+01 9.06320098011639e-05 2.06423147913744e-06
5.03246666666667e+01 8.85680924892299e-05 2.02089480851583e-06
5.05073333333333e+01 8.65511757299774e-05 1.97845491946389e-06
5.06900000000000e+01 8.45801892034508e-05 1.93689362255140e-06
5.08726666666667e+01 8.26540869672997e-05 1.89619308931288e-06
5.10553333333333e+01 8.07718468903179e-05 1.85633584260952e-06
5.12380000000000e+01 7.89324701216066e-05 1.81730474723747e-06
5.14206666666667e+01 7.71349805600558e-05 1.77908300893197e-06
5.16033333333333e+01 7.53784243258216e-05 1.74165416528077e-06
5.17860000000000e+01 7.36618692648200e-05 1.70500207686994e-06
5.19686666666667e+01 7.19844044536373e-05 1.66911092622599e-06
5.21513333333333e+01 7.03451397064034e-05 1.63396520925131e-06
5.23340000000000e+01 6.87432051122663e-05 1.59954972687834e-06
5.25166666666667e+01 6.71777505733659e-05 1.56584958396413e-06
5.26993333333333e+01 6.56479453447304e-05 1.53285018121934e-06
5.28820000000000e+01 6.41529776025384e-05 1.50053720734319e-06
5.30646666666667e+01 6.26920540129487e-05 1.46889663788307e-06
5.32473333333333e+01 6.12643993028052e-05 1.43791472763008e-06
5.34300000000000e+01 5.98692558566407e-05 1.40757800320863e-06
5.36126666666667e+01 5.85058833142999e-05 1.37787326191168e-06
5.37953333333333e+01 5.71735581703908e-05 1.34878756453748e-06
5.39780000000000e+01 5.58715733981158e-05 1.32030822840880e-06
5.41606666666667e+01 5.45992380737677e-05 1.29242282619340e-06
5.43433333333333e+01 5.33558770029986e-05 1.26511917915744e-06
5.45260000000000e+01 5.21408303696962e-05 1.23838535059070e-06
5.47086666666667e+01 5.09534533855562e-05 1.21220964462040e-06
5.48913333333333e+01 4.97931159413733e-05 1.18658059985831e-06
5.50740000000000e+01 4.86592022792957e-05 1.16148698320942e-06
5.52566666666667e+01 4.75511106657996e-05 1.13691778868618e-06
5.54393333333333e+01 4.64682530663252e-05 1.11286223142722e-06
5.56220000000000e+01 4.54100548393552e-05 1.08930974186821e-06
5.58046666666667e+01 4.43759544312275e-05 1.06624996456261e-06
5.59873333333333e+01 4.33654030725534e-05 1.04367275255125e-06
5.61700000000000e+01 4.23778644926664e-05 1.02156816187503e-06
5.63526666666667e+01 4.14128146348161e-05 9.99926450407342e-07
5.65353333333333e+01 4.04697413729082e-05 9.78738072554765e-07
5.67180000000000e+01 3.95481442449695e-05 9.57993674092297e-07
5.69006666666667e+01 3.86475341873610e-05 9.37684091012045e-07
5.70833333333333e+01 3.77674332704789e-05 9.17800344536188e-07
5.72660000000000e+01 3.69073744499697e-05 8.98333636256643e-07
5.74486666666667e+01 3.60669013186931e-05 8.79275347003478e-07
5.76313333333333e+01 3.52455678601135e-05 8.60617032152650e-07
