Energy (eV)          EEDF (eV^-(3/2))     First Anisotropy
2.63709677419355e-02 3.86171248119823e-02 1.84100694100079e-05
7.91129032258065e-02 3.84026259961563e-02 3.04180878357430e-05
1.31854838709677e-01 3.81893186138422e-02 4.02025866786102e-05
1.84596774193548e-01 3.79771960479185e-02 4.76647858744220e-05
2.37338709677419e-01 3.77662517161882e-02 5.39122720588307e-05
2.90080645161290e-01 3.75564790750883e-02 5.93630053838365e-05
3.42822580645161e-01 3.73478716157361e-02 6.42328869481339e-05
3.95564516129032e-01 3.71404228667615e-02 6.86520614657922e-05
4.48306451612903e-01 3.69341263915754e-02 7.27066915852760e-05
5.01048387096774e-01 3.67289757903489e-02 7.64575688272762e-05
5.53790322580645e-01 3.65249646979074e-02 7.99496157793179e-05
6.06532258064516e-01 3.63220867852299e-02 8.32172213550957e-05
6.59274193548387e-01 3.61203357577269e-02 8.62874552806813e-05
7.12016129032258e-01 3.59197053564310e-02 8.91821134442265e-05
7.64758064516129e-01 3.57201893565346e-02 9.19190774246108e-05
8.17500000000000e-01 3.55217815683649e-02 9.45132510165874e-05
8.70241935483871e-01 3.53244758361102e-02 9.69772249588941e-05
9.22983870967742e-01 3.51282660386356e-02 9.93217608295427e-05
9.75725806451613e-01 3.49331460883522e-02 1.01556151000816e-04
1.02846774193548e+00 3.47391099326521e-02 1.03688492036098e-04
1.08120967741935e+00 3.45461515499213e-02 1.05725894836199e-04
1.13395161290323e+00 3.43542649537044e-02 1.07674648828707e-04
1.18669354838710e+00 3.41634441925338e-02 1.09540353863808e-04
1.23943548387097e+00 3.39736833445373e-02 1.11328024062471e-04
1.29217741935484e+00 3.37849765240066e-02 1.13042172958306e-04
1.34491935483871e+00 3.35973178748360e-02 1.14686883135167e-04
1.39766129032258e+00 3.34107015763768e-02 1.16265863621613e-04
1.45040322580645e+00 3.32251218375311e-02 1.17782497808604e-04
1.50314516129032e+00 3.30405729020140e-02 1.19239883536757e-04
1.55588709677419e+00 3.28570490429927e-02 1.20640867068140e-04
1.60862903225806e+00 3.26745445678520e-02 1.21988071864794e-04
1.66137096774194e+00 3.24930538132949e-02 1.23283923476341e-04
1.71411290322581e+00 3.23125711486240e-02 1.24530669969583e-04
1.76685483870968e+00 3.21330909754850e-02 1.25730401372102e-04
1.81959677419355e+00 3.19546077244936e-02 1.26885064860994e-04
1.87233870967742e+00 3.17771158592425e-02 1.27996478791743e-04
1.92508064516129e+00 3.16006098721143e-02 1.29066344901474e-04
1.97782258064516e+00 3.14250842879722e-02 1.30096258962873e-04
2.03056451612903e+00 3.12505336602728e-02 1.31087720265103e-04
2.08330645161290e+00 3.10769525744788e-02 1.32042139940856e-04
2.13604838709677e+00 3.09043356444363e-02 1.32960848437763e-04
2.18879032258065e+00 3.07326775155432e-02 1.33845102114300e-04
2.24153225806452e+00 3.05619728613591e-02 1.34696089349136e-04
2.29427419354839e+00 3.03922163858177e-02 1.35514935242918e-04
2.34701612903226e+00 3.02234028230124e-02 1.36302707305605e-04
2.39975806451613e+00 3.00555269348023e-02 1.37060419183464e-04
2.45250000000000e+00 2.98885835135794e-02 1.37789034683358e-04
2.50524193548387e+00 2.97225673792682e-02 1.38489471336043e-04
2.55798387096774e+00 2.95574733819174e-02 1.39162603577015e-04
2.61072580645161e+00 2.93932963988696e-02 1.39809265694923e-04
2.66346774193548e+00 2.92300313371951e-02 1.40430254468828e-04
2.71620967741935e+00 2.90676731310154e-02 1.41026331755344e-04
2.76895161290323e+00 2.89062167432079e-02 1.41598226183804e-04
2.82169354838710e+00 2.87456571652143e-02 1.42146635982716e-04
2.87443548387097e+00 2.85859894151255e-02 1.42672230348120e-04
2.92717741935484e+00 2.84272085398442e-02 1.43175651282570e-04
2.97991935483871e+00 2.82693096126757e-02 1.43657515212163e-04
3.03266129032258e+00 2.81122877353713e-02 1.44118414435602e-04
3.08540322580645e+00 2.79561380358370e-02 1.44558918507123e-04
3.13814516129032e+00 2.78008556700666e-02 1.44979575475413e-04
3.19088709677419e+00 2.76464358199600e-02 1.45380913073249e-04
3.24362903225806e+00 2.74928736951549e-02 1.45763439782663e-04
3.29637096774194e+00 2.73401645309449e-02 1.46127645972432e-04
3.34911290322581e+00 2.71883035895646e-02 1.46474004384357e-04
3.40185483870968e+00 2.70372861600184e-02 1.46802971675327e-04
3.45459677419355e+00 2.68871075565707e-02 1.47114988799846e-04
3.50733870967742e+00 2.67377631203990e-02 1.47410481868996e-04
3.56008064516129e+00 2.65892482176924e-02 1.47689862883135e-04
3.61282258064516e+00 2.64415582412248e-02 1.47953530383391e-04
3.66556451612903e+00 2.62946886085338e-02 1.48201870096223e-04
3.71830645161290e+00 2.61486347634191e-02 1.48435255505156e-04
3.77104838709677e+00 2.60033921741968e-02 1.48654048420175e-04
3.82379032258065e+00 2.58589563351281e-02 1.48858599481544e-04
3.87653225806452e+00 2.57153227647440e-02 1.49049248758576e-04
3.92927419354839e+00 2.55724870068462e-02 1.49226325818742e-04
3.98201612903226e+00 2.54304446303513e-02 1.49390150738826e-04
4.03475806451613e+00 2.52891912280627e-02 1.49541034137453e-04
4.08750000000000e+00 2.51487224179743e-02 1.49679277645520e-04
4.14024193548387e+00 2.50090338417235e-02 1.49805174286735e-04
4.19298387096774e+00 2.48701211658387e-02 1.49919008809385e-04
4.24572580645161e+00 2.47319800802499e-02 1.50021058027977e-04
4.29846774193548e+00 2.45946062994826e-02 1.50111591119806e-04
4.35120967741936e+00 2.44579955612237e-02 1.50190870017290e-04
4.40395161290323e+00 2.43221436271565e-02 1.50259149335131e-04
4.45669354838710e+00 2.41870462828137e-02 1.50316677153879e-04
4.50943548387097e+00 2.40526993365209e-02 1.50363694931931e-04
4.56217741935484e+00 2.39190986204911e-02 1.50400437820448e-04
4.61491935483871e+00 2.37862399894940e-02 1.50427134903577e-04
4.66766129032258e+00 2.36541193219064e-02 1.50444009402786e-04
4.72040322580645e+00 2.35227325184270e-02 1.50451278895396e-04
4.77314516129032e+00 2.33920755030852e-02 1.50449155499392e-04
4.82588709677419e+00 2.32621442219995e-02 1.50437846072695e-04
4.87862903225806e+00 2.31329346443466e-02 1.50417552380665e-04
4.93137096774194e+00 2.30044427611613e-02 1.50388471352974e-04
4.98411290322581e+00 2.28766645860118e-02 1.50350794936518e-04
5.03685483870968e+00 2.27495961548642e-02 1.50304710708931e-04
5.08959677419355e+00 2.26232335251919e-02 1.50250401727867e-04
5.14233870967742e+00 2.24975727768693e-02 1.50188046740737e-04
5.19508064516129e+00 2.23726100110513e-02 1.50117820331887e-04
5.24782258064516e+00 2.22483413510343e-02 1.50039893043011e-04
5.30056451612903e+00 2.21247629411710e-02 1.49954431508775e-04
5.35330645161290e+00 2.20018709476990e-02 1.49861598566876e-04
5.40604838709677e+00 2.18796615576898e-02 1.49761553383231e-04
5.45879032258065e+00 2.17581309798468e-02 1.49654451552821e-04
5.51153225806452e+00 2.16372754434864e-02 1.49540445281766e-04
5.56427419354839e+00 2.15170911990926e-02 1.49419683213855e-04
5.61701612903226e+00 2.13975745181908e-02 1.49292310935098e-04
5.66975806451613e+00 2.12787216925859e-02 1.49158470801048e-04
5.72250000000000e+00 2.11605290351033e-02 1.49018302087247e-04
5.77524193548387e+00 2.10429928786325e-02 1.48871941085383e-04
5.82798387096774e+00 2.09261095768415e-02 1.48719521178155e-04
5.88072580645161e+00 2.08098755032489e-02 1.48561172928734e-04
5.93346774193548e+00 2.06942870519133e-02 1.48397024149797e-04
5.98620967741935e+00 2.05793406365318e-02 1.48227200047655e-04
6.03895161290323e+00 2.04650326909173e-02 1.48051823042758e-04
6.09169354838710e+00 2.03513596688793e-02 1.47871013210819e-04
6.14443548387097e+00 2.02383180435475e-02 1.47684888105987e-04
6.19717741935484e+00 2.01259043080129e-02 1.47493562880564e-04
6.24991935483871e+00 2.00141149744800e-02 1.47297150355526e-04
6.30266129032258e+00 1.99029465748865e-02 1.47095761072915e-04
6.35540322580645e+00 1.97923956600785e-02 1.46889503361934e-04
6.40814516129032e+00 1.96824588004101e-02 1.46678483387471e-04
6.46088709677419e+00 1.95731325849409e-02 1.46462805212156e-04
6.51362903225806e+00 1.94644136220159e-02 1.46242570841420e-04
6.56637096774194e+00 1.93562985384849e-02 1.46017880336298e-04
6.61911290322581e+00 1.92487839801010e-02 1.45788831636926e-04
6.67185483870968e+00 1.91418666114100e-02 1.45555520943533e-04
6.72459677419355e+00 1.90355431151611e-02 1.45318042543606e-04
6.77733870967742e+00 1.89298101928478e-02 1.45076488905937e-04
6.83008064516129e+00 1.88246645639711e-02 1.44830950730870e-04
6.88282258064516e+00 1.87201029665633e-02 1.44581516985251e-04
6.93556451612903e+00 1.86161221564699e-02 1.44328274949785e-04
6.98830645161290e+00 1.85127189078569e-02 1.44071310251583e-04
7.04104838709677e+00 1.84098900125118e-02 1.43810706908954e-04
7.09379032258065e+00 1.83076322803343e-02 1.43546547361774e-04
7.14653225806452e+00 1.82059425386554e-02 1.43278912562963e-04
7.19927419354839e+00 1.81048176325729e-02 1.43007881810056e-04
7.25201612903226e+00 1.80042544248481e-02 1.42733533079310e-04
7.30475806451613e+00 1.79042497953885e-02 1.42455942861130e-04
7.35750000000000e+00 1.78048006417079e-02 1.42175186236621e-04
7.41024193548387e+00 1.77059038782810e-02 1.41891336914659e-04
7.46298387096774e+00 1.76075564369892e-02 1.41604467255791e-04
7.51572580645161e+00 1.75097552664913e-02 1.41314648307455e-04
7.56846774193548e+00 1.74124973326555e-02 1.41021949826366e-04
7.62120967741935e+00 1.73157796179459e-02 1.40726440357256e-04
7.67395161290323e+00 1.72195991217164e-02 1.40428187072367e-04
7.72669354838710e+00 1.71239528601124e-02 1.40127256074426e-04
7.77943548387097e+00 1.70288378656035e-02 1.39823712239978e-04
7.83217741935484e+00 1.69342511873891e-02 1.39517619285394e-04
7.88491935483871e+00 1.68401898908153e-02 1.39209039796454e-04
7.93766129032258e+00 1.67466510577689e-02 1.38898035246185e-04
7.99040322580645e+00 1.66536317861086e-02 1.38584666023020e-04
8.04314516129032e+00 1.65611291900466e-02 1.38268991447565e-04
8.09588709677419e+00 1.64691403995937e-02 1.37951069799503e-04
8.14862903225806e+00 1.63776625609296e-02 1.37630958333331e-04
8.20137096774194e+00 1.62866928358609e-02 1.37308713345072e-04
8.25411290322581e+00 1.61962284020715e-02 1.36984390022550e-04
8.30685483870968e+00 1.61062664530306e-02 1.36658042715780e-04
8.35959677419355e+00 1.60168041975783e-02 1.36329724790939e-04
8.41233870967742e+00 1.59278388602734e-02 1.35999488686352e-04
8.46508064516129e+00 1.58393676808783e-02 1.35667385935481e-04
8.51782258064516e+00 1.57513879146972e-02 1.35333467179570e-04
8.57056451612903e+00 1.56638968320723e-02 1.34997782189639e-04
8.62330645161290e+00 1.55768917187125e-02 1.34660379878411e-04
8.67604838709677e+00 1.54903698752010e-02 1.34321308321386e-04
8.72879032258064e+00 1.54043286173145e-02 1.33980614768019e-04
8.78153225806452e+00 1.53187652755421e-02 1.33638345699224e-04
8.83427419354839e+00 1.52336771952995e-02 1.33294546688518e-04
8.88701612903226e+00 1.51490617368429e-02 1.32949262644742e-04
8.93975806451613e+00 1.50649162748992e-02 1.32602537676635e-04
8.99250000000000e+00 1.49812381989668e-02 1.32254415141138e-04
9.04524193548387e+00 1.48980249128572e-02 1.31904937661622e-04
9.09798387096774e+00 1.48152738349870e-02 1.31554147136986e-04
9.15072580645161e+00 1.47329823979298e-02 1.31202084759200e-04
9.20346774193548e+00 1.46511480487003e-02 1.30848791021849e-04
9.25620967741935e+00 1.45697682483156e-02 1.30494305771595e-04
9.30895161290323e+00 1.44888404719847e-02 1.30138668077666e-04
9.36169354838710e+00 1.44083622090270e-02 1.29781916455222e-04
9.41443548387097e+00 1.43283309625345e-02 1.29424088738089e-04
9.46717741935484e+00 1.42487442496392e-02 1.29065222122014e-04
9.51991935483871e+00 1.41695996010950e-02 1.28705353179979e-04
9.57266129032258e+00 1.40908945615386e-02 1.28344517869165e-04
9.62540322580645e+00 1.40126266890797e-02 1.27982751545725e-04
9.67814516129032e+00 1.39347935555548e-02 1.27620088971377e-04
9.73088709677419e+00 1.38573927461262e-02 1.27256564327603e-04
9.78362903225806e+00 1.37804218595289e-02 1.26892211221881e-04
9.83637096774194e+00 1.37038785076783e-02 1.26527062732970e-04
9.88911290322581e+00 1.36277603158331e-02 1.26161151290351e-04
9.94185483870968e+00 1.35520649225191e-02 1.25794508876400e-04
9.99459677419355e+00 1.34767899792257e-02 1.25427166786114e-04
1.00473387096774e+01 1.34019331509344e-02 1.25059156218331e-04
1.01000806451613e+01 1.33274921144115e-02 1.24690507397674e-04
1.01528225806452e+01 1.32534645608786e-02 1.24321249853855e-04
1.02055645161290e+01 1.31798481936377e-02 1.23951413568080e-04
1.02583064516129e+01 1.31066407280394e-02 1.23581027118189e-04
1.03110483870968e+01 1.30338398935525e-02 1.23210118895376e-04
1.03637903225806e+01 1.29614434308421e-02 1.22838716831101e-04
1.04165322580645e+01 1.28894490945254e-02 1.22466848087094e-04
1.04692741935484e+01 1.28178546509848e-02 1.22094540250882e-04
1.05220161290323e+01 1.27466578783364e-02 1.21721819579864e-04
1.05747580645161e+01 1.26758565683950e-02 1.21348711890527e-04
1.06275000000000e+01 1.26054485245567e-02 1.20975243425329e-04
1.06802419354839e+01 1.25354315617669e-02 1.20601439139961e-04
1.07329838709677e+01 1.24658035084224e-02 1.20227323570681e-04
1.07857258064516e+01 1.23965622043194e-02 1.19852921679421e-04
1.08384677419355e+01 1.23277055006222e-02 1.19478257183028e-04
1.08912096774194e+01 1.22592312617033e-02 1.19103353398785e-04
1.09439516129032e+01 1.21911373631564e-02 1.18728234068982e-04
1.09966935483871e+01 1.21234216917639e-02 1.18352921730879e-04
1.10494354838710e+01 1.20560821472783e-02 1.17977438802901e-04
1.11021774193548e+01 1.19891166398962e-02 1.17601807339380e-04
1.11549193548387e+01 1.19225230926331e-02 1.17226048752311e-04
1.12076612903226e+01 1.18562994394313e-02 1.16850184879322e-04
1.12604032258065e+01 1.17904436251268e-02 1.16474236412929e-04
1.13131451612903e+01 1.17249536071442e-02 1.16098223694092e-04
1.13658870967742e+01 1.16598273536627e-02 1.15722167487134e-04
1.14186290322581e+01 1.15950628435831e-02 1.15346087446777e-04
1.14713709677419e+01 1.15306580681696e-02 1.14970002892839e-04
1.15241129032258e+01 1.14666110292706e-02 1.14593933565864e-04
1.15768548387097e+01 1.14029197392872e-02 1.14217898130968e-04
1.16295967741935e+01 1.13395822227624e-02 1.13841914933811e-04
1.16823387096774e+01 1.12765965146565e-02 1.13466002738048e-04
1.17350806451613e+01 1.12139606603149e-02 1.13090179264950e-04
1.17878225806452e+01 1.11516727170082e-02 1.12714461930627e-04
1.18405645161290e+01 1.10897307522602e-02 1.12338868566253e-04
1.18933064516129e+01 1.10281328438143e-02 1.11963415992382e-04
1.19460483870968e+01 1.09668770811268e-02 1.11588120967314e-04
1.19987903225806e+01 1.09059615632392e-02 1.11212999971919e-04
1.20515322580645e+01 1.08453844007703e-02 1.10838068965638e-04
1.21042741935484e+01 1.07851437143206e-02 1.10463344319574e-04
1.21570161290323e+01 1.07252376344395e-02 1.10088841441756e-04
1.22097580645161e+01 1.06656643030481e-02 1.09714575470626e-04
1.22625000000000e+01 1.06064218718905e-02 1.09340561952375e-04
1.23152419354839e+01 1.05475085025018e-02 1.08966815498581e-04
1.23679838709677e+01 1.04889223675871e-02 1.08593350463421e-04
1.24207258064516e+01 1.04306616495181e-02 1.08220181604818e-04
1.24734677419355e+01 1.03727245403016e-02 1.07847322773636e-04
1.25262096774194e+01 1.03151092429165e-02 1.07474787574657e-04
1.25789516129032e+01 1.02578139698552e-02 1.07102590012386e-04
1.26316935483871e+01 1.02008369430908e-02 1.06730743210865e-04
1.26844354838710e+01 1.01441763953747e-02 1.06359260264631e-04
1.27371774193548e+01 1.00878305683798e-02 1.05988154044902e-04
1.27899193548387e+01 1.00317977144327e-02 1.05617436979906e-04
1.28426612903226e+01 9.97607609512123e-03 1.05247121892548e-04
1.28954032258065e+01 9.92066398126119e-03 1.04877220765356e-04
1.29481451612903e+01 9.86555965413478e-03 1.04507745362533e-04
1.30008870967742e+01 9.81076140413693e-03 1.04138707838331e-04
1.30536290322581e+01 9.75626753074362e-03 1.03770119530569e-04
1.31063709677419e+01 9.70207634371272e-03 1.03401991568526e-04
1.31591129032258e+01 9.64818616176918e-03 1.03034335466820e-04
1.32118548387097e+01 9.59459531257381e-03 1.02667161946845e-04
1.32645967741935e+01 9.54130213388843e-03 1.02300481530526e-04
1.33173387096774e+01 9.48830497229883e-03 1.01934305120519e-04
1.33700806451613e+01 9.43560218318325e-03 1.01568642848800e-04
1.34228225806452e+01 9.38319213184360e-03 1.01203504656294e-04
1.34755645161290e+01 9.33107319226478e-03 1.00838900860059e-04
1.35283064516129e+01 9.27924374708299e-03 1.00474841028202e-04
1.35810483870968e+01 9.22770218868405e-03 1.00111334726865e-04
1.36337903225806e+01 9.17644691762348e-03 9.97483913496076e-05
1.36865322580645e+01 9.12547634409457e-03 9.93860199240542e-05
1.37392741935484e+01 9.07478888674187e-03 9.90242298476030e-05
1.37920161290323e+01 9.02438297263005e-03 9.86630298014553e-05
1.38447580645161e+01 8.97425703829285e-03 9.83024282970638e-05
1.38975000000000e+01 8.92440952857959e-03 9.79424342106864e-05
1.39502419354839e+01 8.87483889662459e-03 9.75830557221138e-05
1.40029838709677e+01 8.82554360486569e-03 9.72243008487763e-05
1.40557258064516e+01 8.77652212392281e-03 9.68661779679728e-05
1.41084677419355e+01 8.72777293256774e-03 9.65086947797012e-05
1.41612096774194e+01 8.67929451871322e-03 9.61518588284704e-05
1.42139516129032e+01 8.63108537832292e-03 9.57956780138225e-05
1.42666935483871e+01 8.58314401538096e-03 9.54401595765954e-05
1.43194354838710e+01 8.53546894285303e-03 9.50853107716823e-05
1.43721774193548e+01 8.48805868129790e-03 9.47311387139976e-05
1.44249193548387e+01 8.44091176015320e-03 9.43776502039257e-05
1.44776612903226e+01 8.39402671669212e-03 9.40248523901729e-05
1.45304032258065e+01 8.34740209599320e-03 9.36727517909173e-05
1.45831451612903e+01 8.30103645185925e-03 9.33213547857950e-05
1.46358870967742e+01 8.25492834580242e-03 9.29706680977363e-05
1.46886290322581e+01 8.20907634701457e-03 9.26206978360476e-05
1.47413709677419e+01 8.16347903326008e-03 9.22714499775610e-05
1.47941129032258e+01 8.11813498988838e-03 9.19229308373805e-05
1.48468548387097e+01 8.07304280980494e-03 9.15751461334149e-05
1.48995967741935e+01 8.02820109433867e-03 9.12281014567350e-05
1.49523387096774e+01 7.98360845228148e-03 9.08818027318042e-05
1.50050806451613e+01 7.93926349985924e-03 9.05362553018981e-05
1.50578225806452e+01 7.89516486157503e-03 9.01914643886791e-05
1.51105645161290e+01 7.85131116927478e-03 8.98474355424048e-05
1.51633064516129e+01 7.80770106211820e-03 8.95041737476521e-05
1.52160483870968e+01 7.76433318739863e-03 8.91616840163068e-05
1.52687903225806e+01 7.72120619935266e-03 8.88199712515147e-05
1.53215322580645e+01 7.67831876025785e-03 8.84790400935776e-05
1.53742741935484e+01 7.63566953953744e-03 8.81388955044391e-05
1.54270161290323e+01 7.59325721373185e-03 8.77995419038234e-05
1.54797580645161e+01 7.55108046728325e-03 8.74609836031986e-05
1.55325000000000e+01 7.50913799166394e-03 8.71232252307526e-05
1.55852419354839e+01 7.46742848534852e-03 8.67862708866341e-05
1.56379838709677e+01 7.42595065457651e-03 8.64501245674005e-05
1.56907258064516e+01 7.38470321250402e-03 8.61147905815095e-05
1.57434677419355e+01 7.34368487917616e-03 8.57802727232016e-05
1.57962096774194e+01 7.30289438226869e-03 8.54465746874470e-05
1.58489516129032e+01 7.26233045626225e-03 8.51137004764037e-05
1.59016935483871e+01 7.22199184241491e-03 8.47816535914490e-05
1.59544354838710e+01 7.18187728948351e-03 8.44504375688048e-05
1.60071774193548e+01 7.14198555267167e-03 8.41200558564357e-05
1.60599193548387e+01 7.10231539459659e-03 8.37905116745996e-05
1.61126612903226e+01 7.06286558449735e-03 8.34618085439274e-05
1.61654032258065e+01 7.02363489820784e-03 8.31339495047263e-05
1.62181451612903e+01 6.98462211884755e-03 8.28069375088410e-05
1.62708870967742e+01 6.94582603605063e-03 8.24807758037527e-05
1.63236290322581e+01 6.90724544593923e-03 8.21554671689130e-05
1.63763709677419e+01 6.86887915179550e-03 8.18310142991873e-05
1.64291129032258e+01 6.83072596331068e-03 8.15074201804090e-05
1.64818548387097e+01 6.79278469655889e-03 8.11846873423688e-05
1.65345967741935e+01 6.75505417465086e-03 8.08628182338798e-05
1.65873387096774e+01 6.71753322700266e-03 8.05418155901694e-05
1.66400806451613e+01 6.68022068930963e-03 8.02216817021197e-05
