Energy (eV)          EEDF (eV^-(3/2))     First Anisotropy
3.58333333333333e-02 1.01173291067912e-01 7.71877660140507e-05
1.07500000000000e-01 9.97241273353772e-02 1.26972964718454e-04
1.79166666666667e-01 9.82957208190283e-02 1.66336181700460e-04
2.50833333333333e-01 9.68877741953171e-02 1.95471640510879e-04
3.22500000000000e-01 9.54999944057730e-02 2.19142759705702e-04
3.94166666666667e-01 9.41320925941741e-02 2.39171127896167e-04
4.65833333333333e-01 9.27837840325505e-02 2.56509641608193e-04
5.37500000000000e-01 9.14547880755350e-02 2.71739777155665e-04
6.09166666666667e-01 9.01448281001351e-02 2.85251144499302e-04
6.80833333333333e-01 8.88536314405900e-02 2.97321884762601e-04
7.52500000000000e-01 8.75809293390990e-02 3.08159920940469e-04
8.24166666666667e-01 8.63264568891356e-02 3.17926232644046e-04
8.95833333333333e-01 8.50899529752134e-02 3.26748945716214e-04
9.67500000000000e-01 8.38711602236018e-02 3.34732340105785e-04
1.03916666666667e+00 8.26698249517073e-02 3.41962867847134e-04
1.11083333333333e+00 8.14856970979794e-02 3.48513316451329e-04
1.18250000000000e+00 8.03185301908128e-02 3.54445777699433e-04
1.25416666666667e+00 7.91680812987436e-02 3.59813824187087e-04
1.32583333333333e+00 7.80341109504720e-02 3.64664132005604e-04
1.39750000000000e+00 7.69163831144209e-02 3.69037716655216e-04
1.46916666666667e+00 7.58146651477342e-02 3.72970896703532e-04
1.54083333333333e+00 7.47287277240739e-02 3.76496046378895e-04
1.61250000000000e+00 7.36583448096942e-02 3.79642195010466e-04
1.68416666666667e+00 7.26032936150062e-02 3.82435515760775e-04
1.75583333333333e+00 7.15633545284996e-02 3.84899719218949e-04
1.82750000000000e+00 7.05383110907825e-02 3.87056377138112e-04
1.89916666666667e+00 6.95279499484566e-02 3.88925196083093e-04
1.97083333333333e+00 6.85320607930763e-02 3.90524242176502e-04
2.04250000000000e+00 6.75504363340588e-02 3.91870130502874e-04
2.11416666666667e+00 6.65828722546881e-02 3.92978190337444e-04
2.18583333333333e+00 6.56291671553479e-02 3.93862602393864e-04
2.25750000000000e+00 6.46891225258951e-02 3.94536516708743e-04
2.32916666666667e+00 6.37625427036510e-02 3.95012158543118e-04
2.40083333333333e+00 6.28492348203449e-02 3.95300916756614e-04
2.47250000000000e+00 6.19490087743532e-02 3.95413420880779e-04
2.54416666666667e+00 6.10616771905601e-02 3.95359612370675e-04
2.61583333333333e+00 6.01870553705800e-02 3.95148803997385e-04
2.68750000000000e+00 5.93249612651414e-02 3.94789732297522e-04
2.75916666666667e+00 5.84752154357151e-02 3.94290607483472e-04
2.83083333333333e+00 5.76376410076739e-02 3.93659154789712e-04
2.90250000000000e+00 5.68120636430173e-02 3.92902651368106e-04
2.97416666666667e+00 5.59983115036756e-02 3.92027962458809e-04
3.04583333333333e+00 5.51962152073306e-02 3.91041571033402e-04
3.11750000000000e+00 5.44056078006181e-02 3.89949604480656e-04
3.18916666666667e+00 5.36263247240272e-02 3.88757861593846e-04
3.26083333333333e+00 5.28582037701496e-02 3.87471834358935e-04
3.33250000000000e+00 5.21010850574587e-02 3.86096727716972e-04
3.40416666666667e+00 5.13548109967274e-02 3.84637480211518e-04
3.47583333333333e+00 5.06192262515111e-02 3.83098780347417e-04
3.54750000000000e+00 4.98941777125711e-02 3.81485081524887e-04
3.61916666666667e+00 4.91795144657412e-02 3.79800618185376e-04
3.69083333333333e+00 4.84750877544746e-02 3.78049418320716e-04
3.76250000000000e+00 4.77807509549593e-02 3.76235314957242e-04
3.83416666666667e+00 4.70963595453668e-02 3.74361959025195e-04
3.90583333333333e+00 4.64217710703161e-02 3.72432829077096e-04
3.97750000000000e+00 4.57568451167119e-02 3.70451240253773e-04
4.04916666666667e+00 4.51014432843115e-02 3.68420354716046e-04
4.12083333333333e+00 4.44554291519784e-02 3.66343189300000e-04
4.19250000000000e+00 4.38186682542591e-02 3.64222622610228e-04
4.26416666666667e+00 4.31910280532116e-02 3.62061403601958e-04
4.33583333333333e+00 4.25723779063309e-02 3.59862157684510e-04
4.40750000000000e+00 4.19625890438745e-02 3.57627392398409e-04
4.47916666666667e+00 4.13615345418956e-02 3.55359504569110e-04
4.55083333333333e+00 4.07690892917379e-02 3.53060785225154e-04
4.62250000000000e+00 4.01851299781098e-02 3.50733424188360e-04
4.69416666666667e+00 3.96095350532709e-02 3.48379516106759e-04
4.76583333333333e+00 3.90421847080003e-02 3.46001064454826e-04
4.83750000000000e+00 3.84829608504172e-02 3.43599985278300e-04
4.90916666666667e+00 3.79317470812688e-02 3.41178112334852e-04
4.98083333333333e+00 3.73884286662879e-02 3.38737200374564e-04
5.05250000000000e+00 3.68528925157502e-02 3.36278928219347e-04
5.12416666666667e+00 3.63250271608168e-02 3.33804903183859e-04
5.19583333333333e+00 3.58047227272016e-02 3.31316663785354e-04
5.26750000000000e+00 3.52918709154549e-02 3.28815682293642e-04
5.33916666666667e+00 3.47863649783139e-02 3.26303368564381e-04
5.41083333333333e+00 3.42880996956083e-02 3.23781072291944e-04
5.48250000000000e+00 3.37969713552557e-02 3.21250085133968e-04
5.55416666666667e+00 3.33128777315767e-02 3.18711644059633e-04
5.62583333333333e+00 3.28357180613724e-02 3.16166933233122e-04
5.69750000000000e+00 3.23653930256150e-02 3.13617085793343e-04
5.76916666666667e+00 3.19018047286870e-02 3.11063186797885e-04
5.84083333333333e+00 3.14448566755671e-02 3.08506274805398e-04
5.91250000000000e+00 3.09944537542008e-02 3.05947343373488e-04
5.98416666666667e+00 3.05505022156225e-02 3.03387343662498e-04
6.05583333333333e+00 3.01129096521927e-02 3.00827185770657e-04
6.12750000000000e+00 2.96815849806304e-02 2.98267739999964e-04
6.19916666666667e+00 2.92564384229802e-02 2.95709839171313e-04
6.27083333333333e+00 2.88373814858477e-02 2.93154279755220e-04
6.34250000000000e+00 2.84243269440738e-02 2.90601822945459e-04
6.41416666666667e+00 2.80171888225114e-02 2.88053196727319e-04
6.48583333333333e+00 2.76158823762079e-02 2.85509096838248e-04
6.55750000000000e+00 2.72203240747030e-02 2.82970187681184e-04
6.62916666666667e+00 2.68304315845806e-02 2.80437104180226e-04
6.70083333333333e+00 2.64461237505503e-02 2.77910452598942e-04
6.77250000000000e+00 2.60673205803502e-02 2.75390811319292e-04
6.84416666666667e+00 2.56939432280396e-02 2.72878732513014e-04
6.91583333333333e+00 2.53259139759369e-02 2.70374742840183e-04
6.98750000000000e+00 2.49631562201068e-02 2.67879344114868e-04
7.05916666666667e+00 2.46055944543631e-02 2.65393014815825e-04
7.13083333333333e+00 2.42531542530203e-02 2.62916210683851e-04
7.20250000000000e+00 2.39057622569462e-02 2.60449365291526e-04
7.27416666666667e+00 2.35633461582450e-02 2.57992891412981e-04
7.34583333333333e+00 2.32258346837823e-02 2.55547181535342e-04
7.41750000000000e+00 2.28931575817855e-02 2.53112608346940e-04
7.48916666666667e+00 2.25652456071765e-02 2.50689525982868e-04
7.56083333333333e+00 2.22420305058346e-02 2.48278270463198e-04
7.63250000000000e+00 2.19234450017246e-02 2.45879160111611e-04
7.70416666666667e+00 2.16094227828518e-02 2.43492496690966e-04
7.77583333333333e+00 2.12998984862283e-02 2.41118565778881e-04
7.84750000000000e+00 2.09948076855091e-02 2.38757637126758e-04
7.91916666666667e+00 2.06940868775444e-02 2.36409965697558e-04
7.99083333333333e+00 2.03976734680145e-02 2.34075791987614e-04
8.06250000000000e+00 2.01055057595572e-02 2.31755342334471e-04
8.13416666666667e+00 1.98175229388910e-02 2.29448829867316e-04
8.20583333333333e+00 1.95336650630875e-02 2.27156454782538e-04
8.27750000000000e+00 1.92538730481725e-02 2.24878404607440e-04
8.34916666666667e+00 1.89780886567959e-02 2.22614855072418e-04
8.42083333333333e+00 1.87062544851115e-02 2.20365970346599e-04
8.49250000000000e+00 1.84383139518350e-02 2.18131903263434e-04
8.56416666666667e+00 1.81742112864364e-02 2.15912796122516e-04
8.63583333333333e+00 1.79138915166004e-02 2.13708780890709e-04
8.70750000000000e+00 1.76573004577228e-02 2.11519979394719e-04
8.77916666666667e+00 1.74043847016047e-02 2.09346504059456e-04
8.85083333333333e+00 1.71550916044654e-02 2.07188458079237e-04
8.92250000000000e+00 1.69093692768622e-02 2.05045935581718e-04
8.99416666666667e+00 1.66671665728635e-02 2.02919022308845e-04
9.06583333333333e+00 1.64284330785905e-02 2.00807795762079e-04
9.13750000000000e+00 1.61931191025428e-02 1.98712325341464e-04
9.20916666666667e+00 1.59611756652315e-02 1.96632672974494e-04
9.28083333333333e+00 1.57325544882241e-02 1.94568893238732e-04
9.35250000000000e+00 1.55072079848620e-02 1.92521033479229e-04
9.42416666666667e+00 1.52850892503327e-02 1.90489134390063e-04
9.49583333333333e+00 1.50661520511960e-02 1.88473230117264e-04
9.56750000000000e+00 1.48503508164777e-02 1.86473348357366e-04
9.63916666666667e+00 1.46376406281628e-02 1.84489510895800e-04
9.71083333333333e+00 1.44279772111808e-02 1.82521733692675e-04
9.78250000000000e+00 1.42213169248611e-02 1.80570026964850e-04
9.85416666666667e+00 1.40176167538295e-02 1.78634395684950e-04
9.92583333333333e+00 1.38168342984318e-02 1.76714839652176e-04
9.99750000000000e+00 1.36189277665368e-02 1.74811353434837e-04
1.00691666666667e+01 1.34238559653922e-02 1.72923927335762e-04
1.01408333333333e+01 1.32315782901661e-02 1.71052546944539e-04
1.02125000000000e+01 1.30420547189927e-02 1.69197192573005e-04
1.02841666666667e+01 1.28552458050718e-02 1.67357841424846e-04
1.03558333333333e+01 1.26711126629827e-02 1.65534466652787e-04
1.04275000000000e+01 1.24896169661124e-02 1.63727036310857e-04
1.04991666666667e+01 1.23107209385193e-02 1.61935515910626e-04
1.05708333333333e+01 1.21343873419344e-02 1.60159867392644e-04
1.06425000000000e+01 1.19605794731898e-02 1.58400048126220e-04
1.07141666666667e+01 1.17892611564308e-02 1.56656013325197e-04
1.07858333333333e+01 1.16203967307668e-02 1.54927715066171e-04
1.08575000000000e+01 1.14539510477091e-02 1.53215101333793e-04
1.09291666666667e+01 1.12898894637156e-02 1.51518118304589e-04
1.10008333333333e+01 1.11281778284568e-02 1.49836709409961e-04
1.10725000000000e+01 1.09687824822695e-02 1.48170814425077e-04
1.11441666666667e+01 1.08116702490208e-02 1.46520371628628e-04
1.12158333333333e+01 1.06568084249554e-02 1.44885316908690e-04
1.12875000000000e+01 1.05041647761717e-02 1.43265582893330e-04
1.13591666666667e+01 1.03537075317915e-02 1.41661100993636e-04
1.14308333333333e+01 1.02054053733568e-02 1.40071800550578e-04
1.15025000000000e+01 1.00592274323354e-02 1.38497608005503e-04
1.15741666666667e+01 9.91514328358160e-03 1.36938448833294e-04
1.16458333333333e+01 9.77312293525429e-03 1.35394246728431e-04
1.17175000000000e+01 9.63313682635572e-03 1.33864922813606e-04
1.17891666666667e+01 9.49515582047209e-03 1.32350397469406e-04
1.18608333333333e+01 9.35915119618405e-03 1.30850589557842e-04
1.19325000000000e+01 9.22509464464374e-03 1.29365415667366e-04
1.20041666666667e+01 9.09295826358242e-03 1.27894791845073e-04
1.20758333333333e+01 8.96271454818820e-03 1.26438632855992e-04
1.21475000000000e+01 8.83433638872426e-03 1.24996851462904e-04
1.22191666666667e+01 8.70779706479242e-03 1.23569360066635e-04
1.22908333333333e+01 8.58307023665336e-03 1.22156069999494e-04
1.23625000000000e+01 8.46012994288921e-03 1.20756890838303e-04
1.24341666666667e+01 8.33895059491183e-03 1.19371731958044e-04
1.25058333333333e+01 8.21950696870274e-03 1.18000501857878e-04
1.25775000000000e+01 8.10177420252230e-03 1.16643107505873e-04
1.26491666666667e+01 7.98572779165235e-03 1.15299455810892e-04
1.27208333333333e+01 7.87134358053403e-03 1.13969452979727e-04
1.27925000000000e+01 7.75859776052559e-03 1.12653003892085e-04
1.28641666666667e+01 7.64746686486926e-03 1.11350013495292e-04
1.29358333333333e+01 7.53792776120661e-03 1.10060386191115e-04
1.30075000000000e+01 7.42995764938647e-03 1.08784025239611e-04
1.30791666666667e+01 7.32353405664648e-03 1.07520834080967e-04
1.31508333333333e+01 7.21863483048662e-03 1.06270715750660e-04
1.32225000000000e+01 7.11523813652851e-03 1.05033572310824e-04
1.32941666666667e+01 7.01332245390235e-03 1.03809306103278e-04
1.33658333333333e+01 6.91286656846050e-03 1.02597819191687e-04
1.34375000000000e+01 6.81384957068901e-03 1.01399012819211e-04
1.35091666666667e+01 6.71625085129115e-03 1.00212788596507e-04
1.35808333333333e+01 6.62005009472383e-03 9.90390479696620e-05
1.36525000000000e+01 6.52522727716195e-03 9.78776917028704e-05
1.37241666666667e+01 6.43176266227013e-03 9.67286210050083e-05
1.37958333333333e+01 6.33963679504573e-03 9.55917370221275e-05
1.38675000000000e+01 6.24883049983634e-03 9.44669403440211e-05
1.39391666666667e+01 6.15932487629167e-03 9.33541320727062e-05
1.40108333333333e+01 6.07110129349782e-03 9.22532133383514e-05
1.40825000000000e+01 5.98414138804802e-03 9.11640848286152e-05
1.41541666666667e+01 5.89842706016701e-03 9.00866478022014e-05
1.42258333333333e+01 5.81394046812197e-03 8.90208036271270e-05
1.42975000000000e+01 5.73066402634655e-03 8.79664533317678e-05
1.43691666666667e+01 5.64858040173028e-03 8.69234985664681e-05
1.44408333333333e+01 5.56767250829248e-03 8.58918411631036e-05
1.45125000000000e+01 5.48792350535933e-03 8.48713827068359e-05
1.45841666666667e+01 5.40931679401124e-03 8.38620254485634e-05
1.46558333333333e+01 5.33183601200678e-03 8.28636718847919e-05
1.47275000000000e+01 5.25546503201234e-03 8.18762243491283e-05
1.47991666666667e+01 5.18018795820083e-03 8.08995858782114e-05
1.48708333333333e+01 5.10598912141318e-03 7.99336598109495e-05
1.49425000000000e+01 5.03285307744026e-03 7.89783493988310e-05
1.50141666666667e+01 4.96076460376622e-03 7.80335586278189e-05
1.50858333333333e+01 4.88970869495619e-03 7.70991918360512e-05
1.51575000000000e+01 4.81967056098954e-03 7.61751533420988e-05
1.52291666666667e+01 4.75063562414198e-03 7.52613482251583e-05
1.53008333333333e+01 4.68258951458813e-03 7.43576819603543e-05
1.53725000000000e+01 4.61551806878569e-03 7.34640600641071e-05
1.54441666666667e+01 4.54940732649015e-03 7.25803888348477e-05
1.55158333333333e+01 4.48424352656194e-03 7.17065750050898e-05
1.55875000000000e+01 4.42001310540058e-03 7.08425254031069e-05
1.56591666666667e+01 4.35670269408647e-03 6.99881476562591e-05
1.57308333333333e+01 4.29429911438257e-03 6.91433498590561e-05
1.58025000000000e+01 4.23278937721781e-03 6.83080402503796e-05
1.58741666666667e+01 4.17216067995041e-03 6.74821278813835e-05
1.59458333333333e+01 4.11240040255480e-03 6.66655222988138e-05
1.60175000000000e+01 4.05349610615331e-03 6.58581332370455e-05
1.60891666666667e+01 3.99543553039584e-03 6.50598712524176e-05
1.61608333333333e+01 3.93820658982313e-03 6.42706474210912e-05
1.62325000000000e+01 3.88179737244567e-03 6.34903730452198e-05
1.63041666666667e+01 3.82619613723491e-03 6.27189602554706e-05
1.63758333333333e+01 3.77139131065430e-03 6.19563217227397e-05
1.64475000000000e+01 3.71737148528450e-03 6.12023703778008e-05
1.65191666666667e+01 3.66412541742129e-03 6.04570199836689e-05
1.65908333333333e+01 3.61164202376638e-03 5.97201848605316e-05
1.66625000000000e+01 3.55991038009795e-03 5.89917796182428e-05
1.67341666666667e+01 3.50891971897064e-03 5.82717197000968e-05
1.68058333333333e+01 3.45865942655854e-03 5.75599211203630e-05
1.68775000000000e+01 3.40911904136996e-03 5.68563002090254e-05
1.69491666666667e+01 3.36028825204523e-03 5.61607741284491e-05
1.70208333333333e+01 3.31215689434455e-03 5.54732606229274e-05
1.70925000000000e+01 3.26471494990597e-03 5.47936777751017e-05
1.71641666666667e+01 3.21795254413678e-03 5.41219444969214e-05
1.72358333333333e+01 3.17185994333939e-03 5.34579802906436e-05
1.73075000000000e+01 3.12642755351143e-03 5.28017050163914e-05
1.73791666666667e+01 3.08164591832672e-03 5.21530393587255e-05
1.74508333333333e+01 3.03750571639269e-03 5.15119045985686e-05
1.75225000000000e+01 2.99399776009142e-03 5.08782223913846e-05
1.75941666666667e+01 2.95111299364649e-03 5.02519152106144e-05
1.76658333333333e+01 2.90884249050561e-03 4.96329061300181e-05
1.77375000000000e+01 2.86717745222163e-03 4.90211186119808e-05
1.78091666666667e+01 2.82610920660153e-03 4.84164769290010e-05
1.78808333333333e+01 2.78562920520839e-03 4.78189059559642e-05
1.79525000000000e+01 2.74572902228127e-03 4.72283309681062e-05
1.80241666666667e+01 2.70640035296280e-03 4.66446780416737e-05
1.80958333333333e+01 2.66763501091501e-03 4.60678738556712e-05
1.81675000000000e+01 2.62942492727683e-03 4.54978454990318e-05
1.82391666666667e+01 2.59176214896708e-03 4.49345208515136e-05
1.83108333333333e+01 2.55463883640868e-03 4.43778283944818e-05
1.83825000000000e+01 2.51804726252281e-03 4.38276970268618e-05
1.84541666666667e+01 2.48197981110404e-03 4.32840564272743e-05
1.85258333333333e+01 2.44642897464785e-03 4.27468368734311e-05
1.85975000000000e+01 2.41138735338043e-03 4.22159690664647e-05
1.86691666666667e+01 2.37684765370278e-03 4.16913844752570e-05
1.87408333333333e+01 2.34280268611681e-03 4.11730151640519e-05
1.88125000000000e+01 2.30924536428965e-03 4.06607936247721e-05
1.88841666666667e+01 2.27616870356389e-03 4.01546531044423e-05
1.89558333333333e+01 2.24356581897753e-03 3.96545274406373e-05
1.90275000000000e+01 2.21142992436187e-03 3.91603509014180e-05
1.90991666666667e+01 2.17975433091498e-03 3.86720584967043e-05
1.91708333333333e+01 2.14853244531126e-03 3.81895858211948e-05
1.92425000000000e+01 2.11775776883177e-03 3.77128689015729e-05
1.93141666666667e+01 2.08742389599826e-03 3.72418444926351e-05
1.93858333333333e+01 2.05752451276824e-03 3.67764499273406e-05
1.94575000000000e+01 2.02805339569665e-03 3.63166229709506e-05
1.95291666666667e+01 1.99900441062802e-03 3.58623021026772e-05
1.96008333333333e+01 1.97037151097288e-03 3.54134263725389e-05
1.96725000000000e+01 1.94214873689997e-03 3.49699352621075e-05
1.97441666666667e+01 1.91433021408395e-03 3.45317689524096e-05
1.98158333333333e+01 1.88691015205944e-03 3.40988681872706e-05
1.98875000000000e+01 1.85988284344282e-03 3.36711741403676e-05
1.99591666666667e+01 1.83324266273299e-03 3.32486286700719e-05
2.00308333333333e+01 1.80698406473967e-03 3.28311741889790e-05
2.01025000000000e+01 1.78110158383358e-03 3.24187535369842e-05
2.01741666666667e+01 1.75558983279830e-03 3.20113102237123e-05
2.02458333333333e+01 1.73044350132907e-03 3.16087883039546e-05
2.03175000000000e+01 1.70565735531074e-03 3.12111322564869e-05
2.03891666666667e+01 1.68122623571829e-03 3.08182872147086e-05
2.04608333333333e+01 1.65714505718313e-03 3.04301988477111e-05
2.05325000000000e+01 1.63340880729769e-03 3.00468132445757e-05
2.06041666666667e+01 1.61001254556267e-03 2.96680771338136e-05
2.06758333333333e+01 1.58695140201765e-03 2.92939377698059e-05
2.07475000000000e+01 1.56422057657154e-03 2.89243428223266e-05
2.08191666666667e+01 1.54181533799448e-03 2.85592405853385e-05
2.08908333333333e+01 1.51973102260986e-03 2.81985798685639e-05
2.09625000000000e+01 1.49796303364971e-03 2.78423098919940e-05
2.10341666666667e+01 1.47650684028941e-03 2.74903804845655e-05
2.11058333333333e+01 1.45535797639828e-03 2.71427419806272e-05
2.11775000000000e+01 1.43451203991908e-03 2.67993451192063e-05
2.12491666666667e+01 1.41396469194369e-03 2.64601412330716e-05
2.13208333333333e+01 1.39371165551961e-03 2.61250821498671e-05
2.13925000000000e+01 1.37374871505275e-03 2.57941200959202e-05
2.14641666666667e+01 1.35407171542229e-03 2.54672078761651e-05
2.15358333333333e+01 1.33467656084062e-03 2.51442987797328e-05
2.16075000000000e+01 1.31555921427855e-03 2.48253464880910e-05
2.16791666666667e+01 1.29671569661775e-03 2.45103052462807e-05
2.17508333333333e+01 1.27814208556161e-03 2.41991297727573e-05
2.18225000000000e+01 1.25983451508214e-03 2.38917751716652e-05
2.18941666666667e+01 1.24178917460843e-03 2.35881970958165e-05
2.19658333333333e+01 1.22400230798604e-03 2.32883516605879e-05
2.20375000000000e+01 1.20647021294489e-03 2.29921953601423e-05
2.21091666666667e+01 1.18918924032217e-03 2.26996852225558e-05
2.21808333333333e+01 1.17215579306808e-03 2.24107787275862e-05
2.22525000000000e+01 1.15536632573397e-03 2.21254337266600e-05
2.23241666666667e+01 1.13881734372821e-03 2.18436085905339e-05
2.23958333333333e+01 1.12250540236622e-03 2.15652621307593e-05
2.24675000000000e+01 1.10642710637812e-03 2.12903535232637e-05
2.25391666666667e+01 1.09057910919613e-03 2.10188424489114e-05
2.26108333333333e+01 1.07495811204695e-03 2.07506890184966e-05
