Energy (eV)          EEDF (eV^-(3/2))     First Anisotropy
7.89830508474576e-03 2.53920991991300e-01 1.23674253589999e-04
2.36949152542373e-02 2.52438437928712e-01 2.04312013310037e-04
3.94915254237288e-02 2.50964539976918e-01 2.69955314484237e-04
5.52881355932203e-02 2.49499247588345e-01 3.19971592083365e-04
7.10847457627119e-02 2.48042510518361e-01 3.61807280566862e-04
8.68813559322034e-02 2.46594278817679e-01 3.98273524988021e-04
1.02677966101695e-01 2.45154502824575e-01 4.30823010108322e-04
1.18474576271186e-01 2.43723133171633e-01 4.60331741941601e-04
1.34271186440678e-01 2.42300120776767e-01 4.87379900194196e-04
1.50067796610170e-01 2.40885416834745e-01 5.12376977558730e-04
1.65864406779661e-01 2.39478972846380e-01 5.35625685369533e-04
1.81661016949153e-01 2.38080740584301e-01 5.57357841247869e-04
1.97457627118644e-01 2.36690672102814e-01 5.77755990542391e-04
2.13254237288136e-01 2.35308719736173e-01 5.96967168726201e-04
2.29050847457627e-01 2.33934836097128e-01 6.15112050353419e-04
2.44847457627119e-01 2.32568974069448e-01 6.32291250072114e-04
2.60644067796610e-01 2.31211086823859e-01 6.48589798192441e-04
2.76440677966102e-01 2.29861127798306e-01 6.64080399629799e-04
2.92237288135593e-01 2.28519050702595e-01 6.78825856042135e-04
3.08033898305085e-01 2.27184809516811e-01 6.92880904978793e-04
3.23830508474576e-01 2.25858358489796e-01 7.06293638121435e-04
3.39627118644068e-01 2.24539652133612e-01 7.19106609209371e-04
3.55423728813559e-01 2.23228645233992e-01 7.31357714924277e-04
3.71220338983051e-01 2.21925292836480e-01 7.43080901904644e-04
3.87016949152542e-01 2.20629550249093e-01 7.54306737650066e-04
4.02813559322034e-01 2.19341373040789e-01 7.65062879922408e-04
4.18610169491525e-01 2.18060717039976e-01 7.75374464548288e-04
4.34406779661017e-01 2.16787538330029e-01 7.85264426697800e-04
4.50203389830509e-01 2.15521793256764e-01 7.94753772511884e-04
4.66000000000000e-01 2.14263438417785e-01 8.03861808725865e-04
4.81796610169492e-01 2.13012430664100e-01 8.12606335760465e-04
4.97593220338983e-01 2.11768727098656e-01 8.21003814517269e-04
5.13389830508475e-01 2.10532285074875e-01 8.29069509815297e-04
5.29186440677966e-01 2.09303062192859e-01 8.36817612869214e-04
5.44983050847458e-01 2.08081016305010e-01 8.44261349483037e-04
5.60779661016949e-01 2.06866105507390e-01 8.51413074541635e-04
5.76576271186441e-01 2.05658288140718e-01 8.58284352906163e-04
5.92372881355932e-01 2.04457522788953e-01 8.64886032036774e-04
6.08169491525424e-01 2.03263768277877e-01 8.71228306105535e-04
6.23966101694915e-01 2.02076983671777e-01 8.77320771456979e-04
6.39762711864407e-01 2.00897128277813e-01 8.83172477545463e-04
6.55559322033898e-01 1.99724161638767e-01 8.88791972437084e-04
6.71355932203390e-01 1.98558043533632e-01 8.94187341820889e-04
6.87152542372881e-01 1.97398733976241e-01 8.99366245322185e-04
7.02949152542373e-01 1.96246193213899e-01 9.04335949158722e-04
7.18745762711865e-01 1.95100381724428e-01 9.09103354376848e-04
7.34542372881356e-01 1.93961260219627e-01 9.13675023858480e-04
7.50338983050848e-01 1.92828789639049e-01 9.18057206854068e-04
7.66135593220339e-01 1.91702931150300e-01 9.22255859737443e-04
7.81932203389831e-01 1.90583646147722e-01 9.26276666091603e-04
7.97728813559322e-01 1.89470896251062e-01 9.30125055020112e-04
8.13525423728814e-01 1.88364643302807e-01 9.33806216777098e-04
8.29322033898305e-01 1.87264849370975e-01 9.37325118428446e-04
8.45118644067797e-01 1.86171476743661e-01 9.40686518266037e-04
8.60915254237288e-01 1.85084487929143e-01 9.43894977662665e-04
8.76711864406780e-01 1.84003845654607e-01 9.46954873074562e-04
8.92508474576271e-01 1.82929512864860e-01 9.49870407098996e-04
9.08305084745763e-01 1.81861452719897e-01 9.52645617672749e-04
9.24101694915254e-01 1.80799628597174e-01 9.55284387817922e-04
9.39898305084746e-01 1.79744004086772e-01 9.57790454707651e-04
9.55694915254237e-01 1.78694542991355e-01 9.60167416799979e-04
9.71491525423729e-01 1.77651209324934e-01 9.62418741703937e-04
9.87288135593220e-01 1.76613967310584e-01 9.64547772305224e-04
1.00308474576271e+00 1.75582781382387e-01 9.66557733396840e-04
1.01888135593220e+00 1.74557616182004e-01 9.68451738807955e-04
1.03467796610170e+00 1.73538436555528e-01 9.70232795745930e-04
1.05047457627119e+00 1.72525207555322e-01 9.71903809760675e-04
1.06627118644068e+00 1.71517894437797e-01 9.73467590308402e-04
1.08206779661017e+00 1.70516462662220e-01 9.74926855057115e-04
1.09786440677966e+00 1.69520877889529e-01 9.76284234147771e-04
1.11366101694915e+00 1.68531105981154e-01 9.77542274193787e-04
1.12945762711864e+00 1.67547112997851e-01 9.78703442038240e-04
1.14525423728814e+00 1.66568865198534e-01 9.79770128287376e-04
1.16105084745763e+00 1.65596329039120e-01 9.80744650636683e-04
1.17684745762712e+00 1.64629471171376e-01 9.81629257004307e-04
1.19264406779661e+00 1.63668258441780e-01 9.82426128485788e-04
1.20844067796610e+00 1.62712657890381e-01 9.83137382142859e-04
1.22423728813559e+00 1.61762636749669e-01 9.83765073637523e-04
1.24003389830508e+00 1.60818162443453e-01 9.84311199722012e-04
1.25583050847458e+00 1.59879202585742e-01 9.84777700594749e-04
1.27162711864407e+00 1.58945724979636e-01 9.85166462131028e-04
1.28742372881356e+00 1.58017697616221e-01 9.85479317996399e-04
1.30322033898305e+00 1.57095088673472e-01 9.85718051650649e-04
1.31901694915254e+00 1.56177866515162e-01 9.85884398249860e-04
1.33481355932203e+00 1.55265999689774e-01 9.85980046451981e-04
1.35061016949153e+00 1.54359456929430e-01 9.86006640132718e-04
1.36640677966102e+00 1.53458207148809e-01 9.85965780017294e-04
1.38220338983051e+00 1.52562219444091e-01 9.85859025232666e-04
1.39800000000000e+00 1.51671463091890e-01 9.85687896489231e-04
1.41379661016949e+00 1.50785907541981e-01 9.85453872347584e-04
1.42959322033898e+00 1.49905522435063e-01 9.85158394008728e-04
1.44538983050847e+00 1.49030277582757e-01 9.84802870061843e-04
1.46118644067797e+00 1.48160142972948e-01 9.84388672473193e-04
1.47698305084746e+00 1.47295088768748e-01 9.83917139507471e-04
1.49277966101695e+00 1.46435085307478e-01 9.83389576842290e-04
1.50857627118644e+00 1.45580103099648e-01 9.82807258633729e-04
1.52437288135593e+00 1.44730112827948e-01 9.82171428535541e-04
1.54016949152542e+00 1.43885085346239e-01 9.81483300674069e-04
1.55596610169492e+00 1.43044991678559e-01 9.80744060582138e-04
1.57176271186441e+00 1.42209803018123e-01 9.79954866093363e-04
1.58755932203390e+00 1.41379490726343e-01 9.79116848199044e-04
1.60335593220339e+00 1.40554026331838e-01 9.78231111870219e-04
1.61915254237288e+00 1.39733381529462e-01 9.77298736845853e-04
1.63494915254237e+00 1.38917528179335e-01 9.76320778389576e-04
1.65074576271186e+00 1.38106438305872e-01 9.75298268015913e-04
1.66654237288136e+00 1.37300084096831e-01 9.74232214187927e-04
1.68233898305085e+00 1.36498437902355e-01 9.73123602988067e-04
1.69813559322034e+00 1.35701472234023e-01 9.71973398762552e-04
1.71393220338983e+00 1.34909159763912e-01 9.70782544741277e-04
1.72972881355932e+00 1.34121473323654e-01 9.69551963634518e-04
1.74552542372881e+00 1.33338385903510e-01 9.68282558206843e-04
1.76132203389831e+00 1.32559870651440e-01 9.66975211830070e-04
1.77711864406780e+00 1.31785900872183e-01 9.65630789015865e-04
1.79291525423729e+00 1.31016450026344e-01 9.64250135928885e-04
1.80871186440678e+00 1.30251491729482e-01 9.62834080881553e-04
1.82450847457627e+00 1.29490999751203e-01 9.61383434811041e-04
1.84030508474576e+00 1.28734948014264e-01 9.59898991739562e-04
1.85610169491525e+00 1.27983310593681e-01 9.58381529218512e-04
1.87189830508475e+00 1.27236061715832e-01 9.56831808757462e-04
1.88769491525424e+00 1.26493175757579e-01 9.55250576237626e-04
1.90349152542373e+00 1.25754627245392e-01 9.53638562311910e-04
1.91928813559322e+00 1.25020390854467e-01 9.51996482791821e-04
1.93508474576271e+00 1.24290441407866e-01 9.50325039020763e-04
1.95088135593220e+00 1.23564753875649e-01 9.48624918235387e-04
1.96667796610170e+00 1.22843303374018e-01 9.46896793914903e-04
1.98247457627119e+00 1.22126065164461e-01 9.45141326119005e-04
1.99827118644068e+00 1.21413014652907e-01 9.43359161815144e-04
2.01406779661017e+00 1.20704127388879e-01 9.41550935195180e-04
2.02986440677966e+00 1.19999379064660e-01 9.39717267981943e-04
2.04566101694915e+00 1.19298745514456e-01 9.37858769726425e-04
2.06145762711864e+00 1.18602202713569e-01 9.35976038095575e-04
2.07725423728814e+00 1.17909726777570e-01 9.34069659151157e-04
2.09305084745763e+00 1.17221293961488e-01 9.32140207620217e-04
2.10884745762712e+00 1.16536880658985e-01 9.30188247157226e-04
2.12464406779661e+00 1.15856463401555e-01 9.28214330598481e-04
2.14044067796610e+00 1.15180018857716e-01 9.26219000208811e-04
2.15623728813559e+00 1.14507523832210e-01 9.24202787920959e-04
2.17203389830508e+00 1.13838955265208e-01 9.22166215567938e-04
2.18783050847458e+00 1.13174290231517e-01 9.20109795108847e-04
2.20362711864407e+00 1.12513505939800e-01 9.18034028847939e-04
2.21942372881356e+00 1.11856579731788e-01 9.15939409647312e-04
2.23522033898305e+00 1.11203489081506e-01 9.13826421133879e-04
2.25101694915254e+00 1.10554211594499e-01 9.11695537900215e-04
2.26681355932203e+00 1.09908725007068e-01 9.09547225699990e-04
2.28261016949153e+00 1.09267007185501e-01 9.07381941637884e-04
2.29840677966102e+00 1.08629036125319e-01 9.05200134354138e-04
2.31420338983051e+00 1.07994789950518e-01 9.03002244204235e-04
2.33000000000000e+00 1.07364246912821e-01 9.00788704368873e-04
2.34579661016949e+00 1.06737385388283e-01 8.98559938204179e-04
2.36159322033898e+00 1.06114183884544e-01 8.96316361295193e-04
2.37738983050847e+00 1.05494621032045e-01 8.94058383520454e-04
2.39318644067797e+00 1.04878675586001e-01 8.91786406341128e-04
2.40898305084746e+00 1.04266326425663e-01 8.89500823914756e-04
2.42477966101695e+00 1.03657552553603e-01 8.87202023243724e-04
2.44057627118644e+00 1.03052333094987e-01 8.84890384320287e-04
2.45637288135593e+00 1.02450647296861e-01 8.82566280267951e-04
2.47216949152542e+00 1.01852474527442e-01 8.80230077478980e-04
2.48796610169492e+00 1.01257794275408e-01 8.77882135748438e-04
2.50376271186441e+00 1.00666586149194e-01 8.75522808405044e-04
2.51955932203390e+00 1.00078829876297e-01 8.73152442438852e-04
2.53535593220339e+00 9.94945053025757e-02 8.70771378625408e-04
2.55115254237288e+00 9.89135923915617e-02 8.68379951647012e-04
2.56694915254237e+00 9.83360712237733e-02 8.65978490211238e-04
2.58274576271186e+00 9.77619219960312e-02 8.63567317166357e-04
2.59854237288136e+00 9.71911250207796e-02 8.61146749613946e-04
2.61433898305085e+00 9.66236607254117e-02 8.58717099018899e-04
2.63013559322034e+00 9.60595096515980e-02 8.56278671316778e-04
2.64593220338983e+00 9.54986524546191e-02 8.53831767018601e-04
2.66172881355932e+00 9.49410699027030e-02 8.51376681313308e-04
2.67752542372881e+00 9.43867428763647e-02 8.48913704167699e-04
2.69332203389831e+00 9.38356523677513e-02 8.46443120423996e-04
2.70911864406780e+00 9.32877794799900e-02 8.43965209895283e-04
2.72491525423729e+00 9.27431054265400e-02 8.41480247458764e-04
2.74071186440678e+00 9.22016115305485e-02 8.38988503146770e-04
2.75650847457627e+00 9.16632792242101e-02 8.36490242235816e-04
2.77230508474576e+00 9.11280900481305e-02 8.33985725333695e-04
2.78810169491525e+00 9.05960256506928e-02 8.31475208464399e-04
2.80389830508475e+00 9.00670677874290e-02 8.28958943151429e-04
2.81969491525424e+00 8.95411983203936e-02 8.26437176499038e-04
2.83549152542373e+00 8.90183992175426e-02 8.23910151271685e-04
2.85128813559322e+00 8.84986525521144e-02 8.21378105972052e-04
2.86708474576271e+00 8.79819405020156e-02 8.18841274917112e-04
2.88288135593220e+00 8.74682453492096e-02 8.16299888312563e-04
2.89867796610170e+00 8.69575494791090e-02 8.13754172325628e-04
2.91447457627119e+00 8.64498353799718e-02 8.11204349156449e-04
2.93027118644068e+00 8.59450856423007e-02 8.08650637107854e-04
2.94606779661017e+00 8.54432829582466e-02 8.06093250653677e-04
2.96186440677966e+00 8.49444101210144e-02 8.03532400505744e-04
2.97766101694915e+00 8.44484500242734e-02 8.00968293679157e-04
2.99345762711864e+00 8.39553856615709e-02 7.98401133556407e-04
3.00925423728814e+00 8.34652001257485e-02 7.95831119950405e-04
3.02505084745763e+00 8.29778766083631e-02 7.93258449165838e-04
3.04084745762712e+00 8.24933983991096e-02 7.90683314059401e-04
3.05664406779661e+00 8.20117488852488e-02 7.88105904098800e-04
3.07244067796610e+00 8.15329115510373e-02 7.85526405420599e-04
3.08823728813559e+00 8.10568699771610e-02 7.82945000886823e-04
3.10403389830509e+00 8.05836078401726e-02 7.80361870140384e-04
3.11983050847458e+00 8.01131089119316e-02 7.77777189659789e-04
3.13562711864407e+00 7.96453570590477e-02 7.75191132812253e-04
3.15142372881356e+00 7.91803362423276e-02 7.72603869905898e-04
3.16722033898305e+00 7.87180305162255e-02 7.70015568241090e-04
3.18301694915254e+00 7.82584240282957e-02 7.67426392160654e-04
3.19881355932203e+00 7.78015010186493e-02 7.64836503099154e-04
3.21461016949153e+00 7.73472458194138e-02 7.62246059631131e-04
3.23040677966102e+00 7.68956428541959e-02 7.59655217518538e-04
3.24620338983051e+00 7.64466766375471e-02 7.57064129757134e-04
3.26200000000000e+00 7.60003317744332e-02 7.54472947181856e-04
3.27779661016949e+00 7.55565929583660e-02 7.51881816824209e-04
3.29359322033898e+00 7.51154449749207e-02 7.49290883085069e-04
3.30938983050848e+00 7.46768726971497e-02 7.46700288917234e-04
3.32518644067797e+00 7.42408610864261e-02 7.44110174152057e-04
3.34098305084746e+00 7.38073951919285e-02 7.41520676115541e-04
3.35677966101695e+00 7.33764601501275e-02 7.38931929668959e-04
3.37257627118644e+00 7.29480411842771e-02 7.36344067248713e-04
3.38837288135593e+00 7.25221236039070e-02 7.33757218905565e-04
3.40416949152542e+00 7.20986928043195e-02 7.31171512343009e-04
3.41996610169492e+00 7.16777342660888e-02 7.28587072955001e-04
3.43576271186441e+00 7.12592335545624e-02 7.26004023863149e-04
3.45155932203390e+00 7.08431763193668e-02 7.23422485952959e-04
3.46735593220339e+00 7.04295482939154e-02 7.20842577909586e-04
3.48315254237288e+00 7.00183352949188e-02 7.18264416252917e-04
3.49894915254237e+00 6.96095232218989e-02 7.15688115371977e-04
3.51474576271186e+00 6.92030980567054e-02 7.13113787558839e-04
3.53054237288136e+00 6.87990458630347e-02 7.10541543041783e-04
3.54633898305085e+00 6.83973527859527e-02 7.07971490017943e-04
3.56213559322034e+00 6.79980050514190e-02 7.05403734685510e-04
3.57793220338983e+00 6.76009889658149e-02 7.02838381274950e-04
3.59372881355932e+00 6.72062909154741e-02 7.00275532080169e-04
3.60952542372881e+00 6.68138973662155e-02 6.97715287488850e-04
3.62532203389831e+00 6.64237948628793e-02 6.95157746012320e-04
3.64111864406780e+00 6.60359700288654e-02 6.92603004314970e-04
3.65691525423729e+00 6.56504095656753e-02 6.90051157243051e-04
3.67271186440678e+00 6.52671002524554e-02 6.87502297853076e-04
3.68850847457627e+00 6.48860289455438e-02 6.84956517439546e-04
3.70430508474576e+00 6.45071825780202e-02 6.82413905562550e-04
3.72010169491525e+00 6.41305481592571e-02 6.79874550074556e-04
3.73589830508475e+00 6.37561127744747e-02 6.77338537146982e-04
3.75169491525424e+00 6.33838635842979e-02 6.74805951296189e-04
3.76749152542373e+00 6.30137878243163e-02 6.72276875408871e-04
3.78328813559322e+00 6.26458728046462e-02 6.69751390767439e-04
3.79908474576271e+00 6.22801059094957e-02 6.67229577074803e-04
3.81488135593220e+00 6.19164745967321e-02 6.64711512478492e-04
3.83067796610170e+00 6.15549663974515e-02 6.62197273594638e-04
3.84647457627119e+00 6.11955689155518e-02 6.59686935531585e-04
3.86227118644068e+00 6.08382698273071e-02 6.57180571912986e-04
3.87806779661017e+00 6.04830568809454e-02 6.54678254900494e-04
3.89386440677966e+00 6.01299178962284e-02 6.52180055216118e-04
3.90966101694915e+00 5.97788407640339e-02 6.49686042164364e-04
3.92545762711864e+00 5.94298134459405e-02 6.47196283653791e-04
3.94125423728814e+00 5.90828239738150e-02 6.44710846218309e-04
3.95705084745763e+00 5.87378604494016e-02 6.42229795038219e-04
3.97284745762712e+00 5.83949110439145e-02 6.39753193960770e-04
3.98864406779661e+00 5.80539639976318e-02 6.37281105520427e-04
4.00444067796610e+00 5.77150076194922e-02 6.34813590958835e-04
4.02023728813559e+00 5.73780302866948e-02 6.32350710244510e-04
4.03603389830509e+00 5.70430204442997e-02 6.29892522092140e-04
4.05183050847458e+00 5.67099666048324e-02 6.27439083981586e-04
4.06762711864407e+00 5.63788573478895e-02 6.24990452176566e-04
4.08342372881356e+00 5.60496813197475e-02 6.22546681743158e-04
4.09922033898305e+00 5.57224272329730e-02 6.20107826567889e-04
4.11501694915254e+00 5.53970838660361e-02 6.17673939375539e-04
4.13081355932203e+00 5.50736400629252e-02 6.15245071746806e-04
4.14661016949153e+00 5.47520847327649e-02 6.12821274135507e-04
4.16240677966102e+00 5.44324068494353e-02 6.10402595885630e-04
4.17820338983051e+00 5.41145954511942e-02 6.07989085248033e-04
4.19400000000000e+00 5.37986396403009e-02 6.05580789746518e-04
4.20979661016949e+00 5.34845285819048e-02 6.03177755140733e-04
4.22559322033898e+00 5.31722515058995e-02 6.00780026146537e-04
4.24138983050848e+00 5.28617977043161e-02 5.98387647163463e-04
4.25718644067797e+00 5.25531565317054e-02 5.96000661219316e-04
4.27298305084746e+00 5.22463174047737e-02 5.93619110344000e-04
4.28877966101695e+00 5.19412698020189e-02 5.91243035584555e-04
4.30457627118644e+00 5.16380032633705e-02 5.88872477019967e-04
4.32037288135593e+00 5.13365073898305e-02 5.86507473775788e-04
4.33616949152542e+00 5.10367718431170e-02 5.84148064038390e-04
4.35196610169492e+00 5.07387863453096e-02 5.81794285069143e-04
4.36776271186441e+00 5.04425406784970e-02 5.79446173218300e-04
4.38355932203390e+00 5.01480246844266e-02 5.77103763938790e-04
4.39935593220339e+00 4.98552282641564e-02 5.74767091799629e-04
4.41515254237288e+00 4.95641413777085e-02 5.72436190499238e-04
4.43094915254237e+00 4.92747540437245e-02 5.70111092878601e-04
4.44674576271187e+00 4.89870563391241e-02 5.67791830934126e-04
4.46254237288136e+00 4.87010383987639e-02 5.65478435830300e-04
4.47833898305085e+00 4.84166904150997e-02 5.63170937912263e-04
4.49413559322034e+00 4.81340026378503e-02 5.60869366718145e-04
4.50993220338983e+00 4.78529653736625e-02 5.58573750991195e-04
4.52572881355932e+00 4.75735689857794e-02 5.56284118691826e-04
4.54152542372881e+00 4.72958038937097e-02 5.54000497009293e-04
4.55732203389831e+00 4.70196605728990e-02 5.51722912373395e-04
4.57311864406780e+00 4.67451295544036e-02 5.49451390465873e-04
4.58891525423729e+00 4.64722014245653e-02 5.47185956231745e-04
4.60471186440678e+00 4.62008668246891e-02 5.44926633890396e-04
4.62050847457627e+00 4.59311164507221e-02 5.42673446946498e-04
4.63630508474576e+00 4.56629410529343e-02 5.40426418200825e-04
4.65210169491526e+00 4.53963314356017e-02 5.38185569760911e-04
4.66789830508475e+00 4.51312784566908e-02 5.35950923051572e-04
4.68369491525424e+00 4.48677730275452e-02 5.33722498825101e-04
4.69949152542373e+00 4.46058061125738e-02 5.31500317171492e-04
4.71528813559322e+00 4.43453687289414e-02 5.29284397528545e-04
4.73108474576271e+00 4.40864519462600e-02 5.27074758691756e-04
4.74688135593220e+00 4.38290468862831e-02 5.24871418823943e-04
4.76267796610170e+00 4.35731447226013e-02 5.22674395464896e-04
4.77847457627119e+00 4.33187366803392e-02 5.20483705540881e-04
4.79427118644068e+00 4.30658140358549e-02 5.18299365373959e-04
4.81006779661017e+00 4.28143681164408e-02 5.16121390691194e-04
4.82586440677966e+00 4.25643903000259e-02 5.13949796633647e-04
4.84166101694915e+00 4.23158720148806e-02 5.11784597765363e-04
4.85745762711865e+00 4.20688047393226e-02 5.09625808082197e-04
4.87325423728814e+00 4.18231800014246e-02 5.07473441020442e-04
4.88905084745763e+00 4.15789893787237e-02 5.05327509465379e-04
4.90484745762712e+00 4.13362244979330e-02 5.03188025759778e-04
4.92064406779661e+00 4.10948770346541e-02 5.01055001712156e-04
4.93644067796610e+00 4.08549387130919e-02 4.98928448604986e-04
4.95223728813559e+00 4.06164013057707e-02 4.96808377202830e-04
4.96803389830509e+00 4.03792566332519e-02 4.94694797760214e-04
4.98383050847458e+00 4.01434965638540e-02 4.92587720029536e-04
