Energy (eV)          EEDF (eV^-(3/2))     First Anisotropy
2.17142857142857e-02 1.21513152167795e-01 7.67994044932052e-05
6.51428571428571e-02 1.20320579242845e-01 1.26621004036377e-04
1.08571428571429e-01 1.19139710647829e-01 1.66633946558530e-04
1.52000000000000e-01 1.17970431516642e-01 1.96717397336754e-04
1.95428571428571e-01 1.16812628098819e-01 2.21548288058887e-04
2.38857142857143e-01 1.15666187775010e-01 2.42902667170456e-04
2.82285714285714e-01 1.14530999018052e-01 2.61703472657930e-04
3.25714285714286e-01 1.13406951405980e-01 2.78510303208767e-04
3.69142857142857e-01 1.12293935594797e-01 2.93695780228841e-04
4.12571428571429e-01 1.11191843311597e-01 3.07524306673562e-04
4.56000000000000e-01 1.10100567351799e-01 3.20192374445070e-04
4.99428571428571e-01 1.09020001557745e-01 3.31851247352729e-04
5.42857142857143e-01 1.07950040818401e-01 3.42620658399074e-04
5.86285714285714e-01 1.06890581049942e-01 3.52597545024859e-04
6.29714285714286e-01 1.05841519194098e-01 3.61861868017020e-04
6.73142857142857e-01 1.04802753201889e-01 3.70480629733272e-04
7.16571428571429e-01 1.03774182024569e-01 3.78510731157280e-04
7.60000000000000e-01 1.02755705608088e-01 3.86001057697374e-04
8.03428571428571e-01 1.01747224877555e-01 3.92994034069802e-04
8.46857142857143e-01 1.00748641733083e-01 3.99526806085827e-04
8.90285714285714e-01 9.97598590350614e-02 4.05632153998627e-04
9.33714285714286e-01 9.87807805996193e-02 4.11339208673100e-04
9.77142857142857e-01 9.78113111856167e-02 4.16674021305253e-04
1.02057142857143e+00 9.68513564857560e-02 4.21660020153540e-04
1.06400000000000e+00 9.59008231237242e-02 4.26318385008920e-04
1.10742857142857e+00 9.49596186237601e-02 4.30668349279135e-04
1.15085714285714e+00 9.40276514380480e-02 4.34727453758813e-04
1.19428571428571e+00 9.31048309081995e-02 4.38511760834645e-04
1.23771428571429e+00 9.21910672655944e-02 4.42036028721289e-04
1.28114285714286e+00 9.12862716225932e-02 4.45313862846279e-04
1.32457142857143e+00 9.03903559640021e-02 4.48357844012343e-04
1.36800000000000e+00 8.95032331384477e-02 4.51179639081625e-04
1.41142857142857e+00 8.86248168436621e-02 4.53790093290670e-04
1.45485714285714e+00 8.77550216371434e-02 4.56199313968084e-04
1.49828571428571e+00 8.68937629084146e-02 4.58416743635363e-04
1.54171428571429e+00 8.60409568774029e-02 4.60451220040076e-04
1.58514285714286e+00 8.51965205862571e-02 4.62311031901441e-04
1.62857142857143e+00 8.43603718913447e-02 4.64003967339254e-04
1.67200000000000e+00 8.35324294552243e-02 4.65537357422444e-04
1.71542857142857e+00 8.27126127339556e-02 4.66918112219516e-04
1.75885714285714e+00 8.19008419838323e-02 4.68152756123800e-04
1.80228571428571e+00 8.10970382388062e-02 4.69247459589682e-04
1.84571428571429e+00 8.03011233078334e-02 4.70208064269459e-04
1.88914285714286e+00 7.95130197672474e-02 4.71040108211894e-04
1.93257142857143e+00 7.87326509532707e-02 4.71748847958868e-04
1.97600000000000e+00 7.79599409545341e-02 4.72339279110253e-04
2.01942857142857e+00 7.71948146009105e-02 4.72816152694372e-04
2.06285714285714e+00 7.64371974677167e-02 4.73183992812571e-04
2.10628571428571e+00 7.56870158567802e-02 4.73447112820837e-04
2.14971428571429e+00 7.49441967932309e-02 4.73609627223335e-04
2.19314285714286e+00 7.42086680183873e-02 4.73675464799292e-04
2.23657142857143e+00 7.34803579827580e-02 4.73648380082899e-04
2.28000000000000e+00 7.27591958390649e-02 4.73531964410359e-04
2.32342857142857e+00 7.20451114322887e-02 4.73329654101056e-04
2.36685714285714e+00 7.13380353021620e-02 4.73044740420495e-04
2.41028571428571e+00 7.06378986669609e-02 4.72680378863180e-04
2.45371428571429e+00 6.99446334200106e-02 4.72239595223640e-04
2.49714285714286e+00 6.92581721230507e-02 4.71725293189269e-04
2.54057142857143e+00 6.85784479996960e-02 4.71140260898195e-04
2.58400000000000e+00 6.79053949289294e-02 4.70487177473537e-04
2.62742857142857e+00 6.72389474361440e-02 4.69768617359607e-04
2.67085714285714e+00 6.65790406944511e-02 4.68987056497555e-04
2.71428571428571e+00 6.59256105105934e-02 4.68144878153132e-04
2.75771428571429e+00 6.52785933213300e-02 4.67244376147394e-04
2.80114285714286e+00 6.46379261872452e-02 4.66287759616671e-04
2.84457142857143e+00 6.40035467866423e-02 4.65277157039470e-04
2.88800000000000e+00 6.33753934094724e-02 4.64214620401089e-04
2.93142857142857e+00 6.27534049492201e-02 4.63102127560246e-04
2.97485714285714e+00 6.21375209033724e-02 4.61941586366637e-04
3.01828571428571e+00 6.15276813610385e-02 4.60734838587287e-04
3.06171428571429e+00 6.09238269993149e-02 4.59483661643195e-04
3.10514285714286e+00 6.03258990775089e-02 4.58189771789090e-04
3.14857142857143e+00 5.97338394314367e-02 4.56854826730453e-04
3.19200000000000e+00 5.91475904677587e-02 4.55480428440185e-04
3.23542857142857e+00 5.85670951565927e-02 4.54068124449430e-04
3.27885714285714e+00 5.79922970313836e-02 4.52619410756291e-04
3.32228571428571e+00 5.74231401779273e-02 4.51135734623478e-04
3.36571428571429e+00 5.68595692307819e-02 4.49618495484576e-04
3.40914285714286e+00 5.63015293678774e-02 4.48069047179594e-04
3.45257142857143e+00 5.57489663051926e-02 4.46488699734682e-04
3.49600000000000e+00 5.52018262914689e-02 4.44878721360589e-04
3.53942857142857e+00 5.46600561014603e-02 4.43240339127707e-04
3.58285714285714e+00 5.41236030353732e-02 4.41574741117870e-04
3.62628571428571e+00 5.35924149090687e-02 4.39883078508963e-04
3.66971428571429e+00 5.30664400505617e-02 4.38166466001251e-04
3.71314285714286e+00 5.25456272949912e-02 4.36425983455508e-04
3.75657142857143e+00 5.20299259796501e-02 4.34662677149047e-04
3.80000000000000e+00 5.15192859390537e-02 4.32877561250149e-04
3.84342857142857e+00 5.10136574987516e-02 4.31071618128747e-04
3.88685714285714e+00 5.05129914744617e-02 4.29245800008237e-04
3.93028571428571e+00 5.00172391632752e-02 4.27401030575289e-04
3.97371428571429e+00 4.95263523402714e-02 4.25538205121712e-04
4.01714285714286e+00 4.90402832538232e-02 4.23658191786251e-04
4.06057142857143e+00 4.85589846209582e-02 4.21761832468397e-04
4.10400000000000e+00 4.80824096227561e-02 4.19849943951695e-04
4.14742857142857e+00 4.76105118986637e-02 4.17923317994286e-04
4.19085714285714e+00 4.71432455454130e-02 4.15982722635040e-04
4.23428571428571e+00 4.66805651090907e-02 4.14028903473143e-04
4.27771428571429e+00 4.62224255818845e-02 4.12062583639073e-04
4.32114285714286e+00 4.57687823977025e-02 4.10084464762440e-04
4.36457142857143e+00 4.53195914278430e-02 4.08095227654055e-04
4.40800000000000e+00 4.48748089766989e-02 4.06095533184647e-04
4.45142857142857e+00 4.44343917765251e-02 4.04086022241155e-04
4.49485714285714e+00 4.39982969862077e-02 4.02067316784676e-04
4.53828571428571e+00 4.35664821840864e-02 4.00040020891266e-04
4.58171428571429e+00 4.31389053648425e-02 3.98004720620455e-04
4.62514285714286e+00 4.27155249354105e-02 3.95961984787259e-04
4.66857142857143e+00 4.22962997109361e-02 3.93912365482171e-04
4.71200000000000e+00 4.18811889107679e-02 3.91856398773786e-04
4.75542857142857e+00 4.14701521536319e-02 3.89794604583622e-04
4.79885714285714e+00 4.10631494563049e-02 3.87727487559812e-04
4.84228571428571e+00 4.06601412270966e-02 3.85655537939787e-04
4.88571428571429e+00 4.02610882628837e-02 3.83579231358558e-04
4.92914285714286e+00 3.98659517452949e-02 3.81499029476346e-04
4.97257142857143e+00 3.94746932369378e-02 3.79415380382239e-04
5.01600000000000e+00 3.90872746776582e-02 3.77328719166426e-04
5.05942857142857e+00 3.87036583800851e-02 3.75239467746713e-04
5.10285714285714e+00 3.83238070282455e-02 3.73148035601499e-04
5.14628571428571e+00 3.79476836716302e-02 3.71054820495747e-04
5.18971428571429e+00 3.75752517223755e-02 3.68960208255821e-04
5.23314285714286e+00 3.72064749517030e-02 3.66864573287882e-04
5.27657142857143e+00 3.68413174863974e-02 3.64768278896064e-04
5.32000000000000e+00 3.64797438053162e-02 3.62671677755624e-04
5.36342857142857e+00 3.61217187352714e-02 3.60575111712455e-04
5.40685714285714e+00 3.57672074496150e-02 3.58478912406043e-04
5.45028571428571e+00 3.54161754628247e-02 3.56383401887988e-04
5.49371428571429e+00 3.50685886278309e-02 3.54288892380418e-04
5.53714285714286e+00 3.47244131326950e-02 3.52195686709921e-04
5.58057142857143e+00 3.43836154973214e-02 3.50104078561604e-04
5.62400000000000e+00 3.40461625702003e-02 3.48014352875365e-04
5.66742857142857e+00 3.37120215245977e-02 3.45926785632174e-04
5.71085714285714e+00 3.33811598571336e-02 3.43841644389114e-04
5.75428571428571e+00 3.30535453828317e-02 3.41759188811874e-04
5.79771428571429e+00 3.27291462325903e-02 3.39679670427665e-04
5.84114285714286e+00 3.24079308500817e-02 3.37603332992507e-04
5.88457142857143e+00 3.20898679886838e-02 3.35530412696339e-04
5.92800000000000e+00 3.17749267084403e-02 3.33461138498525e-04
5.97142857142857e+00 3.14630763725323e-02 3.31395731909888e-04
6.01485714285714e+00 3.11542866458675e-02 3.29334407456273e-04
6.05828571428571e+00 3.08485274905448e-02 3.27277373140895e-04
6.10171428571429e+00 3.05457691634660e-02 3.25224830198798e-04
6.14514285714286e+00 3.02459822134413e-02 3.23176973410651e-04
6.18857142857143e+00 2.99491374783261e-02 3.21133991269992e-04
6.23200000000000e+00 2.96552060821837e-02 3.19096066269811e-04
6.27542857142857e+00 2.93641594320157e-02 3.17063374686191e-04
6.31885714285714e+00 2.90759692163741e-02 3.15036086982938e-04
6.36228571428571e+00 2.87906074012011e-02 3.13014368215767e-04
6.40571428571429e+00 2.85080462275748e-02 3.10998377792896e-04
6.44914285714286e+00 2.82282582090088e-02 3.08988269745279e-04
6.49257142857143e+00 2.79512161287794e-02 3.06984192864019e-04
6.53600000000000e+00 2.76768930372775e-02 3.04986290947161e-04
6.57942857142857e+00 2.74052622489775e-02 3.02994702588590e-04
6.62285714285714e+00 2.71362973410814e-02 3.01009561533445e-04
6.66628571428571e+00 2.68699721496967e-02 2.99030997033615e-04
6.70971428571429e+00 2.66062607677129e-02 2.97059133617123e-04
6.75314285714286e+00 2.63451375422804e-02 2.95094091322494e-04
6.79657142857143e+00 2.60865770723165e-02 2.93135985812435e-04
6.84000000000000e+00 2.58305542060334e-02 2.91184928587785e-04
6.88342857142857e+00 2.55770440381270e-02 2.89241026784057e-04
6.92685714285714e+00 2.53260219084593e-02 2.87304383485174e-04
6.97028571428571e+00 2.50774633985440e-02 2.85375098037765e-04
7.01371428571429e+00 2.48313443295462e-02 2.83453265831011e-04
7.05714285714286e+00 2.45876407599307e-02 2.81538978501051e-04
7.10057142857143e+00 2.43463289831331e-02 2.79632324025656e-04
7.14400000000000e+00 2.41073855252538e-02 2.77733386910665e-04
7.18742857142857e+00 2.38707871424478e-02 2.75842247995629e-04
7.23085714285714e+00 2.36365108196521e-02 2.73958984732020e-04
7.27428571428571e+00 2.34045337673492e-02 2.72083671462252e-04
7.31771428571429e+00 2.31748334196865e-02 2.70216379210897e-04
7.36114285714286e+00 2.29473874322798e-02 2.68357175863842e-04
7.40457142857143e+00 2.27221736800412e-02 2.66506126247480e-04
7.44800000000000e+00 2.24991702550265e-02 2.64663292292075e-04
7.49142857142857e+00 2.22783554640111e-02 2.62828732847214e-04
7.53485714285714e+00 2.20597078272651e-02 2.61002503929434e-04
7.57828571428571e+00 2.18432060755710e-02 2.59184658970849e-04
7.62171428571429e+00 2.16288291484550e-02 2.57375248622099e-04
7.66514285714286e+00 2.14165561921376e-02 2.55574320910054e-04
7.70857142857143e+00 2.12063665575064e-02 2.53781921304358e-04
7.75200000000000e+00 2.09982397981066e-02 2.51998092861137e-04
7.79542857142857e+00 2.07921556678898e-02 2.50222876048617e-04
7.83885714285714e+00 2.05880941200383e-02 2.48456308968282e-04
7.88228571428571e+00 2.03860353042144e-02 2.46698427577084e-04
7.92571428571429e+00 2.01859595648986e-02 2.44949265502137e-04
7.96914285714286e+00 1.99878474394773e-02 2.43208854180076e-04
8.01257142857143e+00 1.97916796563503e-02 2.41477222913152e-04
8.05600000000000e+00 1.95974371330557e-02 2.39754398996130e-04
8.09942857142857e+00 1.94051009741780e-02 2.38040407552123e-04
8.14285714285714e+00 1.92146524702229e-02 2.36335271730617e-04
8.18628571428571e+00 1.90260730950782e-02 2.34639012906679e-04
8.22971428571429e+00 1.88393445044539e-02 2.32951650507142e-04
8.27314285714286e+00 1.86544485340965e-02 2.31273202134134e-04
8.31657142857143e+00 1.84713671980238e-02 2.29603683612559e-04
8.36000000000000e+00 1.82900826867739e-02 2.27943109102469e-04
8.40342857142857e+00 1.81105773654619e-02 2.26291490944942e-04
8.44685714285714e+00 1.79328337727044e-02 2.24648839839882e-04
8.49028571428571e+00 1.77568346182753e-02 2.23015165024968e-04
8.53371428571429e+00 1.75825627816409e-02 2.21390474112991e-04
8.57714285714286e+00 1.74100013102940e-02 2.19774773201699e-04
8.62057142857143e+00 1.72391334181057e-02 2.18168066914027e-04
8.66400000000000e+00 1.70699424836923e-02 2.16570358497932e-04
8.70742857142857e+00 1.69024120486071e-02 2.14981649682008e-04
8.75085714285714e+00 1.67365258163172e-02 2.13401940835443e-04
8.79428571428571e+00 1.65722676500357e-02 2.11831231129125e-04
8.83771428571429e+00 1.64096215713480e-02 2.10269518383673e-04
8.88114285714286e+00 1.62485717586568e-02 2.08716799167367e-04
8.92457142857143e+00 1.60891025456442e-02 2.07173068830272e-04
8.96800000000000e+00 1.59311984197467e-02 2.05638321593188e-04
9.01142857142857e+00 1.57748440204747e-02 2.04112550412574e-04
9.05485714285714e+00 1.56200241384388e-02 2.02595747124744e-04
9.09828571428571e+00 1.54667237133448e-02 2.01087902591224e-04
9.14171428571429e+00 1.53149278327058e-02 1.99589006556889e-04
9.18514285714286e+00 1.51646217303911e-02 1.98099047737481e-04
9.22857142857143e+00 1.50157907851902e-02 1.96618013848640e-04
9.27200000000000e+00 1.48684205193904e-02 1.95145891685269e-04
9.31542857142857e+00 1.47224965972131e-02 1.93682666995366e-04
9.35885714285714e+00 1.45780048238888e-02 1.92228324610234e-04
9.40228571428571e+00 1.44349311438032e-02 1.90782848575820e-04
9.44571428571428e+00 1.42932616392884e-02 1.89346222020484e-04
9.48914285714286e+00 1.41529825292694e-02 1.87918427233311e-04
9.53257142857143e+00 1.40140801679239e-02 1.86499445688837e-04
9.57600000000000e+00 1.38765410433542e-02 1.85089258118022e-04
9.61942857142857e+00 1.37403517761330e-02 1.83687844390518e-04
9.66285714285714e+00 1.36054991184262e-02 1.82295183632427e-04
9.70628571428571e+00 1.34719699522761e-02 1.80911254345155e-04
9.74971428571429e+00 1.33397512884693e-02 1.79536034282230e-04
9.79314285714286e+00 1.32088302652729e-02 1.78169500519542e-04
9.83657142857143e+00 1.30791941471840e-02 1.76811629476380e-04
9.88000000000000e+00 1.29508303236900e-02 1.75462396979026e-04
9.92342857142857e+00 1.28237263079159e-02 1.74121778150997e-04
9.96685714285714e+00 1.26978697357927e-02 1.72789747519671e-04
1.00102857142857e+01 1.25732483644680e-02 1.71466279123968e-04
1.00537142857143e+01 1.24498500712450e-02 1.70151346522906e-04
1.00971428571429e+01 1.23276628520426e-02 1.68844922203368e-04
1.01405714285714e+01 1.22066748221461e-02 1.67546978822148e-04
1.01840000000000e+01 1.20868742111004e-02 1.66257488661815e-04
1.02274285714286e+01 1.19682493651667e-02 1.64976422683399e-04
1.02708571428571e+01 1.18507887449796e-02 1.63703751411545e-04
1.03142857142857e+01 1.17344809255457e-02 1.62439445696535e-04
1.03577142857143e+01 1.16193145917476e-02 1.61183475951181e-04
1.04011428571429e+01 1.15052785406496e-02 1.59935810996831e-04
1.04445714285714e+01 1.13923616803396e-02 1.58696420400269e-04
1.04880000000000e+01 1.12805530256079e-02 1.57465273336533e-04
1.05314285714286e+01 1.11698417001415e-02 1.56242337835515e-04
1.05748571428571e+01 1.10602169343716e-02 1.55027581594703e-04
1.06182857142857e+01 1.09516680654409e-02 1.53820972678963e-04
1.06617142857143e+01 1.08441845330995e-02 1.52622478817580e-04
1.07051428571429e+01 1.07377558817646e-02 1.51432066341713e-04
1.07485714285714e+01 1.06323717594420e-02 1.50249702332933e-04
1.07920000000000e+01 1.05280219137794e-02 1.49075353576076e-04
1.08354285714286e+01 1.04246961940276e-02 1.47908985865152e-04
1.08788571428571e+01 1.03223845490605e-02 1.46750564749978e-04
1.09222857142857e+01 1.02210770273185e-02 1.45600056179142e-04
1.09657142857143e+01 1.01207637730575e-02 1.44457425852193e-04
1.10091428571429e+01 1.00214350281916e-02 1.43322638240984e-04
1.10525714285714e+01 9.92308113128790e-03 1.42195658565895e-04
1.10960000000000e+01 9.82569251395846e-03 1.41076451831248e-04
1.11394285714286e+01 9.72925970261532e-03 1.39964982185630e-04
1.11828571428571e+01 9.63377331664751e-03 1.38861213608126e-04
1.12262857142857e+01 9.53922406834506e-03 1.37765110499369e-04
1.12697142857143e+01 9.44560275946906e-03 1.36676637084364e-04
1.13131428571429e+01 9.35290028289986e-03 1.35595756510783e-04
1.13565714285714e+01 9.26110762170096e-03 1.34522432667434e-04
1.14000000000000e+01 9.17021584581864e-03 1.33456629295430e-04
1.14434285714286e+01 9.08021611365225e-03 1.32398309398493e-04
1.14868571428571e+01 8.99109967037564e-03 1.31347435873932e-04
1.15302857142857e+01 8.90285784784556e-03 1.30303972056226e-04
1.15737142857143e+01 8.81548206146288e-03 1.29267881166336e-04
1.16171428571429e+01 8.72896381164808e-03 1.28239125480640e-04
1.16605714285714e+01 8.64329468296904e-03 1.27217668004908e-04
1.17040000000000e+01 8.55846634111998e-03 1.26203471654985e-04
1.17474285714286e+01 8.47447053432746e-03 1.25196498713019e-04
1.17908571428571e+01 8.39129909180377e-03 1.24196711407886e-04
1.18342857142857e+01 8.30894392364318e-03 1.23204072415297e-04
1.18777142857143e+01 8.22739701794776e-03 1.22218544349867e-04
1.19211428571429e+01 8.14665044214885e-03 1.21240088998896e-04
1.19645714285714e+01 8.06669634219432e-03 1.20268668863872e-04
1.20080000000000e+01 7.98752693978144e-03 1.19304246405054e-04
1.20514285714286e+01 7.90913453361634e-03 1.18346783539857e-04
1.20948571428571e+01 7.83151149798831e-03 1.17396242177004e-04
1.21382857142857e+01 7.75465028265671e-03 1.16452584676811e-04
1.21817142857143e+01 7.67854341021756e-03 1.15515773382546e-04
1.22251428571429e+01 7.60318347728751e-03 1.14585769913807e-04
1.22685714285714e+01 7.52856315374646e-03 1.13662536586536e-04
1.23120000000000e+01 7.45467518020153e-03 1.12746035716269e-04
1.23554285714286e+01 7.38151236911570e-03 1.11836229155330e-04
1.23988571428571e+01 7.30906760349292e-03 1.10933078784563e-04
1.24422857142857e+01 7.23733383675818e-03 1.10036546937104e-04
1.24857142857143e+01 7.16630409034323e-03 1.09146595965895e-04
1.25291428571429e+01 7.09597145474786e-03 1.08263187591839e-04
1.25725714285714e+01 7.02632908883401e-03 1.07386284212309e-04
1.26160000000000e+01 6.95737021750014e-03 1.06515848258346e-04
1.26594285714286e+01 6.88908813269315e-03 1.05651841767549e-04
1.27028571428571e+01 6.82147619219508e-03 1.04794226836893e-04
1.27462857142857e+01 6.75452781949839e-03 1.03942966013041e-04
1.27897142857143e+01 6.68823650159138e-03 1.03098021893109e-04
1.28331428571429e+01 6.62259578990980e-03 1.02259356523178e-04
1.28765714285714e+01 6.55759929967892e-03 1.01426932604459e-04
1.29200000000000e+01 6.49324070777975e-03 1.00600712900081e-04
1.29634285714286e+01 6.42951375365650e-03 9.97806598408144e-05
1.30068571428571e+01 6.36641223819662e-03 9.89667359422099e-05
1.30502857142857e+01 6.30393002360305e-03 9.81589041641989e-05
1.30937142857143e+01 6.24206103136175e-03 9.73571275424799e-05
1.31371428571429e+01 6.18079924309515e-03 9.65613686333380e-05
1.31805714285714e+01 6.12013869994899e-03 9.57715906257771e-05
1.32240000000000e+01 6.06007350063351e-03 9.49877567939762e-05
1.32674285714286e+01 6.00059780223749e-03 9.42098301332033e-05
1.33108571428571e+01 5.94170581919403e-03 9.34377737442198e-05
1.33542857142857e+01 5.88339182315124e-03 9.26715511646909e-05
1.33977142857143e+01 5.82565014110588e-03 9.19111260287341e-05
1.34411428571429e+01 5.76847515616915e-03 9.11564615543761e-05
1.34845714285714e+01 5.71186130699509e-03 9.04075215692837e-05
1.35280000000000e+01 5.65580308598155e-03 8.96642700052256e-05
1.35714285714286e+01 5.60029504000060e-03 8.89266705617957e-05
1.36148571428571e+01 5.54533176944321e-03 8.81946870607527e-05
1.36582857142857e+01 5.49090792808945e-03 8.74682837515373e-05
1.37017142857143e+01 5.43701822139398e-03 8.67474249967707e-05
