Energy (eV)          EEDF (eV^-(3/2))     First Anisotropy
2.66406250000000e-02 3.62628129971131e-02 1.70172524813454e-05
7.99218750000000e-02 3.60676826995037e-02 2.81192481088389e-05
1.33203125000000e-01 3.58736023986340e-02 3.71707697040218e-05
1.86484375000000e-01 3.56805664444190e-02 4.40779072402671e-05
2.39765625000000e-01 3.54885692172170e-02 4.98639545684963e-05
2.93046875000000e-01 3.52976051276317e-02 5.49149669099931e-05
3.46328125000000e-01 3.51076686163453e-02 5.94303176004952e-05
3.99609375000000e-01 3.49187541539554e-02 6.35301608733126e-05
4.52890625000000e-01 3.47308562408135e-02 6.72940270871358e-05
5.06171875000000e-01 3.45439694068652e-02 7.07780157226921e-05
5.59453125000000e-01 3.43580882114902e-02 7.40235727704460e-05
6.12734375000000e-01 3.41732072433445e-02 7.70624186075524e-05
6.66015625000000e-01 3.39893211202025e-02 7.99195167463616e-05
7.19296875000000e-01 3.38064244888004e-02 8.26149626789555e-05
7.72578125000000e-01 3.36245120246804e-02 8.51652392471405e-05
8.25859375000000e-01 3.34435784320355e-02 8.75840813601869e-05
8.79140625000000e-01 3.32636184435556e-02 8.98830896843443e-05
9.32421875000000e-01 3.30846268202739e-02 9.20721773613119e-05
9.85703125000000e-01 3.29065983514146e-02 9.41599023541491e-05
1.03898437500000e+00 3.27295278542410e-02 9.61537194385269e-05
1.09226562500000e+00 3.25534101739049e-02 9.80601744774388e-05
1.14554687500000e+00 3.23782401832962e-02 9.98850564252011e-05
1.19882812500000e+00 3.22040127828938e-02 1.01633517833915e-04
1.25210937500000e+00 3.20307229006172e-02 1.03310171524901e-04
1.30539062500000e+00 3.18583654916787e-02 1.04919168971575e-04
1.35867187500000e+00 3.16869355384367e-02 1.06464264472252e-04
1.41195312500000e+00 3.15164280502495e-02 1.07948868155244e-04
1.46523437500000e+00 3.13468380633302e-02 1.09376090115348e-04
1.51851562500000e+00 3.11781606406018e-02 1.10748777439818e-04
1.57179687500000e+00 3.10103908715538e-02 1.12069545483315e-04
1.62507812500000e+00 3.08435238720993e-02 1.13340804453287e-04
1.67835937500000e+00 3.06775547844327e-02 1.14564782142539e-04
1.73164062500000e+00 3.05124787768879e-02 1.15743543474345e-04
1.78492187500000e+00 3.03482910437986e-02 1.16879007393238e-04
1.83820312500000e+00 3.01849868053573e-02 1.17972961531985e-04
1.89148437500000e+00 3.00225613074768e-02 1.19027075004908e-04
1.94476562500000e+00 2.98610098216519e-02 1.20042909614005e-04
1.99804687500000e+00 2.97003276448211e-02 1.21021929703840e-04
2.05132812500000e+00 2.95405100992303e-02 1.21965510860655e-04
2.10460937500000e+00 2.93815525322966e-02 1.22874947618431e-04
2.15789062500000e+00 2.92234503164722e-02 1.23751460308137e-04
2.21117187500000e+00 2.90661988491106e-02 1.24596201164764e-04
2.26445312500000e+00 2.89097935523318e-02 1.25410259788957e-04
2.31773437500000e+00 2.87542298728896e-02 1.26194668045465e-04
2.37101562500000e+00 2.85995032820388e-02 1.26950404468434e-04
2.42429687500000e+00 2.84456092754034e-02 1.27678398233471e-04
2.47757812500000e+00 2.82925433728453e-02 1.28379532747934e-04
2.53085937500000e+00 2.81403011183343e-02 1.29054648903779e-04
2.58414062500000e+00 2.79888780798178e-02 1.29704548031414e-04
2.63742187500000e+00 2.78382698490924e-02 1.30329994587821e-04
2.69070312500000e+00 2.76884720416751e-02 1.30931718607806e-04
2.74398437500000e+00 2.75394802966757e-02 1.31510417943785e-04
2.79726562500000e+00 2.73912902766702e-02 1.32066760316285e-04
2.85054687500000e+00 2.72438976675742e-02 1.32601385194431e-04
2.90382812500000e+00 2.70972981785174e-02 1.33114905523695e-04
2.95710937500000e+00 2.69514875417185e-02 1.33607909315936e-04
3.01039062500000e+00 2.68064615123614e-02 1.34080961115037e-04
3.06367187500000e+00 2.66622158684714e-02 1.34534603350086e-04
3.11695312500000e+00 2.65187464107919e-02 1.34969357586563e-04
3.17023437500000e+00 2.63760489626629e-02 1.35385725684899e-04
3.22351562500000e+00 2.62341193698988e-02 1.35784190874789e-04
3.27679687500000e+00 2.60929535006678e-02 1.36165218752723e-04
3.33007812500000e+00 2.59525472453714e-02 1.36529258209481e-04
3.38335937500000e+00 2.58128965165250e-02 1.36876742293564e-04
3.43664062500000e+00 2.56739972486385e-02 1.37208089015972e-04
3.48992187500000e+00 2.55358453980985e-02 1.37523702101194e-04
3.54320312500000e+00 2.53984369430502e-02 1.37823971688890e-04
3.59648437500000e+00 2.52617678832804e-02 1.38109274990132e-04
3.64976562500000e+00 2.51258342401010e-02 1.38379976901863e-04
3.70304687500000e+00 2.49906320562332e-02 1.38636430582872e-04
3.75632812500000e+00 2.48561573956926e-02 1.38878977994164e-04
3.80960937500000e+00 2.47224063436741e-02 1.39107950406462e-04
3.86289062500000e+00 2.45893750064381e-02 1.39323668877332e-04
3.91617187500000e+00 2.44570595111975e-02 1.39526444700135e-04
3.96945312500000e+00 2.43254560060044e-02 1.39716579826857e-04
4.02273437500000e+00 2.41945606596386e-02 1.39894367266695e-04
4.07601562500000e+00 2.40643696614952e-02 1.40060091462089e-04
4.12929687500000e+00 2.39348792214747e-02 1.40214028643798e-04
4.18257812500000e+00 2.38060855698717e-02 1.40356447166496e-04
4.23585937500000e+00 2.36779849572660e-02 1.40487607826082e-04
4.28914062500000e+00 2.35505736544126e-02 1.40607764160083e-04
4.34242187500000e+00 2.34238479521339e-02 1.40717162732181e-04
4.39570312500000e+00 2.32978041612114e-02 1.40816043401901e-04
4.44898437500000e+00 2.31724386122781e-02 1.40904639580451e-04
4.50226562500000e+00 2.30477476557120e-02 1.40983178473578e-04
4.55554687500000e+00 2.29237276615297e-02 1.41051881312247e-04
4.60882812500000e+00 2.28003750192807e-02 1.41110963571874e-04
4.66210937500000e+00 2.26776861379424e-02 1.41160635180908e-04
4.71539062500000e+00 2.25556574458155e-02 1.41201100719327e-04
4.76867187500000e+00 2.24342853904201e-02 1.41232559607645e-04
4.82195312500000e+00 2.23135664383921e-02 1.41255206287066e-04
4.87523437500000e+00 2.21934970753803e-02 1.41269230391196e-04
4.92851562500000e+00 2.20740738059447e-02 1.41274816909902e-04
4.98179687500000e+00 2.19552931534537e-02 1.41272146345727e-04
5.03507812500000e+00 2.18371516599838e-02 1.41261394863258e-04
5.08835937500000e+00 2.17196458862186e-02 1.41242734431879e-04
5.14164062500000e+00 2.16027724113486e-02 1.41216332962262e-04
5.19492187500000e+00 2.14865278329716e-02 1.41182354436920e-04
5.24820312500000e+00 2.13709087669939e-02 1.41140959035153e-04
5.30148437500000e+00 2.12559118475315e-02 1.41092303252735e-04
5.35476562500000e+00 2.11415337268123e-02 1.41036540016557e-04
5.40804687500000e+00 2.10277710750785e-02 1.40973818794467e-04
5.46132812500000e+00 2.09146205804899e-02 1.40904285700663e-04
5.51460937500000e+00 2.08020789490271e-02 1.40828083596780e-04
5.56789062500000e+00 2.06901429043959e-02 1.40745352188895e-04
5.62117187500000e+00 2.05788091879319e-02 1.40656228120710e-04
5.67445312500000e+00 2.04680745585056e-02 1.40560845063047e-04
5.72773437500000e+00 2.03579357924280e-02 1.40459333799870e-04
5.78101562500000e+00 2.02483896833567e-02 1.40351822310967e-04
5.83429687500000e+00 2.01394330422027e-02 1.40238435851482e-04
5.88757812500000e+00 2.00310626970376e-02 1.40119297028476e-04
5.94085937500000e+00 1.99232754930009e-02 1.39994525874595e-04
5.99414062500000e+00 1.98160682922087e-02 1.39864239919006e-04
6.04742187500000e+00 1.97094379736618e-02 1.39728554255749e-04
6.10070312500000e+00 1.96033814331554e-02 1.39587581609604e-04
6.15398437500000e+00 1.94978955831881e-02 1.39441432399567e-04
6.20726562500000e+00 1.93929773528727e-02 1.39290214800102e-04
6.26054687500000e+00 1.92886236878461e-02 1.39134034800200e-04
6.31382812500000e+00 1.91848315501810e-02 1.38972996260389e-04
6.36710937500000e+00 1.90815979182972e-02 1.38807200967792e-04
6.42039062500000e+00 1.89789197868734e-02 1.38636748689242e-04
6.47367187500000e+00 1.88767941667601e-02 1.38461737222624e-04
6.52695312500000e+00 1.87752180848924e-02 1.38282262446504e-04
6.58023437500000e+00 1.86741885842035e-02 1.38098418368084e-04
6.63351562500000e+00 1.85737027235386e-02 1.37910297169551e-04
6.68679687500000e+00 1.84737575775692e-02 1.37717989252943e-04
6.74007812500000e+00 1.83743502367080e-02 1.37521583283556e-04
6.79335937500000e+00 1.82754778070241e-02 1.37321166231905e-04
6.84664062500000e+00 1.81771374101592e-02 1.37116823414389e-04
6.89992187500000e+00 1.80793261832430e-02 1.36908638532679e-04
6.95320312500000e+00 1.79820412788107e-02 1.36696693711836e-04
7.00648437500000e+00 1.78852798647195e-02 1.36481069537257e-04
7.05976562500000e+00 1.77890391240664e-02 1.36261845090488e-04
7.11304687500000e+00 1.76933162551062e-02 1.36039097983920e-04
7.16632812500000e+00 1.75981084711699e-02 1.35812904394475e-04
7.21960937500000e+00 1.75034130005835e-02 1.35583339096217e-04
7.27289062500000e+00 1.74092270865875e-02 1.35350475492043e-04
7.32617187500000e+00 1.73155479872564e-02 1.35114385644419e-04
7.37945312500000e+00 1.72223729754192e-02 1.34875140305210e-04
7.43273437500000e+00 1.71296993385795e-02 1.34632808944634e-04
7.48601562500000e+00 1.70375243788372e-02 1.34387459779397e-04
7.53929687500000e+00 1.69458454128095e-02 1.34139159800012e-04
7.59257812500000e+00 1.68546597715527e-02 1.33887974797330e-04
7.64585937500000e+00 1.67639648004849e-02 1.33633969388355e-04
7.69914062500000e+00 1.66737578593085e-02 1.33377207041298e-04
7.75242187500000e+00 1.65840363219332e-02 1.33117750099961e-04
7.80570312500000e+00 1.64947975763998e-02 1.32855659807424e-04
7.85898437500000e+00 1.64060390248041e-02 1.32590996329120e-04
7.91226562500000e+00 1.63177580832213e-02 1.32323818775241e-04
7.96554687500000e+00 1.62299521816304e-02 1.32054185222579e-04
8.01882812500000e+00 1.61426187638399e-02 1.31782152735764e-04
8.07210937500000e+00 1.60557552874133e-02 1.31507777387926e-04
8.12539062500000e+00 1.59693592235947e-02 1.31231114280819e-04
8.17867187500000e+00 1.58834280572356e-02 1.30952217564444e-04
8.23195312500000e+00 1.57979592867215e-02 1.30671140456129e-04
8.28523437500000e+00 1.57129504238990e-02 1.30387935259117e-04
8.33851562500000e+00 1.56283989940036e-02 1.30102653380721e-04
8.39179687500000e+00 1.55443025355874e-02 1.29815345349966e-04
8.44507812500000e+00 1.54606586004477e-02 1.29526060834796e-04
8.49835937500000e+00 1.53774647535553e-02 1.29234848658859e-04
8.55164062500000e+00 1.52947185729843e-02 1.28941756817876e-04
8.60492187500000e+00 1.52124176498409e-02 1.28646832495610e-04
8.65820312500000e+00 1.51305595881936e-02 1.28350122079428e-04
8.71148437500000e+00 1.50491420050035e-02 1.28051671175473e-04
8.76476562500000e+00 1.49681625300548e-02 1.27751524623498e-04
8.81804687500000e+00 1.48876188058858e-02 1.27449726511323e-04
8.87132812500000e+00 1.48075084877204e-02 1.27146320188942e-04
8.92460937500000e+00 1.47278292433997e-02 1.26841348282312e-04
8.97789062500000e+00 1.46485787533141e-02 1.26534852706798e-04
9.03117187500000e+00 1.45697547103358e-02 1.26226874680322e-04
9.08445312500000e+00 1.44913548197519e-02 1.25917454736189e-04
9.13773437500000e+00 1.44133767991970e-02 1.25606632735602e-04
9.19101562500000e+00 1.43358183785875e-02 1.25294447879937e-04
9.24429687500000e+00 1.42586773000548e-02 1.24980938722688e-04
9.29757812500000e+00 1.41819513178800e-02 1.24666143181153e-04
9.35085937500000e+00 1.41056381984285e-02 1.24350098547883e-04
9.40414062500000e+00 1.40297357200849e-02 1.24032841501826e-04
9.45742187500000e+00 1.39542416731881e-02 1.23714408119262e-04
9.51070312500000e+00 1.38791538599675e-02 1.23394833884490e-04
9.56398437500000e+00 1.38044700944785e-02 1.23074153700257e-04
9.61726562500000e+00 1.37301882025391e-02 1.22752401897980e-04
9.67054687500000e+00 1.36563060216667e-02 1.22429612247721e-04
9.72382812500000e+00 1.35828214010148e-02 1.22105817967978e-04
9.77710937500000e+00 1.35097322013109e-02 1.21781051735245e-04
9.83039062500000e+00 1.34370362947937e-02 1.21455345693358e-04
9.88367187500000e+00 1.33647315651515e-02 1.21128731462662e-04
9.93695312500000e+00 1.32928159074605e-02 1.20801240148971e-04
9.99023437500000e+00 1.32212872281233e-02 1.20472902352354e-04
1.00435156250000e+01 1.31501434448083e-02 1.20143748323258e-04
1.00967968750000e+01 1.30793824860383e-02 1.19813807379967e-04
1.01500781250000e+01 1.30090022925348e-02 1.19483108511271e-04
1.02033593750000e+01 1.29390008153890e-02 1.19151680966328e-04
1.02566406250000e+01 1.28693760160455e-02 1.18819552650884e-04
1.03099218750000e+01 1.28001258682743e-02 1.18486751297076e-04
1.03632031250000e+01 1.27312483554071e-02 1.18153304483332e-04
1.04164843750000e+01 1.26627414722988e-02 1.17819238489166e-04
1.04697656250000e+01 1.25946032252481e-02 1.17484579734916e-04
1.05230468750000e+01 1.25268316306140e-02 1.17149354768026e-04
1.05763281250000e+01 1.24594247147991e-02 1.16813589149165e-04
1.06296093750000e+01 1.23923805154698e-02 1.16477307479897e-04
1.06828906250000e+01 1.23256970814791e-02 1.16140534512312e-04
1.07361718750000e+01 1.22593724715389e-02 1.15803295135494e-04
1.07894531250000e+01 1.21934047542022e-02 1.15465613296081e-04
1.08427343750000e+01 1.21277920090330e-02 1.15127512024637e-04
1.08960156250000e+01 1.20625323265307e-02 1.14789014510511e-04
1.09492968750000e+01 1.19976238068558e-02 1.14450144088525e-04
1.10025781250000e+01 1.19330645598111e-02 1.14110923192717e-04
1.10558593750000e+01 1.18688527059636e-02 1.13771373381517e-04
1.11091406250000e+01 1.18049863765706e-02 1.13431516630023e-04
1.11624218750000e+01 1.17414637117889e-02 1.13091374311992e-04
1.12157031250000e+01 1.16782828629276e-02 1.12750967194345e-04
1.12689843750000e+01 1.16154419906667e-02 1.12410316458923e-04
1.13222656250000e+01 1.15529392650370e-02 1.12069442444745e-04
1.13755468750000e+01 1.14907728664742e-02 1.11728364671527e-04
1.14288281250000e+01 1.14289409857482e-02 1.11387102833173e-04
1.14821093750000e+01 1.13674418228103e-02 1.11045676785083e-04
1.15353906250000e+01 1.13062735867729e-02 1.10704105575740e-04
1.15886718750000e+01 1.12454344969211e-02 1.10362407469215e-04
1.16419531250000e+01 1.11849227826435e-02 1.10020600908175e-04
1.16952343750000e+01 1.11247366823241e-02 1.09678704501476e-04
1.17485156250000e+01 1.10648744433222e-02 1.09336736084935e-04
1.18017968750000e+01 1.10053343229424e-02 1.08994712742917e-04
1.18550781250000e+01 1.09461145883681e-02 1.08652651741964e-04
1.19083593750000e+01 1.08872135155959e-02 1.08310570518672e-04
1.19616406250000e+01 1.08286293894142e-02 1.07968485546848e-04
1.20149218750000e+01 1.07703605048192e-02 1.07626413246606e-04
1.20682031250000e+01 1.07124051650132e-02 1.07284369997954e-04
1.21214843750000e+01 1.06547616828140e-02 1.06942371246619e-04
1.21747656250000e+01 1.05974283805904e-02 1.06600432624542e-04
1.22280468750000e+01 1.05404035892572e-02 1.06258569938142e-04
1.22813281250000e+01 1.04836856482529e-02 1.05916798297770e-04
1.23346093750000e+01 1.04272729064180e-02 1.05575132137097e-04
1.23878906250000e+01 1.03711637219324e-02 1.05233586077917e-04
1.24411718750000e+01 1.03153564613473e-02 1.04892174918661e-04
1.24944531250000e+01 1.02598494995637e-02 1.04550912789684e-04
1.25477343750000e+01 1.02046412206756e-02 1.04209813171889e-04
1.26010156250000e+01 1.01497300179097e-02 1.03868889735637e-04
1.26542968750000e+01 1.00951142926929e-02 1.03528156329559e-04
1.27075781250000e+01 1.00407924546308e-02 1.03187626160779e-04
1.27608593750000e+01 9.98676292231858e-03 1.02847311812777e-04
1.28141406250000e+01 9.93302412328157e-03 1.02507226059379e-04
1.28674218750000e+01 9.87957449307788e-03 1.02167381853798e-04
1.29207031250000e+01 9.82641247527647e-03 1.01827791339279e-04
1.29739843750000e+01 9.77353652264306e-03 1.01488466642080e-04
1.30272656250000e+01 9.72094509545522e-03 1.01149419882683e-04
1.30805468750000e+01 9.66863666268332e-03 1.00810662394470e-04
1.31338281250000e+01 9.61660970193343e-03 1.00472205701659e-04
1.31871093750000e+01 9.56486269859887e-03 1.00134061508762e-04
1.32403906250000e+01 9.51339414583810e-03 9.97962409395541e-05
1.32936718750000e+01 9.46220254531027e-03 9.94587545532769e-05
1.33469531250000e+01 9.41128640711962e-03 9.91216130998872e-05
1.34002343750000e+01 9.36064424899784e-03 9.87848275097715e-05
1.34535156250000e+01 9.31027459628186e-03 9.84484081548398e-05
1.35067968750000e+01 9.26017598262174e-03 9.81123648641319e-05
1.35600781250000e+01 9.21034694992632e-03 9.77767076569706e-05
1.36133593750000e+01 9.16078604757519e-03 9.74414467328972e-05
1.36666406250000e+01 9.11149183239646e-03 9.71065917542232e-05
1.37199218750000e+01 9.06246286934798e-03 9.67721518610147e-05
1.37732031250000e+01 9.01369773146450e-03 9.64381365549552e-05
1.38264843750000e+01 8.96519499874818e-03 9.61045550003084e-05
1.38797656250000e+01 8.91695325954670e-03 9.57714160188950e-05
1.39330468750000e+01 8.86897110944903e-03 9.54387287894475e-05
1.39863281250000e+01 8.82124715126327e-03 9.51065019834722e-05
1.40396093750000e+01 8.77377999566017e-03 9.47747437793802e-05
1.40928906250000e+01 8.72656826112223e-03 9.44434625435621e-05
1.41461718750000e+01 8.67961057322397e-03 9.41126668210021e-05
1.41994531250000e+01 8.63290556460984e-03 9.37823646682780e-05
1.42527343750000e+01 8.58645187561399e-03 9.34525636672280e-05
1.43060156250000e+01 8.54024815421058e-03 9.31232715863805e-05
1.43592968750000e+01 8.49429305531945e-03 9.27944963717733e-05
1.44125781250000e+01 8.44858524078413e-03 9.24662454990556e-05
1.44658593750000e+01 8.40312337996883e-03 9.21385259866635e-05
1.45191406250000e+01 8.35790614970993e-03 9.18113450382216e-05
1.45724218750000e+01 8.31293223364606e-03 9.14847100336208e-05
1.46257031250000e+01 8.26820032219616e-03 9.11586278995739e-05
1.46789843750000e+01 8.22370911313464e-03 9.08331051222988e-05
1.47322656250000e+01 8.17945731154416e-03 9.05081485225702e-05
1.47855468750000e+01 8.13544362887228e-03 9.01837646422007e-05
1.48388281250000e+01 8.09166678409790e-03 8.98599597394167e-05
1.48921093750000e+01 8.04812550279218e-03 8.95367404022397e-05
1.49453906250000e+01 8.00481851709688e-03 8.92141127899112e-05
1.49986718750000e+01 7.96174456626848e-03 8.88920826449157e-05
1.50519531250000e+01 7.91890239663266e-03 8.85706558905837e-05
1.51052343750000e+01 7.87629076097087e-03 8.82498386227026e-05
1.51585156250000e+01 7.83390841849881e-03 8.79296365236763e-05
1.52117968750000e+01 7.79175413539094e-03 8.76100548741419e-05
1.52650781250000e+01 7.74982668473605e-03 8.72910991336098e-05
1.53183593750000e+01 7.70812484594492e-03 8.69727749323091e-05
1.53716406250000e+01 7.66664740472893e-03 8.66550875018249e-05
1.54249218750000e+01 7.62539315360578e-03 8.63380416863141e-05
1.54782031250000e+01 7.58436089185617e-03 8.60216425067452e-05
1.55314843750000e+01 7.54354942495163e-03 8.57058951529574e-05
1.55847656250000e+01 7.50295756453334e-03 8.53908042955983e-05
1.56380468750000e+01 7.46258412915706e-03 8.50763746363869e-05
1.56913281250000e+01 7.42242794322043e-03 8.47626109151322e-05
1.57446093750000e+01 7.38248783770522e-03 8.44495173657562e-05
1.57978906250000e+01 7.34276265013547e-03 8.41370983957516e-05
1.58511718750000e+01 7.30325122403430e-03 8.38253585785473e-05
1.59044531250000e+01 7.26395240890290e-03 8.35143021231474e-05
1.59577343750000e+01 7.22486506068261e-03 8.32039328844066e-05
1.60110156250000e+01 7.18598804171403e-03 8.28942550157509e-05
1.60642968750000e+01 7.14732021997235e-03 8.25852724520221e-05
1.61175781250000e+01 7.10886047000713e-03 8.22769890308710e-05
1.61708593750000e+01 7.07060767194521e-03 8.19694085068406e-05
1.62241406250000e+01 7.03256071241409e-03 8.16625344161452e-05
1.62774218750000e+01 6.99471848379348e-03 8.13563705861289e-05
1.63307031250000e+01 6.95707988419470e-03 8.10509203826179e-05
1.63839843750000e+01 6.91964381811850e-03 8.07461872081642e-05
1.64372656250000e+01 6.88240919550434e-03 8.04421745082932e-05
1.64905468750000e+01 6.84537493238579e-03 8.01388852786116e-05
1.65438281250000e+01 6.80853995085214e-03 7.98363226801851e-05
1.65971093750000e+01 6.77190317856618e-03 7.95344900326026e-05
1.66503906250000e+01 6.73546354874399e-03 7.92333902163359e-05
1.67036718750000e+01 6.69922000077898e-03 7.89330261504065e-05
1.67569531250000e+01 6.66317147933845e-03 7.86334007983185e-05
1.68102343750000e+01 6.62731693498547e-03 7.83345166954038e-05
