Energy (eV)          EEDF (eV^-(3/2))     First Anisotropy
1.07000000000000e+00 6.15661803680096e-02 1.97462703762949e-04
3.21000000000000e+00 4.34403601240686e-02 2.79005991691485e-04
5.35000000000000e+00 3.06509982660757e-02 2.61641022133912e-04
7.49000000000000e+00 2.16269775854469e-02 2.20099829488232e-04
9.63000000000000e+00 1.52597365808833e-02 1.76636281826890e-04
1.17700000000000e+01 1.07670875228835e-02 1.37999775204762e-04
1.39100000000000e+01 7.59712810971232e-03 1.05947365140039e-04
1.60500000000000e+01 5.36044268171085e-03 8.03445681907989e-05
1.81900000000000e+01 3.78226420944157e-03 6.03736650748510e-05
2.03300000000000e+01 2.66872036498614e-03 4.50467913624220e-05
2.24700000000000e+01 1.88301715377607e-03 3.34218109539365e-05
2.46100000000000e+01 1.32863437021561e-03 2.46829479599160e-05
2.67500000000000e+01 9.37468512264095e-04 1.81594084914217e-05
2.88900000000000e+01 6.61466563855366e-04 1.33168655962636e-05
3.10300000000000e+01 4.66722891888838e-04 9.73868083391970e-06
3.31700000000000e+01 3.29314087387054e-04 7.10489064561997e-06
3.53100000000000e+01 2.32360079259617e-04 5.17254964943793e-06
3.74500000000000e+01 1.63950491343779e-04 3.75880283374322e-06
3.95900000000000e+01 1.15681504746921e-04 2.72697770954216e-06
4.17300000000000e+01 8.16234854243382e-05 1.97549590385983e-06
4.38700000000000e+01 5.75925545521957e-05 1.42921367642051e-06
4.60100000000000e+01 4.06366172995917e-05 1.03276016356689e-06
4.81500000000000e+01 2.86727108806553e-05 7.45470347078415e-07
5.02900000000000e+01 2.02311216798527e-05 5.37564962138723e-07
5.24300000000000e+01 1.42748373576755e-05 3.87290790767064e-07
5.45700000000000e+01 1.00721544169751e-05 2.78792215290353e-07
5.67100000000000e+01 7.10679162623468e-06 2.00534608497553e-07
5.88500000000000e+01 5.01446712667534e-06 1.44141186449012e-07
6.09900000000000e+01 3.53814799799188e-06 1.03537838754774e-07
6.31300000000000e+01 2.49647488745107e-06 7.43262499927751e-08
6.52700000000000e+01 1.76148280603613e-06 5.33255518534395e-08
6.74100000000000e+01 1.24288118881457e-06 3.82379550164081e-08
6.95500000000000e+01 8.76962093649546e-07 2.74053122742612e-08
7.16900000000000e+01 6.18773958942695e-07 1.96321992094799e-08
7.38300000000000e+01 4.36599500751767e-07 1.40575415564968e-08
7.59700000000000e+01 3.08059383078120e-07 1.00616014863951e-08
7.81100000000000e+01 2.17363014247761e-07 7.19867092094021e-09
8.02500000000000e+01 1.53368741736691e-07 5.14842437144274e-09
8.23900000000000e+01 1.08215148852712e-07 3.68079609727461e-09
8.45300000000000e+01 7.63553140529754e-08 2.63064668374134e-09
8.66700000000000e+01 5.38753958751532e-08 1.87950708096558e-09
8.88100000000000e+01 3.80138346191684e-08 1.34243384104284e-09
9.09500000000000e+01 2.68221068073846e-08 9.58551860530429e-10
9.30900000000000e+01 1.89253575913643e-08 6.84255046597388e-10
9.52300000000000e+01 1.33535058425165e-08 4.88321166162581e-10
9.73700000000000e+01 9.42207392517052e-09 3.48404168471583e-10
9.95100000000000e+01 6.64810261053126e-09 2.48517035330653e-10
1.01650000000000e+02 4.69082164618579e-09 1.77226427706239e-10
1.03790000000000e+02 3.30978761992466e-09 1.26358508591609e-10
1.05930000000000e+02 2.33534653740545e-09 9.00716503888853e-11
1.08070000000000e+02 1.64779257041749e-09 6.41923194506326e-11
1.10210000000000e+02 1.16266271905824e-09 4.57396476104766e-11
1.12350000000000e+02 8.20360901339309e-10 3.25852184961715e-11
1.14490000000000e+02 5.78836834977702e-10 2.32097055317578e-11
1.16630000000000e+02 4.08420343997383e-10 1.65288528934915e-11
1.18770000000000e+02 2.88176507283553e-10 1.17690836880640e-11
1.20910000000000e+02 2.03333895019392e-10 8.37861150602345e-12
1.23050000000000e+02 1.43469963091321e-10 5.96394182711818e-12
1.25190000000000e+02 1.01230689096187e-10 4.24452438916224e-12
1.27330000000000e+02 7.14271628296594e-11 3.02037722194285e-12
1.29470000000000e+02 5.03981513456557e-11 2.14897802509484e-12
1.31610000000000e+02 3.55603324902738e-11 1.52877443119972e-12
1.33750000000000e+02 2.50909450655441e-11 1.08742023359625e-12
1.35890000000000e+02 1.77038705826033e-11 7.73385091491607e-13
1.38030000000000e+02 1.24916392262951e-11 5.49971656198880e-13
1.40170000000000e+02 8.81395115445823e-12 3.91050282310007e-13
1.42310000000000e+02 6.21901846073536e-12 2.78018865180989e-13
1.44450000000000e+02 4.38806500480823e-12 1.97636342186066e-13
1.46590000000000e+02 3.09616615676452e-12 1.40479085834528e-13
1.48730000000000e+02 2.18461778934220e-12 9.98413037465845e-14
1.50870000000000e+02 1.54144016950876e-12 7.09518696006434e-14
1.53010000000000e+02 1.08762173766361e-12 5.04166215860180e-14
1.55150000000000e+02 7.67412882859664e-13 3.58212838804936e-14
1.57290000000000e+02 5.41477346751163e-13 2.54487953719418e-14
1.59430000000000e+02 3.82059936174275e-13 1.80781133077781e-14
1.61570000000000e+02 2.69576918970485e-13 1.28410294846552e-14
1.63710000000000e+02 1.90210248081260e-13 9.12028641205604e-15
1.65850000000000e+02 1.34210074858433e-13 6.47709095527951e-15
1.67990000000000e+02 9.46970227693045e-14 4.59955007189367e-15
1.70130000000000e+02 6.68170860557919e-14 3.26599457338149e-15
1.72270000000000e+02 4.71453363413897e-14 2.31889562028431e-15
1.74410000000000e+02 3.32651851487034e-14 1.64631685435389e-15
1.76550000000000e+02 2.34715165666563e-14 1.16872665367159e-15
1.78690000000000e+02 1.65612212129923e-14 8.29622574719711e-16
1.80830000000000e+02 1.16853995048322e-14 5.88866735019615e-16
1.82970000000000e+02 8.24507805501746e-15 4.17948781959743e-16
1.85110000000000e+02 5.81762840929987e-15 2.96619292647422e-16
1.87250000000000e+02 4.10484898782699e-15 2.10497381590946e-16
1.89390000000000e+02 2.89633232434178e-15 1.49370774513016e-16
1.91530000000000e+02 2.04361742853490e-15 1.05988034228406e-16
1.93670000000000e+02 1.44195200223120e-15 7.52005345274527e-17
1.95810000000000e+02 1.01742407737695e-15 5.33529576381479e-17
1.97950000000000e+02 7.17882253795270e-16 3.78503700845638e-17
2.00090000000000e+02 5.06529127601175e-16 2.68507472868697e-17
2.02230000000000e+02 3.57400890956664e-16 1.90466140061445e-17
2.04370000000000e+02 2.52177791752169e-16 1.35099849027609e-17
2.06510000000000e+02 1.77933632126036e-16 9.58226402957312e-18
2.08650000000000e+02 1.25547841550925e-16 6.79607370486360e-18
2.10790000000000e+02 8.85850546058164e-17 4.81975742179128e-18
2.12930000000000e+02 6.25045544596833e-17 4.00798190197299e-18
