Energy (eV)          EEDF (eV^-(3/2))     First Anisotropy
2.58750000000000e-03 1.45919406361506e+01 1.44864791892941e-02
7.76250000000000e-03 1.41777921550597e+01 2.36613724234491e-02
1.29375000000000e-02 1.37753980367799e+01 3.05545986238722e-02
1.81125000000000e-02 1.33844246689700e+01 3.53944197233534e-02
2.32875000000000e-02 1.30045479078734e+01 3.91146410761821e-02
2.84625000000000e-02 1.26354528095818e+01 4.20806227855450e-02
3.36375000000000e-02 1.22768333689253e+01 4.44875290690880e-02
3.88125000000000e-02 1.19283922657731e+01 4.64567677068440e-02
4.39875000000000e-02 1.15898406185349e+01 4.80711326009438e-02
4.91625000000000e-02 1.12608977446581e+01 4.93906816657429e-02
5.43375000000000e-02 1.09412909279227e+01 5.04609567998774e-02
5.95125000000000e-02 1.06307551923408e+01 5.13176635169576e-02
6.46875000000000e-02 1.03290330824736e+01 5.19895298329174e-02
6.98625000000000e-02 1.00358744499826e+01 5.25001510524282e-02
7.50375000000000e-02 9.75103624624017e+00 5.28692334855332e-02
8.02125000000000e-02 9.47428232082500e+00 5.31134636267904e-02
8.53875000000000e-02 9.20538322573744e+00 5.32471341350893e-02
9.05625000000000e-02 8.94411602517132e+00 5.32826063375152e-02
9.57375000000000e-02 8.69026411068485e+00 5.32306595568082e-02
1.00912500000000e-01 8.44361702161735e+00 5.31007600634424e-02
1.06087500000000e-01 8.20397027060295e+00 5.29012716626419e-02
1.11262500000000e-01 7.97112517403648e+00 5.26396230598255e-02
1.16437500000000e-01 7.74488868735117e+00 5.23224426560446e-02
1.21612500000000e-01 7.52507324497142e+00 5.19556684141214e-02
1.26787500000000e-01 7.31149660480810e+00 5.15446383737358e-02
1.31962500000000e-01 7.10398169716730e+00 5.10941659531630e-02
1.37137500000000e-01 6.90235647794746e+00 5.06086031513092e-02
1.42312500000000e-01 6.70645378600294e+00 5.00918940240144e-02
1.47487500000000e-01 6.51611120455600e+00 4.95476202665103e-02
1.52662500000000e-01 6.33117092654215e+00 4.89790403312876e-02
1.57837500000000e-01 6.15147962377720e+00 4.83891232078991e-02
1.63012500000000e-01 5.97688831983774e+00 4.77805777610237e-02
1.68187500000000e-01 5.80725226654943e+00 4.71558783462252e-02
1.73362500000000e-01 5.64243082398083e+00 4.65172872855718e-02
1.78537500000000e-01 5.48228734384326e+00 4.58668746777992e-02
1.83712500000000e-01 5.32668905619995e+00 4.52065359328370e-02
1.88887500000000e-01 5.17550695939070e+00 4.45380073529540e-02
1.94062500000000e-01 5.02861571308060e+00 4.38628800286130e-02
1.99237500000000e-01 4.88589353434434e+00 4.31826122733765e-02
2.04412500000000e-01 4.74722209669975e+00 4.24985407866466e-02
2.09587500000000e-01 4.61248643200708e+00 4.18118907039430e-02
2.14762500000000e-01 4.48157483515248e+00 4.11237846704838e-02
2.19937500000000e-01 4.35437877143681e+00 4.04352510540476e-02
2.25112500000000e-01 4.23079278659295e+00 3.97472313966197e-02
2.30287500000000e-01 4.11071441935690e+00 3.90605871905643e-02
2.35462500000000e-01 3.99404411652046e+00 3.83761060534994e-02
2.40637500000000e-01 3.88068515039470e+00 3.76945073663030e-02
2.45812500000000e-01 3.77054353861611e+00 3.70164474304054e-02
2.50987500000000e-01 3.66352796622878e+00 3.63425241934876e-02
2.56162500000000e-01 3.55954970997799e+00 3.56732815867003e-02
2.61337500000000e-01 3.45852256475259e+00 3.50092135113623e-02
2.66512500000000e-01 3.36036277211502e+00 3.43507675086583e-02
2.71687500000000e-01 3.26498895085980e+00 3.36983481420283e-02
2.76862500000000e-01 3.17232202954298e+00 3.30523201186203e-02
2.82037500000000e-01 3.08228518092643e+00 3.24130111732866e-02
2.87212500000000e-01 2.99480375828282e+00 3.17807147360928e-02
2.92387500000000e-01 2.90980523350832e+00 3.11556924021064e-02
2.97562500000000e-01 2.82721913699189e+00 3.05381762202948e-02
3.02737500000000e-01 2.74697699919107e+00 2.99283708166748e-02
3.07912500000000e-01 2.66901229386608e+00 2.93264553653457e-02
3.13087500000000e-01 2.59326038292495e+00 2.87325854197233e-02
3.18262500000000e-01 2.51965846283414e+00 2.81468946151130e-02
3.23437500000000e-01 2.44814551255013e+00 2.75694962527225e-02
3.28612500000000e-01 2.37866224292869e+00 2.70004847742798e-02
3.33787500000000e-01 2.31115104757021e+00 2.64399371356005e-02
3.38962500000000e-01 2.24555595506000e+00 2.58879140867026e-02
3.44137500000000e-01 2.18182258256413e+00 2.53444613654068e-02
3.49312500000000e-01 2.11989809074234e+00 2.48096108107608e-02
3.54487500000000e-01 2.05973113994064e+00 2.42833814020906e-02
3.59662500000000e-01 2.00127184762713e+00 2.37657802290027e-02
3.64837500000000e-01 1.94447174703604e+00 2.32568033972201e-02
3.70012500000000e-01 1.88928374698541e+00 2.27564368747389e-02
3.75187500000000e-01 1.83566209283527e+00 2.22646572824411e-02
3.80362500000000e-01 1.78356232855391e+00 2.17814326329715e-02
3.85537500000000e-01 1.73294125986079e+00 2.13067230213860e-02
3.90712500000000e-01 1.68375691841551e+00 2.08404812708214e-02
3.95887500000000e-01 1.63596852702313e+00 2.03826535361841e-02
4.01062500000000e-01 1.58953646582718e+00 1.99331798686328e-02
4.06237500000000e-01 1.54442223946196e+00 1.94919947434276e-02
4.11412500000000e-01 1.50058844513734e+00 1.90590275535307e-02
4.16587500000000e-01 1.45799874162920e+00 1.86342030711738e-02
4.21762500000000e-01 1.41661781915012e+00 1.82174418794454e-02
4.26937500000000e-01 1.37641137007512e+00 1.78086607758128e-02
4.32112500000000e-01 1.33734606049827e+00 1.74077731493561e-02
4.37287500000000e-01 1.29938950259663e+00 1.70146893333733e-02
4.42462500000000e-01 1.26251022777847e+00 1.66293169348978e-02
4.47637500000000e-01 1.22667766059369e+00 1.62515611425694e-02
4.52812500000000e-01 1.19186209338469e+00 1.58813250142035e-02
4.57987500000000e-01 1.15803466165660e+00 1.55185097453128e-02
4.63162500000000e-01 1.12516732014672e+00 1.51630149197525e-02
4.68337500000000e-01 1.09323281957304e+00 1.48147387435880e-02
4.73512500000000e-01 1.06220468404270e+00 1.44735782632077e-02
4.78687500000000e-01 1.03205718910168e+00 1.41394295686444e-02
4.83862500000000e-01 1.00276534040745e+00 1.38121879830014e-02
4.89037500000000e-01 9.74304853006930e-01 1.34917482388269e-02
4.94212500000000e-01 9.46652131202646e-01 1.31780046422265e-02
4.99387500000000e-01 9.19784248990226e-01 1.28708512254548e-02
5.04562500000000e-01 8.93678931051193e-01 1.25701818886792e-02
5.09737500000000e-01 8.68314534285192e-01 1.22758905315707e-02
5.14912500000000e-01 8.43670029866375e-01 1.19878711753325e-02
5.20087500000000e-01 8.19724985809060e-01 1.17060180757421e-02
5.25262500000000e-01 7.96459550028215e-01 1.14302258277479e-02
5.30437500000000e-01 7.73854433880714e-01 1.11603894621290e-02
5.35612500000000e-01 7.51890896173730e-01 1.08964045346955e-02
5.40787500000000e-01 7.30550727626999e-01 1.06381672084777e-02
5.45962500000000e-01 7.09816235776077e-01 1.03855743293303e-02
5.51137500000000e-01 6.89670230304071e-01 1.01385234953472e-02
5.56312500000000e-01 6.70096008789689e-01 9.89691312046228e-03
5.61487500000000e-01 6.51077342859786e-01 9.66064249258890e-03
5.66662500000000e-01 6.32598464734927e-01 9.42961182663158e-03
5.71837500000000e-01 6.14644054156816e-01 9.20372231268136e-03
5.77012500000000e-01 5.97199225686753e-01 8.98287615969052e-03
5.82187500000000e-01 5.80249516364581e-01 8.76697663490516e-03
5.87362500000000e-01 5.63780873717898e-01 8.55592809931628e-03
5.92537500000000e-01 5.47779644111597e-01 8.34963603937775e-03
5.97712500000000e-01 5.32232561428063e-01 8.14800709522318e-03
6.02887500000000e-01 5.17126736068650e-01 7.95094908560097e-03
6.08062500000000e-01 5.02449644267321e-01 7.75837102973536e-03
6.13237500000000e-01 4.88189117707584e-01 7.57018316630783e-03
6.18412500000000e-01 4.74333333434127e-01 7.38629696974365e-03
6.23587500000000e-01 4.60870804050772e-01 7.20662516397666e-03
6.28762500000000e-01 4.47790368196634e-01 7.03108173385623e-03
6.33937500000000e-01 4.35081181292593e-01 6.85958193435089e-03
6.39112500000000e-01 4.22732706550389e-01 6.69204229769457e-03
6.44287500000000e-01 4.10734706236902e-01 6.52838063861230e-03
6.49462500000000e-01 3.99077233186368e-01 6.36851605775562e-03
6.54637500000000e-01 3.87750622553497e-01 6.21236894346951e-03
6.59812500000000e-01 3.76745483800655e-01 6.05986097200651e-03
6.64987500000000e-01 3.66052692912457e-01 5.91091510629648e-03
6.70162500000000e-01 3.55663384831339e-01 5.76545559337458e-03
6.75337500000000e-01 3.45568946107815e-01 5.62340796056487e-03
6.80512500000000e-01 3.35761007759332e-01 5.48469901050971e-03
6.85687500000000e-01 3.26231438331817e-01 5.34925681513144e-03
6.90862500000000e-01 3.16972337158133e-01 5.21701070860751e-03
6.96037500000000e-01 3.07976027807896e-01 5.08789127943528e-03
7.01212500000000e-01 2.99235051723176e-01 4.96183036165825e-03
7.06387500000000e-01 2.90742162034846e-01 4.83876102532187e-03
7.11562500000000e-01 2.82490317554432e-01 4.71861756622271e-03
7.16737500000000e-01 2.74472676936479e-01 4.60133549501100e-03
7.21912500000000e-01 2.66682593006611e-01 4.48685152570342e-03
7.27087500000000e-01 2.59113607250564e-01 4.37510356365891e-03
7.32262500000000e-01 2.51759444459635e-01 4.26603069306852e-03
7.37437500000000e-01 2.44614007528106e-01 4.15957316400573e-03
7.42612500000000e-01 2.37671372398321e-01 4.05567237908169e-03
7.47787500000000e-01 2.30925783149238e-01 3.95427087974783e-03
7.52962500000000e-01 2.24371647224373e-01 3.85531233228382e-03
7.58137500000000e-01 2.18003530795192e-01 3.75874151350854e-03
7.63312500000000e-01 2.11816154256087e-01 3.66450429624847e-03
7.68487500000000e-01 2.05804387847226e-01 3.57254763459575e-03
7.73662500000000e-01 1.99963247401629e-01 3.48281954898630e-03
7.78837500000000e-01 1.94287890212949e-01 3.39526911112669e-03
7.84012500000000e-01 1.88773611020539e-01 3.30984642879631e-03
7.89187500000000e-01 1.83415838108467e-01 3.22650263054971e-03
7.94362500000000e-01 1.78210129515248e-01 3.14518985034285e-03
7.99537500000000e-01 1.73152169351156e-01 3.06586121210470e-03
8.04712500000000e-01 1.68237764220052e-01 2.98847081427486e-03
8.09887500000000e-01 1.63462839742776e-01 2.91297371432615e-03
8.15062500000000e-01 1.58823437179199e-01 2.83932591328987e-03
8.20237500000000e-01 1.54315710146164e-01 2.76748434030047e-03
8.25412500000000e-01 1.49935921428564e-01 2.69740683717476e-03
8.30587500000000e-01 1.45680439880938e-01 2.62905214304002e-03
8.35762500000000e-01 1.41545737417001e-01 2.56237987902451e-03
8.40937500000000e-01 1.37528386084618e-01 2.49735053302241e-03
8.46112500000000e-01 1.33625055223796e-01 2.43392544454455e-03
8.51287500000000e-01 1.29832508705341e-01 2.37206678966570e-03
8.56462500000000e-01 1.26147602247879e-01 2.31173756607790e-03
8.61637500000000e-01 1.22567280811039e-01 2.25290157825884e-03
8.66812500000000e-01 1.19088576062607e-01 2.19552342276348e-03
8.71987500000000e-01 1.15708603917581e-01 2.13956847364641e-03
8.77162500000000e-01 1.12424562147061e-01 2.08500286802173e-03
8.82337500000000e-01 1.09233728055014e-01 2.03179349176686e-03
8.87512500000000e-01 1.06133456220969e-01 1.97990796537591e-03
8.92687500000000e-01 1.03121176306784e-01 1.92931462996754e-03
8.97862500000000e-01 1.00194390925657e-01 1.87998253345228e-03
9.03037500000000e-01 9.73506735716211e-02 1.83188141686316e-03
9.08212500000000e-01 9.45876666078072e-02 1.78498170085344e-03
9.13387500000000e-01 9.19030793117983e-02 1.73925447236468e-03
9.18562500000000e-01 8.92946859764648e-02 1.69467147146813e-03
9.23737500000000e-01 8.67603240647001e-02 1.65120507838171e-03
9.28912500000000e-01 8.42978924165291e-02 1.60882830066484e-03
9.34087500000000e-01 8.19053495071023e-02 1.56751476059295e-03
9.39262500000000e-01 7.95807117541314e-02 1.52723868271306e-03
9.44437500000000e-01 7.73220518733636e-02 1.48797488158170e-03
9.49612500000000e-01 7.51274972807310e-02 1.44969874968598e-03
9.54787500000000e-01 7.29952285398490e-02 1.41238624554869e-03
9.59962500000000e-01 7.09234778535797e-02 1.37601388201757e-03
9.65137500000000e-01 6.89105275984057e-02 1.34055871473920e-03
9.70312500000000e-01 6.69547089004035e-02 1.30599833081742e-03
9.75487500000000e-01 6.50544002516313e-02 1.27231083765600e-03
9.80662500000000e-01 6.32080261657883e-02 1.23947485198526e-03
9.85837500000000e-01 6.14140558720284e-02 1.20746948907211e-03
9.91012500000000e-01 5.96710020458457e-02 1.17627435211268e-03
9.96187500000000e-01 5.79774195759810e-02 1.14586952180689e-03
1.00136250000000e+00 5.63319043663246e-02 1.11623554611368e-03
1.00653750000000e+00 5.47330921718250e-02 1.08735343018611e-03
1.01171250000000e+00 5.31796574674359e-02 1.05920462648485e-03
1.01688750000000e+00 5.16703123491645e-02 1.03177102506882e-03
1.02206250000000e+00 5.02038054663113e-02 1.00503494406156e-03
1.02723750000000e+00 4.87789209840142e-02 9.78979120291767e-04
1.03241250000000e+00 4.73944775752379e-02 9.53586700106404e-04
1.03758750000000e+00 4.60493274413731e-02 9.28841230354737e-04
1.04276250000000e+00 4.47423553606319e-02 9.04726649541468e-04
1.04793750000000e+00 4.34724777634532e-02 8.81227279147178e-04
1.05311250000000e+00 4.22386418341487e-02 8.58327815114331e-04
1.05828750000000e+00 4.10398246380465e-02 8.36013319496690e-04
1.06346250000000e+00 3.98750322734082e-02 8.14269212270370e-04
1.06863750000000e+00 3.87432990474160e-02 7.93081263304487e-04
1.07381250000000e+00 3.76436866755470e-02 7.72435584489274e-04
1.07898750000000e+00 3.65752835036713e-02 7.52318622019699e-04
1.08416250000000e+00 3.55372037522276e-02 7.32717148832431e-04
1.08933750000000e+00 3.45285867818515e-02 7.13618257194051e-04
1.09451250000000e+00 3.35485963798466e-02 6.95009351438372e-04
1.09968750000000e+00 3.25964200669062e-02 6.76878140850690e-04
1.10486250000000e+00 3.16712684235125e-02 6.59212632696849e-04
1.11003750000000e+00 3.07723744354540e-02 6.42001125394887e-04
1.11521250000000e+00 2.98989928579172e-02 6.25232201827129e-04
1.12038750000000e+00 2.90503995976285e-02 6.08894722790509e-04
1.12556250000000e+00 2.82258911125304e-02 5.92977820582949e-04
1.13073750000000e+00 2.74247838284971e-02 5.77470892723623e-04
1.13591250000000e+00 2.66464135726048e-02 5.62363595804893e-04
1.14108750000000e+00 2.58901350224866e-02 5.47645839473778e-04
1.14626250000000e+00 2.51553211713161e-02 5.33307780540751e-04
1.15143750000000e+00 2.44413628079753e-02 5.19339817213737e-04
1.15661250000000e+00 2.37476680119772e-02 5.05732583455141e-04
1.16178750000000e+00 2.30736616627232e-02 4.92476943459790e-04
1.16696250000000e+00 2.24187849626880e-02 4.79563986251630e-04
1.17213750000000e+00 2.17824949741387e-02 4.66985020397137e-04
1.17731250000000e+00 2.11642641690019e-02 4.54731568833288e-04
1.18248750000000e+00 2.05635799915070e-02 4.42795363808025e-04
1.18766250000000e+00 1.99799444332417e-02 4.31168341931213e-04
1.19283750000000e+00 1.94128736202694e-02 4.19842639333981e-04
1.19801250000000e+00 1.88618974119642e-02 4.08810586934493e-04
1.20318750000000e+00 1.83265590112324e-02 3.98064705808107e-04
1.20836250000000e+00 1.78064145857958e-02 3.87597702659976e-04
1.21353750000000e+00 1.73010329002246e-02 3.77402465398153e-04
1.21871250000000e+00 1.68099949584139e-02 3.67472058805209e-04
1.22388750000000e+00 1.63328936562067e-02 3.57799720306552e-04
1.22906250000000e+00 1.58693334438767e-02 3.48378855833485e-04
1.23423750000000e+00 1.54189299981907e-02 3.39203035779186e-04
1.23941250000000e+00 1.49813099037779e-02 3.30265991045780e-04
1.24458750000000e+00 1.45561103435434e-02 3.21561609180664e-04
1.24976250000000e+00 1.41429787978673e-02 3.13083930600344e-04
1.25493750000000e+00 1.37415727523423e-02 3.04827144899993e-04
1.26011250000000e+00 1.33515594138055e-02 2.96785587247028e-04
1.26528750000000e+00 1.29726154344300e-02 2.88953734856969e-04
1.27046250000000e+00 1.26044266436474e-02 2.81326203549916e-04
1.27563750000000e+00 1.22466877876788e-02 2.73897744385997e-04
1.28081250000000e+00 1.18991022764587e-02 2.66663240378134e-04
1.28598750000000e+00 1.15613819377412e-02 2.59617703280549e-04
1.29116250000000e+00 1.12332467781854e-02 2.52756270451416e-04
1.29633750000000e+00 1.09144247512219e-02 2.46074201788110e-04
1.30151250000000e+00 1.06046515315075e-02 2.39566876733539e-04
1.30668750000000e+00 1.03036702957812e-02 2.33229791352036e-04
1.31186250000000e+00 1.00112315099402e-02 2.27058555473350e-04
1.31703750000000e+00 9.72709272215908e-03 2.21048889903291e-04
1.32221250000000e+00 9.45101836188036e-03 2.15196623699587e-04
1.32738750000000e+00 9.18277954451052e-03 2.09497691511568e-04
1.33256250000000e+00 8.92215388165896e-03 2.03948130982299e-04
1.33773750000000e+00 8.66892529676267e-03 1.98544080211799e-04
1.34291250000000e+00 8.42288384594399e-03 1.93281775280036e-04
1.34808750000000e+00 8.18382554395271e-03 1.88157547828383e-04
1.35326250000000e+00 7.95155219504831e-03 1.83167822698279e-04
1.35843750000000e+00 7.72587122868207e-03 1.78309115625800e-04
1.36361250000000e+00 7.50659553984286e-03 1.73578030990958e-04
1.36878750000000e+00 7.29354333393428e-03 1.68971259620478e-04
1.37396250000000e+00 7.08653797605443e-03 1.64485576642896e-04
1.37913750000000e+00 6.88540784455344e-03 1.60117839394795e-04
1.38431250000000e+00 6.68998618874740e-03 1.55864985377068e-04
1.38948750000000e+00 6.50011099067054e-03 1.51724030260059e-04
1.39466250000000e+00 6.31562483075124e-03 1.47692065936497e-04
1.39983750000000e+00 6.13637475730041e-03 1.43766258621163e-04
1.40501250000000e+00 5.96221215970401e-03 1.39943846996223e-04
1.41018750000000e+00 5.79299264521470e-03 1.36222140401183e-04
1.41536250000000e+00 5.62857591924028e-03 1.32598517066492e-04
1.42053750000000e+00 5.46882566902990e-03 1.29070422389763e-04
1.42571250000000e+00 5.31360945066140e-03 1.25635367253662e-04
1.43088750000000e+00 5.16279857923622e-03 1.22290926384511e-04
1.43606250000000e+00 5.01626802219078e-03 1.19034736750672e-04
1.44123750000000e+00 4.87389629563593e-03 1.15864495999794e-04
1.44641250000000e+00 4.73556536363841e-03 1.12777960934040e-04
1.45158750000000e+00 4.60116054036103e-03 1.09772946022411e-04
1.45676250000000e+00 4.47057039498017e-03 1.06847321949316e-04
1.46193750000000e+00 4.34368665930203e-03 1.03999014198539e-04
1.46711250000000e+00 4.22040413800086e-03 1.01226001671801e-04
1.47228750000000e+00 4.10062062140480e-03 9.85263153410867e-05
1.47746250000000e+00 3.98423680075702e-03 9.58980369339730e-05
1.48263750000000e+00 3.87115618588202e-03 9.33392976511770e-05
1.48781250000000e+00 3.76128502518857e-03 9.08482769155776e-05
1.49298750000000e+00 3.65453222794328e-03 8.84232011519617e-05
1.49816250000000e+00 3.55080928875005e-03 8.60623425967843e-05
1.50333750000000e+00 3.45003021417310e-03 8.37640181372361e-05
1.50851250000000e+00 3.35211145144245e-03 8.15265881789205e-05
1.51368750000000e+00 3.25697181918298e-03 7.93484555414732e-05
1.51886250000000e+00 3.16453244010948e-03 7.72280643814607e-05
1.52403750000000e+00 3.07471667563195e-03 7.51638991419084e-05
1.52921250000000e+00 2.98745006231700e-03 7.31544835278319e-05
1.53438750000000e+00 2.90266025015247e-03 7.11983795071494e-05
1.53956250000000e+00 2.82027694256440e-03 6.92941863363727e-05
1.54473750000000e+00 2.74023183813627e-03 6.74405396104889e-05
1.54991250000000e+00 2.66245857398249e-03 6.56361103364501e-05
1.55508750000000e+00 2.58689267072895e-03 6.38796040297066e-05
1.56026250000000e+00 2.51347147905528e-03 6.21697598332398e-05
1.56543750000000e+00 2.44213412775419e-03 6.05053496585425e-05
1.57061250000000e+00 2.37282147326508e-03 5.88851773480306e-05
1.57578750000000e+00 2.30547605063998e-03 5.73080778583634e-05
1.58096250000000e+00 2.24004202590118e-03 5.57729164641707e-05
1.58613750000000e+00 2.17646514975099e-03 5.42785879816984e-05
1.59131250000000e+00 2.11469271259537e-03 5.28240160118834e-05
1.59648750000000e+00 2.05467350084407e-03 5.14081522023949e-05
1.60166250000000e+00 1.99635775445101e-03 5.00299755281790e-05
1.60683750000000e+00 1.93969712565984e-03 4.86884915900584e-05
1.61201250000000e+00 1.88464463892029e-03 4.73827319309476e-05
1.61718750000000e+00 1.83115465194223e-03 4.61117533692590e-05
1.62236250000000e+00 1.77918281785508e-03 4.48746373490777e-05
1.62753750000000e+00 1.72868604844120e-03 4.36704893066947e-05
1.63271250000000e+00 1.67962247841283e-03 4.24984380531045e-05
