Energy (eV)          EEDF (eV^-(3/2))     First Anisotropy
5.60606060606061e-02 3.20104794681968e-02 2.08708683653618e-05
1.68181818181818e-01 3.16772037246505e-02 3.43999729161412e-05
2.80303030303030e-01 3.13473978673745e-02 4.52432567876498e-05
3.92424242424242e-01 3.10210257697601e-02 5.33790918065632e-05
5.04545454545455e-01 3.06980516813528e-02 6.00806801645739e-05
6.16666666666667e-01 3.03784402233572e-02 6.58319557216107e-05
7.28787878787879e-01 3.00621563865627e-02 7.08846159120734e-05
8.40909090909091e-01 2.97491655255441e-02 7.53913990654436e-05
9.53030303030303e-01 2.94394333556013e-02 7.94540930780375e-05
1.06515151515152e+00 2.91329259486677e-02 8.31449827201025e-05
1.17727272727273e+00 2.88296097311501e-02 8.65178293991571e-05
1.28939393939394e+00 2.85294514779651e-02 8.96140523666277e-05
1.40151515151515e+00 2.82324183078333e-02 9.24664617190065e-05
1.51363636363636e+00 2.79384776864503e-02 9.51016406628216e-05
1.62575757575758e+00 2.76475974157849e-02 9.75415330773391e-05
1.73787878787879e+00 2.73597456330227e-02 9.98045391767823e-05
1.85000000000000e+00 2.70748908071369e-02 1.01906295873541e-04
1.96212121212121e+00 2.67930017339415e-02 1.03860245713148e-04
2.07424242424242e+00 2.65140475371715e-02 1.05678061856173e-04
2.18636363636364e+00 2.62379976604391e-02 1.07369971241913e-04
2.29848484848485e+00 2.59648218654870e-02 1.08945003781242e-04
2.41060606060606e+00 2.56944902289078e-02 1.10411188453786e-04
2.52272727272727e+00 2.54269731377786e-02 1.11775708670667e-04
2.63484848484848e+00 2.51622412896947e-02 1.13045027751691e-04
2.74696969696970e+00 2.49002656861857e-02 1.14224990992628e-04
2.85909090909091e+00 2.46410176307007e-02 1.15320909032410e-04
2.97121212121212e+00 2.43844687245985e-02 1.16337626943135e-04
3.08333333333333e+00 2.41305908667091e-02 1.17279582280634e-04
3.19545454545455e+00 2.38793562475091e-02 1.18150853956238e-04
3.30757575757576e+00 2.36307373470091e-02 1.18955203161399e-04
3.41969696969697e+00 2.33847069317490e-02 1.19696108714080e-04
3.53181818181818e+00 2.31412380511199e-02 1.20376796957954e-04
3.64393939393939e+00 2.29003040365302e-02 1.21000267943640e-04
3.75606060606061e+00 2.26618784963175e-02 1.21569318147995e-04
3.86818181818182e+00 2.24259353135902e-02 1.22086559844605e-04
3.98030303030303e+00 2.21924486433795e-02 1.22554438452710e-04
4.09242424242424e+00 2.19613929092358e-02 1.22975247414221e-04
4.20454545454545e+00 2.17327428021545e-02 1.23351141669472e-04
4.31666666666667e+00 2.15064732760414e-02 1.23684149609383e-04
4.42878787878788e+00 2.12825595455679e-02 1.23976183327930e-04
4.54090909090909e+00 2.10609770834607e-02 1.24229048119532e-04
4.65303030303030e+00 2.08417016173416e-02 1.24444450646460e-04
4.76515151515152e+00 2.06247091285034e-02 1.24624006582245e-04
4.87727272727273e+00 2.04099758478167e-02 1.24769247503859e-04
4.98939393939394e+00 2.01974782536243e-02 1.24881626842372e-04
5.10151515151515e+00 1.99871930687528e-02 1.24962525286506e-04
5.21363636363636e+00 1.97790972592207e-02 1.25013255911540e-04
5.32575757575758e+00 1.95731680304339e-02 1.25035068854221e-04
5.43787878787879e+00 1.93693828251219e-02 1.25029155267948e-04
5.55000000000000e+00 1.91677193208705e-02 1.24996651228073e-04
5.66212121212121e+00 1.89681554273225e-02 1.24938641032692e-04
5.77424242424242e+00 1.87706692848314e-02 1.24856160492097e-04
5.88636363636364e+00 1.85752392609757e-02 1.24750199960849e-04
5.99848484848485e+00 1.83818439485577e-02 1.24621706853745e-04
6.11060606060606e+00 1.81904621632622e-02 1.24471588230920e-04
6.22272727272727e+00 1.80010729410302e-02 1.24300712937925e-04
6.33484848484848e+00 1.78136555366865e-02 1.24109913824038e-04
6.44696969696970e+00 1.76281894207287e-02 1.23899989805879e-04
6.55909090909091e+00 1.74446542773967e-02 1.23671707579550e-04
6.67121212121212e+00 1.72630300021756e-02 1.23425803226621e-04
6.78333333333333e+00 1.70832967004217e-02 1.23162983883138e-04
6.89545454545455e+00 1.69054346843420e-02 1.22883929301962e-04
7.00757575757576e+00 1.67294244711215e-02 1.22589293079016e-04
7.11969696969697e+00 1.65552467807904e-02 1.22279704023147e-04
7.23181818181818e+00 1.63828825338742e-02 1.21955767227698e-04
7.34393939393939e+00 1.62123128500267e-02 1.21618065277190e-04
7.45606060606061e+00 1.60435190452284e-02 1.21267159384997e-04
7.56818181818182e+00 1.58764826299864e-02 1.20903590249855e-04
7.68030303030303e+00 1.57111853073122e-02 1.20527879065603e-04
7.79242424242424e+00 1.55476089705059e-02 1.20140528279169e-04
7.90454545454545e+00 1.53857357018098e-02 1.19742022489925e-04
8.01666666666667e+00 1.52255477698004e-02 1.19332829302794e-04
8.12878787878788e+00 1.50670276276636e-02 1.18913399939974e-04
8.24090909090909e+00 1.49101579112745e-02 1.18484170006104e-04
8.35303030303030e+00 1.47549214371088e-02 1.18045560035416e-04
8.46515151515151e+00 1.46013012009229e-02 1.17597976179882e-04
8.57727272727273e+00 1.44492803753217e-02 1.17141810865152e-04
8.68939393939394e+00 1.42988423081079e-02 1.16677443267865e-04
8.80151515151515e+00 1.41499705202895e-02 1.16205239778764e-04
8.91363636363636e+00 1.40026487047871e-02 1.15725554567539e-04
9.02575757575758e+00 1.38568607241282e-02 1.15238730123335e-04
9.13787878787879e+00 1.37125906088545e-02 1.14745097602397e-04
9.25000000000000e+00 1.35698225557737e-02 1.14244977320074e-04
9.36212121212121e+00 1.34285409260774e-02 1.13738679067424e-04
9.47424242424242e+00 1.32887302440847e-02 1.13226502559992e-04
9.58636363636364e+00 1.31503751950847e-02 1.12708737869141e-04
9.69848484848485e+00 1.30134606238148e-02 1.12185665680594e-04
9.81060606060606e+00 1.28779715328011e-02 1.11657557689778e-04
9.92272727272727e+00 1.27438930805809e-02 1.11124676839427e-04
1.00348484848485e+01 1.26112105804851e-02 1.10587277709368e-04
1.01469696969697e+01 1.24799094984862e-02 1.10045606758344e-04
1.02590909090909e+01 1.23499754522672e-02 1.09499902627378e-04
1.03712121212121e+01 1.22213942089848e-02 1.08950396491322e-04
1.04833333333333e+01 1.20941516839826e-02 1.08397312176323e-04
1.05954545454545e+01 1.19682339392462e-02 1.07840866710325e-04
1.07075757575758e+01 1.18436271807160e-02 1.07281269809629e-04
1.08196969696970e+01 1.17203177602962e-02 1.06718724608141e-04
1.09318181818182e+01 1.15982921708003e-02 1.06153428384366e-04
1.10439393939394e+01 1.14775370456715e-02 1.05585571997641e-04
1.11560606060606e+01 1.13580391575185e-02 1.05015340348002e-04
1.12681818181818e+01 1.12397854166649e-02 1.04442912567131e-04
1.13803030303030e+01 1.11227628697190e-02 1.03868462202709e-04
1.14924242424242e+01 1.10069586981528e-02 1.03292157396491e-04
1.16045454545455e+01 1.08923602168984e-02 1.02714161269060e-04
1.17166666666667e+01 1.07789548719941e-02 1.02134631433513e-04
1.18287878787879e+01 1.06667302421318e-02 1.01553720590158e-04
1.19409090909091e+01 1.05556740343423e-02 1.00971577121700e-04
1.20530303030303e+01 1.04457740836443e-02 1.00388344569631e-04
1.21651515151515e+01 1.03370183517109e-02 9.98041620002475e-05
1.22772727272727e+01 1.02293949255526e-02 9.92191641403763e-05
1.23893939393939e+01 1.01228920162119e-02 9.86334815089182e-05
1.25015151515152e+01 1.00174979574718e-02 9.80472407335616e-05
1.26136363636364e+01 9.91320120375444e-03 9.74605640961024e-05
1.27257575757576e+01 9.80999033135206e-03 9.68735700373086e-05
1.28378787878788e+01 9.70785403465370e-03 9.62863736635399e-05
1.29500000000000e+01 9.60678112575637e-03 9.56990862625030e-05
1.30621212121212e+01 9.50676053323901e-03 9.51118156088727e-05
1.31742424242424e+01 9.40778130095036e-03 9.45246660663885e-05
1.32863636363636e+01 9.30983258680937e-03 9.39377386870854e-05
1.33984848484848e+01 9.21290366161699e-03 9.33511314763580e-05
1.35106060606061e+01 9.11698390717374e-03 9.27649389729435e-05
1.36227272727273e+01 9.02206281725964e-03 9.21792526824379e-05
1.37348484848485e+01 8.92812999431817e-03 9.15941615132132e-05
1.38469696969697e+01 8.83517514904668e-03 9.10097513323431e-05
1.39590909090909e+01 8.74318809926899e-03 9.04261052242894e-05
1.40712121212121e+01 8.65215876881987e-03 8.98433035690427e-05
1.41833333333333e+01 8.56207718644250e-03 8.92614241182913e-05
1.42954545454545e+01 8.47293348469547e-03 8.86805422201689e-05
1.44075757575758e+01 8.38471789826197e-03 8.81007304340397e-05
1.45196969696970e+01 8.29742076472817e-03 8.75220589060228e-05
1.46318181818182e+01 8.21103252165808e-03 8.69445957472375e-05
1.47439393939394e+01 8.12554370617465e-03 8.63684066286146e-05
1.48560606060606e+01 8.04094495392331e-03 8.57935550022010e-05
1.49681818181818e+01 7.95722699804535e-03 8.52201021618731e-05
1.50803030303030e+01 7.87438066816444e-03 8.46481073026023e-05
1.51924242424242e+01 7.79239688938135e-03 8.40776275783699e-05
1.53045454545455e+01 7.71126668127980e-03 8.35087182903006e-05
1.54166666666667e+01 7.63098115642473e-03 8.29414325397967e-05
1.55287878787879e+01 7.55153152095826e-03 8.23758215502633e-05
1.56409090909091e+01 7.47290907205136e-03 8.18119349916698e-05
1.57530303030303e+01 7.39510519748422e-03 8.12498206171569e-05
1.58651515151515e+01 7.31811137470236e-03 8.06895244498693e-05
1.59772727272727e+01 7.24191916988393e-03 8.01310908296375e-05
1.60893939393939e+01 7.16652023701569e-03 7.95745624586620e-05
1.62015151515152e+01 7.09190631697860e-03 7.90199805641369e-05
1.63136363636364e+01 7.01806923619278e-03 7.84673845825123e-05
1.64257575757576e+01 6.94500090708631e-03 7.79168124418125e-05
1.65378787878788e+01 6.87269332583191e-03 7.73683008467753e-05
1.66500000000000e+01 6.80113857193385e-03 7.68218849489827e-05
1.67621212121212e+01 6.73032880736010e-03 7.62775985092716e-05
1.68742424242424e+01 6.66025627568405e-03 7.57354739348583e-05
1.69863636363636e+01 6.59091330123510e-03 7.51955423157331e-05
1.70984848484848e+01 6.52229228825763e-03 7.46578335661256e-05
1.72106060606061e+01 6.45438571968624e-03 7.41223761375787e-05
1.73227272727273e+01 6.38718615751165e-03 7.35891972677780e-05
1.74348484848485e+01 6.32068624076521e-03 7.30583232320886e-05
1.75469696969697e+01 6.25487868511676e-03 7.25297790444383e-05
1.76590909090909e+01 6.18975628207655e-03 7.20035885992801e-05
1.77712121212121e+01 6.12531189820556e-03 7.14797747013498e-05
1.78833333333333e+01 6.06153847433466e-03 7.09583590948652e-05
1.79954545454545e+01 5.99842902479097e-03 7.04393625872398e-05
1.81075757575758e+01 5.93597663628941e-03 6.99228047886280e-05
1.82196969696970e+01 5.87417446821493e-03 6.94087043320078e-05
1.83318181818182e+01 5.81301575082385e-03 6.88970790958422e-05
1.84439393939394e+01 5.75249378485540e-03 6.83879459330096e-05
1.85560606060606e+01 5.69260194079793e-03 6.78813207954481e-05
1.86681818181818e+01 5.63333365816237e-03 6.73772187581600e-05
1.87803030303030e+01 5.57468244476427e-03 6.68756540427897e-05
1.88924242424242e+01 5.51664187601235e-03 6.63766400408027e-05
1.90045454545455e+01 5.45920559420470e-03 6.58801894200089e-05
1.91166666666667e+01 5.40236730753674e-03 6.53863138915388e-05
1.92287878787879e+01 5.34612079030716e-03 6.48950244020203e-05
1.93409090909091e+01 5.29045988133249e-03 6.44063313281588e-05
1.94530303030303e+01 5.23537848357618e-03 6.39202442345783e-05
1.95651515151515e+01 5.18087056348050e-03 6.34367719815922e-05
1.96772727272727e+01 5.12693015030608e-03 6.29559227443450e-05
1.97893939393939e+01 5.07355133547773e-03 6.24777040316410e-05
1.99015151515152e+01 5.02072827193715e-03 6.20021227798914e-05
2.00136363636364e+01 4.96845517324273e-03 6.15291851417683e-05
2.01257575757576e+01 4.91672631372210e-03 6.10588966571791e-05
2.02378787878788e+01 4.86553602705125e-03 6.05912624264754e-05
2.03500000000000e+01 4.81487870590090e-03 6.01262868910585e-05
2.04621212121212e+01 4.76474880132213e-03 5.96639739287065e-05
2.05742424242424e+01 4.71514082213872e-03 5.92043268691668e-05
2.06863636363636e+01 4.66604933434572e-03 5.87473485095084e-05
2.07984848484848e+01 4.61746896051414e-03 5.82930411972280e-05
2.09106060606061e+01 4.56939437897319e-03 5.78414066385884e-05
2.10227272727273e+01 4.52182032391962e-03 5.73924460510382e-05
2.11348484848485e+01 4.47474158414235e-03 5.69461603177146e-05
2.12469696969697e+01 4.42815300268660e-03 5.65025497886818e-05
2.13590909090909e+01 4.38204947628899e-03 5.60616143654511e-05
2.14712121212121e+01 4.33642595481846e-03 5.56233535137187e-05
2.15833333333333e+01 4.29127744072337e-03 5.51877662759298e-05
2.16954545454545e+01 4.24659898848389e-03 5.47548513449699e-05
2.18075757575758e+01 4.20238570386858e-03 5.43246068903519e-05
2.19196969696970e+01 4.15863274400880e-03 5.38970306943559e-05
2.20318181818182e+01 4.11533531625219e-03 5.34721202900816e-05
2.21439393939394e+01 4.07248867784490e-03 5.30498727813420e-05
2.22560606060606e+01 4.03008813541208e-03 5.26302849177762e-05
2.23681818181818e+01 3.98812904444362e-03 5.22133531052869e-05
2.24803030303030e+01 3.94660680878569e-03 5.17990734163238e-05
2.25924242424242e+01 3.90551688013716e-03 5.13874416000314e-05
2.27045454545455e+01 3.86485475755136e-03 5.09784531465805e-05
2.28166666666667e+01 3.82461598676773e-03 5.05721031316406e-05
2.29287878787879e+01 3.78479616025452e-03 5.01683863363862e-05
2.30409090909091e+01 3.74539091619066e-03 4.97672973692646e-05
2.31530303030303e+01 3.70639593816798e-03 4.93688305049489e-05
2.32651515151515e+01 3.66780695471834e-03 4.89729797500678e-05
2.33772727272727e+01 3.62961973884587e-03 4.85797388516434e-05
2.34893939393939e+01 3.59183010756398e-03 4.81891013054167e-05
2.36015151515152e+01 3.55443392143705e-03 4.78010604131535e-05
2.37136363636364e+01 3.51742708397189e-03 4.74156091415460e-05
2.38257575757576e+01 3.48080554163858e-03 4.70327402297372e-05
2.39378787878788e+01 3.44456528295267e-03 4.66524462984629e-05
2.40500000000000e+01 3.40870233819515e-03 4.62747197040406e-05
2.41621212121212e+01 3.37321277897751e-03 4.58995525970095e-05
2.42742424242424e+01 3.33809271781151e-03 4.55269369290530e-05
2.43863636363636e+01 3.30333830768341e-03 4.51568644598389e-05
2.44984848484848e+01 3.26894574163248e-03 4.47893268081360e-05
2.46106060606061e+01 3.23491125219652e-03 4.44243153237811e-05
2.47227272727273e+01 3.20123111141530e-03 4.40618211841419e-05
2.48348484848485e+01 3.16790163000239e-03 4.37018354920625e-05
2.49469696969697e+01 3.13491915708222e-03 4.33443491434391e-05
2.50590909090909e+01 3.10228007979012e-03 4.29893528796180e-05
2.51712121212121e+01 3.06998082287660e-03 4.26368372930699e-05
2.52833333333333e+01 3.03801784831580e-03 4.22867928329926e-05
2.53954545454545e+01 3.00638765491788e-03 4.19392098509928e-05
2.55075757575758e+01 2.97508677782346e-03 4.15940784848697e-05
2.56196969696970e+01 2.94411178849340e-03 4.12513887452486e-05
2.57318181818182e+01 2.91345929396065e-03 4.09111306035778e-05
2.58439393939394e+01 2.88312593658394e-03 4.05732938719844e-05
2.59560606060606e+01 2.85310839367994e-03 4.02378682501549e-05
2.60681818181818e+01 2.82340337715921e-03 3.99048433299829e-05
2.61803030303030e+01 2.79400763316621e-03 3.95742086001549e-05
2.62924242424242e+01 2.76491794172282e-03 3.92459534506857e-05
2.64045454545455e+01 2.73613111637554e-03 3.89200672131011e-05
2.65166666666667e+01 2.70764400373980e-03 3.85965390563100e-05
2.66287878787879e+01 2.67945348347749e-03 3.82753580634026e-05
2.67409090909091e+01 2.65155646762936e-03 3.79565133096821e-05
2.68530303030303e+01 2.62394990038634e-03 3.76399937550650e-05
2.69651515151515e+01 2.59663075775471e-03 3.73257882853905e-05
2.70772727272727e+01 2.56959604722501e-03 3.70138857161686e-05
2.71893939393939e+01 2.54284280744416e-03 3.67042747962860e-05
2.73015151515152e+01 2.51636810789113e-03 3.63969442440033e-05
2.74136363636364e+01 2.49016904846087e-03 3.60918826523834e-05
2.75257575757576e+01 2.46424275943409e-03 3.57890785584001e-05
2.76378787878788e+01 2.43858640087302e-03 3.54885205131809e-05
2.77500000000000e+01 2.41319716240777e-03 3.51901969843179e-05
2.78621212121212e+01 2.38807226292848e-03 3.48940963929171e-05
2.79742424242424e+01 2.36320895028073e-03 3.46002071166489e-05
2.80863636363636e+01 2.33860450096404e-03 3.43085174927611e-05
2.81984848484848e+01 2.31425621983357e-03 3.40190158503613e-05
2.83106060606061e+01 2.29016143972026e-03 3.37316904244975e-05
2.84227272727273e+01 2.26631752139467e-03 3.34465294184025e-05
2.85348484848485e+01 2.24272185301967e-03 3.31635210667709e-05
2.86469696969697e+01 2.21937184995118e-03 3.28826535470407e-05
2.87590909090909e+01 2.19626495445502e-03 3.26039150126569e-05
2.88712121212121e+01 2.17339863542675e-03 3.23272935955347e-05
2.89833333333333e+01 2.15077038811443e-03 3.20527774085000e-05
2.90954545454545e+01 2.12837773384428e-03 3.17803545742647e-05
2.92075757575758e+01 2.10621821967368e-03 3.15100131473504e-05
2.93196969696970e+01 2.08428941835072e-03 3.12417411701868e-05
2.94318181818182e+01 2.06258892781813e-03 3.09755267301525e-05
2.95439393939394e+01 2.04111437102759e-03 3.07113578789880e-05
2.96560606060606e+01 2.01986339567932e-03 3.04492226626767e-05
2.97681818181818e+01 1.99883367396435e-03 3.01891091234236e-05
2.98803030303030e+01 1.97802290230967e-03 2.99310053016185e-05
2.99924242424242e+01 1.95742880112581e-03 2.96748992377806e-05
3.01045454545455e+01 1.93704911455717e-03 2.94207789981702e-05
3.02166666666667e+01 1.91688161016856e-03 2.91686326047249e-05
3.03287878787879e+01 1.89692407890133e-03 2.89184480849779e-05
3.04409090909091e+01 1.87717433462905e-03 2.86702135228255e-05
3.05530303030303e+01 1.85763021398603e-03 2.84239169862257e-05
3.06651515151515e+01 1.83828957613038e-03 2.81795465536514e-05
3.07772727272727e+01 1.81915030250948e-03 2.79370903156548e-05
3.08893939393939e+01 1.80021029662799e-03 2.76965363764152e-05
3.10015151515152e+01 1.78146748381811e-03 2.74578728767668e-05
3.11136363636364e+01 1.76291981095313e-03 2.72210879304911e-05
3.12257575757576e+01 1.74456524640174e-03 2.69861696693669e-05
3.13378787878788e+01 1.72640177962476e-03 2.67531062890042e-05
3.14500000000000e+01 1.70842742101565e-03 2.65218859831178e-05
3.15621212121212e+01 1.69064020168256e-03 2.62924969673310e-05
3.16742424242424e+01 1.67303817323267e-03 2.60649274804072e-05
3.17863636363636e+01 1.65561940755881e-03 2.58391657854696e-05
3.18984848484848e+01 1.63838199662821e-03 2.56152001907205e-05
3.20106060606061e+01 1.62132405222055e-03 2.53930189914957e-05
3.21227272727273e+01 1.60444370588132e-03 2.51726105109507e-05
3.22348484848485e+01 1.58773910855561e-03 2.49539631414520e-05
3.23469696969697e+01 1.57120843043988e-03 2.47370652848170e-05
3.24590909090909e+01 1.55484986078150e-03 2.45219053737491e-05
3.25712121212121e+01 1.53866160768040e-03 2.43084718727868e-05
3.26833333333333e+01 1.52264189789283e-03 2.40967532792557e-05
3.27954545454545e+01 1.50678897663711e-03 2.38867381419199e-05
3.29075757575758e+01 1.49110110735399e-03 2.36784150082645e-05
3.30196969696970e+01 1.47557657165981e-03 2.34717724612533e-05
3.31318181818182e+01 1.46021366901369e-03 2.32667991567379e-05
3.32439393939394e+01 1.44501071657989e-03 2.30634837691017e-05
3.33560606060606e+01 1.42996604904342e-03 2.28618150105709e-05
3.34681818181818e+01 1.41507801842764e-03 2.26617816319366e-05
3.35803030303030e+01 1.40034499391377e-03 2.24633724232764e-05
3.36924242424242e+01 1.38576536166225e-03 2.22665762146696e-05
3.38045454545455e+01 1.37133752463592e-03 2.20713818927381e-05
3.39166666666667e+01 1.35705990238330e-03 2.18777783532764e-05
3.40287878787879e+01 1.34293093099196e-03 2.16857545340431e-05
3.41409090909091e+01 1.32894906278965e-03 2.14952994481422e-05
3.42530303030303e+01 1.31511276621764e-03 2.13064021351886e-05
3.43651515151515e+01 1.30142052566294e-03 2.11190516784541e-05
3.44772727272727e+01 1.28787084129234e-03 2.09332372053986e-05
3.45893939393939e+01 1.27446222888807e-03 2.07489478881965e-05
3.47015151515152e+01 1.26119321968522e-03 2.05661729586500e-05
3.48136363636364e+01 1.24806236017343e-03 2.03849016650649e-05
3.49257575757576e+01 1.23506821205094e-03 2.02051233019101e-05
3.50378787878788e+01 1.22220935195282e-03 2.00268272400133e-05
3.51500000000000e+01 1.20948437133346e-03 1.98500028821203e-05
3.52621212121212e+01 1.19689187631222e-03 1.96746396783590e-05
3.53742424242424e+01 1.18443048752082e-03 1.95007271266113e-05
