Energy (eV)          EEDF (eV^-(3/2))     First Anisotropy
2.54081632653061e-02 5.80548830320933e-02 3.10928138214773e-05
7.62244897959184e-02 5.76472521276418e-02 5.13354006340924e-05
1.27040816326531e-01 5.72424833936037e-02 6.77482236948979e-05
1.77857142857143e-01 5.68405567315080e-02 8.02048131398390e-05
2.28673469387755e-01 5.64414521890481e-02 9.05835400146182e-05
2.79489795918367e-01 5.60451499482930e-02 9.95947402311149e-05
3.30306122448980e-01 5.56516303346266e-02 1.07606085840457e-04
3.81122448979592e-01 5.52608738084973e-02 1.14839645811637e-04
4.31938775510204e-01 5.48728609700750e-02 1.21442727940681e-04
4.82755102040816e-01 5.44875725536451e-02 1.27519465771256e-04
5.33571428571429e-01 5.41049894305817e-02 1.33146958589940e-04
5.84387755102041e-01 5.37250926049857e-02 1.38384340814169e-04
6.35204081632653e-01 5.33478632157486e-02 1.43278250350180e-04
6.86020408163265e-01 5.29732825329285e-02 1.47866310792723e-04
7.36836734693878e-01 5.26013319592454e-02 1.52179447670729e-04
7.87653061224490e-01 5.22319930269496e-02 1.56243485293081e-04
8.38469387755102e-01 5.18652473989288e-02 1.60080280938043e-04
8.89285714285714e-01 5.15010768659303e-02 1.63708551227776e-04
9.40102040816327e-01 5.11394633469983e-02 1.67144487201866e-04
9.90918367346939e-01 5.07803888885278e-02 1.70402221457629e-04
1.04173469387755e+00 5.04238356625329e-02 1.73494188530865e-04
1.09255102040816e+00 5.00697859648847e-02 1.76431406189296e-04
1.14336734693878e+00 4.97182222203891e-02 1.79223700534336e-04
1.19418367346939e+00 4.93691269708521e-02 1.81879885287635e-04
1.24500000000000e+00 4.90224828838390e-02 1.84407906287374e-04
1.29581632653061e+00 4.86782727513880e-02 1.86814963313369e-04
1.34663265306122e+00 4.83364794808370e-02 1.89107607779165e-04
1.39744897959184e+00 4.79970861022834e-02 1.91291823981719e-04
1.44826530612245e+00 4.76600757674027e-02 1.93373100376272e-04
1.49908163265306e+00 4.73254317413347e-02 1.95356486998754e-04
1.54989795918367e+00 4.69931374091332e-02 1.97246644186890e-04
1.60071428571429e+00 4.66631762746496e-02 1.99047887129143e-04
1.65153061224490e+00 4.63355319532848e-02 2.00764221531418e-04
1.70234693877551e+00 4.60101881776240e-02 2.02399374361576e-04
1.75316326530612e+00 4.56871287963750e-02 2.03956823241425e-04
1.80397959183673e+00 4.53663377678318e-02 2.05439819586447e-04
1.85479591836735e+00 4.50477991648417e-02 2.06851408808450e-04
1.90561224489796e+00 4.47314971737906e-02 2.08194450609489e-04
1.95642857142857e+00 4.44174160886619e-02 2.09471634266198e-04
2.00724489795918e+00 4.41055403170125e-02 2.10685493389978e-04
2.05806122448980e+00 4.37958543727292e-02 2.11838419190431e-04
2.10887755102041e+00 4.34883428800149e-02 2.12932670959093e-04
2.15969387755102e+00 4.31829905724628e-02 2.13970387946476e-04
2.21051020408163e+00 4.28797822879874e-02 2.14953597885718e-04
2.26132653061224e+00 4.25787029724007e-02 2.15884224607551e-04
2.31214285714286e+00 4.22797376785287e-02 2.16764097039283e-04
2.36295918367347e+00 4.19828715615203e-02 2.17594955312422e-04
2.41377551020408e+00 4.16880898820704e-02 2.18378456248525e-04
2.46459183673469e+00 4.13953780055733e-02 2.19116180368075e-04
2.51540816326531e+00 4.11047213977641e-02 2.19809636337136e-04
2.56622448979592e+00 4.08161056276351e-02 2.20460264977388e-04
2.61704081632653e+00 4.05295163666215e-02 2.21069444860530e-04
2.66785714285714e+00 4.02449393845363e-02 2.21638495585249e-04
2.71867346938776e+00 3.99623605522237e-02 2.22168680742400e-04
2.76948979591837e+00 3.96817658407660e-02 2.22661212479003e-04
2.82030612244898e+00 3.94031413176855e-02 2.23117253934078e-04
2.87112244897959e+00 3.91264731493640e-02 2.23537921449864e-04
2.92193877551020e+00 3.88517476002711e-02 2.23924288368186e-04
2.97275510204082e+00 3.85789510294040e-02 2.24277386851484e-04
3.02357142857143e+00 3.83080698925007e-02 2.24598209540207e-04
3.07438775510204e+00 3.80390907412876e-02 2.24887712765832e-04
3.12520408163265e+00 3.77720002201341e-02 2.25146817739944e-04
3.17602040816327e+00 3.75067850689179e-02 2.25376412502723e-04
3.22683673469388e+00 3.72434321189410e-02 2.25577353804740e-04
3.27765306122449e+00 3.69819282948131e-02 2.25750467952964e-04
3.32846938775510e+00 3.67222606137349e-02 2.25896553313315e-04
3.37928571428571e+00 3.64644161824934e-02 2.26016381158208e-04
3.43010204081633e+00 3.62083821991931e-02 2.26110696438190e-04
3.48091836734694e+00 3.59541459525609e-02 2.26180219979902e-04
3.53173469387755e+00 3.57016948191026e-02 2.26225649115436e-04
3.58255102040816e+00 3.54510162646969e-02 2.26247658252476e-04
3.63336734693878e+00 3.52020978439211e-02 2.26246900826339e-04
3.68418367346939e+00 3.49549271973545e-02 2.26224009760649e-04
3.73500000000000e+00 3.47094920530495e-02 2.26179597881142e-04
3.78581632653061e+00 3.44657802258755e-02 2.26114259666581e-04
3.83663265306122e+00 3.42237796149589e-02 2.26028571577655e-04
3.88744897959184e+00 3.39834782050423e-02 2.25923092348891e-04
3.93826530612245e+00 3.37448640658455e-02 2.25798364572889e-04
3.98908163265306e+00 3.35079253496307e-02 2.25654914925351e-04
4.03989795918367e+00 3.32726502924625e-02 2.25493254361663e-04
4.09071428571429e+00 3.30390272135821e-02 2.25313879561152e-04
4.14153061224490e+00 3.28070445130909e-02 2.25117273069916e-04
4.19234693877551e+00 3.25766906731182e-02 2.24903903422279e-04
4.24316326530612e+00 3.23479542572096e-02 2.24674226466319e-04
4.29397959183673e+00 3.21208239081199e-02 2.24428685441437e-04
4.34479591836735e+00 3.18952883488962e-02 2.24167711040284e-04
4.39561224489796e+00 3.16713363822802e-02 2.23891722632499e-04
4.44642857142857e+00 3.14489568886025e-02 2.23601128167591e-04
4.49724489795918e+00 3.12281388272797e-02 2.23296324681530e-04
4.54806122448980e+00 3.10088712342630e-02 2.22977698817590e-04
4.59887755102041e+00 3.07911432229825e-02 2.22645626687130e-04
4.64969387755102e+00 3.05749439837734e-02 2.22300474946615e-04
4.70051020408163e+00 3.03602627819363e-02 2.21942600763302e-04
4.75132653061224e+00 3.01470889586135e-02 2.21572351772915e-04
4.80214285714286e+00 2.99354119302305e-02 2.21190067086562e-04
4.85295918367347e+00 2.97252211866383e-02 2.20796077228430e-04
4.90377551020408e+00 2.95165062919286e-02 2.20390704066823e-04
4.95459183673469e+00 2.93092568838891e-02 2.19974261759071e-04
5.00540816326531e+00 2.91034626722233e-02 2.19547056666983e-04
5.05622448979592e+00 2.88991134393091e-02 2.19109387266637e-04
5.10704081632653e+00 2.86961990396669e-02 2.18661545038100e-04
5.15785714285714e+00 2.84947093982530e-02 2.18203814363024e-04
5.20867346938775e+00 2.82946345111660e-02 2.17736472417847e-04
5.25948979591837e+00 2.80959644451266e-02 2.17259790014003e-04
5.31030612244898e+00 2.78986893358403e-02 2.16774031481101e-04
5.36112244897959e+00 2.77027993886562e-02 2.16279454547339e-04
5.41193877551020e+00 2.75082848780575e-02 2.15776311134982e-04
5.46275510204082e+00 2.73151361460900e-02 2.15264847232192e-04
5.51357142857143e+00 2.71233436029762e-02 2.14745302763494e-04
5.56438775510204e+00 2.69328977266170e-02 2.14217912344662e-04
5.61520408163265e+00 2.67437890610817e-02 2.13682905052807e-04
5.66602040816327e+00 2.65560082175117e-02 2.13140504661622e-04
5.71683673469388e+00 2.63695458723076e-02 2.12590929893894e-04
5.76765306122449e+00 2.61843927676689e-02 2.12034394183972e-04
5.81846938775510e+00 2.60005397111142e-02 2.11471106368822e-04
5.86928571428571e+00 2.58179775740730e-02 2.10901270543119e-04
5.92010204081633e+00 2.56366972923888e-02 2.10325085914706e-04
5.97091836734694e+00 2.54566898658502e-02 2.09742747463764e-04
6.02173469387755e+00 2.52779463568356e-02 2.09154445794161e-04
6.07255102040816e+00 2.51004578907821e-02 2.08560366985136e-04
6.12336734693878e+00 2.49242156557272e-02 2.07960693221038e-04
6.17418367346939e+00 2.47492109010038e-02 2.07355602640124e-04
6.22500000000000e+00 2.45754349376766e-02 2.06745269183675e-04
6.27581632653061e+00 2.44028791380952e-02 2.06129863198463e-04
6.32663265306122e+00 2.42315349346357e-02 2.05509551283906e-04
6.37744897959184e+00 2.40613938201079e-02 2.04884496139692e-04
6.42826530612245e+00 2.38924473473186e-02 2.04254857142905e-04
6.47908163265306e+00 2.37246871278579e-02 2.03620790194238e-04
6.52989795918367e+00 2.35581048324795e-02 2.02982447565021e-04
6.58071428571429e+00 2.33926921906729e-02 2.02339978450741e-04
6.63153061224490e+00 2.32284409894933e-02 2.01693528816895e-04
6.68234693877551e+00 2.30653430739162e-02 2.01043241246192e-04
6.73316326530612e+00 2.29033903464187e-02 2.00389255469902e-04
6.78397959183673e+00 2.27425747658504e-02 1.99731708213956e-04
6.83479591836735e+00 2.25828883477645e-02 1.99070733046858e-04
6.88561224489796e+00 2.24243231640077e-02 1.98406460890235e-04
6.93642857142857e+00 2.22668713416301e-02 1.97739019796030e-04
6.98724489795918e+00 2.21105250634179e-02 1.97068535074668e-04
7.03806122448980e+00 2.19552765665972e-02 1.96395129437243e-04
7.08887755102041e+00 2.18011181431251e-02 1.95718922773045e-04
7.13969387755102e+00 2.16480421392946e-02 1.95040032625819e-04
7.19051020408163e+00 2.14960409547095e-02 1.94358574044202e-04
7.24132653061224e+00 2.13451070425549e-02 1.93674659434080e-04
7.29214285714286e+00 2.11952329092109e-02 1.92988399017204e-04
7.34295918367347e+00 2.10464111132622e-02 1.92299900683508e-04
7.39377551020408e+00 2.08986342657495e-02 1.91609269845081e-04
7.44459183673469e+00 2.07518950297920e-02 1.90916609878117e-04
7.49540816326531e+00 2.06061861196295e-02 1.90222021977295e-04
7.54622448979592e+00 2.04615003008563e-02 1.89525605011593e-04
7.59704081632653e+00 2.03178303900527e-02 1.88827455950521e-04
7.64785714285714e+00 2.01751692538571e-02 1.88127669720620e-04
7.69867346938775e+00 2.00335098091854e-02 1.87426339063417e-04
7.74948979591837e+00 1.98928450228685e-02 1.86723554946713e-04
7.80030612244898e+00 1.97531679107563e-02 1.86019406423240e-04
7.85112244897959e+00 1.96144715379202e-02 1.85313980491014e-04
7.90193877551020e+00 1.94767490182999e-02 1.84607362490383e-04
7.95275510204082e+00 1.93399935138349e-02 1.83899635964971e-04
8.00357142857143e+00 1.92041982346539e-02 1.83190882524519e-04
8.05438775510204e+00 1.90693564387280e-02 1.82481182228387e-04
8.10520408163265e+00 1.89354614310306e-02 1.81770613394062e-04
8.15602040816326e+00 1.88025065638758e-02 1.81059252682182e-04
8.20683673469388e+00 1.86704852359276e-02 1.80347175192701e-04
8.25765306122449e+00 1.85393908923653e-02 1.79634454275122e-04
8.30846938775510e+00 1.84092170245484e-02 1.78921161889177e-04
8.35928571428571e+00 1.82799571692235e-02 1.78207368473228e-04
8.41010204081633e+00 1.81516049086759e-02 1.77493142814631e-04
8.46091836734694e+00 1.80241538704029e-02 1.76778552398538e-04
8.51173469387755e+00 1.78975977263447e-02 1.76063663278957e-04
8.56255102040816e+00 1.77719301930250e-02 1.75348539951586e-04
8.61336734693877e+00 1.76471450312314e-02 1.74633245691247e-04
8.66418367346939e+00 1.75232360452699e-02 1.73917842425667e-04
8.71500000000000e+00 1.74001970830947e-02 1.73202390610827e-04
8.76581632653061e+00 1.72780220359959e-02 1.72486949557472e-04
8.81663265306122e+00 1.71567048378762e-02 1.71771577307541e-04
8.86744897959184e+00 1.70362394653715e-02 1.71056330512126e-04
8.91826530612245e+00 1.69166199375445e-02 1.70341264747582e-04
8.96908163265306e+00 1.67978403151841e-02 1.69626434394511e-04
9.01989795918367e+00 1.66798947009159e-02 1.68911892518360e-04
9.07071428571428e+00 1.65627772389031e-02 1.68197691175545e-04
9.12153061224490e+00 1.64464821141662e-02 1.67483881294995e-04
9.17234693877551e+00 1.63310035526857e-02 1.66770512561392e-04
9.22316326530612e+00 1.62163358211082e-02 1.66057633711693e-04
9.27397959183673e+00 1.61024732260876e-02 1.65345292419211e-04
9.32479591836735e+00 1.59894101143786e-02 1.64633535179494e-04
9.37561224489796e+00 1.58771408725498e-02 1.63922407597653e-04
9.42642857142857e+00 1.57656599263439e-02 1.63211954232629e-04
9.47724489795918e+00 1.56549617408801e-02 1.62502218655244e-04
9.52806122448979e+00 1.55450408199072e-02 1.61793243514777e-04
9.57887755102041e+00 1.54358917058827e-02 1.61085070385099e-04
9.62969387755102e+00 1.53275089796965e-02 1.60377740036385e-04
9.68051020408163e+00 1.52198872600634e-02 1.59671292326547e-04
9.73132653061224e+00 1.51130212035958e-02 1.58965766094262e-04
9.78214285714286e+00 1.50069055045325e-02 1.58261199422457e-04
9.83295918367347e+00 1.49015348941498e-02 1.57557629532269e-04
9.88377551020408e+00 1.47969041408268e-02 1.56855092678478e-04
9.93459183673469e+00 1.46930080497808e-02 1.56153624405022e-04
9.98540816326531e+00 1.45898414624948e-02 1.55453259327652e-04
1.00362244897959e+01 1.44873992570808e-02 1.54754031676869e-04
1.00870408163265e+01 1.43856763462997e-02 1.54055974293251e-04
1.01378571428571e+01 1.42846676806537e-02 1.53359119130875e-04
1.01886734693878e+01 1.41843682450815e-02 1.52663498159866e-04
1.02394897959184e+01 1.40847730597343e-02 1.51969142580944e-04
1.02903061224490e+01 1.39858771787747e-02 1.51276082134666e-04
1.03411224489796e+01 1.38876756930177e-02 1.50584345849459e-04
1.03919387755102e+01 1.37901637267780e-02 1.49893962794412e-04
1.04427551020408e+01 1.36933364386047e-02 1.49204961323576e-04
1.04935714285714e+01 1.35971890201312e-02 1.48517368410908e-04
1.05443877551020e+01 1.35017166985873e-02 1.47831210369174e-04
1.05952040816327e+01 1.34069147337900e-02 1.47146513573583e-04
1.06460204081633e+01 1.33127784188401e-02 1.46463303734527e-04
1.06968367346939e+01 1.32193030790201e-02 1.45781605257211e-04
1.07476530612245e+01 1.31264840741845e-02 1.45101441932723e-04
1.07984693877551e+01 1.30343167958869e-02 1.44422837960731e-04
1.08492857142857e+01 1.29427966672009e-02 1.43745815939588e-04
1.09001020408163e+01 1.28519191450275e-02 1.43070397886422e-04
1.09509183673469e+01 1.27616797173155e-02 1.42396605915324e-04
1.10017346938775e+01 1.26720739036946e-02 1.41724461554601e-04
1.10525510204082e+01 1.25830972544534e-02 1.41053985144956e-04
1.11033673469388e+01 1.24947453527367e-02 1.40385196487138e-04
1.11541836734694e+01 1.24070138118900e-02 1.39718115494103e-04
1.12050000000000e+01 1.23198982760593e-02 1.39052761533692e-04
1.12558163265306e+01 1.22333944192120e-02 1.38389152848949e-04
1.13066326530612e+01 1.21474979472291e-02 1.37727307181100e-04
1.13574489795918e+01 1.20622045953677e-02 1.37067242396965e-04
1.14082653061224e+01 1.19775101288297e-02 1.36408975856023e-04
1.14590816326531e+01 1.18934103418232e-02 1.35752523851932e-04
1.15098979591837e+01 1.18099010595554e-02 1.35097902211890e-04
1.15607142857143e+01 1.17269781358065e-02 1.34445126900423e-04
1.16115306122449e+01 1.16446374534705e-02 1.33794213409790e-04
1.16623469387755e+01 1.15628749236531e-02 1.33145176221887e-04
1.17131632653061e+01 1.14816864875724e-02 1.32498029384905e-04
1.17639795918367e+01 1.14010681142384e-02 1.31852787368537e-04
1.18147959183673e+01 1.13210158002916e-02 1.31209463379266e-04
1.18656122448980e+01 1.12415255718390e-02 1.30568070213133e-04
1.19164285714286e+01 1.11625934822071e-02 1.29928620822248e-04
1.19672448979592e+01 1.10842156124334e-02 1.29291127741967e-04
1.20180612244898e+01 1.10063880704294e-02 1.28655602584776e-04
1.20688775510204e+01 1.09291069927307e-02 1.28022056581622e-04
1.21196938775510e+01 1.08523685423477e-02 1.27390501127358e-04
1.21705102040816e+01 1.07761689092319e-02 1.26760947228856e-04
1.22213265306122e+01 1.07005043094725e-02 1.26133405017149e-04
1.22721428571429e+01 1.06253709869658e-02 1.25507884268639e-04
1.23229591836735e+01 1.05507652113575e-02 1.24884394930364e-04
1.23737755102041e+01 1.04766832784866e-02 1.24262946588164e-04
1.24245918367347e+01 1.04031215096126e-02 1.23643547996382e-04
1.24754081632653e+01 1.03300762530094e-02 1.23026207579783e-04
1.25262244897959e+01 1.02575438819947e-02 1.22410934178354e-04
1.25770408163265e+01 1.01855207947822e-02 1.21797735577576e-04
1.26278571428571e+01 1.01140034160219e-02 1.21186619251066e-04
1.26786734693878e+01 1.00429881948912e-02 1.20577592853920e-04
1.27294897959184e+01 9.97247160549887e-03 1.19970663722592e-04
1.27803061224490e+01 9.90245014616669e-03 1.19365838432314e-04
1.28311224489796e+01 9.83292034089986e-03 1.18763123268597e-04
1.28819387755102e+01 9.76387873755814e-03 1.18162524702534e-04
1.29327551020408e+01 9.69532190824040e-03 1.17564048908701e-04
1.29835714285714e+01 9.62724644859382e-03 1.16967701338360e-04
1.30343877551020e+01 9.55964897921800e-03 1.16373487173734e-04
1.30852040816327e+01 9.49252614391267e-03 1.15781411785972e-04
1.31360204081633e+01 9.42587461004344e-03 1.15191480270363e-04
1.31868367346939e+01 9.35969106787753e-03 1.14603697034719e-04
1.32376530612245e+01 9.29397223192497e-03 1.14018066237095e-04
1.32884693877551e+01 9.22871483925917e-03 1.13434592435838e-04
1.33392857142857e+01 9.16391564938159e-03 1.12853279305189e-04
1.33901020408163e+01 9.09957144551930e-03 1.12274130283215e-04
1.34409183673469e+01 9.03567903299651e-03 1.11697149002402e-04
1.34917346938776e+01 8.97223523956836e-03 1.11122338852288e-04
1.35425510204082e+01 8.90923691480190e-03 1.10549702591881e-04
1.35933673469388e+01 8.84668093131572e-03 1.09979242761178e-04
1.36441836734694e+01 8.78456418321871e-03 1.09410962096152e-04
1.36950000000000e+01 8.72288358642763e-03 1.08844863106993e-04
1.37458163265306e+01 8.66163607807158e-03 1.08280947704181e-04
1.37966326530612e+01 8.60081861767679e-03 1.07719217595174e-04
1.38474489795918e+01 8.54042818566939e-03 1.07159674684493e-04
1.38982653061224e+01 8.48046178367757e-03 1.06602320666896e-04
1.39490816326531e+01 8.42091643395865e-03 1.06047156666643e-04
1.39998979591837e+01 8.36178918053158e-03 1.05494183619924e-04
1.40507142857143e+01 8.30307708774084e-03 1.04943402660603e-04
1.41015306122449e+01 8.24477724054402e-03 1.04394814727794e-04
1.41523469387755e+01 8.18688674396040e-03 1.03848420217795e-04
1.42031632653061e+01 8.12940272415383e-03 1.03304219352745e-04
1.42539795918367e+01 8.07232232705503e-03 1.02762212728933e-04
1.43047959183673e+01 8.01564271824104e-03 1.02222400232090e-04
1.43556122448980e+01 7.95936108398351e-03 1.01684781583758e-04
1.44064285714286e+01 7.90347462991172e-03 1.01149356704241e-04
1.44572448979592e+01 7.84798058127536e-03 1.00616125343062e-04
1.45080612244898e+01 7.79287618242983e-03 1.00085086750977e-04
1.45588775510204e+01 7.73815869783888e-03 9.95562400269743e-05
1.46096938775510e+01 7.68382541079140e-03 9.90295844683603e-05
1.46605102040816e+01 7.62987362365169e-03 9.85051192141969e-05
1.47113265306122e+01 7.57630065736382e-03 9.79828429287129e-05
1.47621428571429e+01 7.52310385241084e-03 9.74627541359950e-05
1.48129591836735e+01 7.47028056758302e-03 9.69448515577065e-05
1.48637755102041e+01 7.41782818021609e-03 9.64291337689949e-05
1.49145918367347e+01 7.36574408571400e-03 9.59155988928917e-05
1.49654081632653e+01 7.31402569846675e-03 9.54042449231945e-05
1.50162244897959e+01 7.26267045066764e-03 9.48950702047444e-05
1.50670408163265e+01 7.21167579220373e-03 9.43880724822718e-05
1.51178571428571e+01 7.16103919154470e-03 9.38832493789940e-05
1.51686734693878e+01 7.11075813459472e-03 9.33805987145473e-05
1.52194897959184e+01 7.06083012491040e-03 9.28801181807970e-05
1.52703061224490e+01 7.01125268325468e-03 9.23818050537658e-05
1.53211224489796e+01 6.96202334844772e-03 9.18856564976637e-05
1.53719387755102e+01 6.91313967626404e-03 9.13916698716612e-05
1.54227551020408e+01 6.86459923964027e-03 9.08998424169754e-05
1.54735714285714e+01 6.81639962824526e-03 9.04101709787272e-05
1.55243877551020e+01 6.76853844929469e-03 8.99226522992924e-05
1.55752040816327e+01 6.72101332649170e-03 8.94372833143710e-05
1.56260204081633e+01 6.67382190022469e-03 8.89540608508827e-05
1.56768367346939e+01 6.62696182715324e-03 8.84729813584294e-05
1.57276530612245e+01 6.58043078098798e-03 8.79940411923776e-05
1.57784693877551e+01 6.53422645147280e-03 8.75172370352043e-05
1.58292857142857e+01 6.48834654428510e-03 8.70425650614245e-05
1.58801020408163e+01 6.44278878179164e-03 8.65700213573037e-05
1.59309183673469e+01 6.39755090205990e-03 8.60996021998053e-05
1.59817346938776e+01 6.35263065903928e-03 8.56313037718296e-05
1.60325510204082e+01 6.30802582217349e-03 8.51651219089515e-05
