Energy (eV)          EEDF (eV^-(3/2))     First Anisotropy
4.87142857142857e-02 3.61807073480864e-02 2.29083540496394e-05
1.46142857142857e-01 3.58254974035948e-02 3.77694851548975e-05
2.43571428571429e-01 3.54737747896460e-02 4.97046867394762e-05
3.41000000000000e-01 3.51255052700173e-02 5.86779832862719e-05
4.38428571428571e-01 3.47806549421247e-02 6.60844616410995e-05
5.35857142857143e-01 3.44391902384816e-02 7.24539037880621e-05
6.33285714285714e-01 3.41010779194098e-02 7.80616165417448e-05
7.30714285714286e-01 3.37662850729824e-02 8.30745256260894e-05
8.28142857142857e-01 3.34347791096239e-02 8.76037827021979e-05
9.25571428571429e-01 3.31065277594395e-02 9.17282586905973e-05
1.02300000000000e+00 3.27814990701076e-02 9.55065670978353e-05
1.12042857142857e+00 3.24596614010287e-02 9.89838298888542e-05
1.21785714285714e+00 3.21409834258519e-02 1.02195763535889e-04
1.31528571428571e+00 3.18254341236745e-02 1.05171284933321e-04
1.41271428571429e+00 3.15129827781688e-02 1.07934246779116e-04
1.51014285714286e+00 3.12035989745550e-02 1.10504636157493e-04
1.60757142857143e+00 3.08972525967053e-02 1.12899427049380e-04
1.70500000000000e+00 3.05939138241683e-02 1.15133202514400e-04
1.80242857142857e+00 3.02935531275724e-02 1.17218618043638e-04
1.89985714285714e+00 2.99961412709678e-02 1.19166754433741e-04
1.99728571428571e+00 2.97016493036070e-02 1.20987390557806e-04
2.09471428571429e+00 2.94100485589760e-02 1.22689216526352e-04
2.19214285714286e+00 2.91213106519904e-02 1.24280003668856e-04
2.28957142857143e+00 2.88354074762596e-02 1.25766741090744e-04
2.38700000000000e+00 2.85523112013346e-02 1.27155746801413e-04
2.48442857142857e+00 2.82719942688595e-02 1.28452758423484e-04
2.58185714285714e+00 2.79944293933794e-02 1.29663008896862e-04
2.67928571428571e+00 2.77195895561126e-02 1.30791289718677e-04
2.77671428571429e+00 2.74474480035406e-02 1.31842003506272e-04
2.87414285714286e+00 2.71779782447966e-02 1.32819208989289e-04
2.97157142857143e+00 2.69111540491016e-02 1.33726659240811e-04
3.06900000000000e+00 2.66469494432026e-02 1.34567834562626e-04
3.16642857142857e+00 2.63853387080135e-02 1.35345970419997e-04
3.26385714285714e+00 2.61262963786499e-02 1.36064082146534e-04
3.36128571428571e+00 2.58697972393620e-02 1.36724986483025e-04
3.45871428571429e+00 2.56158163219609e-02 1.37331319894116e-04
3.55614285714286e+00 2.53643289033832e-02 1.37885555060743e-04
3.65357142857143e+00 2.51153105032940e-02 1.38390015326815e-04
3.75100000000000e+00 2.48687368816983e-02 1.38846887578658e-04
3.84842857142857e+00 2.46245840359458e-02 1.39258233334090e-04
3.94585714285714e+00 2.43828282003340e-02 1.39625999054068e-04
4.04328571428571e+00 2.41434458418216e-02 1.39952025383576e-04
4.14071428571429e+00 2.39064136584073e-02 1.40238054994832e-04
4.23814285714286e+00 2.36717085768585e-02 1.40485739988811e-04
4.33557142857143e+00 2.34393077504714e-02 1.40696648486942e-04
4.43300000000000e+00 2.32091885568437e-02 1.40872270670309e-04
4.53042857142857e+00 2.29813285951691e-02 1.41014023950646e-04
4.62785714285714e+00 2.27557056855897e-02 1.41123258040068e-04
4.72528571428571e+00 2.25322978654802e-02 1.41201259583676e-04
4.82271428571429e+00 2.23110833878373e-02 1.41249256003332e-04
4.92014285714286e+00 2.20920407191607e-02 1.41268419314501e-04
5.01757142857143e+00 2.18751485373609e-02 1.41259869550888e-04
5.11500000000000e+00 2.16603857296820e-02 1.41224677976993e-04
5.21242857142857e+00 2.14477313902380e-02 1.41163869778477e-04
5.30985714285714e+00 2.12371648192191e-02 1.41078426866018e-04
5.40728571428571e+00 2.10286655196179e-02 1.40969290475281e-04
5.50471428571429e+00 2.08222131956595e-02 1.40837363234917e-04
5.60214285714286e+00 2.06177877508254e-02 1.40683511345589e-04
5.69957142857143e+00 2.04153692858991e-02 1.40508566536315e-04
5.79700000000000e+00 2.02149380970284e-02 1.40313327941049e-04
5.89442857142857e+00 2.00164746734704e-02 1.40098563611280e-04
5.99185714285714e+00 1.98199596967149e-02 1.39865012210945e-04
6.08928571428571e+00 1.96253740375677e-02 1.39613384606441e-04
6.18671428571429e+00 1.94326987546389e-02 1.39344365055620e-04
6.28414285714286e+00 1.92419150924977e-02 1.39058612552335e-04
6.38157142857143e+00 1.90530044798489e-02 1.38756762027771e-04
6.47900000000000e+00 1.88659485277244e-02 1.38439425528675e-04
6.57642857142857e+00 1.86807290274113e-02 1.38107193116726e-04
6.67385714285714e+00 1.84973279495342e-02 1.37760633966858e-04
6.77128571428571e+00 1.83157274414348e-02 1.37400297407359e-04
6.86871428571429e+00 1.81359098257262e-02 1.37026713636760e-04
6.96614285714286e+00 1.79578575985714e-02 1.36640394605836e-04
7.06357142857143e+00 1.77815534279812e-02 1.36241834798313e-04
7.16100000000000e+00 1.76069801521259e-02 1.35831512014205e-04
7.25842857142857e+00 1.74341207774276e-02 1.35409887926571e-04
7.35585714285714e+00 1.72629584776267e-02 1.34977408833858e-04
7.45328571428571e+00 1.70934765914144e-02 1.34534506377959e-04
7.55071428571429e+00 1.69256586210571e-02 1.34081597991073e-04
7.64814285714286e+00 1.67594882307897e-02 1.33619087503457e-04
7.74557142857143e+00 1.65949492452269e-02 1.33147365674386e-04
7.84300000000000e+00 1.64320256477879e-02 1.32666810737566e-04
7.94042857142857e+00 1.62707015789349e-02 1.32177788755628e-04
8.03785714285714e+00 1.61109613352435e-02 1.31680654159191e-04
8.13528571428571e+00 1.59527893672529e-02 1.31175750264741e-04
8.23271428571429e+00 1.57961702781616e-02 1.30663409559241e-04
8.33014285714286e+00 1.56410888223282e-02 1.30143954136054e-04
8.42757142857143e+00 1.54875299037885e-02 1.29617696069661e-04
8.52500000000000e+00 1.53354785747853e-02 1.29084937810093e-04
8.62242857142857e+00 1.51849200341395e-02 1.28545972412659e-04
8.71985714285714e+00 1.50358396263371e-02 1.28001083938669e-04
8.81728571428572e+00 1.48882228395690e-02 1.27450547842563e-04
8.91471428571429e+00 1.47420553044977e-02 1.26894631155115e-04
9.01214285714286e+00 1.45973227928593e-02 1.26333592806663e-04
9.10957142857143e+00 1.44540112160781e-02 1.25767683899744e-04
9.20700000000000e+00 1.43121066238955e-02 1.25197148003395e-04
9.30442857142857e+00 1.41715952028614e-02 1.24622221303242e-04
9.40185714285714e+00 1.40324632754458e-02 1.24043132908537e-04
9.49928571428572e+00 1.38946972982462e-02 1.23460105150201e-04
9.59671428571429e+00 1.37582838608245e-02 1.22873353698678e-04
9.69414285714286e+00 1.36232096844017e-02 1.22283087810283e-04
9.79157142857143e+00 1.34894616205657e-02 1.21689510530674e-04
9.88900000000000e+00 1.33570266499909e-02 1.21092818920258e-04
9.98642857142857e+00 1.32258918810403e-02 1.20493204270232e-04
1.00838571428571e+01 1.30960445483898e-02 1.19890851783448e-04
1.01812857142857e+01 1.29674720138349e-02 1.19285941747568e-04
1.02787142857143e+01 1.28401617605701e-02 1.18678649269871e-04
1.03761428571429e+01 1.27141013959536e-02 1.18069143406377e-04
1.04735714285714e+01 1.25892786502043e-02 1.17457589084666e-04
1.05710000000000e+01 1.24656813716042e-02 1.16844146394263e-04
1.06684285714286e+01 1.23432975289419e-02 1.16228970158078e-04
1.07658571428571e+01 1.22221152091239e-02 1.15612210667698e-04
1.08632857142857e+01 1.21021226171221e-02 1.14994014321390e-04
1.09607142857143e+01 1.19833080714818e-02 1.14374523225305e-04
1.10581428571429e+01 1.18656600065500e-02 1.13753874525402e-04
1.11555714285714e+01 1.17491669712669e-02 1.13132202097217e-04
1.12530000000000e+01 1.16338176248958e-02 1.12509635885607e-04
1.13504285714286e+01 1.15196007390949e-02 1.11886301499505e-04
1.14478571428571e+01 1.14065051957580e-02 1.11262320859480e-04
1.15452857142857e+01 1.12945199869040e-02 1.10637812759018e-04
1.16427142857143e+01 1.11836342106708e-02 1.10012892488045e-04
1.17401428571429e+01 1.10738370732074e-02 1.09387671213491e-04
1.18375714285714e+01 1.09651178875525e-02 1.08762257495028e-04
1.19350000000000e+01 1.08574660698198e-02 1.08136756673645e-04
1.20324285714286e+01 1.07508711409599e-02 1.07511270491782e-04
1.21298571428571e+01 1.06453227248030e-02 1.06885897667469e-04
1.22272857142857e+01 1.05408105479040e-02 1.06260734391570e-04
1.23247142857143e+01 1.04373244359588e-02 1.05635873975157e-04
1.24221428571429e+01 1.03348543154146e-02 1.05011406277119e-04
1.25195714285714e+01 1.02333902124280e-02 1.04387419068583e-04
1.26170000000000e+01 1.01329222494472e-02 1.03763997468356e-04
1.27144285714286e+01 1.00334406467135e-02 1.03141223588895e-04
1.28118571428571e+01 9.93493572048203e-03 1.02519177048074e-04
1.29092857142857e+01 9.83739788283558e-03 1.01897935412154e-04
1.30067142857143e+01 9.74081763846770e-03 1.01277573867237e-04
1.31041428571429e+01 9.64518558605652e-03 1.00658164691480e-04
1.32015714285714e+01 9.55049241729648e-03 1.00039778486823e-04
1.32990000000000e+01 9.45672891382736e-03 9.94224836586959e-05
1.33964285714286e+01 9.36388594851563e-03 9.88063460873030e-05
1.34938571428571e+01 9.27195448383480e-03 9.81914295858292e-05
1.35912857142857e+01 9.18092557165529e-03 9.75777962968206e-05
1.36887142857143e+01 9.09079035035039e-03 9.69655063871156e-05
1.37861428571429e+01 9.00154004596980e-03 9.63546175618816e-05
1.38835714285714e+01 8.91316597133926e-03 9.57451861792271e-05
1.39810000000000e+01 8.82565952329431e-03 9.51372667712548e-05
1.40784285714286e+01 8.73901218377574e-03 9.45309117396518e-05
1.41758571428571e+01 8.65321551835165e-03 9.39261717673853e-05
1.42732857142857e+01 8.56826117599137e-03 9.33230961747220e-05
1.43707142857143e+01 8.48414088645536e-03 9.27217326366580e-05
1.44681428571429e+01 8.40084646129903e-03 9.21221267358100e-05
1.45655714285714e+01 8.31836979303500e-03 9.15243229730972e-05
1.46630000000000e+01 8.23670285263606e-03 9.09283643271863e-05
1.47604285714286e+01 8.15583769047243e-03 9.03342919730694e-05
1.48578571428571e+01 8.07576643496099e-03 8.97421456530760e-05
1.49552857142857e+01 7.99648129232883e-03 8.91519639976414e-05
1.50527142857143e+01 7.91797454425434e-03 8.85637842639886e-05
1.51501428571429e+01 7.84023854872650e-03 8.79776419249537e-05
1.52475714285714e+01 7.76326573926530e-03 8.73935715870701e-05
1.53450000000000e+01 7.68704862266300e-03 8.68116065854551e-05
1.54424285714286e+01 7.61157977978667e-03 8.62317787239323e-05
1.55398571428571e+01 7.53685186434186e-03 8.56541186102513e-05
1.56372857142857e+01 7.46285760263016e-03 8.50786559458421e-05
1.57347142857143e+01 7.38958979141329e-03 8.45054192844176e-05
1.58321428571429e+01 7.31704129864911e-03 8.39344356539251e-05
1.59295714285714e+01 7.24520506276580e-03 8.33657313917921e-05
1.60270000000000e+01 7.17407409061511e-03 8.27993317724555e-05
1.61244285714286e+01 7.10364145815977e-03 8.22352607675853e-05
1.62218571428571e+01 7.03390030934028e-03 8.16735413496108e-05
1.63192857142857e+01 6.96484385583015e-03 8.11141957540367e-05
1.64167142857143e+01 6.89646537509859e-03 8.05572452566122e-05
1.65141428571429e+01 6.82875821104090e-03 8.00027098257516e-05
1.66115714285714e+01 6.76171577330278e-03 7.94506088834552e-05
1.67090000000000e+01 6.69533153542237e-03 7.89009609628506e-05
1.68064285714286e+01 6.62959903541921e-03 7.83537834870503e-05
1.69038571428571e+01 6.56451187475431e-03 7.78090930445117e-05
1.70012857142857e+01 6.50006371808578e-03 7.72669056269656e-05
1.70987142857143e+01 6.43624829150892e-03 7.67272364238279e-05
1.71961428571429e+01 6.37305938309613e-03 7.61900995026087e-05
1.72935714285714e+01 6.31049084226760e-03 7.56555085029304e-05
1.73910000000000e+01 6.24853657810242e-03 7.51234763216517e-05
1.74884285714286e+01 6.18719055984281e-03 7.45940149089791e-05
1.75858571428571e+01 6.12644681593892e-03 7.40671355186599e-05
1.76832857142857e+01 6.06629943380700e-03 7.35428489241634e-05
1.77807142857143e+01 6.00674255822834e-03 7.30211652290387e-05
1.78781428571429e+01 5.94777039181152e-03 7.25020935730238e-05
1.79755714285714e+01 5.88937719440613e-03 7.19856427657440e-05
1.80730000000000e+01 5.83155728156544e-03 7.14718209971092e-05
1.81704285714286e+01 5.77430502497796e-03 7.09606356493702e-05
1.82678571428571e+01 5.71761485158899e-03 7.04520935247849e-05
1.83652857142857e+01 5.66148124336319e-03 6.99462010423131e-05
1.84627142857143e+01 5.60589873582609e-03 6.94429640627251e-05
1.85601428571429e+01 5.55086191845948e-03 6.89423876182694e-05
1.86575714285714e+01 5.49636543415523e-03 6.84444764918492e-05
1.87550000000000e+01 5.44240397781409e-03 6.79492349506332e-05
1.88524285714286e+01 5.38897229671466e-03 6.74566665727923e-05
1.89498571428571e+01 5.33606518970495e-03 6.69667744549329e-05
1.90472857142857e+01 5.28367750697051e-03 6.64795613913035e-05
1.91447142857143e+01 5.23180414870423e-03 6.59950297125032e-05
1.92421428571429e+01 5.18044006544419e-03 6.55131810367627e-05
1.93395714285714e+01 5.12958025756473e-03 6.50340167997553e-05
1.94370000000000e+01 5.07921977399786e-03 6.45575380094927e-05
1.95344285714286e+01 5.02935371254830e-03 6.40837450865915e-05
1.96318571428571e+01 4.97997721914887e-03 6.36126380534924e-05
1.97292857142857e+01 4.93108548763513e-03 6.31442166979122e-05
1.98267142857143e+01 4.88267375853086e-03 6.26784804240836e-05
1.99241428571429e+01 4.83473731933634e-03 6.22154280238784e-05
2.00215714285714e+01 4.78727150405403e-03 6.17550581618446e-05
2.01190000000000e+01 4.74027169202058e-03 6.12973691496079e-05
2.02164285714286e+01 4.69373330817546e-03 6.08423587986057e-05
2.03138571428571e+01 4.64765182237450e-03 6.03900245928705e-05
2.04112857142857e+01 4.60202274917191e-03 5.99403638382651e-05
2.05087142857143e+01 4.55684164671014e-03 5.94933735252790e-05
2.06061428571429e+01 4.51210411696540e-03 5.90490501183328e-05
2.07035714285714e+01 4.46780580530557e-03 5.86073900001444e-05
2.08010000000000e+01 4.42394239942221e-03 5.81683892640474e-05
2.08984285714286e+01 4.38050962955909e-03 5.77320435781947e-05
2.09958571428571e+01 4.33750326787894e-03 5.72983483434667e-05
2.10932857142857e+01 4.29491912825329e-03 5.68672988298561e-05
2.11907142857143e+01 4.25275306524685e-03 5.64388900499138e-05
2.12881428571429e+01 4.21100097432607e-03 5.60131165647327e-05
2.13855714285714e+01 4.16965879144705e-03 5.55899728913282e-05
2.14830000000000e+01 4.12872249207810e-03 5.51694533113867e-05
2.15804285714286e+01 4.08818809139361e-03 5.47515517460291e-05
2.16778571428571e+01 4.04805164368962e-03 5.43362619002477e-05
2.17752857142857e+01 4.00830924218169e-03 5.39235773876513e-05
2.18727142857143e+01 3.96895701807500e-03 5.35134916137105e-05
2.19701428571429e+01 3.92999114074095e-03 5.31059975970533e-05
2.20675714285714e+01 3.89140781733305e-03 5.27010883431666e-05
2.21650000000000e+01 3.85320329189154e-03 5.22987566682249e-05
2.22624285714286e+01 3.81537384550738e-03 5.18989950835741e-05
2.23598571428571e+01 3.77791579578249e-03 5.15017959279378e-05
2.24572857142857e+01 3.74082549663596e-03 5.11071514816139e-05
2.25547142857143e+01 3.70409933745182e-03 5.07150538587387e-05
2.26521428571429e+01 3.66773374322812e-03 5.03254948426264e-05
2.27495714285714e+01 3.63172517421885e-03 4.99384662287908e-05
2.28470000000000e+01 3.59607012511307e-03 4.95539596626102e-05
2.29444285714286e+01 3.56076512517307e-03 4.91719665327441e-05
2.30418571428571e+01 3.52580673773567e-03 4.87924780922513e-05
2.31392857142857e+01 3.49119156002676e-03 4.84154855631871e-05
2.32367142857143e+01 3.45691622237972e-03 4.80409800371687e-05
2.33341428571429e+01 3.42297738836070e-03 4.76689523236288e-05
2.34315714285714e+01 3.38937175443479e-03 4.72993932648295e-05
2.35290000000000e+01 3.35609604921288e-03 4.69322935862315e-05
2.36264285714286e+01 3.32314703356758e-03 4.65676437981459e-05
2.37238571428571e+01 3.29052150017213e-03 4.62054343067488e-05
2.38212857142857e+01 3.25821627332338e-03 4.58456555099600e-05
2.39187142857143e+01 3.22622820822437e-03 4.54882977056542e-05
2.40161428571429e+01 3.19455419108918e-03 4.51333509517596e-05
2.41135714285714e+01 3.16319113883158e-03 4.47808053557093e-05
2.42110000000000e+01 3.13213599837366e-03 4.44306509364800e-05
2.43084285714286e+01 3.10138574674243e-03 4.40828775338163e-05
2.44058571428571e+01 3.07093739064344e-03 4.37374749100549e-05
2.45032857142857e+01 3.04078796629197e-03 4.33944328380518e-05
2.46007142857143e+01 3.01093453875421e-03 4.30537410164387e-05
2.46981428571429e+01 2.98137420203432e-03 4.27153889406144e-05
2.47955714285714e+01 2.95210407878420e-03 4.23793661688210e-05
2.48930000000000e+01 2.92312131966824e-03 4.20456621949119e-05
2.49904285714286e+01 2.89442310344339e-03 4.17142663645442e-05
2.50878571428571e+01 2.86600663656462e-03 4.13851679686228e-05
2.51852857142857e+01 2.83786915302428e-03 4.10583563239896e-05
2.52827142857143e+01 2.81000791374663e-03 4.07338206951639e-05
2.53801428571429e+01 2.78242020665962e-03 4.04115501753406e-05
2.54775714285714e+01 2.75510334642426e-03 4.00915339310878e-05
2.55750000000000e+01 2.72805467385066e-03 3.97737610849782e-05
2.56724285714286e+01 2.70127155596383e-03 3.94582206382053e-05
2.57698571428571e+01 2.67475138563841e-03 3.91449015563757e-05
2.58672857142857e+01 2.64849158144608e-03 3.88337928435880e-05
2.59647142857143e+01 2.62248958709871e-03 3.85248834701498e-05
2.60621428571429e+01 2.59674287150708e-03 3.82181622627811e-05
2.61595714285714e+01 2.57124892852843e-03 3.79136181297409e-05
2.62570000000000e+01 2.54600527642941e-03 3.76112399525307e-05
2.63544285714286e+01 2.52100945793950e-03 3.73110165144204e-05
2.64518571428571e+01 2.49625903991283e-03 3.70129365792548e-05
2.65492857142857e+01 2.47175161318328e-03 3.67169889595060e-05
2.66467142857143e+01 2.44748479205221e-03 3.64231624494889e-05
2.67441428571429e+01 2.42345621433581e-03 3.61314457240226e-05
2.68415714285714e+01 2.39966354112970e-03 3.58418275456493e-05
2.69390000000000e+01 2.37610445631465e-03 3.55542966646746e-05
2.70364285714286e+01 2.35277666659947e-03 3.52688417531344e-05
2.71338571428571e+01 2.32967790120771e-03 3.49854514772227e-05
2.72312857142857e+01 2.30680591174030e-03 3.47041145598249e-05
2.73287142857143e+01 2.28415847170396e-03 3.44248197188104e-05
2.74261428571429e+01 2.26173337654885e-03 3.41475555734876e-05
2.75235714285714e+01 2.23952844344902e-03 3.38723108353860e-05
2.76210000000000e+01 2.21754151084730e-03 3.35990742159762e-05
2.77184285714286e+01 2.19577043848910e-03 3.33278343656596e-05
2.78158571428571e+01 2.17421310713212e-03 3.30585799403541e-05
2.79132857142857e+01 2.15286741841621e-03 3.27912996589869e-05
2.80107142857143e+01 2.13173129442908e-03 3.25259822464569e-05
2.81081428571429e+01 2.11080267773559e-03 3.22626163472652e-05
2.82055714285714e+01 2.09007953117296e-03 3.20011907012312e-05
2.83030000000000e+01 2.06955983743157e-03 3.17416940582768e-05
2.84004285714286e+01 2.04924159908096e-03 3.14841151220462e-05
2.84978571428571e+01 2.02912283830072e-03 3.12284426111446e-05
2.85952857142857e+01 2.00920159675744e-03 3.09746653120147e-05
2.86927142857143e+01 1.98947593520442e-03 3.07227720262122e-05
2.87901428571429e+01 1.96994393350391e-03 3.04727514906317e-05
2.88875714285714e+01 1.95060369043609e-03 3.02245925394074e-05
2.89850000000000e+01 1.93145332331270e-03 2.99782840252062e-05
2.90824285714286e+01 1.91249096799641e-03 2.97338147671048e-05
2.91798571428571e+01 1.89371477865135e-03 2.94911736069387e-05
2.92772857142857e+01 1.87512292762667e-03 2.92503494579487e-05
2.93747142857143e+01 1.85671360508763e-03 2.90113312560349e-05
2.94721428571429e+01 1.83848501903169e-03 2.87741078860602e-05
2.95695714285714e+01 1.82043539511037e-03 2.85386683310623e-05
2.96670000000000e+01 1.80256297627301e-03 2.83050015995408e-05
2.97644285714286e+01 1.78486602278046e-03 2.80730966772689e-05
2.98618571428571e+01 1.76734281197373e-03 2.78429425791569e-05
2.99592857142857e+01 1.74999163816398e-03 2.76145283940228e-05
3.00567142857143e+01 1.73281081229228e-03 2.73878432395127e-05
3.01541428571429e+01 1.71579866194056e-03 2.71628761940088e-05
3.02515714285714e+01 1.69895353116542e-03 2.69396164341862e-05
3.03490000000000e+01 1.68227378016954e-03 2.67180531678229e-05
3.04464285714286e+01 1.66575778531059e-03 2.64981755892403e-05
3.05438571428571e+01 1.64940393888656e-03 2.62799729270504e-05
3.06412857142857e+01 1.63321064903197e-03 2.60634344853775e-05
3.07387142857143e+01 1.61717633940392e-03 2.58485496021613e-05
