Energy (eV)          EEDF (eV^-(3/2))     First Anisotropy
1.75409836065574e-02 7.29056970339217e-02 3.50080607453143e-05
5.26229508196721e-02 7.24942483042552e-02 5.78395813938124e-05
8.77049180327869e-02 7.20851216158653e-02 7.64378260671485e-05
1.22786885245902e-01 7.16783038623568e-02 9.06177081462233e-05
1.57868852459016e-01 7.12737820164481e-02 1.02485909515216e-04
1.92950819672131e-01 7.08715431203368e-02 1.12837512073354e-04
2.28032786885246e-01 7.04715742897171e-02 1.22083272212347e-04
2.63114754098361e-01 7.00738627132179e-02 1.30470822397604e-04
2.98196721311475e-01 6.96783956504410e-02 1.38164127290840e-04
3.33278688524590e-01 6.92851604358239e-02 1.45278884588375e-04
3.68360655737705e-01 6.88941444736666e-02 1.51900600544722e-04
4.03442622950820e-01 6.85053352393946e-02 1.58094739079009e-04
4.38524590163934e-01 6.81187202782345e-02 1.63912836842992e-04
4.73606557377049e-01 6.77342872076229e-02 1.69396394707687e-04
5.08688524590164e-01 6.73520237138620e-02 1.74579464535881e-04
5.43770491803279e-01 6.69719175527408e-02 1.79490430792101e-04
5.78852459016393e-01 6.65939565491715e-02 1.84153275511455e-04
6.13934426229508e-01 6.62181285961618e-02 1.88588498860951e-04
6.49016393442623e-01 6.58444216563371e-02 1.92813804431416e-04
6.84098360655738e-01 6.54728237595820e-02 1.96844618942342e-04
7.19180327868852e-01 6.51033230033343e-02 2.00694492604717e-04
7.54262295081967e-01 6.47359075522145e-02 2.04375412751045e-04
7.89344262295082e-01 6.43705656371738e-02 2.07898052196559e-04
8.24426229508197e-01 6.40072855565420e-02 2.11271968796217e-04
8.59508196721312e-01 6.36460556741899e-02 2.14505767292915e-04
8.94590163934426e-01 6.32868644196600e-02 2.17607231589859e-04
9.29672131147541e-01 6.29297002874092e-02 2.20583434029599e-04
9.64754098360656e-01 6.25745518376246e-02 2.23440826615237e-04
9.99836065573770e-01 6.22214076946449e-02 2.26185317619457e-04
1.03491803278689e+00 6.18702565466567e-02 2.28822335965148e-04
1.07000000000000e+00 6.15210871453907e-02 2.31356885430382e-04
1.10508196721311e+00 6.11738883099769e-02 2.33793593314312e-04
1.14016393442623e+00 6.08286489161733e-02 2.36136749911321e-04
1.17524590163934e+00 6.04853579057597e-02 2.38390342201046e-04
1.21032786885246e+00 6.01440042829381e-02 2.40558085281674e-04
1.24540983606557e+00 5.98045771167484e-02 2.42643449748028e-04
1.28049180327869e+00 5.94670655322970e-02 2.44649683866223e-04
1.31557377049180e+00 5.91314587188781e-02 2.46579832478734e-04
1.35065573770492e+00 5.87977459293173e-02 2.48436757869791e-04
1.38573770491803e+00 5.84659164720454e-02 2.50223154284508e-04
1.42081967213115e+00 5.81359597183645e-02 2.51941561152439e-04
1.45590163934426e+00 5.78078650995611e-02 2.53594376689971e-04
1.49098360655738e+00 5.74816221087916e-02 2.55183870022900e-04
1.52606557377049e+00 5.71572202940314e-02 2.56712190464031e-04
1.56114754098361e+00 5.68346492644815e-02 2.58181375345301e-04
1.59622950819672e+00 5.65138986900221e-02 2.59593360764482e-04
1.63131147540984e+00 5.61949582947520e-02 2.60949987773545e-04
1.66639344262295e+00 5.58778178628135e-02 2.62253008287544e-04
1.70147540983607e+00 5.55624672359974e-02 2.63504092052657e-04
1.73655737704918e+00 5.52488963152531e-02 2.64704832945879e-04
1.77163934426230e+00 5.49370950548501e-02 2.65856753292886e-04
1.80672131147541e+00 5.46270534675926e-02 2.66961307729481e-04
1.84180327868852e+00 5.43187616226550e-02 2.68019888252843e-04
1.87688524590164e+00 5.40122096469095e-02 2.69033828813260e-04
1.91196721311475e+00 5.37073877196167e-02 2.70004408174272e-04
1.94704918032787e+00 5.34042860771304e-02 2.70932852135116e-04
1.98213114754098e+00 5.31028950124443e-02 2.71820338692339e-04
2.01721311475410e+00 5.28032048702522e-02 2.72667999798471e-04
2.05229508196721e+00 5.25052060512841e-02 2.73476923259993e-04
2.08737704918033e+00 5.22088890104459e-02 2.74248155858734e-04
2.12245901639344e+00 5.19142442579130e-02 2.74982706206843e-04
2.15754098360656e+00 5.16212623545995e-02 2.75681546169717e-04
2.19262295081967e+00 5.13299339160992e-02 2.76345611821385e-04
2.22770491803279e+00 5.10402496122803e-02 2.76975807152697e-04
2.26278688524590e+00 5.07522001630386e-02 2.77573004796357e-04
2.29786885245902e+00 5.04657763419624e-02 2.78138046956895e-04
2.33295081967213e+00 5.01809689747079e-02 2.78671747515944e-04
2.36803278688525e+00 4.98977689399130e-02 2.79174893964129e-04
2.40311475409836e+00 4.96161671652723e-02 2.79648248090845e-04
2.43819672131148e+00 4.93361546308930e-02 2.80092546300914e-04
2.47327868852459e+00 4.90577223689172e-02 2.80508502479117e-04
2.50836065573770e+00 4.87808614598305e-02 2.80896808183504e-04
2.54344262295082e+00 4.85055630355964e-02 2.81258133066051e-04
2.57852459016393e+00 4.82318182782223e-02 2.81593126394961e-04
2.61360655737705e+00 4.79596184205290e-02 2.81902418453529e-04
2.64868852459016e+00 4.76889547427130e-02 2.82186620833718e-04
2.68377049180328e+00 4.74198185752360e-02 2.82446326671939e-04
2.71885245901639e+00 4.71522012974881e-02 2.82682111950356e-04
2.75393442622951e+00 4.68860943384825e-02 2.82894536692424e-04
2.78901639344262e+00 4.66214891736493e-02 2.83084145110889e-04
2.82409836065574e+00 4.63583773275064e-02 2.83251465465687e-04
2.85918032786885e+00 4.60967503733234e-02 2.83397012177092e-04
2.89426229508197e+00 4.58365999300839e-02 2.83521285635100e-04
2.92934426229508e+00 4.55779176649951e-02 2.83624772231396e-04
2.96442622950820e+00 4.53206952922906e-02 2.83707945380461e-04
2.99950819672131e+00 4.50649245738223e-02 2.83771266457396e-04
3.03459016393443e+00 4.48105973162140e-02 2.83815184784172e-04
3.06967213114754e+00 4.45577053731915e-02 2.83840137358481e-04
3.10475409836066e+00 4.43062406452666e-02 2.83846550666771e-04
3.13983606557377e+00 4.40561950770332e-02 2.83834840385343e-04
3.17491803278689e+00 4.38075606593642e-02 2.83805411295522e-04
3.21000000000000e+00 4.35603294283311e-02 2.83758658115705e-04
3.24508196721311e+00 4.33144934657109e-02 2.83694966265045e-04
3.28016393442623e+00 4.30700448964420e-02 2.83614711755681e-04
3.31524590163934e+00 4.28269758906713e-02 2.83518261062304e-04
3.35032786885246e+00 4.25852786627351e-02 2.83405971874736e-04
3.38540983606557e+00 4.23449454716208e-02 2.83278193788260e-04
3.42049180327869e+00 4.21059686185714e-02 2.83135268158871e-04
3.45557377049180e+00 4.18683404489954e-02 2.82977527739649e-04
3.49065573770492e+00 4.16320533521798e-02 2.82805298170321e-04
3.52573770491803e+00 4.13970997590021e-02 2.82618897602604e-04
3.56081967213115e+00 4.11634721437397e-02 2.82418636520799e-04
3.59590163934426e+00 4.09311630231419e-02 2.82204818382297e-04
3.63098360655738e+00 4.07001649568281e-02 2.81977740204489e-04
3.66606557377049e+00 4.04704705451272e-02 2.81737692381327e-04
3.70114754098361e+00 4.02420724307703e-02 2.81484958298815e-04
3.73622950819672e+00 4.00149632986188e-02 2.81219815671662e-04
3.77131147540984e+00 3.97891358735970e-02 2.80942536153422e-04
3.80639344262295e+00 3.95645829222995e-02 2.80653385130395e-04
3.84147540983607e+00 3.93412972521424e-02 2.80352622277608e-04
3.87655737704918e+00 3.91192717117074e-02 2.80040502067892e-04
3.91163934426230e+00 3.88984991887846e-02 2.79717273567461e-04
3.94672131147541e+00 3.86789726118792e-02 2.79383180219365e-04
3.98180327868852e+00 3.84606849494062e-02 2.79038460361465e-04
4.01688524590164e+00 3.82436292100049e-02 2.78683347700764e-04
4.05196721311475e+00 3.80277984406830e-02 2.78318071100363e-04
4.08704918032787e+00 3.78131857282333e-02 2.77942854190140e-04
4.12213114754098e+00 3.75997841989822e-02 2.77557916518821e-04
4.15721311475410e+00 3.73875870170089e-02 2.77163473163492e-04
4.19229508196721e+00 3.71765873854927e-02 2.76759734505193e-04
4.22737704918033e+00 3.69667785459715e-02 2.76346906689136e-04
4.26245901639344e+00 3.67581537786155e-02 2.75925192045687e-04
4.29754098360656e+00 3.65507064005343e-02 2.75494788872406e-04
4.33262295081967e+00 3.63444297670459e-02 2.75055891051852e-04
4.36770491803279e+00 3.61393172714384e-02 2.74608689107470e-04
4.40278688524590e+00 3.59353623433429e-02 2.74153369822187e-04
4.43786885245902e+00 3.57325584499440e-02 2.73690116012781e-04
4.47295081967213e+00 3.55308990952942e-02 2.73219106943094e-04
4.50803278688525e+00 3.53303778205516e-02 2.72740518701849e-04
4.54311475409836e+00 3.51309882024318e-02 2.72254523984810e-04
4.57819672131148e+00 3.49327238543486e-02 2.71761291724074e-04
4.61327868852459e+00 3.47355784261856e-02 2.71260988061038e-04
4.64836065573771e+00 3.45395456028080e-02 2.70753775977068e-04
4.68344262295082e+00 3.43446191051503e-02 2.70239815070886e-04
4.71852459016393e+00 3.41507926895832e-02 2.69719261932751e-04
4.75360655737705e+00 3.39580601481191e-02 2.69192270486602e-04
4.78868852459016e+00 3.37664153069922e-02 2.68658991775664e-04
4.82377049180328e+00 3.35758520276869e-02 2.68119573741459e-04
4.85885245901639e+00 3.33863642063308e-02 2.67574161579586e-04
4.89393442622951e+00 3.31979457738844e-02 2.67022898064819e-04
4.92901639344262e+00 3.30105906947860e-02 2.66465923338778e-04
4.96409836065574e+00 3.28242929679232e-02 2.65903374560540e-04
4.99918032786885e+00 3.26390466264224e-02 2.65335386770887e-04
5.03426229508197e+00 3.24548457363414e-02 2.64762092545322e-04
5.06934426229508e+00 3.22716843975992e-02 2.64183621779463e-04
5.10442622950820e+00 3.20895567434125e-02 2.63600102014555e-04
5.13950819672131e+00 3.19084569404598e-02 2.63011658734898e-04
5.17459016393443e+00 3.17283791876334e-02 2.62418415162202e-04
5.20967213114754e+00 3.15493177169187e-02 2.61820491921413e-04
5.24475409836066e+00 3.13712667931926e-02 2.61218007844398e-04
5.27983606557377e+00 3.11942207130187e-02 2.60611079638379e-04
5.31491803278688e+00 3.10181738054896e-02 2.59999821678993e-04
5.35000000000000e+00 3.08431204317017e-02 2.59384346309695e-04
5.38508196721311e+00 3.06690549848980e-02 2.58764764115191e-04
5.42016393442623e+00 3.04959718893157e-02 2.58141183723259e-04
5.45524590163934e+00 3.03238656009840e-02 2.57513711601728e-04
5.49032786885246e+00 3.01527306072204e-02 2.56882452345035e-04
5.52540983606557e+00 2.99825614267612e-02 2.56247508936141e-04
5.56049180327869e+00 2.98133526086587e-02 2.55608982552011e-04
5.59557377049180e+00 2.96450987330377e-02 2.54966972253313e-04
5.63065573770492e+00 2.94777944109075e-02 2.54321575706237e-04
5.66573770491803e+00 2.93114342830950e-02 2.53672888874712e-04
5.70081967213115e+00 2.91460130209711e-02 2.53021005825811e-04
5.73590163934426e+00 2.89815253259787e-02 2.52366018995021e-04
5.77098360655738e+00 2.88179659297469e-02 2.51708019428538e-04
5.80606557377049e+00 2.86553295930690e-02 2.51047096597090e-04
5.84114754098361e+00 2.84936111065909e-02 2.50383338100661e-04
5.87622950819672e+00 2.83328052906309e-02 2.49716830343603e-04
5.91131147540984e+00 2.81729069941917e-02 2.49047658242083e-04
5.94639344262295e+00 2.80139110956207e-02 2.48375905038090e-04
5.98147540983607e+00 2.78558125021697e-02 2.47701652545626e-04
6.01655737704918e+00 2.76986061500927e-02 2.47024981375669e-04
6.05163934426229e+00 2.75422870036978e-02 2.46345970758251e-04
6.08672131147541e+00 2.73868500559748e-02 2.45664698360777e-04
6.12180327868852e+00 2.72322903281713e-02 2.44981240524853e-04
6.15688524590164e+00 2.70786028698820e-02 2.44295672482612e-04
6.19196721311475e+00 2.69257827581392e-02 2.43608068182871e-04
6.22704918032787e+00 2.67738250980090e-02 2.42918500018487e-04
6.26213114754098e+00 2.66227250224235e-02 2.42227039437035e-04
6.29721311475410e+00 2.64724776912995e-02 2.41533756670593e-04
6.33229508196721e+00 2.63230782921111e-02 2.40838720562569e-04
6.36737704918033e+00 2.61745220394927e-02 2.40141998788449e-04
6.40245901639344e+00 2.60268041753153e-02 2.39443658057429e-04
6.43754098360656e+00 2.58799199678406e-02 2.38743763946808e-04
6.47262295081967e+00 2.57338647122658e-02 2.38042380643029e-04
6.50770491803279e+00 2.55886337305628e-02 2.37339571515177e-04
6.54278688524590e+00 2.54442223706577e-02 2.36635398858560e-04
6.57786885245902e+00 2.53006260069551e-02 2.35929923729750e-04
6.61295081967213e+00 2.51578400399642e-02 2.35223206152804e-04
6.64803278688525e+00 2.50158598963651e-02 2.34515305307603e-04
6.68311475409836e+00 2.48746810282199e-02 2.33806279372197e-04
6.71819672131148e+00 2.47342989134719e-02 2.33096185277104e-04
6.75327868852459e+00 2.45947090557909e-02 2.32385079244433e-04
6.78836065573770e+00 2.44559069838088e-02 2.31673016544510e-04
6.82344262295082e+00 2.43178882515995e-02 2.30960051339049e-04
6.85852459016393e+00 2.41806484383275e-02 2.30246236874059e-04
6.89360655737705e+00 2.40441831483044e-02 2.29531625656159e-04
6.92868852459016e+00 2.39084880102525e-02 2.28816269302506e-04
6.96377049180328e+00 2.37735586777629e-02 2.28100218387940e-04
6.99885245901639e+00 2.36393908289559e-02 2.27383522631266e-04
7.03393442622951e+00 2.35059801665318e-02 2.26666231065471e-04
7.06901639344262e+00 2.33733224170632e-02 2.25948391891504e-04
7.10409836065574e+00 2.32414133314306e-02 2.25230052251795e-04
7.13918032786885e+00 2.31102486846779e-02 2.24511258721243e-04
7.17426229508197e+00 2.29798242753254e-02 2.23792057082965e-04
7.20934426229508e+00 2.28501359257890e-02 2.23072492182967e-04
7.24442622950820e+00 2.27211794820614e-02 2.22352608104848e-04
7.27950819672131e+00 2.25929508137540e-02 2.21632448329512e-04
7.31459016393443e+00 2.24654458134362e-02 2.20912055596190e-04
7.34967213114754e+00 2.23386603970344e-02 2.20191471687560e-04
7.38475409836066e+00 2.22125905036942e-02 2.19470737892527e-04
7.41983606557377e+00 2.20872320951374e-02 2.18749894793415e-04
7.45491803278689e+00 2.19625811560476e-02 2.18028982127896e-04
7.49000000000000e+00 2.18386336937688e-02 2.17308038953109e-04
7.52508196721312e+00 2.17153857383415e-02 2.16587103795694e-04
7.56016393442623e+00 2.15928333418831e-02 2.15866214519663e-04
7.59524590163934e+00 2.14709725789553e-02 2.15145408191939e-04
7.63032786885246e+00 2.13497995462737e-02 2.14424721241086e-04
7.66540983606557e+00 2.12293103627390e-02 2.13704189602480e-04
7.70049180327869e+00 2.11095011688405e-02 2.12983848589581e-04
7.73557377049180e+00 2.09903681270067e-02 2.12263732695953e-04
7.77065573770492e+00 2.08719074214757e-02 2.11543876018118e-04
7.80573770491803e+00 2.07541152577153e-02 2.10824312059433e-04
7.84081967213115e+00 2.06369878627610e-02 2.10105073602376e-04
7.87590163934426e+00 2.05205214849412e-02 2.09386192857901e-04
7.91098360655738e+00 2.04047123939031e-02 2.08667701601979e-04
7.94606557377049e+00 2.02895568800537e-02 2.07949631053348e-04
7.98114754098361e+00 2.01750512548820e-02 2.07232011685663e-04
8.01622950819672e+00 2.00611918508349e-02 2.06514873626788e-04
8.05131147540984e+00 1.99479750207736e-02 2.05798246472683e-04
8.08639344262295e+00 1.98353971382849e-02 2.05082159166127e-04
8.12147540983607e+00 1.97234545974209e-02 2.04366640137343e-04
8.15655737704918e+00 1.96121438127207e-02 2.03651717432628e-04
8.19163934426230e+00 1.95014612186850e-02 2.02937418598243e-04
8.22672131147541e+00 1.93914032700736e-02 2.02223770562285e-04
8.26180327868853e+00 1.92819664416542e-02 2.01510799770946e-04
8.29688524590164e+00 1.91731472282202e-02 2.00798532313109e-04
8.33196721311475e+00 1.90649421440843e-02 2.00086993807232e-04
8.36704918032787e+00 1.89573477233626e-02 1.99376209228179e-04
8.40213114754098e+00 1.88503605198582e-02 1.98666203273015e-04
8.43721311475410e+00 1.87439771065683e-02 1.97957000189442e-04
8.47229508196721e+00 1.86381940759584e-02 1.97248623663595e-04
8.50737704918033e+00 1.85330080397249e-02 1.96541096948532e-04
8.54245901639344e+00 1.84284156288081e-02 1.95834442981752e-04
8.57754098360656e+00 1.83244134929170e-02 1.95128684277776e-04
8.61262295081967e+00 1.82209983007911e-02 1.94423842763710e-04
8.64770491803279e+00 1.81181667400885e-02 1.93719940125211e-04
8.68278688524590e+00 1.80159155169230e-02 1.93016997643658e-04
8.71786885245902e+00 1.79142413561172e-02 1.92315036089560e-04
8.75295081967213e+00 1.78131410009772e-02 1.91614075843802e-04
8.78803278688525e+00 1.77126112133026e-02 1.90914137008602e-04
8.82311475409836e+00 1.76126487729390e-02 1.90215239305408e-04
8.85819672131148e+00 1.75132504780202e-02 1.89517401918821e-04
8.89327868852459e+00 1.74144131448605e-02 1.88820643824036e-04
8.92836065573771e+00 1.73161336075195e-02 1.88124983632094e-04
8.96344262295082e+00 1.72184087180357e-02 1.87430439488714e-04
8.99852459016393e+00 1.71212353462128e-02 1.86737029188800e-04
9.03360655737705e+00 1.70246103796270e-02 1.86044770281210e-04
9.06868852459016e+00 1.69285307232057e-02 1.85353679971770e-04
9.10377049180328e+00 1.68329932994509e-02 1.84663775024737e-04
9.13885245901639e+00 1.67379950482327e-02 1.83975071873871e-04
9.17393442622951e+00 1.66435329267937e-02 1.83287586724006e-04
9.20901639344262e+00 1.65496039093428e-02 1.82601335456695e-04
9.24409836065574e+00 1.64562049872683e-02 1.81916333486144e-04
9.27918032786885e+00 1.63633331690377e-02 1.81232596060007e-04
9.31426229508197e+00 1.62709854798012e-02 1.80550138116669e-04
9.34934426229508e+00 1.61791589615983e-02 1.79868974191598e-04
9.38442622950820e+00 1.60878506731620e-02 1.79189118522353e-04
9.41950819672131e+00 1.59970576899203e-02 1.78510585144674e-04
9.45459016393443e+00 1.59067771036139e-02 1.77833387802751e-04
9.48967213114754e+00 1.58170060224928e-02 1.77157539812386e-04
9.52475409836066e+00 1.57277415712203e-02 1.76483054345998e-04
9.55983606557377e+00 1.56389808904996e-02 1.75809944297016e-04
9.59491803278689e+00 1.55507211372646e-02 1.75138222190910e-04
9.63000000000000e+00 1.54629594844941e-02 1.74467900284503e-04
9.66508196721311e+00 1.53756931212113e-02 1.73798990656881e-04
9.70016393442623e+00 1.52889192521231e-02 1.73131505124115e-04
9.73524590163934e+00 1.52026350978020e-02 1.72465455152622e-04
9.77032786885246e+00 1.51168378945069e-02 1.71800851955542e-04
9.80540983606557e+00 1.50315248941804e-02 1.71137706581001e-04
9.84049180327869e+00 1.49466933641002e-02 1.70476029829053e-04
9.87557377049180e+00 1.48623405870532e-02 1.69815832125318e-04
9.91065573770492e+00 1.47784638612459e-02 1.69157123783302e-04
9.94573770491803e+00 1.46950604999632e-02 1.68499914879132e-04
9.98081967213115e+00 1.46121278317374e-02 1.67844215169186e-04
1.00159016393443e+01 1.45296632001777e-02 1.67190034099853e-04
1.00509836065574e+01 1.44476639641277e-02 1.66537381258405e-04
1.00860655737705e+01 1.43661274966075e-02 1.65886265884416e-04
1.01211475409836e+01 1.42850511859522e-02 1.65236696223663e-04
1.01562295081967e+01 1.42044324360276e-02 1.64588681360378e-04
1.01913114754098e+01 1.41242686637637e-02 1.63942230165329e-04
1.02263934426230e+01 1.40445573014637e-02 1.63297350091430e-04
1.02614754098361e+01 1.39652957966923e-02 1.62654049580346e-04
1.02965573770492e+01 1.38864816098743e-02 1.62012336869565e-04
1.03316393442623e+01 1.38081122165409e-02 1.61372218814326e-04
1.03667213114754e+01 1.37301851072202e-02 1.60733703241217e-04
1.04018032786885e+01 1.36526977850995e-02 1.60096797781534e-04
1.04368852459016e+01 1.35756477682102e-02 1.59461508718895e-04
1.04719672131148e+01 1.34990325893207e-02 1.58827843291117e-04
1.05070491803279e+01 1.34228497936606e-02 1.58195808549256e-04
1.05421311475410e+01 1.33470969410460e-02 1.57565410230266e-04
1.05772131147541e+01 1.32717716057747e-02 1.56936655008394e-04
1.06122950819672e+01 1.31968713744106e-02 1.56309549379273e-04
1.06473770491803e+01 1.31223938478511e-02 1.55684098557099e-04
1.06824590163934e+01 1.30483366412245e-02 1.55060308676721e-04
1.07175409836066e+01 1.29746973817326e-02 1.54438185702173e-04
1.07526229508197e+01 1.29014737106627e-02 1.53817734347739e-04
1.07877049180328e+01 1.28286632832863e-02 1.53198960232029e-04
1.08227868852459e+01 1.27562637667590e-02 1.52581868810283e-04
1.08578688524590e+01 1.26842728420778e-02 1.51966464318832e-04
1.08929508196721e+01 1.26126882039820e-02 1.51352751882289e-04
1.09280327868852e+01 1.25415075589079e-02 1.50740736468926e-04
1.09631147540984e+01 1.24707286268937e-02 1.50130421858122e-04
1.09981967213115e+01 1.24003491414822e-02 1.49521812701792e-04
1.10332786885246e+01 1.23303668477291e-02 1.48914913502201e-04
1.10683606557377e+01 1.22607795040565e-02 1.48309727601925e-04
