Energy (eV)          EEDF (eV^-(3/2))     First Anisotropy
3.22580645161290e-03 6.14742379801038e-01 1.04300491971995e-07
9.67741935483871e-03 6.14742256552541e-01 3.34773503860709e-07
1.61290322580645e-02 6.14741921895367e-01 8.22143030672937e-07
2.25806451612903e-02 6.14741383536444e-01 1.38372460514644e-06
2.90322580645161e-02 6.14740677251629e-01 1.97524126524196e-06
3.54838709677419e-02 6.14739813070634e-01 2.60566864661442e-06
4.19354838709677e-02 6.14738799091407e-01 3.29643888466918e-06
4.83870967741935e-02 6.14737622386180e-01 4.06927609966022e-06
5.48387096774194e-02 6.14736275529809e-01 4.89827236953572e-06
6.12903225806452e-02 6.14734762310931e-01 5.78690200412868e-06
6.77419354838710e-02 6.14733072012622e-01 6.75481184709328e-06
7.41935483870968e-02 6.14731197198457e-01 7.76254001416360e-06
8.06451612903226e-02 6.14729148530718e-01 8.81084529306965e-06
8.70967741935484e-02 6.14726916705041e-01 9.93843237498872e-06
9.35483870967742e-02 6.14724492578794e-01 1.11465365509838e-05
1.00000000000000e-01 6.14721867169752e-01 1.24073281605882e-05
1.06451612903226e-01 6.14719044775655e-01 1.36823407883257e-05
1.12903225806452e-01 6.14716033041246e-01 1.49862354496553e-05
1.19354838709677e-01 6.14712828258066e-01 1.63440399843824e-05
1.25806451612903e-01 6.14709426599806e-01 1.77562734098090e-05
1.32258064516129e-01 6.14705824138663e-01 1.92234457491127e-05
1.38709677419355e-01 6.14702016857384e-01 2.07460626590386e-05
1.45161290322581e-01 6.14698000658201e-01 2.23246287063977e-05
1.51612903225806e-01 6.14693771369508e-01 2.39596496819117e-05
1.58064516129032e-01 6.14689324750859e-01 2.56516342083496e-05
1.64516129032258e-01 6.14684656496729e-01 2.74010948384908e-05
1.70967741935484e-01 6.14679762239346e-01 2.92085485046693e-05
1.77419354838710e-01 6.14674637550903e-01 3.10744844428100e-05
1.83870967741935e-01 6.14669277956203e-01 3.29989787088696e-05
1.90322580645161e-01 6.14663679061749e-01 3.49807205173649e-05
1.96774193548387e-01 6.14657836876561e-01 3.70167362668052e-05
2.03225806451613e-01 6.14651747995607e-01 3.89719736603590e-05
2.09677419354839e-01 6.14645454093492e-01 4.08342732153467e-05
2.16129032258065e-01 6.14638954220941e-01 4.27257700814206e-05
2.22580645161290e-01 6.14632247907858e-01 4.46444889052130e-05
2.29032258064516e-01 6.14625334674777e-01 4.65900213238332e-05
2.35483870967742e-01 6.14618214030742e-01 4.85619932789477e-05
2.41935483870968e-01 6.14610885471519e-01 5.05600623488321e-05
2.48387096774194e-01 6.14603348478087e-01 5.25839153523197e-05
2.54838709677419e-01 6.14595602515357e-01 5.46332661870529e-05
2.61290322580645e-01 6.14587647031097e-01 5.67078538741418e-05
2.67741935483871e-01 6.14579481455021e-01 5.88074407616364e-05
2.74193548387097e-01 6.14571105198026e-01 6.09318059705789e-05
2.80645161290323e-01 6.14562517652941e-01 6.30806773622360e-05
2.87096774193548e-01 6.14553718212390e-01 6.52535046727641e-05
2.93548387096774e-01 6.14544706330751e-01 6.74492521610915e-05
3.00000000000000e-01 6.14535481594027e-01 6.97021472136469e-05
3.06451612903226e-01 6.14526035417230e-01 7.22030861733361e-05
3.12903225806452e-01 6.14516318263770e-01 7.52168073879872e-05
3.19354838709677e-01 6.14506252391675e-01 7.88228472541335e-05
3.25806451612903e-01 6.14495769588928e-01 8.29650803056377e-05
3.32258064516129e-01 6.14484810228771e-01 8.75915918861222e-05
3.38709677419355e-01 6.14473322424974e-01 9.26543268803789e-05
3.45161290322581e-01 6.14461261275399e-01 9.81087716386093e-05
3.51612903225806e-01 6.14448588183691e-01 1.03913665325177e-04
3.58064516129032e-01 6.14435270250269e-01 1.10030737482905e-04
3.64516129032258e-01 6.14421279724893e-01 1.16424469040563e-04
3.70967741935484e-01 6.14406593514065e-01 1.23061874241575e-04
3.77419354838710e-01 6.14391192737330e-01 1.29912295981283e-04
3.83870967741935e-01 6.14375062328609e-01 1.36947159661398e-04
3.90322580645161e-01 6.14358190690847e-01 1.44139650365287e-04
3.96774193548387e-01 6.14340569408505e-01 1.51464538085910e-04
4.03225806451613e-01 6.14322192971145e-01 1.58865873251603e-04
4.09677419354839e-01 6.14303072221216e-01 1.66682125137102e-04
4.16129032258065e-01 6.14283122876523e-01 1.75260912203217e-04
4.22580645161290e-01 6.14262270406099e-01 1.84531822147862e-04
4.29032258064516e-01 6.14240449727154e-01 1.94427196338045e-04
4.35483870967742e-01 6.14217604314397e-01 2.04884592167549e-04
4.41935483870968e-01 6.14193685388011e-01 2.15846418004886e-04
4.48387096774194e-01 6.14168651172898e-01 2.27259596029362e-04
4.54838709677419e-01 6.14142466222522e-01 2.39075250543028e-04
4.61290322580645e-01 6.14115100801410e-01 2.51248419641471e-04
4.67741935483871e-01 6.14086530320938e-01 2.63737788339187e-04
4.74193548387097e-01 6.14056734823543e-01 2.76505439878502e-04
4.80645161290323e-01 6.14025698511375e-01 2.89516606770050e-04
4.87096774193548e-01 6.13993409319181e-01 3.02739390109820e-04
4.93548387096774e-01 6.13959858534760e-01 3.16144510402556e-04
5.00000000000000e-01 6.13925040452447e-01 3.29589602393954e-04
5.06451612903226e-01 6.13888979232572e-01 3.42965157777852e-04
5.12903225806452e-01 6.13851694728251e-01 3.56422953402752e-04
5.19354838709677e-01 6.13813175932661e-01 3.70076869194301e-04
5.25806451612903e-01 6.13773415907534e-01 3.83890205717607e-04
5.32258064516129e-01 6.13732411400742e-01 3.97829000190824e-04
5.38709677419355e-01 6.13690162493008e-01 4.11861864805757e-04
5.45161290322581e-01 6.13646672271474e-01 4.25959835132907e-04
5.51612903225806e-01 6.13601946528027e-01 4.40096227762668e-04
5.58064516129032e-01 6.13555993480509e-01 4.54246506554140e-04
5.64516129032258e-01 6.13508823515046e-01 4.68388156891246e-04
5.70967741935484e-01 6.13460448947920e-01 4.82500567348324e-04
5.77419354838710e-01 6.13410883805518e-01 4.96564915690649e-04
5.83870967741935e-01 6.13360143621574e-01 5.10564036604140e-04
5.90322580645161e-01 6.13308245255067e-01 5.24482264809965e-04
5.96774193548387e-01 6.13255206729081e-01 5.38305353218020e-04
6.03225806451613e-01 6.13201047072814e-01 5.52559822419558e-04
6.09677419354839e-01 6.13145679260592e-01 5.68748421306546e-04
6.16129032258064e-01 6.13088826583119e-01 5.88190782310565e-04
6.22580645161290e-01 6.13030147583856e-01 6.11075182804113e-04
6.29032258064516e-01 6.12969336838418e-01 6.37088831018191e-04
6.35483870967742e-01 6.12906122121162e-01 6.65940248775809e-04
6.41935483870968e-01 6.12840261786527e-01 6.97357860392289e-04
6.48387096774194e-01 6.12771542348658e-01 7.31088674843119e-04
6.54838709677419e-01 6.12699776244227e-01 7.66897054290099e-04
6.61290322580645e-01 6.12624799764584e-01 8.04563562953373e-04
6.67741935483871e-01 6.12546471144491e-01 8.43883890831282e-04
6.74193548387097e-01 6.12464668795657e-01 8.84667846360182e-04
6.80645161290323e-01 6.12379289674407e-01 9.26738404869624e-04
6.87096774193548e-01 6.12290247775160e-01 9.69930790311973e-04
6.93548387096774e-01 6.12197472744241e-01 1.01409163475946e-03
7.00000000000000e-01 6.12100908597018e-01 1.06002732588351e-03
7.06451612903226e-01 6.12000338231376e-01 1.11021470004753e-03
7.12903225806452e-01 6.11895252195374e-01 1.16678953207214e-03
7.19354838709677e-01 6.11785045557440e-01 1.22998628350675e-03
7.25806451612903e-01 6.11669176001681e-01 1.29921274394586e-03
7.32258064516129e-01 6.11547159634560e-01 1.37391040845179e-03
7.38709677419355e-01 6.11418567054882e-01 1.45355266741991e-03
7.45161290322581e-01 6.11283019670880e-01 1.53764308754099e-03
7.51612903225806e-01 6.11140186249383e-01 1.62571377819916e-03
7.58064516129032e-01 6.10989779682998e-01 1.71732383866663e-03
7.64516129032258e-01 6.10831553962182e-01 1.81205788184912e-03
7.70967741935484e-01 6.10665301339861e-01 1.90952463046732e-03
7.77419354838710e-01 6.10490849677098e-01 2.00935557935864e-03
7.83870967741935e-01 6.10308059959483e-01 2.11120370166603e-03
7.90322580645161e-01 6.10116823977754e-01 2.21474219381417e-03
7.96774193548387e-01 6.09917062163718e-01 2.31966337093071e-03
8.03225806451613e-01 6.09708721553364e-01 2.42493137781427e-03
8.09677419354839e-01 6.09491904727602e-01 2.52873181289916e-03
8.16129032258065e-01 6.09266874422984e-01 2.63000905195501e-03
8.22580645161290e-01 6.09033912540075e-01 2.72865144818486e-03
8.29032258064516e-01 6.08793294953435e-01 2.82469226007601e-03
8.35483870967742e-01 6.08545291528645e-01 2.91816589678576e-03
8.41935483870968e-01 6.08290166132461e-01 3.00910796774456e-03
8.48387096774194e-01 6.08028176637522e-01 3.09755531913049e-03
8.54838709677419e-01 6.07759574922764e-01 3.18354605900340e-03
8.61290322580645e-01 6.07484606870596e-01 3.26711957253154e-03
8.67741935483871e-01 6.07203512361704e-01 3.34831652869320e-03
8.74193548387097e-01 6.06916525268233e-01 3.42717887883290e-03
8.80645161290323e-01 6.06623873446155e-01 3.50374983994190e-03
8.87096774193548e-01 6.06325778728881e-01 3.57807385354324e-03
8.93548387096774e-01 6.06022456924593e-01 3.65019656917669e-03
9.00000000000000e-01 6.05714117809845e-01 3.72012384513952e-03
9.06451612903226e-01 6.05400971973551e-01 3.78864373143855e-03
9.12903225806452e-01 6.05083093796570e-01 3.85735407628277e-03
9.19354838709677e-01 6.04760425655151e-01 3.92699975005342e-03
9.25806451612903e-01 6.04432918154616e-01 3.99748722823986e-03
9.32258064516129e-01 6.04100529762109e-01 4.06872624154189e-03
9.38709677419355e-01 6.03763226445153e-01 4.14062978064471e-03
9.45161290322581e-01 6.03420981316389e-01 4.21311409379663e-03
9.51612903225806e-01 6.03073774284913e-01 4.28609867702112e-03
9.58064516129032e-01 6.02721591714586e-01 4.35950625733982e-03
9.64516129032258e-01 6.02364426089673e-01 4.43326276953388e-03
9.70967741935484e-01 6.02002275688105e-01 4.50729732649805e-03
9.77419354838710e-01 6.01635144262698e-01 4.58154217643481e-03
9.83870967741935e-01 6.01263040731910e-01 4.65593260574738e-03
9.90322580645161e-01 6.00885978887948e-01 4.73040679430260e-03
9.96774193548387e-01 6.00503977122037e-01 4.80490591402568e-03
1.00322580645161e+00 6.00117058120354e-01 4.88402944054287e-03
1.00967741935484e+00 5.99724464962097e-01 4.97752822510276e-03
1.01612903225806e+00 5.99324671302744e-01 5.09326571993649e-03
1.02258064516129e+00 5.98915728538536e-01 5.23324918855569e-03
1.02903225806452e+00 5.98495818509741e-01 5.39603187260406e-03
1.03548387096774e+00 5.98063249168604e-01 5.58020384921994e-03
1.04193548387097e+00 5.97616450272801e-01 5.78439262135585e-03
1.04838709677419e+00 5.97153969102269e-01 6.00726370965584e-03
1.05483870967742e+00 5.96674466198417e-01 6.24752123485443e-03
1.06129032258065e+00 5.96176711125429e-01 6.50390848330213e-03
1.06774193548387e+00 5.95659578253908e-01 6.77520844942783e-03
1.07419354838710e+00 5.95122042567583e-01 7.06024434979655e-03
1.08064516129032e+00 5.94563175494198e-01 7.35788010414378e-03
1.08709677419355e+00 5.93982140762046e-01 7.66702077857766e-03
1.09354838709677e+00 5.93378190284014e-01 7.98661298387335e-03
1.10000000000000e+00 5.92750660071691e-01 8.31825454254858e-03
1.10645161290323e+00 5.92098495540246e-01 8.66440476342405e-03
1.11290322580645e+00 5.91420584583734e-01 9.02304663647147e-03
1.11935483870968e+00 5.90716250874892e-01 9.39142014240175e-03
1.12580645161290e+00 5.89984882415372e-01 9.76873919270793e-03
1.13225806451613e+00 5.89225928958737e-01 1.01542440951120e-02
1.13870967741935e+00 5.88438899467673e-01 1.05472015269828e-02
1.14516129032258e+00 5.87623359608585e-01 1.09469044576190e-02
1.15161290322581e+00 5.86778929286157e-01 1.13526720247684e-02
1.15806451612903e+00 5.85905280220176e-01 1.17638493693017e-02
1.16451612903226e+00 5.85002133566605e-01 1.21798074315617e-02
1.17096774193548e+00 5.84069257584629e-01 1.25999427127374e-02
1.17741935483871e+00 5.83106465351156e-01 1.30236770045150e-02
1.18387096774194e+00 5.82113612524016e-01 1.34504570899253e-02
1.19032258064516e+00 5.81090595154888e-01 1.38797544138954e-02
1.19677419354839e+00 5.80037347553431e-01 1.43110647116506e-02
1.20322580645161e+00 5.78953840205440e-01 1.47561424915833e-02
1.20967741935484e+00 5.77837885886331e-01 1.52156919165398e-02
1.21612903225806e+00 5.76689324403020e-01 1.56774467985476e-02
1.22258064516129e+00 5.75508155468057e-01 1.61402825990081e-02
1.22903225806452e+00 5.74294384184124e-01 1.66041018695770e-02
1.23548387096774e+00 5.73048022417324e-01 1.70687887629213e-02
1.24193548387097e+00 5.71769090097268e-01 1.75342098840670e-02
1.24838709677419e+00 5.70457616446524e-01 1.80002151212867e-02
1.25483870967742e+00 5.69113641141592e-01 1.84666384586669e-02
1.26129032258065e+00 5.67737215407554e-01 1.89332987700376e-02
1.26774193548387e+00 5.66328403048544e-01 1.94000005935626e-02
1.27419354838710e+00 5.64887281416192e-01 1.98665348862796e-02
1.28064516129032e+00 5.63413942318220e-01 2.03326797578993e-02
1.28709677419355e+00 5.61908492869365e-01 2.07982011834779e-02
1.29354838709677e+00 5.60371056286780e-01 2.12628536952996e-02
1.30000000000000e+00 5.58801772631978e-01 2.17255628139961e-02
1.30645161290323e+00 5.57201009335797e-01 2.21874746450700e-02
1.31290322580645e+00 5.55568833998981e-01 2.26537117241293e-02
1.31935483870968e+00 5.53904783064319e-01 2.31271277100864e-02
1.32580645161290e+00 5.52208419321354e-01 2.36073630923003e-02
1.33225806451613e+00 5.50479333351944e-01 2.40940376470743e-02
1.33870967741935e+00 5.48717144748603e-01 2.45867534681529e-02
1.34516129032258e+00 5.46921503109494e-01 2.50850979643772e-02
1.35161290322581e+00 5.45092088814911e-01 2.55886468122219e-02
1.35806451612903e+00 5.43228613590717e-01 2.60969668544645e-02
1.36451612903226e+00 5.41330820864648e-01 2.66096189376387e-02
1.37096774193548e+00 5.39398485921794e-01 2.71261606817676e-02
1.37741935483871e+00 5.37431415865922e-01 2.76461491767710e-02
1.38387096774194e+00 5.35429449393541e-01 2.81691436008192e-02
1.39032258064516e+00 5.33392456387847e-01 2.86947077567325e-02
1.39677419354839e+00 5.31320337339819e-01 2.92224125230485e-02
1.40322580645161e+00 5.29213022603879e-01 2.97521862156541e-02
1.40967741935484e+00 5.27070421806264e-01 3.02843374743325e-02
1.41612903225806e+00 5.24892420118268e-01 3.08188621629727e-02
1.42258064516129e+00 5.22678926757397e-01 3.13553915761498e-02
1.42903225806452e+00 5.20429878397276e-01 3.18935322828068e-02
1.43548387096774e+00 5.18145239028824e-01 3.24328916140164e-02
1.44193548387097e+00 5.15824999736627e-01 3.29730788563364e-02
1.44838709677419e+00 5.13469178397934e-01 3.35137063501482e-02
1.45483870967742e+00 5.11077819311342e-01 3.40543904974857e-02
1.46129032258065e+00 5.08650992761802e-01 3.45947526838235e-02
1.46774193548387e+00 5.06188794528241e-01 3.51344201181137e-02
1.47419354838710e+00 5.03691345339717e-01 3.56730265952504e-02
1.48064516129032e+00 5.01158790285668e-01 3.62102131848856e-02
1.48709677419355e+00 4.98591298185544e-01 3.67456288479101e-02
1.49354838709677e+00 4.95989060923084e-01 3.72789309743024e-02
1.50000000000000e+00 4.93352292751306e-01 3.78145443257386e-02
1.50645161290323e+00 4.90680246797585e-01 3.83560818026072e-02
1.51290322580645e+00 4.87972297099042e-01 3.88968288816754e-02
1.51935483870968e+00 4.85228935005342e-01 3.94312903126688e-02
1.52580645161290e+00 4.82450616754615e-01 3.99599125827850e-02
1.53225806451613e+00 4.79637767301240e-01 4.04830905860300e-02
1.53870967741935e+00 4.76790783980832e-01 4.10011696723661e-02
1.54516129032258e+00 4.73910040015386e-01 4.15144476780795e-02
1.55161290322581e+00 4.70995887860861e-01 4.20231769418174e-02
1.55806451612903e+00 4.68048662399426e-01 4.25275663047718e-02
1.56451612903226e+00 4.65068683978759e-01 4.30277830921825e-02
1.57096774193548e+00 4.62056261300932e-01 4.35239550732997e-02
1.57741935483871e+00 4.59011694163561e-01 4.40161723969619e-02
1.58387096774194e+00 4.55935276056059e-01 4.45044894989705e-02
1.59032258064516e+00 4.52827296614108e-01 4.49889269586763e-02
1.59677419354839e+00 4.49688043938229e-01 4.54694732337680e-02
1.60322580645161e+00 4.46517806789313e-01 4.59870221645200e-02
1.60967741935484e+00 4.43309669080717e-01 4.65567164963782e-02
1.61612903225806e+00 4.40061773695232e-01 4.71571316408515e-02
1.62258064516129e+00 4.36771691805716e-01 4.77915288038518e-02
1.62903225806452e+00 4.33437115124405e-01 4.84581619968197e-02
1.63548387096774e+00 4.30055857724124e-01 4.91552598631762e-02
1.64193548387097e+00 4.26625857333235e-01 4.98810334205623e-02
1.64838709677419e+00 4.23145176106422e-01 5.06336837688210e-02
1.65483870967742e+00 4.19612000874922e-01 5.14114097386850e-02
1.66129032258065e+00 4.16024642881590e-01 5.22124154559683e-02
1.66774193548387e+00 4.12381537007698e-01 5.30349177986772e-02
1.67419354838710e+00 4.08681240499772e-01 5.38771537266141e-02
1.68064516129032e+00 4.04922431206031e-01 5.47373874647488e-02
1.68709677419355e+00 4.01103905333135e-01 5.56139175132964e-02
1.69354838709677e+00 3.97224574736369e-01 5.65050834318077e-02
1.70000000000000e+00 3.93283463761099e-01 5.74295897666964e-02
1.70645161290323e+00 3.89275937584643e-01 5.83905045774983e-02
1.71290322580645e+00 3.85199574404148e-01 5.93355341406603e-02
1.71935483870968e+00 3.81057868309214e-01 6.02294164668382e-02
1.72580645161290e+00 3.76854239901012e-01 6.10732683428175e-02
1.73225806451613e+00 3.72592034981108e-01 6.18682249472469e-02
1.73870967741935e+00 3.68274523404180e-01 6.26154373256100e-02
1.74516129032258e+00 3.63904898094192e-01 6.33160699166112e-02
1.75161290322581e+00 3.59486274218288e-01 6.39712981759880e-02
1.75806451612903e+00 3.55021688511619e-01 6.45823063053992e-02
1.76451612903226e+00 3.50514098746320e-01 6.51502850856831e-02
1.77096774193548e+00 3.45966383337942e-01 6.56764298132388e-02
1.77741935483871e+00 3.41381341082723e-01 6.61619383381230e-02
1.78387096774194e+00 3.36761691019196e-01 6.66080091928611e-02
1.79032258064516e+00 3.32110072409040e-01 6.70158396330908e-02
1.79677419354839e+00 3.27429044855575e-01 6.73866230274954e-02
1.80322580645161e+00 3.22721088633260e-01 6.80004026121693e-02
1.80967741935484e+00 3.17933882076681e-01 6.88409571230191e-02
1.81612903225806e+00 3.13071527344970e-01 6.96166253887579e-02
1.82258064516129e+00 3.08138082050165e-01 7.03283692016539e-02
1.82903225806452e+00 3.03137615768715e-01 7.09768036845417e-02
1.83548387096774e+00 2.98074200988468e-01 7.15626630079451e-02
1.84193548387097e+00 2.92951904257680e-01 7.20867951363159e-02
1.84838709677419e+00 2.87774777548593e-01 7.25501565873413e-02
1.85483870967742e+00 2.82546849836854e-01 7.29538072879114e-02
1.86129032258065e+00 2.77272118897405e-01 7.32989055307060e-02
1.86774193548387e+00 2.71954543317257e-01 7.35867030326831e-02
1.87419354838710e+00 2.66598034725341e-01 7.38185400973794e-02
1.88064516129032e+00 2.61206450239324e-01 7.39958408846087e-02
1.88709677419355e+00 2.55783585128726e-01 7.41201088127942e-02
1.89354838709677e+00 2.50333165690245e-01 7.41929221946155e-02
1.90000000000000e+00 2.44858842319400e-01 7.41883216367432e-02
1.90645161290323e+00 2.39369498500524e-01 7.40661702971272e-02
1.91290322580645e+00 2.33876094400702e-01 7.38265621194411e-02
1.91935483870968e+00 2.28386435737305e-01 7.34843453982439e-02
1.92580645161290e+00 2.22908203453163e-01 7.30423033262148e-02
1.93225806451613e+00 2.17448937571149e-01 7.25033931234338e-02
1.93870967741935e+00 2.12016022250712e-01 7.18707267710613e-02
1.94516129032258e+00 2.06616672091751e-01 7.11475515285560e-02
1.95161290322581e+00 2.01257919728164e-01 7.03372302954167e-02
1.95806451612903e+00 1.95946604748311e-01 6.94432218941805e-02
1.96451612903226e+00 1.90689363973927e-01 6.84690613524490e-02
1.97096774193548e+00 1.85492623123470e-01 6.74183402561182e-02
1.97741935483871e+00 1.80362589880800e-01 6.62946872268603e-02
1.98387096774194e+00 1.75305248388522e-01 6.51017485169800e-02
1.99032258064516e+00 1.70326355194381e-01 6.38431688627562e-02
1.99677419354839e+00 1.65431436640922e-01 6.25225731859884e-02
2.00322580645161e+00 1.60625787583135e-01 6.11414902239090e-02
2.00967741935484e+00 1.55916827759909e-01 5.97360956633875e-02
2.01612903225806e+00 1.51304156418305e-01 5.83415888136941e-02
2.02258064516129e+00 1.46787638427273e-01 5.69567799204999e-02
2.02903225806452e+00 1.42367049017771e-01 5.55827231468094e-02
2.03548387096774e+00 1.38042077954024e-01 5.42204080609698e-02
