Energy (eV)          EEDF (eV^-(3/2))     First Anisotropy
4.51515151515152e-03 1.39829363664474e+00 8.98566528842135e-04
1.35454545454545e-02 1.38375034668348e+00 1.48105149405669e-03
2.25757575757576e-02 1.36935831766342e+00 1.94791777475540e-03
3.16060606060606e-02 1.35511597645355e+00 2.29822552609222e-03
4.06363636363636e-02 1.34102176615881e+00 2.58678900959954e-03
4.96666666666667e-02 1.32707414607116e+00 2.83444233960441e-03
5.86969696969697e-02 1.31327159157958e+00 3.05202131860068e-03
6.77272727272727e-02 1.29961259388986e+00 3.24610137121207e-03
7.67575757575758e-02 1.28609565990220e+00 3.42106442756888e-03
8.57878787878788e-02 1.27271931203237e+00 3.58002227572683e-03
9.48181818181818e-02 1.25948208809744e+00 3.72528925688715e-03
1.03848484848485e-01 1.24638254110384e+00 3.85864836664679e-03
1.12878787878788e-01 1.23341923914135e+00 3.98151199792912e-03
1.21909090909091e-01 1.22059076512488e+00 4.09502447764617e-03
1.30939393939394e-01 1.20789571674388e+00 4.20013039299709e-03
1.39969696969697e-01 1.19533270627284e+00 4.29762179118803e-03
1.49000000000000e-01 1.18290036041965e+00 4.38817176476533e-03
1.58030303030303e-01 1.17059732009806e+00 4.47235894092230e-03
1.67060606060606e-01 1.15842224051735e+00 4.55068577898011e-03
1.76090909090909e-01 1.14637379079042e+00 4.62359248449537e-03
1.85121212121212e-01 1.13445065387246e+00 4.69146773388449e-03
1.94151515151515e-01 1.12265152641697e+00 4.75465711246639e-03
2.03181818181818e-01 1.11097511863329e+00 4.81346981685358e-03
2.12212121212121e-01 1.09942015414558e+00 4.86818404674916e-03
2.21242424242424e-01 1.08798536985331e+00 4.91905138908691e-03
2.30272727272727e-01 1.07666951579314e+00 4.96630041764248e-03
2.39303030303030e-01 1.06547135500232e+00 5.01013967481954e-03
2.48333333333333e-01 1.05438966338347e+00 5.05076016179170e-03
2.57363636363636e-01 1.04342322957071e+00 5.08833743365463e-03
2.66393939393939e-01 1.03257085479732e+00 5.12303337443339e-03
2.75424242424242e-01 1.02183135276464e+00 5.15499771049099e-03
2.84454545454545e-01 1.01120354951240e+00 5.18436930856317e-03
2.93484848484849e-01 1.00068628329042e+00 5.21127729522885e-03
3.02515151515152e-01 9.90278404431568e-01 5.23584202737248e-03
3.11545454545455e-01 9.79978775226094e-01 5.25817593751753e-03
3.20575757575758e-01 9.69786269797310e-01 5.27838427352526e-03
3.29606060606061e-01 9.59699773978494e-01 5.29656574861738e-03
3.38636363636364e-01 9.49718185191086e-01 5.31281311485686e-03
3.47666666666667e-01 9.39840412324168e-01 5.32721367103440e-03
3.56696969696970e-01 9.30065375615187e-01 5.33984971406346e-03
3.65727272727273e-01 9.20392006531924e-01 5.35079894152310e-03
3.74757575757576e-01 9.10819247655692e-01 5.36013481178708e-03
3.83787878787879e-01 9.01346052565745e-01 5.36792686718651e-03
3.92818181818182e-01 8.91971385724889e-01 5.37424102483737e-03
4.01848484848485e-01 8.82694222366291e-01 5.37913983908941e-03
4.10878787878788e-01 8.73513548381451e-01 5.38268273898603e-03
4.19909090909091e-01 8.64428360209354e-01 5.38492624364873e-03
4.28939393939394e-01 8.55437664726763e-01 5.38592415810613e-03
4.37969696969697e-01 8.46540479139661e-01 5.38572775174895e-03
4.47000000000000e-01 8.37735830875822e-01 5.38438592406305e-03
4.56030303030303e-01 8.29022757459869e-01 5.38194534541938e-03
4.65060606060606e-01 8.20400306464697e-01 5.37845059948139e-03
4.74090909090909e-01 8.11867535349932e-01 5.37394431455478e-03
4.83121212121212e-01 8.03423511378324e-01 5.36846727062009e-03
4.92151515151515e-01 7.95067311513783e-01 5.36205850889380e-03
5.01181818181818e-01 7.86798022320480e-01 5.35475543033753e-03
5.10212121212121e-01 7.78614739862997e-01 5.34659388679360e-03
5.19242424242424e-01 7.70516569607519e-01 5.33760826543482e-03
5.28272727272727e-01 7.62502626324044e-01 5.32783156713490e-03
5.37303030303030e-01 7.54572033989622e-01 5.31729547930459e-03
5.46333333333333e-01 7.46723925692592e-01 5.30603044368006e-03
5.55363636363636e-01 7.38957443537819e-01 5.29406571949830e-03
5.64393939393939e-01 7.31271738552912e-01 5.28142944245136e-03
5.73424242424243e-01 7.23665970595426e-01 5.26814867977127e-03
5.82454545454545e-01 7.16139308261018e-01 5.25424948176281e-03
5.91484848484849e-01 7.08690928792572e-01 5.23975693006978e-03
6.00515151515152e-01 7.01320017990253e-01 5.22469518293523e-03
6.09545454545455e-01 6.94025770122501e-01 5.20908751768410e-03
6.18575757575758e-01 6.86807387837972e-01 5.19295637064953e-03
6.27606060606061e-01 6.79664082078368e-01 5.17632337473459e-03
6.36636363636364e-01 6.72595071992182e-01 5.15920939477788e-03
6.45666666666667e-01 6.65599584849342e-01 5.14163456089026e-03
6.54696969696970e-01 6.58676855956743e-01 5.12361829990747e-03
6.63727272727273e-01 6.51826128574653e-01 5.10517936509130e-03
6.72757575757576e-01 6.45046653833999e-01 5.08633586420223e-03
6.81787878787879e-01 6.38337690654497e-01 5.06710528605678e-03
6.90818181818182e-01 6.31698505663652e-01 5.04750452567057e-03
6.99848484848485e-01 6.25128373116583e-01 5.02754990808293e-03
7.08878787878788e-01 6.18626574816698e-01 5.00725721095006e-03
7.17909090909091e-01 6.12192400037178e-01 4.98664168598532e-03
7.26939393939394e-01 6.05825145443294e-01 4.96571807932333e-03
7.35969696969697e-01 5.99524115015517e-01 4.94450065087348e-03
7.45000000000000e-01 5.93288619973438e-01 4.92300319424132e-03
7.54030303030303e-01 5.87117978692533e-01 4.90123904965967e-03
7.63060606060606e-01 5.81011516653744e-01 4.87922112375530e-03
7.72090909090909e-01 5.74968566345383e-01 4.85696190857758e-03
7.81121212121212e-01 5.68988467198378e-01 4.83447349202826e-03
7.90151515151515e-01 5.63070565514067e-01 4.81176757392047e-03
7.99181818181818e-01 5.57214214392737e-01 4.78885547979048e-03
8.08212121212121e-01 5.51418773662913e-01 4.76574817409107e-03
8.17242424242424e-01 5.45683609811379e-01 4.74245627280293e-03
8.26272727272727e-01 5.40008095913924e-01 4.71899005549558e-03
8.35303030303030e-01 5.34391611566816e-01 4.69535947686731e-03
8.44333333333333e-01 5.28833542818980e-01 4.67157417779356e-03
8.53363636363636e-01 5.23333282104889e-01 4.64764349590912e-03
8.62393939393939e-01 5.17890228178148e-01 4.62357647574926e-03
8.71424242424242e-01 5.12503786045768e-01 4.59938187847317e-03
8.80454545454545e-01 5.07173366903132e-01 4.57506819119067e-03
8.89484848484849e-01 5.01898388069625e-01 4.55064363591243e-03
8.98515151515152e-01 4.96678272924943e-01 4.52611617814390e-03
9.07545454545455e-01 4.91512450846058e-01 4.50149353513795e-03
9.16575757575758e-01 4.86400357144847e-01 4.47678318382614e-03
9.25606060606061e-01 4.81341433006365e-01 4.45199236844445e-03
9.34636363636364e-01 4.76335125427753e-01 4.42712810786500e-03
9.43666666666667e-01 4.71380887157793e-01 4.40219720265001e-03
9.52696969696970e-01 4.66478176637088e-01 4.37720624184150e-03
9.61727272727273e-01 4.61626457938855e-01 4.35216160949792e-03
9.70757575757576e-01 4.56825200710352e-01 4.32706949098975e-03
9.79787878787879e-01 4.52073880114895e-01 4.30193587906571e-03
9.88818181818182e-01 4.47371976774493e-01 4.27676657969912e-03
9.97848484848485e-01 4.42718976713070e-01 4.25156722165883e-03
1.00687878787879e+00 4.38114371282451e-01 4.22634324713434e-03
1.01590909090909e+00 4.33557657173920e-01 4.20109993093380e-03
1.02493939393939e+00 4.29048336281584e-01 4.17584240290593e-03
1.03396969696970e+00 4.24585915638542e-01 4.15057560616366e-03
1.04300000000000e+00 4.20169907489743e-01 4.12530432815134e-03
1.05203030303030e+00 4.15799829110290e-01 4.10003322447357e-03
1.06106060606061e+00 4.11475202796009e-01 4.07476680282176e-03
1.07009090909091e+00 4.07195555772666e-01 4.04950941049860e-03
1.07912121212121e+00 4.02960420261348e-01 4.02426525646008e-03
1.08815151515152e+00 3.98769333308798e-01 3.99903844179441e-03
1.09718181818182e+00 3.94621836740393e-01 3.97383291061883e-03
1.10621212121212e+00 3.90517477220801e-01 3.94865248026998e-03
1.11524242424242e+00 3.86455806092222e-01 3.92350087028968e-03
1.12427272727273e+00 3.82436379328745e-01 3.89838165515441e-03
1.13330303030303e+00 3.78458757592657e-01 3.87329829301505e-03
1.14233333333333e+00 3.74522506080240e-01 3.84825414559136e-03
1.15136363636364e+00 3.70627194510095e-01 3.82325246369568e-03
1.16039393939394e+00 3.66772397044056e-01 3.79829637582517e-03
1.16942424242424e+00 3.62957692337807e-01 3.77338890660916e-03
1.17845454545455e+00 3.59182663396513e-01 3.74853300262832e-03
1.18748484848485e+00 3.55446897532078e-01 3.72373148941990e-03
1.19651515151515e+00 3.51749986410139e-01 3.69898709706239e-03
1.20554545454545e+00 3.48091525912153e-01 3.67430248477966e-03
1.21457575757576e+00 3.44471116093983e-01 3.64968019955982e-03
1.22360606060606e+00 3.40888361229506e-01 3.62512270058162e-03
1.23263636363636e+00 3.37342869678926e-01 3.60063238271035e-03
1.24166666666667e+00 3.33834253848476e-01 3.57621153667325e-03
1.25069696969697e+00 3.30362130230988e-01 3.55186237235623e-03
1.25972727272727e+00 3.26926119280081e-01 3.52758703484705e-03
1.26875757575758e+00 3.23525845396928e-01 3.50338759191302e-03
1.27778787878788e+00 3.20160936863833e-01 3.47926602399102e-03
1.28681818181818e+00 3.16831025880640e-01 3.45522423909589e-03
1.29584848484849e+00 3.13535748446561e-01 3.43126409386672e-03
1.30487878787879e+00 3.10274744322599e-01 3.40738735733201e-03
1.31390909090909e+00 3.07047657065340e-01 3.38359573180101e-03
1.32293939393939e+00 3.03854133913928e-01 3.35989087298733e-03
1.33196969696970e+00 3.00693825753571e-01 3.33627435513513e-03
1.34100000000000e+00 2.97566387146939e-01 3.31274769098849e-03
1.35003030303030e+00 2.94471476226048e-01 3.28931234546781e-03
1.35906060606061e+00 2.91408754678597e-01 3.26596972455210e-03
1.36809090909091e+00 2.88377887689634e-01 3.24272116632106e-03
1.37712121212121e+00 2.85378543969739e-01 3.21956795367802e-03
1.38615151515152e+00 2.82410395653288e-01 3.19651133245163e-03
1.39518181818182e+00 2.79473118264407e-01 3.17355247964520e-03
1.40421212121212e+00 2.76566390743124e-01 3.15069252140141e-03
1.41324242424242e+00 2.73689895347916e-01 3.12793255032611e-03
1.42227272727273e+00 2.70843317622707e-01 3.10527359492543e-03
1.43130303030303e+00 2.68026346421104e-01 3.08271663680857e-03
1.44033333333333e+00 2.65238673813096e-01 3.06026262241383e-03
1.44936363636364e+00 2.62479995071389e-01 3.03791245315998e-03
1.45839393939394e+00 2.59750008620034e-01 3.01566697745913e-03
1.46742424242424e+00 2.57048416056180e-01 2.99352700163480e-03
1.47645454545455e+00 2.54374922062141e-01 2.97149330555906e-03
1.48548484848485e+00 2.51729234374588e-01 2.94956661480561e-03
1.49451515151515e+00 2.49111063804700e-01 2.92774761616400e-03
1.50354545454545e+00 2.46520124153846e-01 2.90603697261533e-03
1.51257575757576e+00 2.43956132183733e-01 2.88443529652116e-03
1.52160606060606e+00 2.41418807635056e-01 2.86294316450208e-03
1.53063636363636e+00 2.38907873146681e-01 2.84156113180234e-03
1.53966666666667e+00 2.36423054226637e-01 2.82028970647510e-03
1.54869696969697e+00 2.33964079269423e-01 2.79912936363657e-03
1.55772727272727e+00 2.31530679478506e-01 2.77808055516349e-03
1.56675757575758e+00 2.29122588853032e-01 2.75714370127249e-03
1.57578787878788e+00 2.26739544144176e-01 2.73631918364431e-03
1.58481818181818e+00 2.24381284870582e-01 2.71560735445966e-03
1.59384848484848e+00 2.22047553245181e-01 2.69500854939449e-03
1.60287878787879e+00 2.19738094148194e-01 2.67452306407622e-03
1.61190909090909e+00 2.17452655141391e-01 2.65415116698801e-03
1.62093939393939e+00 2.15190986397874e-01 2.63389311193925e-03
1.62996969696970e+00 2.12952840675870e-01 2.61374911539159e-03
1.63900000000000e+00 2.10737973331925e-01 2.59371936883765e-03
1.64803030303030e+00 2.08546142253515e-01 2.57380404719359e-03
1.65706060606061e+00 2.06377107846267e-01 2.55400330135280e-03
1.66609090909091e+00 2.04230632995351e-01 2.53431725207939e-03
1.67512121212121e+00 2.02106483077205e-01 2.51474599783166e-03
1.68415151515152e+00 2.00004425895845e-01 2.49528962606931e-03
1.69318181818182e+00 1.97924231658452e-01 2.47594819255821e-03
1.70221212121212e+00 1.95865672986183e-01 2.45672173259394e-03
1.71124242424242e+00 1.93828524852991e-01 2.43761027185569e-03
1.72027272727273e+00 1.91812564561961e-01 2.41861380647036e-03
1.72930303030303e+00 1.89817571755263e-01 2.39973231379110e-03
1.73833333333333e+00 1.87843328355401e-01 2.38096575968245e-03
1.74736363636364e+00 1.85889618553055e-01 2.36231409193495e-03
1.75639393939394e+00 1.83956228772868e-01 2.34377723484490e-03
1.76542424242424e+00 1.82042947682262e-01 2.32535509600777e-03
1.77445454545455e+00 1.80149566135849e-01 2.30704757617985e-03
1.78348484848485e+00 1.78275877153379e-01 2.28885455106833e-03
1.79251515151515e+00 1.76421675927830e-01 2.27077588111587e-03
1.80154545454545e+00 1.74586759771972e-01 2.25281142096934e-03
1.81057575757576e+00 1.72770928097004e-01 2.23496100193390e-03
1.81960606060606e+00 1.70973982419959e-01 2.21722444137843e-03
1.82863636363636e+00 1.69195726312359e-01 2.19960155183847e-03
1.83766666666667e+00 1.67435965379477e-01 2.18209212410946e-03
1.84669696969697e+00 1.65694507267131e-01 2.16469593627920e-03
1.85572727272727e+00 1.63971161612330e-01 2.14741275982774e-03
1.86475757575758e+00 1.62265740032000e-01 2.13024235400199e-03
1.87378787878788e+00 1.60578056093705e-01 2.11318446116543e-03
1.88281818181818e+00 1.58907925321594e-01 2.09623881248859e-03
1.89184848484848e+00 1.57255165149633e-01 2.07940513622842e-03
1.90087878787879e+00 1.55619594902319e-01 2.06268314227117e-03
1.90990909090909e+00 1.54001035800080e-01 2.04607253035252e-03
1.91893939393939e+00 1.52399310914312e-01 2.02957299801787e-03
1.92796969696970e+00 1.50814245148663e-01 2.01318422572532e-03
1.93700000000000e+00 1.49245665243954e-01 1.99690588474639e-03
1.94603030303030e+00 1.47693399734933e-01 1.98073764248859e-03
1.95506060606061e+00 1.46157278939719e-01 1.96467915751748e-03
1.96409090909091e+00 1.44637134933784e-01 1.94873007543035e-03
1.97312121212121e+00 1.43132801554209e-01 1.93289003382231e-03
1.98215151515152e+00 1.41644114358687e-01 1.91715866953751e-03
1.99118181818182e+00 1.40170910608095e-01 1.90153560504027e-03
2.00021212121212e+00 1.38713029270339e-01 1.88602045561116e-03
2.00924242424242e+00 1.37270310980893e-01 1.87061283631973e-03
2.01827272727273e+00 1.35842598025918e-01 1.85531234888626e-03
2.02730303030303e+00 1.34429734345708e-01 1.84011858860384e-03
2.03633333333333e+00 1.33031565496733e-01 1.82503114899088e-03
2.04536363636364e+00 1.31647938641794e-01 1.81004961738421e-03
2.05439393939394e+00 1.30278702526887e-01 1.79517357127709e-03
2.06342424242424e+00 1.28923707484132e-01 1.78040258266077e-03
2.07245454545455e+00 1.27582805395759e-01 1.76573622438445e-03
2.08148484848485e+00 1.26255849678388e-01 1.75117405812815e-03
2.09051515151515e+00 1.24942695285632e-01 1.73671564071187e-03
2.09954545454545e+00 1.23643198673421e-01 1.72236053021183e-03
2.10857575757576e+00 1.22357217784771e-01 1.70810827436387e-03
2.11760606060606e+00 1.21084612052080e-01 1.69395841663666e-03
2.12663636363636e+00 1.19825242363757e-01 1.67991050211980e-03
2.13566666666667e+00 1.18578971049434e-01 1.66596406634168e-03
2.14469696969697e+00 1.17345661882003e-01 1.65211864111066e-03
2.15372727272727e+00 1.16125180045477e-01 1.63837375843942e-03
2.16275757575758e+00 1.14917392126054e-01 1.62472894677481e-03
2.17178787878788e+00 1.13722166092230e-01 1.61118372785568e-03
2.18081818181818e+00 1.12539371296439e-01 1.59773762037546e-03
2.18984848484848e+00 1.11368878444539e-01 1.58439014535585e-03
2.19887878787879e+00 1.10210559582063e-01 1.57114081590287e-03
2.20790909090909e+00 1.09064288095629e-01 1.55798914254030e-03
2.21693939393939e+00 1.07929938683546e-01 1.54493463838266e-03
2.22596969696970e+00 1.06807387342488e-01 1.53197680925573e-03
2.23500000000000e+00 1.05696511368685e-01 1.51911515882953e-03
2.24403030303030e+00 1.04597189329618e-01 1.50634919205998e-03
2.25306060606061e+00 1.03509301055761e-01 1.49367841184752e-03
2.26209090909091e+00 1.02432727622847e-01 1.48110231624689e-03
2.27112121212121e+00 1.01367351352773e-01 1.46862040167963e-03
2.28015151515152e+00 1.00313055786703e-01 1.45623216766030e-03
2.28918181818182e+00 9.92697256726632e-02 1.44393710774073e-03
2.29821212121212e+00 9.82372469662627e-02 1.43173471419925e-03
2.30724242424242e+00 9.72155068047760e-02 1.41962448259065e-03
2.31627272727273e+00 9.62043934951221e-02 1.40760590301119e-03
2.32530303030303e+00 9.52037965144179e-02 1.39567846461411e-03
2.33433333333333e+00 9.42136064850087e-02 1.38384165863136e-03
2.34336363636364e+00 9.32337151668514e-02 1.37209497541112e-03
2.35239393939394e+00 9.22640154417039e-02 1.36043790193927e-03
2.36142424242424e+00 9.13044013134535e-02 1.34886992466000e-03
2.37045454545455e+00 9.03547678843803e-02 1.33739053363714e-03
2.37948484848485e+00 8.94150113439696e-02 1.32599921454332e-03
2.38851515151515e+00 8.84850289691032e-02 1.31469545278692e-03
2.39754545454545e+00 8.75647191011775e-02 1.30347873751814e-03
2.40657575757576e+00 8.66539811352647e-02 1.29234855390042e-03
2.41560606060606e+00 8.57527155201746e-02 1.28130438708684e-03
2.42463636363636e+00 8.48608237364041e-02 1.27034572608020e-03
2.43366666666667e+00 8.39782082856232e-02 1.25947205627653e-03
2.44269696969697e+00 8.31047726906265e-02 1.24868286329336e-03
2.45172727272727e+00 8.22404214740795e-02 1.23797763553125e-03
2.46075757575758e+00 8.13850601516821e-02 1.22735586163448e-03
2.46978787878788e+00 8.05385952185360e-02 1.21681702836173e-03
2.47881818181818e+00 7.97009341489335e-02 1.20636062297738e-03
2.48784848484848e+00 7.88719853761373e-02 1.19598613678272e-03
2.49687878787879e+00 7.80516582826037e-02 1.18569305827353e-03
2.50590909090909e+00 7.72398631996764e-02 1.17548087664393e-03
2.51493939393939e+00 7.64365113880920e-02 1.16534908518868e-03
2.52396969696970e+00 7.56415150285006e-02 1.15529717470084e-03
2.53300000000000e+00 7.48547872210761e-02 1.14532463684679e-03
2.54203030303030e+00 7.40762419667210e-02 1.13543096642038e-03
2.55106060606061e+00 7.33057941607926e-02 1.12561565908897e-03
2.56009090909091e+00 7.25433595809273e-02 1.11587820950055e-03
2.56912121212121e+00 7.17888548865313e-02 1.10621811338817e-03
2.57815151515152e+00 7.10421976008918e-02 1.09663487068518e-03
2.58718181818182e+00 7.03033061023609e-02 1.08712797946385e-03
2.59621212121212e+00 6.95720996237763e-02 1.07769693902519e-03
2.60524242424242e+00 6.88484982352091e-02 1.06834125290048e-03
2.61427272727273e+00 6.81324228354180e-02 1.05906042300157e-03
2.62330303030303e+00 6.74237951512084e-02 1.04985395259867e-03
2.63233333333333e+00 6.67225377207950e-02 1.04072134830583e-03
2.64136363636364e+00 6.60285738880537e-02 1.03166211807935e-03
2.65039393939394e+00 6.53418277916420e-02 1.02267576953440e-03
2.65942424242424e+00 6.46622243642714e-02 1.01376181179854e-03
2.66845454545455e+00 6.39896893168676e-02 1.00491975826217e-03
2.67748484848485e+00 6.33241491306208e-02 9.96149121205836e-04
2.68651515151515e+00 6.26655310562089e-02 9.87449414527240e-04
2.69554545454545e+00 6.20137630985160e-02 9.78820156391011e-04
2.70457575757576e+00 6.13687740089289e-02 9.70260864042966e-04
2.71360606060606e+00 6.07304932845163e-02 9.61771056439509e-04
2.72263636363636e+00 6.00988511532880e-02 9.53350256802472e-04
2.73166666666667e+00 5.94737785667242e-02 9.44997987613487e-04
2.74069696969697e+00 5.88552071989195e-02 9.36713773147464e-04
2.74972727272727e+00 5.82430694323617e-02 9.28497141161277e-04
2.75875757575758e+00 5.76372983528107e-02 9.20347621175186e-04
2.76778787878788e+00 5.70378277398953e-02 9.12264743024924e-04
2.77681818181818e+00 5.64445920661992e-02 9.04248038438199e-04
2.78584848484849e+00 5.58575264837144e-02 8.96297043376173e-04
2.79487878787879e+00 5.52765668168958e-02 8.88411293434009e-04
2.80390909090909e+00 5.47016495617176e-02 8.80590326163411e-04
2.81293939393939e+00 5.41327118726024e-02 8.72833683330068e-04
2.82196969696970e+00 5.35696915556878e-02 8.65140906473445e-04
2.83100000000000e+00 5.30125270678591e-02 8.57511539145480e-04
2.84003030303030e+00 5.24611575041376e-02 8.49945128400651e-04
2.84906060606061e+00 5.19155225930017e-02 8.42441223268229e-04
