Energy (eV)          EEDF (eV^-(3/2))     First Anisotropy
6.52000000000000e-04 3.87252426563480e+01 2.47189832925122e-02
1.95600000000000e-03 3.81931359804285e+01 4.06743749411212e-02
3.26000000000000e-03 3.76683407503686e+01 5.33154598752141e-02
4.56400000000000e-03 3.71507565027681e+01 6.26912592396854e-02
5.86800000000000e-03 3.66402841546587e+01 7.03245830986232e-02
7.17200000000000e-03 3.61368259845296e+01 7.67972370521997e-02
8.47600000000000e-03 3.56402856136188e+01 8.24133070845985e-02
9.78000000000000e-03 3.51505679874632e+01 8.73581980316370e-02
1.10840000000000e-02 3.46675793577016e+01 9.17560378758275e-02
1.23880000000000e-02 3.41912272641281e+01 9.56953725720059e-02
1.36920000000000e-02 3.37214205169924e+01 9.92423452193783e-02
1.49960000000000e-02 3.32580691795428e+01 1.02448129295515e-01
1.63000000000000e-02 3.28010845508090e+01 1.05353427158892e-01
1.76040000000000e-02 3.23503791486225e+01 1.07991345195243e-01
1.89080000000000e-02 3.19058666928687e+01 1.10389313394112e-01
2.02120000000000e-02 3.14674620889709e+01 1.12570413614623e-01
2.15160000000000e-02 3.10350814115994e+01 1.14554326580922e-01
2.28200000000000e-02 3.06086418886063e+01 1.16358024409768e-01
2.41240000000000e-02 3.01880618851795e+01 1.17996288236151e-01
2.54280000000000e-02 2.97732608882151e+01 1.19482102537718e-01
2.67320000000000e-02 2.93641594909050e+01 1.20826960591455e-01
2.80360000000000e-02 2.89606793775352e+01 1.22041104620758e-01
2.93400000000000e-02 2.85627433084939e+01 1.23133717109238e-01
3.06440000000000e-02 2.81702751054849e+01 1.24113075032435e-01
3.19480000000000e-02 2.77831996369451e+01 1.24986675536659e-01
3.32520000000000e-02 2.74014428036613e+01 1.25761339354174e-01
3.45560000000000e-02 2.70249315245852e+01 1.26443296659027e-01
3.58600000000000e-02 2.66535937228433e+01 1.27038258928401e-01
3.71640000000000e-02 2.62873583119393e+01 1.27551479543261e-01
3.84680000000000e-02 2.59261551821450e+01 1.27987805247767e-01
3.97720000000000e-02 2.55699151870798e+01 1.28351720127320e-01
4.10760000000000e-02 2.52185701304732e+01 1.28647383417261e-01
4.23800000000000e-02 2.48720527531100e+01 1.28878662188335e-01
4.36840000000000e-02 2.45302967199543e+01 1.29049159749725e-01
4.49880000000000e-02 2.41932366074513e+01 1.29162240450514e-01
4.62920000000000e-02 2.38608078910027e+01 1.29221051434816e-01
4.75960000000000e-02 2.35329469326144e+01 1.29228541806321e-01
4.89000000000000e-02 2.32095909687145e+01 1.29187479578628e-01
5.02040000000000e-02 2.28906780981376e+01 1.29100466724070e-01
5.15080000000000e-02 2.25761472702757e+01 1.28969952582217e-01
5.28120000000000e-02 2.22659382733901e+01 1.28798245847281e-01
5.41160000000000e-02 2.19599917230857e+01 1.28587525319463e-01
5.54200000000000e-02 2.16582490509425e+01 1.28339849576987e-01
5.67240000000000e-02 2.13606524933032e+01 1.28057165702334e-01
5.80280000000000e-02 2.10671450802163e+01 1.27741317176795e-01
5.93320000000000e-02 2.07776706245292e+01 1.27394051041243e-01
6.06360000000000e-02 2.04921737111325e+01 1.27017024407510e-01
6.19400000000000e-02 2.02105996863517e+01 1.26611810393332e-01
6.32440000000000e-02 1.99328946474848e+01 1.26179903544136e-01
6.45480000000000e-02 1.96590054324830e+01 1.25722724796746e-01
6.58520000000000e-02 1.93888796097742e+01 1.25241626033129e-01
6.71560000000000e-02 1.91224654682257e+01 1.24737894266334e-01
6.84600000000000e-02 1.88597120072450e+01 1.24212755495565e-01
6.97640000000000e-02 1.86005689270162e+01 1.23667378263043e-01
7.10680000000000e-02 1.83449866188716e+01 1.23102876941412e-01
7.23720000000000e-02 1.80929161557943e+01 1.22520314777171e-01
7.36760000000000e-02 1.78443092830525e+01 1.21920706712789e-01
7.49800000000000e-02 1.75991184089613e+01 1.21305022007578e-01
7.62840000000000e-02 1.73572965957726e+01 1.20674186675313e-01
7.75880000000000e-02 1.71187975506894e+01 1.20029085754616e-01
7.88920000000000e-02 1.68835756170037e+01 1.19370565426478e-01
8.01960000000000e-02 1.66515857653568e+01 1.18699434991810e-01
8.15000000000000e-02 1.64227835851183e+01 1.18016468720593e-01
8.28040000000000e-02 1.61971252758852e+01 1.17322407583117e-01
8.41080000000000e-02 1.59745676390968e+01 1.16617960872686e-01
8.54120000000000e-02 1.57550680697647e+01 1.15903807728354e-01
8.67160000000000e-02 1.55385845483173e+01 1.15180598565379e-01
8.80200000000000e-02 1.53250756325555e+01 1.14448956420428e-01
8.93240000000000e-02 1.51145004497196e+01 1.13709478217871e-01
9.06280000000000e-02 1.49068186886644e+01 1.12962735962999e-01
9.19320000000000e-02 1.47019905921427e+01 1.12209277867407e-01
9.32360000000000e-02 1.44999769491943e+01 1.11449629411391e-01
9.45400000000000e-02 1.43007390876397e+01 1.10684294347768e-01
9.58440000000000e-02 1.41042388666769e+01 1.09913755651146e-01
9.71480000000000e-02 1.39104386695801e+01 1.09138476416363e-01
9.84520000000000e-02 1.37193013964986e+01 1.08358900709472e-01
9.97560000000000e-02 1.35307904573544e+01 1.07575454374420e-01
1.01060000000000e-01 1.33448697648379e+01 1.06788545798282e-01
1.02364000000000e-01 1.31615037274995e+01 1.05998566637711e-01
1.03668000000000e-01 1.29806572429363e+01 1.05205892509043e-01
1.04972000000000e-01 1.28022956910719e+01 1.04410883644315e-01
1.06276000000000e-01 1.26263849275295e+01 1.03613885515293e-01
1.07580000000000e-01 1.24528912770954e+01 1.02815229427434e-01
1.08884000000000e-01 1.22817815272720e+01 1.02015233085589e-01
1.10188000000000e-01 1.21130229219205e+01 1.01214201133092e-01
1.11492000000000e-01 1.19465831549898e+01 1.00412425665801e-01
1.12796000000000e-01 1.17824303643319e+01 9.96101867225063e-02
1.14100000000000e-01 1.16205331256031e+01 9.88077527530538e-02
1.15404000000000e-01 1.14608604462477e+01 9.80053810654311e-02
1.16708000000000e-01 1.13033817595651e+01 9.72033182529592e-02
1.18012000000000e-01 1.11480669188587e+01 9.64018006027010e-02
1.19316000000000e-01 1.09948861916642e+01 9.56010544860783e-02
1.20620000000000e-01 1.08438102540583e+01 9.48012967326334e-02
1.21924000000000e-01 1.06948101850449e+01 9.40027349878454e-02
1.23228000000000e-01 1.05478574610187e+01 9.32055680558184e-02
1.24532000000000e-01 1.04029239503049e+01 9.24099862276077e-02
1.25836000000000e-01 1.02599819077736e+01 9.16161715959253e-02
1.27140000000000e-01 1.01190039695288e+01 9.08242983569079e-02
1.28444000000000e-01 9.97996314766991e+00 9.00345330995773e-02
1.29748000000000e-01 9.84283282512508e+00 8.92470350836051e-02
1.31052000000000e-01 9.70758675055621e+00 8.84619565059486e-02
1.32356000000000e-01 9.57419903333337e+00 8.76794427568927e-02
1.33660000000000e-01 9.44264413857847e+00 8.68996326659970e-02
1.34964000000000e-01 9.31289688227705e+00 8.61226587384284e-02
1.36268000000000e-01 9.18493242645722e+00 8.53486473821159e-02
1.37572000000000e-01 9.05872627443484e+00 8.45777191261637e-02
1.38876000000000e-01 8.93425426612399e+00 8.38099888309129e-02
1.40180000000000e-01 8.81149257341201e+00 8.30455658900258e-02
1.41484000000000e-01 8.69041769559790e+00 8.22845544249591e-02
1.42788000000000e-01 8.57100645489358e+00 8.15270534721562e-02
1.44092000000000e-01 8.45323599198683e+00 8.07731571632845e-02
1.45396000000000e-01 8.33708376166527e+00 8.00229548987969e-02
1.46700000000000e-01 8.22252752850048e+00 7.92765315151445e-02
1.48004000000000e-01 8.10954536259135e+00 7.85339674458857e-02
1.49308000000000e-01 7.99811563536598e+00 7.77953388769413e-02
1.50612000000000e-01 7.88821701544125e+00 7.70607178962652e-02
1.51916000000000e-01 7.77982846453927e+00 7.63301726381446e-02
1.53220000000000e-01 7.67292923345997e+00 7.56037674223670e-02
1.54524000000000e-01 7.56749885810896e+00 7.48815628884456e-02
1.55828000000000e-01 7.46351715558009e+00 7.41636161251137e-02
1.57132000000000e-01 7.36096422029170e+00 7.34499807952828e-02
1.58436000000000e-01 7.25982042017605e+00 7.27407072566346e-02
1.59740000000000e-01 7.16006639292108e+00 7.20358426780210e-02
1.61044000000000e-01 7.06168304226384e+00 7.13354311518492e-02
1.62348000000000e-01 6.96465153433477e+00 7.06395138025970e-02
1.63652000000000e-01 6.86895329405233e+00 6.99481288916033e-02
1.64956000000000e-01 6.77457000156706e+00 6.92613119182922e-02
1.66260000000000e-01 6.68148358875458e+00 6.85790957179555e-02
1.67564000000000e-01 6.58967623575671e+00 6.79015105562284e-02
1.68868000000000e-01 6.49913036757018e+00 6.72285842203783e-02
1.70172000000000e-01 6.40982865068220e+00 6.65603421075324e-02
1.71476000000000e-01 6.32175398975218e+00 6.58968073099522e-02
1.72780000000000e-01 6.23488952433919e+00 6.52380006974611e-02
1.74084000000000e-01 6.14921862567424e+00 6.45839409971403e-02
1.75388000000000e-01 6.06472489347701e+00 6.39346448703810e-02
1.76692000000000e-01 5.98139215281631e+00 6.32901269873957e-02
1.77996000000000e-01 5.89920445101360e+00 6.26504000992796e-02
1.79300000000000e-01 5.81814605458914e+00 6.20154751076971e-02
1.80604000000000e-01 5.73820144625009e+00 6.13853611322967e-02
1.81908000000000e-01 5.65935532191994e+00 6.07600655759241e-02
1.83212000000000e-01 5.58159258780886e+00 6.01395941877084e-02
1.84516000000000e-01 5.50489835752418e+00 5.95239511241030e-02
1.85820000000000e-01 5.42925794922067e+00 5.89131390079473e-02
1.87124000000000e-01 5.35465688278993e+00 5.83071589856185e-02
1.88428000000000e-01 5.28108087708842e+00 5.77060107823379e-02
1.89732000000000e-01 5.20851584720356e+00 5.71096927556962e-02
1.91036000000000e-01 5.13694790175743e+00 5.65182019474571e-02
1.92340000000000e-01 5.06636334024746e+00 5.59315341337043e-02
1.93644000000000e-01 4.99674865042372e+00 5.53496838733754e-02
1.94948000000000e-01 4.92809050570221e+00 5.47726445552414e-02
1.96252000000000e-01 4.86037576261373e+00 5.42004084433914e-02
1.97556000000000e-01 4.79359145828773e+00 5.36329667212643e-02
1.98860000000000e-01 4.72772480797083e+00 5.30703095342672e-02
2.00164000000000e-01 4.66276320257937e+00 5.25124260310504e-02
2.01468000000000e-01 4.59869420628562e+00 5.19593044034650e-02
2.02772000000000e-01 4.53550555413712e+00 5.14109319252450e-02
2.04076000000000e-01 4.47318514970879e+00 5.08672949894647e-02
2.05380000000000e-01 4.41172106278723e+00 5.03283791448032e-02
2.06684000000000e-01 4.35110152708694e+00 4.97941691306681e-02
2.07988000000000e-01 4.29131493799778e+00 4.92646489111920e-02
2.09292000000000e-01 4.23234985036351e+00 4.87398017081549e-02
2.10596000000000e-01 4.17419497629081e+00 4.82196100328678e-02
2.11900000000000e-01 4.11683918298837e+00 4.77040557170412e-02
2.13204000000000e-01 4.06027149063569e+00 4.71931199426723e-02
2.14508000000000e-01 4.00448107028124e+00 4.66867832709862e-02
2.15812000000000e-01 3.94945724176935e+00 4.61850256704597e-02
2.17116000000000e-01 3.89518947169574e+00 4.56878265439542e-02
2.18420000000000e-01 3.84166737139103e+00 4.51951647549858e-02
2.19724000000000e-01 3.78888069493203e+00 4.47070186531619e-02
2.21028000000000e-01 3.73681933718030e+00 4.42233660988072e-02
2.22332000000000e-01 3.68547333184772e+00 4.37441844868052e-02
2.23636000000000e-01 3.63483284958856e+00 4.32694507696813e-02
2.24940000000000e-01 3.58488819611787e+00 4.27991414799490e-02
2.26244000000000e-01 3.53562981035564e+00 4.23332327517394e-02
2.27548000000000e-01 3.48704826259648e+00 4.18717003417412e-02
2.28852000000000e-01 3.43913425270448e+00 4.14145196494683e-02
2.30156000000000e-01 3.39187860833284e+00 4.09616657368763e-02
2.31460000000000e-01 3.34527228316798e+00 4.05131133473508e-02
2.32764000000000e-01 3.29930635519777e+00 4.00688369240801e-02
2.34068000000000e-01 3.25397202500357e+00 3.96288106278372e-02
2.35372000000000e-01 3.20926061407568e+00 3.91930083541841e-02
2.36676000000000e-01 3.16516356315207e+00 3.87614037501197e-02
2.37980000000000e-01 3.12167243057974e+00 3.83339702301868e-02
2.39284000000000e-01 3.07877889069882e+00 3.79106809920536e-02
2.40588000000000e-01 3.03647473224866e+00 3.74915090315829e-02
2.41892000000000e-01 2.99475185679599e+00 3.70764271574125e-02
2.43196000000000e-01 2.95360227718456e+00 3.66654080050539e-02
2.44500000000000e-01 2.91301811600617e+00 3.62584240505208e-02
2.45804000000000e-01 2.87299160409263e+00 3.58554476235153e-02
2.47108000000000e-01 2.83351507902853e+00 3.54564509201717e-02
2.48412000000000e-01 2.79458098368435e+00 3.50614060153736e-02
2.49716000000000e-01 2.75618186476979e+00 3.46702848746619e-02
2.51020000000000e-01 2.71831037140697e+00 3.42830593657423e-02
2.52324000000000e-01 2.68095925372323e+00 3.38997012696037e-02
2.53628000000000e-01 2.64412136146324e+00 3.35201822912595e-02
2.54932000000000e-01 2.60778964262018e+00 3.31444740701248e-02
2.56236000000000e-01 2.57195714208584e+00 3.27725481900366e-02
2.57540000000000e-01 2.53661700031908e+00 3.24043761889332e-02
2.58844000000000e-01 2.50176245203272e+00 3.20399295681948e-02
2.60148000000000e-01 2.46738682489848e+00 3.16791798016643e-02
2.61452000000000e-01 2.43348353826959e+00 3.13220983443507e-02
2.62756000000000e-01 2.40004610192110e+00 3.09686566408246e-02
2.64060000000000e-01 2.36706811480741e+00 3.06188261333216e-02
2.65364000000000e-01 2.33454326383690e+00 3.02725782695562e-02
2.66668000000000e-01 2.30246532266338e+00 2.99298845102571e-02
2.67972000000000e-01 2.27082815049418e+00 2.95907163364298e-02
2.69276000000000e-01 2.23962569091457e+00 2.92550452563525e-02
2.70580000000000e-01 2.20885197072838e+00 2.89228428123243e-02
2.71884000000000e-01 2.17850109881454e+00 2.85940805871620e-02
2.73188000000000e-01 2.14856726499929e+00 2.82687302104536e-02
2.74492000000000e-01 2.11904473894392e+00 2.79467633645811e-02
2.75796000000000e-01 2.08992786904785e+00 2.76281517905148e-02
2.77100000000000e-01 2.06121108136663e+00 2.73128672933902e-02
2.78404000000000e-01 2.03288887854499e+00 2.70008817478678e-02
2.79708000000000e-01 2.00495583876440e+00 2.66921671032863e-02
2.81012000000000e-01 1.97740661470518e+00 2.63866953886177e-02
2.82316000000000e-01 1.95023593252284e+00 2.60844387172239e-02
2.83620000000000e-01 1.92343859083848e+00 2.57853692914244e-02
2.84924000000000e-01 1.89700945974309e+00 2.54894594068796e-02
2.86228000000000e-01 1.87094347981551e+00 2.51966814567984e-02
2.87532000000000e-01 1.84523566115386e+00 2.49070079359689e-02
2.88836000000000e-01 1.81988108242033e+00 2.46204114446229e-02
2.90140000000000e-01 1.79487488989909e+00 2.43368646921374e-02
2.91444000000000e-01 1.77021229656707e+00 2.40563405005773e-02
2.92748000000000e-01 1.74588858117763e+00 2.37788118080845e-02
2.94052000000000e-01 1.72189908735669e+00 2.35042516721176e-02
2.95356000000000e-01 1.69823922271139e+00 2.32326332725485e-02
2.96660000000000e-01 1.67490445795095e+00 2.29639299146178e-02
2.97964000000000e-01 1.65189032601959e+00 2.26981150317539e-02
2.99268000000000e-01 1.62919242124139e+00 2.24351621882618e-02
3.00572000000000e-01 1.60680639847691e+00 2.21750450818815e-02
3.01876000000000e-01 1.58472797229137e+00 2.19177375462232e-02
3.03180000000000e-01 1.56295291613428e+00 2.16632135530831e-02
3.04484000000000e-01 1.54147706153036e+00 2.14114472146408e-02
3.05788000000000e-01 1.52029629728149e+00 2.11624127855456e-02
3.07092000000000e-01 1.49940656867978e+00 2.09160846648909e-02
3.08396000000000e-01 1.47880387673127e+00 2.06724373980838e-02
3.09700000000000e-01 1.45848427739046e+00 2.04314456786104e-02
3.11004000000000e-01 1.43844388080525e+00 2.01930843497010e-02
3.12308000000000e-01 1.41867885057229e+00 1.99573284058995e-02
3.13612000000000e-01 1.39918540300260e+00 1.97241529945387e-02
3.14916000000000e-01 1.37995980639721e+00 1.94935334171234e-02
3.16220000000000e-01 1.36099838033279e+00 1.92654451306251e-02
3.17524000000000e-01 1.34229749495712e+00 1.90398637486937e-02
3.18828000000000e-01 1.32385357029417e+00 1.88167650427831e-02
3.20132000000000e-01 1.30566307555883e+00 1.85961249431994e-02
3.21436000000000e-01 1.28772252848095e+00 1.83779195400710e-02
3.22740000000000e-01 1.27002849463875e+00 1.81621250842392e-02
3.24044000000000e-01 1.25257758680132e+00 1.79487179880822e-02
3.25348000000000e-01 1.23536646428023e+00 1.77376748262657e-02
3.26652000000000e-01 1.21839183228999e+00 1.75289723364238e-02
3.27956000000000e-01 1.20165044131733e+00 1.73225874197759e-02
3.29260000000000e-01 1.18513908649910e+00 1.71184971416793e-02
3.30564000000000e-01 1.16885460700881e+00 1.69166787321186e-02
3.31868000000000e-01 1.15279388545148e+00 1.67171095861374e-02
3.33172000000000e-01 1.13695384726691e+00 1.65197672642098e-02
3.34476000000000e-01 1.12133146014109e+00 1.63246294925562e-02
3.35780000000000e-01 1.10592373342572e+00 1.61316741634080e-02
3.37084000000000e-01 1.09072771756567e+00 1.59408793352152e-02
3.38388000000000e-01 1.07574050353440e+00 1.57522232328066e-02
3.39692000000000e-01 1.06095922227700e+00 1.55656842475004e-02
3.40996000000000e-01 1.04638104416101e+00 1.53812409371671e-02
3.42300000000000e-01 1.03200317843471e+00 1.51988720262468e-02
3.43604000000000e-01 1.01782287269289e+00 1.50185564057230e-02
3.44908000000000e-01 1.00383741234993e+00 1.48402731330535e-02
3.46212000000000e-01 9.90044120120168e-01 1.46640014320593e-02
3.47516000000000e-01 9.76440355505326e-01 1.44897206927756e-02
3.48820000000000e-01 9.63023514289084e-01 1.43174104712629e-02
3.50124000000000e-01 9.49791028038516e-01 1.41470504893824e-02
3.51428000000000e-01 9.36740363612414e-01 1.39786206345349e-02
3.52732000000000e-01 9.23869022676359e-01 1.38121009593666e-02
3.54036000000000e-01 9.11174541224455e-01 1.36474716814407e-02
3.55340000000000e-01 8.98654489107638e-01 1.34847131828770e-02
3.56644000000000e-01 8.86306469568461e-01 1.33238060099622e-02
3.57948000000000e-01 8.74128118782280e-01 1.31647308727294e-02
3.59252000000000e-01 8.62117105404730e-01 1.30074686445105e-02
3.60556000000000e-01 8.50271130125436e-01 1.28520003614598e-02
3.61860000000000e-01 8.38587925227843e-01 1.26983072220520e-02
3.63164000000000e-01 8.27065254155101e-01 1.25463705865558e-02
3.64468000000000e-01 8.15700911081912e-01 1.23961719764818e-02
3.65772000000000e-01 8.04492720492262e-01 1.22476930740076e-02
3.67076000000000e-01 7.93438536762954e-01 1.21009157213815e-02
3.68380000000000e-01 7.82536243752864e-01 1.19558219203042e-02
3.69684000000000e-01 7.71783754397840e-01 1.18123938312884e-02
3.70988000000000e-01 7.61179010311171e-01 1.16706137730014e-02
3.72292000000000e-01 7.50719981389537e-01 1.15304642215880e-02
3.73596000000000e-01 7.40404665424384e-01 1.13919278099737e-02
3.74900000000000e-01 7.30231087718634e-01 1.12549873271517e-02
3.76204000000000e-01 7.20197300708660e-01 1.11196257174555e-02
3.77508000000000e-01 7.10301383591456e-01 1.09858260798125e-02
3.78812000000000e-01 7.00541441956934e-01 1.08535716669841e-02
3.80116000000000e-01 6.90915607425270e-01 1.07228458847916e-02
3.81420000000000e-01 6.81422037289232e-01 1.05936322913285e-02
3.82724000000000e-01 6.72058914161423e-01 1.04659145961595e-02
3.84028000000000e-01 6.62824445626377e-01 1.03396766595069e-02
3.85332000000000e-01 6.53716863897424e-01 1.02149024914257e-02
3.86636000000000e-01 6.44734425478283e-01 1.00915762509685e-02
3.87940000000000e-01 6.35875410829292e-01 9.96968224533825e-03
3.89244000000000e-01 6.27138124038237e-01 9.84920492903097e-03
3.90548000000000e-01 6.18520892495694e-01 9.73012890297158e-03
3.91852000000000e-01 6.10022066574834e-01 9.61243891363899e-03
3.93156000000000e-01 6.01640019315631e-01 9.49611985218208e-03
3.94460000000000e-01 5.93373146113410e-01 9.38115675352931e-03
3.95764000000000e-01 5.85219864411667e-01 9.26753479549066e-03
3.97068000000000e-01 5.77178613399117e-01 9.15523929785297e-03
3.98372000000000e-01 5.69247853710904e-01 9.04425572146809e-03
3.99676000000000e-01 5.61426067133911e-01 8.93456966733541e-03
4.00980000000000e-01 5.53711756316128e-01 8.82616687567961e-03
4.02284000000000e-01 5.46103444480005e-01 8.71903322502222e-03
4.03588000000000e-01 5.38599675139748e-01 8.61315473124939e-03
4.04892000000000e-01 5.31199011822500e-01 8.50851754667472e-03
4.06196000000000e-01 5.23900037793351e-01 8.40510795909827e-03
4.07500000000000e-01 5.16701355784127e-01 8.30291239086250e-03
4.08804000000000e-01 5.09601587725909e-01 8.20191739790462e-03
4.10108000000000e-01 5.02599374485220e-01 8.10210966880635e-03
4.11412000000000e-01 4.95693375603844e-01 8.00347602384079e-03
