Energy (eV)          EEDF (eV^-(3/2))     First Anisotropy
7.13636363636364e-03 3.63810831251678e+00 3.95854786040595e-03
2.14090909090909e-02 3.52534218067037e+00 6.45709013411718e-03
3.56818181818182e-02 3.41607132741390e+00 8.31579169198365e-03
4.99545454545455e-02 3.31018741320419e+00 9.60709128242193e-03
6.42272727272727e-02 3.20758545713842e+00 1.05883081415989e-02
7.85000000000000e-02 3.10816373226531e+00 1.13605532705397e-02
9.27727272727273e-02 3.01182366485382e+00 1.19780386509766e-02
1.07045454545455e-01 2.91846973630395e+00 1.24745967815011e-02
1.21318181818182e-01 2.82800938895047e+00 1.28733620298117e-02
1.35590909090909e-01 2.74035293391485e+00 1.31911527773280e-02
1.49863636363636e-01 2.65541346169745e+00 1.34407441156010e-02
1.64136363636364e-01 2.57310675779399e+00 1.36321641879993e-02
1.78409090909091e-01 2.49335121735337e+00 1.37734876874912e-02
1.92681818181818e-01 2.41606776457674e+00 1.38713487249106e-02
2.06954545454545e-01 2.34117977551000e+00 1.39312874174981e-02
2.21227272727273e-01 2.26861300077801e+00 1.39579925834469e-02
2.35500000000000e-01 2.19829549242906e+00 1.39554768196140e-02
2.49772727272727e-01 2.13015753234829e+00 1.39272061383580e-02
2.64045454545455e-01 2.06413156393630e+00 1.38761981247887e-02
2.78318181818182e-01 2.00015212427483e+00 1.38050976709921e-02
2.92590909090909e-01 1.93815577952680e+00 1.37162363449123e-02
3.06863636363636e-01 1.87808106185851e+00 1.36116796809513e-02
3.21136363636364e-01 1.81986840906648e+00 1.34932653757193e-02
3.35409090909091e-01 1.76346010492215e+00 1.33626344919645e-02
3.49681818181818e-01 1.70880022201518e+00 1.32212571333478e-02
3.63954545454545e-01 1.65583456676003e+00 1.30704539197429e-02
3.78227272727273e-01 1.60451062518365e+00 1.29114140359656e-02
3.92500000000000e-01 1.55477751102675e+00 1.27452104913135e-02
4.06772727272727e-01 1.50658591518197e+00 1.25728131538953e-02
4.21045454545455e-01 1.45988805714947e+00 1.23950999755881e-02
4.35318181818182e-01 1.41463763730375e+00 1.22128666996969e-02
4.49590909090909e-01 1.37078979111509e+00 1.20268352720608e-02
4.63863636363636e-01 1.32830104458177e+00 1.18376611986495e-02
4.78136363636364e-01 1.28712927139163e+00 1.16459400262856e-02
4.92409090909091e-01 1.24723365087908e+00 1.14522130654009e-02
5.06681818181818e-01 1.20857462757793e+00 1.12569724103364e-02
5.20954545454545e-01 1.17111387222457e+00 1.10606654485975e-02
5.35227272727273e-01 1.13481424352506e+00 1.08636988791392e-02
5.49500000000000e-01 1.09963975141018e+00 1.06664422869296e-02
5.63772727272727e-01 1.06555552129639e+00 1.04692313562007e-02
5.78045454545455e-01 1.03252775968326e+00 1.02723707773741e-02
5.92318181818182e-01 1.00052372046673e+00 1.00761368716845e-02
6.06590909090909e-01 9.69511672535319e-01 9.88077994756118e-03
6.20863636363636e-01 9.39460868264410e-01 9.68652644091680e-03
6.35136363636364e-01 9.10341513170200e-01 9.49358087192864e-03
6.49409090909091e-01 8.82124736224825e-01 9.30212763030294e-03
6.63681818181818e-01 8.54782561243384e-01 9.11233257376934e-03
6.77954545454545e-01 8.28287879265269e-01 8.92434451718923e-03
6.92227272727273e-01 8.02614421553093e-01 8.73829659229603e-03
7.06500000000000e-01 7.77736733590417e-01 8.55430748018905e-03
7.20772727272727e-01 7.53630149813334e-01 8.37248254497205e-03
7.35045454545455e-01 7.30270769251543e-01 8.19291488438557e-03
7.49318181818182e-01 7.07635431731551e-01 8.01568629683997e-03
7.63590909090909e-01 6.85701694948488e-01 7.84086816051508e-03
7.77863636363636e-01 6.64447812189703e-01 7.66852224595654e-03
7.92136363636364e-01 6.43852710851989e-01 7.49870147349025e-03
8.06409090909091e-01 6.23895971467576e-01 7.33145061504543e-03
8.20681818181818e-01 6.04557807464936e-01 7.16680692385294e-03
8.34954545454545e-01 5.85819045618786e-01 7.00480073512838e-03
8.49227272727273e-01 5.67661106970261e-01 6.84545602018387e-03
8.63500000000000e-01 5.50065988430476e-01 6.68879089095872e-03
8.77772727272727e-01 5.33016244912970e-01 6.53481806918542e-03
8.92045454545454e-01 5.16494972093194e-01 6.38354532717217e-03
9.06318181818182e-01 5.00485789590734e-01 6.23497589700312e-03
9.20590909090909e-01 4.84972824748497e-01 6.08910884290178e-03
9.34863636363636e-01 4.69940696880435e-01 5.94593940826783e-03
9.49136363636364e-01 4.55374502068125e-01 5.80545934285935e-03
9.63409090909091e-01 4.41259798336404e-01 5.66765720819843e-03
9.77681818181818e-01 4.27582591337943e-01 5.53251864902882e-03
9.91954545454545e-01 4.14329320518446e-01 5.40002665735729e-03
1.00622727272727e+00 4.01486845630269e-01 5.27016182099443e-03
1.02050000000000e+00 3.89042433672459e-01 5.14290252318743e-03
1.03477272727273e+00 3.76983746484222e-01 5.01822518692529e-03
1.04904545454545e+00 3.65298828101088e-01 4.89610445708354e-03
1.06331818181818e+00 3.53976093256582e-01 4.77651334971912e-03
1.07759090909091e+00 3.43004315779053e-01 4.65942344663559e-03
1.09186363636364e+00 3.32372617552620e-01 4.54480506642811e-03
1.10613636363636e+00 3.22070457450958e-01 4.43262739042156e-03
1.12040909090909e+00 3.12087621173029e-01 4.32285856876715e-03
1.13468181818182e+00 3.02414211098438e-01 4.21546589940431e-03
1.14895454545455e+00 2.93040636228969e-01 4.11041591700003e-03
1.16322727272727e+00 2.83957602929843e-01 4.00767448235854e-03
1.17750000000000e+00 2.75156105629842e-01 3.90720690160517e-03
1.19177272727273e+00 2.66627417959914e-01 3.80897803021346e-03
1.20604545454545e+00 2.58363083895258e-01 3.71295234421200e-03
1.22031818181818e+00 2.50354909581792e-01 3.61909400383974e-03
1.23459090909091e+00 2.42594955140643e-01 3.52736694368038e-03
1.24886363636364e+00 2.35075526852402e-01 3.43773495049739e-03
1.26313636363636e+00 2.27789169355660e-01 3.35016171339952e-03
1.27740909090909e+00 2.20728658432337e-01 3.26461086287087e-03
1.29168181818182e+00 2.13886993834541e-01 3.18104605982721e-03
1.30595454545455e+00 2.07257392191868e-01 3.09943102682765e-03
1.32022727272727e+00 2.00833280441269e-01 3.01972958118301e-03
1.33450000000000e+00 1.94608289257014e-01 2.94190568926514e-03
1.34877272727273e+00 1.88576246777720e-01 2.86592351220103e-03
1.36304545454545e+00 1.82731172358594e-01 2.79174743104823e-03
1.37731818181818e+00 1.77067270773074e-01 2.71934206816941e-03
1.39159090909091e+00 1.71578926422374e-01 2.64867232731803e-03
1.40586363636364e+00 1.66260697803197e-01 2.57970342664441e-03
1.42013636363636e+00 1.61107312003865e-01 2.51240091426130e-03
1.43440909090909e+00 1.56113659587489e-01 2.44673067731901e-03
1.44868181818182e+00 1.51274789519624e-01 2.38265898530163e-03
1.46295454545455e+00 1.46585904163610e-01 2.32015249557289e-03
1.47722727272727e+00 1.42042354621732e-01 2.25917826095477e-03
1.49150000000000e+00 1.37639636092578e-01 2.19970375217970e-03
1.50577272727273e+00 1.33373383431243e-01 2.14169687529710e-03
1.52004545454545e+00 1.29239366740081e-01 2.08512597599162e-03
1.53431818181818e+00 1.25233487257951e-01 2.02995984196884e-03
1.54859090909091e+00 1.21351773268160e-01 1.97616771842546e-03
1.56286363636364e+00 1.17590376183124e-01 1.92371931934108e-03
1.57713636363636e+00 1.13945566659483e-01 1.87258482758685e-03
1.59140909090909e+00 1.10413730971173e-01 1.82273489116322e-03
1.60568181818182e+00 1.06991367422455e-01 1.77414064284888e-03
1.61995454545455e+00 1.03675082814980e-01 1.72677369495233e-03
1.63422727272727e+00 1.00461589145931e-01 1.68060613583441e-03
1.64850000000000e+00 9.73477003267727e-02 1.63561053680376e-03
1.66277272727273e+00 9.43303290413524e-02 1.59175995600290e-03
1.67704545454545e+00 9.14064836328642e-02 1.54902793383427e-03
1.69131818181818e+00 8.85732651908653e-02 1.50738848741771e-03
1.70559090909091e+00 8.58278646590050e-02 1.46681611416071e-03
1.71986363636364e+00 8.31675600643829e-02 1.42728579282491e-03
1.73413636363636e+00 8.05897137744063e-02 1.38877297733817e-03
1.74840909090909e+00 7.80917699269884e-02 1.35125358826507e-03
1.76268181818182e+00 7.56712518939092e-02 1.31470402031705e-03
1.77695454545455e+00 7.33257597859687e-02 1.27910113331580e-03
1.79122727272727e+00 7.10529681137397e-02 1.24442224458132e-03
1.80550000000000e+00 6.88506234682081e-02 1.21064512853870e-03
1.81977272727273e+00 6.67165422975679e-02 1.17774801451058e-03
1.83404545454545e+00 6.46486087086815e-02 1.14570957899016e-03
1.84831818181818e+00 6.26447724035585e-02 1.11450893745084e-03
1.86259090909091e+00 6.07030466348653e-02 1.08412564249418e-03
1.87686363636364e+00 5.88215062454859e-02 1.05453968048455e-03
1.89113636363636e+00 5.69982857310403e-02 1.02573146343869e-03
1.90540909090909e+00 5.52315774196490e-02 9.97681819487408e-04
1.91968181818182e+00 5.35196296780272e-02 9.70371994347110e-04
1.93395454545455e+00 5.18607451492586e-02 9.43783641730266e-04
1.94822727272727e+00 5.02532790959873e-02 9.17898814857541e-04
1.96250000000000e+00 4.86956377608158e-02 8.92699962991308e-04
1.97677272727273e+00 4.71862767932870e-02 8.68169926869303e-04
1.99104545454545e+00 4.57236996968355e-02 8.44291930512724e-04
2.00531818181818e+00 4.43064563673888e-02 8.21049572835067e-04
2.01959090909091e+00 4.29331416480313e-02 7.98426823659479e-04
2.03386363636364e+00 4.16023939419399e-02 7.76408018817735e-04
2.04813636363636e+00 4.03128938436520e-02 7.54977852126332e-04
2.06240909090909e+00 3.90633628500611e-02 7.34121366488573e-04
2.07668181818182e+00 3.78525620917508e-02 7.13823952568770e-04
2.09095454545455e+00 3.66792910880065e-02 6.94071340038488e-04
2.10522727272727e+00 3.55423865736113e-02 6.74849589655600e-04
2.11950000000000e+00 3.44407213396914e-02 6.56145088837656e-04
2.13377272727273e+00 3.33732031208007e-02 6.37944546567353e-04
2.14804545454545e+00 3.23387734976489e-02 6.20234985904270e-04
2.16231818181818e+00 3.13364068623359e-02 6.03003736432507e-04
2.17659090909091e+00 3.03651093965133e-02 5.86238429776348e-04
2.19086363636364e+00 2.94239180900517e-02 5.69926994558485e-04
2.20513636363636e+00 2.85118997739402e-02 5.54057649293255e-04
2.21940909090909e+00 2.76281502076421e-02 5.38618894744523e-04
2.23368181818182e+00 2.67717931818713e-02 5.23599511501495e-04
2.24795454545455e+00 2.59419796388895e-02 5.08988552547577e-04
2.26222727272727e+00 2.51378868418886e-02 4.94775336450073e-04
2.27650000000000e+00 2.43587175554516e-02 4.80949442983392e-04
2.29077272727273e+00 2.36036992581983e-02 4.67500708347380e-04
2.30504545454545e+00 2.28720833674216e-02 4.54419218798873e-04
2.31931818181818e+00 2.21631445065202e-02 4.41695304285031e-04
2.33359090909091e+00 2.14761797825313e-02 4.29319534213682e-04
2.34786363636364e+00 2.08105080918768e-02 4.17282712886234e-04
2.36213636363636e+00 2.01654694369536e-02 4.05575873560209e-04
2.37640909090909e+00 1.95404242800528e-02 3.94190272184610e-04
2.39068181818182e+00 1.89347529088219e-02 3.83117384737321e-04
2.40495454545455e+00 1.83478548145933e-02 3.72348901177090e-04
2.41922727272727e+00 1.77791481043948e-02 3.61876719854004e-04
2.43350000000000e+00 1.72280689214966e-02 3.51692943616242e-04
2.44777272727273e+00 1.66940708884029e-02 3.41789875672665e-04
2.46204545454545e+00 1.61766245588937e-02 3.32160014400247e-04
2.47631818181818e+00 1.56752168994669e-02 3.22796048182189e-04
2.49059090909091e+00 1.51893507785112e-02 3.13690851735994e-04
2.50486363636364e+00 1.47185444751676e-02 3.04837482238577e-04
2.51913636363636e+00 1.42623311963388e-02 2.96229174539305e-04
2.53340909090909e+00 1.38202586193695e-02 2.87859336174143e-04
2.54768181818182e+00 1.33918884432822e-02 2.79721544870474e-04
2.56195454545455e+00 1.29767959494077e-02 2.71809543756887e-04
2.57622727272727e+00 1.25745695851966e-02 2.64117236909368e-04
2.59050000000000e+00 1.21848105545037e-02 2.56638686081012e-04
2.60477272727273e+00 1.18071324235470e-02 2.49368107285811e-04
2.61904545454545e+00 1.14411607336243e-02 2.42299866679007e-04
2.63331818181818e+00 1.10865326340816e-02 2.35428476477809e-04
2.64759090909091e+00 1.07428965211163e-02 2.28748591921962e-04
2.66186363636364e+00 1.04099116903383e-02 2.22255008113513e-04
2.67613636363636e+00 1.00872479953934e-02 2.15942656248090e-04
2.69040909090909e+00 9.77458552428684e-03 2.09806599726289e-04
2.70468181818182e+00 9.47161428200107e-03 2.03842031989886e-04
2.71895454545455e+00 9.17803387994397e-03 1.98044272798707e-04
2.73322727272727e+00 8.89355324139052e-03 1.92408764753165e-04
2.74750000000000e+00 8.61789031177428e-03 1.86931070643356e-04
2.76177272727273e+00 8.35077177994148e-03 1.81606870712087e-04
2.77604545454545e+00 8.09193280440626e-03 1.76431959448002e-04
2.79031818181818e+00 7.84111675359112e-03 1.71402242419279e-04
2.80459090909091e+00 7.59807495042316e-03 1.66513733833706e-04
2.81886363636364e+00 7.36256642655663e-03 1.61762554027967e-04
2.83313636363636e+00 7.13435768107085e-03 1.57144926550213e-04
2.84740909090909e+00 6.91322245140035e-03 1.52657175171255e-04
2.86168181818182e+00 6.69894148887020e-03 1.48295722091861e-04
2.87595454545455e+00 6.49130233917813e-03 1.44057085088534e-04
2.89022727272727e+00 6.29009913393643e-03 1.39937874838032e-04
2.90450000000000e+00 6.09513238581475e-03 1.35934792819689e-04
2.91877272727273e+00 5.90620879135826e-03 1.32044629167961e-04
2.93304545454545e+00 5.72314103748320e-03 1.28264260210565e-04
2.94731818181818e+00 5.54574761765016e-03 1.24590646043084e-04
2.96159090909091e+00 5.37385265126262e-03 1.21020828611482e-04
2.97586363636364e+00 5.20728570980800e-03 1.17551929754053e-04
2.99013636363636e+00 5.04588164628267e-03 1.14181148971089e-04
3.00440909090909e+00 4.88948043308741e-03 1.10905761152828e-04
3.01868181818182e+00 4.73792700327664e-03 1.07723115137886e-04
3.03295454545455e+00 4.59107109538018e-03 1.04630631547834e-04
3.04722727272727e+00 4.44876710588739e-03 1.01625800751479e-04
3.06150000000000e+00 4.31087394438638e-03 9.87061812333905e-05
3.07577272727273e+00 4.17725489408229e-03 9.58693979344759e-05
3.09004545454545e+00 4.04777747500538e-03 9.31131403818958e-05
3.10431818181818e+00 3.92231331392836e-03 9.04351608498854e-05
3.11859090909091e+00 3.80073801665657e-03 8.78332728760063e-05
3.13286363636364e+00 3.68293104504506e-03 8.53053497549283e-05
3.14713636363636e+00 3.56877559641389e-03 8.28493228497179e-05
3.16140909090909e+00 3.45815848883897e-03 8.04631798793541e-05
3.17568181818182e+00 3.35097004887666e-03 7.81449637835399e-05
3.18995454545455e+00 3.24710400186185e-03 7.58927710931718e-05
3.20422727272727e+00 3.14645736752383e-03 7.37047503947187e-05
3.21850000000000e+00 3.04893035754882e-03 7.15791010776628e-05
3.23277272727273e+00 2.95442627691544e-03 6.95140720669298e-05
3.24704545454545e+00 2.86285142718938e-03 6.75079604140212e-05
3.26131818181818e+00 2.77411501447675e-03 6.55591099133851e-05
3.27559090909091e+00 2.68812905911429e-03 6.36659099677123e-05
3.28986363636364e+00 2.60480830867596e-03 6.18267944414338e-05
3.30413636363636e+00 2.52407015272402e-03 6.00402403917869e-05
3.31840909090909e+00 2.44583454164207e-03 5.83047667868553e-05
3.33268181818182e+00 2.37002390722869e-03 5.66189336253187e-05
3.34695454545455e+00 2.29656308514135e-03 5.49813407181620e-05
3.36122727272727e+00 2.22537924103626e-03 5.33906265382591e-05
3.37550000000000e+00 2.15640179812916e-03 5.18454672683002e-05
3.38977272727273e+00 2.08956236740433e-03 5.03445758412569e-05
3.40404545454545e+00 2.02479467924582e-03 4.88867008859952e-05
3.41831818181818e+00 1.96203451830796e-03 4.74706256929754e-05
3.43259090909091e+00 1.90121965965200e-03 4.60951673544233e-05
3.44686363636364e+00 1.84228980721105e-03 4.47591758988674e-05
3.46113636363636e+00 1.78518653351990e-03 4.34615333434685e-05
3.47540909090909e+00 1.72985322228463e-03 4.22011527396589e-05
3.48968181818182e+00 1.67623501222254e-03 4.09769774985785e-05
3.50395454545455e+00 1.62427874223022e-03 3.97879804850742e-05
3.51822727272727e+00 1.57393289912367e-03 3.86331631606821e-05
3.53250000000000e+00 1.52514756641180e-03 3.75115548656968e-05
3.54677272727273e+00 1.47787437492993e-03 3.64222120980516e-05
3.56104545454545e+00 1.43206645450262e-03 3.53642177284867e-05
3.57531818181818e+00 1.38767838786181e-03 3.43366802314196e-05
3.58959090909091e+00 1.34466616548463e-03 3.33387330381805e-05
3.60386363636364e+00 1.30298714206690e-03 3.23695338880705e-05
3.61813636363636e+00 1.26259999391124e-03 3.14282641241929e-05
3.63240909090909e+00 1.22346467829312e-03 3.05141279862277e-05
3.64668181818182e+00 1.18554239374169e-03 2.96263520982599e-05
3.66095454545455e+00 1.14879554127249e-03 2.87641847979962e-05
3.67522727272727e+00 1.11318768741214e-03 2.79268955012817e-05
3.68950000000000e+00 1.07868352797232e-03 2.71137741642122e-05
3.70377272727273e+00 1.04524885313086e-03 2.63241307443897e-05
3.71804545454545e+00 1.01285051325593e-03 2.55572946193593e-05
3.73231818181818e+00 9.81456386302303e-04 2.48126140171542e-05
3.74659090909091e+00 9.51035345873702e-04 2.40894555327197e-05
3.76086363636364e+00 9.21557230434815e-04 2.33872036440023e-05
3.77513636363636e+00 8.92992813183201e-04 2.27052601909205e-05
3.78940909090909e+00 8.65313773300299e-04 2.20430438532984e-05
3.80368181818182e+00 8.38492667860043e-04 2.13999897648891e-05
3.81795454545455e+00 8.12502904418771e-04 2.07755490185847e-05
3.83222727272727e+00 7.87318714855036e-04 2.01691881970436e-05
3.84650000000000e+00 7.62915129751219e-04 1.95803889718415e-05
3.86077272727273e+00 7.39267953694162e-04 1.90086477029506e-05
3.87504545454545e+00 7.16353741111283e-04 1.84534750094352e-05
3.88931818181818e+00 6.94149773203480e-04 1.79143953493851e-05
3.90359090909091e+00 6.72634035359315e-04 1.73909466601550e-05
3.91786363636364e+00 6.51785195377700e-04 1.68826799991779e-05
3.93213636363636e+00 6.31582582165704e-04 1.63891591598246e-05
3.94640909090909e+00 6.12006165398893e-04 1.59099602872839e-05
3.96068181818182e+00 5.93036535653644e-04 1.54446715894631e-05
3.97495454545455e+00 5.74654885026604e-04 1.49928929731766e-05
3.98922727272727e+00 5.56842988626722e-04 1.45542356986189e-05
4.00350000000000e+00 5.39583186458238e-04 1.41283220819733e-05
4.01777272727273e+00 5.22858365950088e-04 1.37147851988828e-05
4.03204545454545e+00 5.06651944870494e-04 1.33132685685686e-05
4.04631818181818e+00 4.90947855007450e-04 1.29234258449384e-05
4.06059090909091e+00 4.75730526196261e-04 1.25449205500643e-05
4.07486363636364e+00 4.60984870915848e-04 1.21774258086138e-05
4.08913636363636e+00 4.46696269226608e-04 1.18206240655013e-05
4.10340909090909e+00 4.32850554380646e-04 1.14742068040651e-05
4.11768181818182e+00 4.19433998770282e-04 1.11378743306333e-05
4.13195454545454e+00 4.06433300224578e-04 1.08113355077520e-05
4.14622727272727e+00 3.93835568915519e-04 1.04943075005549e-05
4.16050000000000e+00 3.81628314545773e-04 1.01865155569670e-05
4.17477272727273e+00 3.69799433991317e-04 9.88769278894133e-06
4.18904545454545e+00 3.58337199220691e-04 9.59757994068368e-06
4.20331818181818e+00 3.47230245749540e-04 9.31592516212990e-06
4.21759090909091e+00 3.36467561344952e-04 9.04248381220826e-06
4.23186363636364e+00 3.26038475130079e-04 8.77701826314244e-06
4.24613636363636e+00 3.15932646933928e-04 8.51929769347425e-06
4.26040909090909e+00 3.06140057111204e-04 8.26909788180121e-06
4.27468181818182e+00 2.96650996604343e-04 8.02620104692976e-06
4.28895454545455e+00 2.87456057253931e-04 7.79039565272710e-06
4.30322727272727e+00 2.78546122535446e-04 7.56147622241093e-06
4.31750000000000e+00 2.69912358498443e-04 7.33924317663163e-06
4.33177272727273e+00 2.61546205025939e-04 7.12350267257189e-06
4.34604545454545e+00 2.53439367292202e-04 6.91406643429854e-06
4.36031818181818e+00 2.45583807594930e-04 6.71075158703910e-06
4.37459090909091e+00 2.37971737366946e-04 6.51338051240564e-06
4.38886363636364e+00 2.30595609469696e-04 6.32178070460413e-06
4.40313636363636e+00 2.23448110662515e-04 6.13578461906046e-06
4.41740909090909e+00 2.16522154400731e-04 5.95522952178531e-06
4.43168181818182e+00 2.09810873806993e-04 5.77995737120956e-06
4.44595454545455e+00 2.03307614819759e-04 5.60981467572898e-06
4.46022727272727e+00 1.97005929640093e-04 5.44465235802356e-06
4.47450000000000e+00 1.90899570323820e-04 5.28432563611476e-06
4.48877272727273e+00 1.84982482599151e-04 5.12869390533696e-06
4.50304545454545e+00 1.79248799826439e-04 4.97762061442942e-06
