Energy (eV)          EEDF (eV^-(3/2))     First Anisotropy
7.97058823529412e-03 5.71163340486670e-01 3.64369306640256e-04
2.39117647058824e-02 5.65389860435064e-01 6.00655613397081e-04
3.98529411764706e-02 5.59674740369688e-01 7.90231488672069e-04
5.57941176470588e-02 5.54017390344590e-01 9.32619913823525e-04
7.17352941176471e-02 5.48417226405159e-01 1.05002920132313e-03
8.76764705882353e-02 5.42873670499391e-01 1.15089664948254e-03
1.03617647058824e-01 5.37386150424186e-01 1.23960863009435e-03
1.19558823529412e-01 5.31954099760112e-01 1.31882580442355e-03
1.35500000000000e-01 5.26576957771841e-01 1.39032054502632e-03
1.51441176470588e-01 5.21254169469010e-01 1.45535098963170e-03
1.67382352941176e-01 5.15985185392449e-01 1.51485249326652e-03
1.83323529411765e-01 5.10769461707157e-01 1.56954538922281e-03
1.99264705882353e-01 5.05606460012228e-01 1.62000007321701e-03
2.15205882352941e-01 5.00495647406313e-01 1.66667851420025e-03
2.31147058823529e-01 4.95436496322418e-01 1.70996191366767e-03
2.47088235294118e-01 4.90428484574461e-01 1.75016980366008e-03
2.63029411764706e-01 4.85471095210273e-01 1.78757363580176e-03
2.78970588235294e-01 4.80563816544467e-01 1.82240669498375e-03
2.94911764705882e-01 4.75706142042072e-01 1.85487150196878e-03
3.10852941176471e-01 4.70897570274299e-01 1.88514542544182e-03
3.26794117647059e-01 4.66137604912054e-01 1.91338503358118e-03
3.42735294117647e-01 4.61425754613861e-01 1.93972950140520e-03
3.58676470588235e-01 4.56761533032692e-01 1.96430331963402e-03
3.74617647058824e-01 4.52144458711237e-01 1.98721847425235e-03
3.90558823529412e-01 4.47574055083980e-01 2.00857621767529e-03
4.06500000000000e-01 4.43049850378777e-01 2.02846852342718e-03
4.22441176470588e-01 4.38571377615045e-01 2.04697929022912e-03
4.38382352941177e-01 4.34138174510849e-01 2.06418534803576e-03
4.54323529411765e-01 4.29749783477880e-01 2.08015730368877e-03
4.70264705882353e-01 4.25405751533403e-01 2.09496025783814e-03
4.86205882352941e-01 4.21105630292576e-01 2.10865441548549e-03
5.02147058823530e-01 4.16848975884722e-01 2.12129561011909e-03
5.18088235294118e-01 4.12635348943429e-01 2.13293575509501e-03
5.34029411764706e-01 4.08464314526716e-01 2.14362323540020e-03
5.49970588235294e-01 4.04335442105275e-01 2.15340324739119e-03
5.65911764705882e-01 4.00248305493341e-01 2.16231810103285e-03
5.81852941176471e-01 3.96202482806569e-01 2.17040747617521e-03
5.97794117647059e-01 3.92197556438970e-01 2.17770865745035e-03
6.13735294117647e-01 3.88233112992478e-01 2.18425673816668e-03
6.29676470588235e-01 3.84308743260673e-01 2.19008480195463e-03
6.45617647058824e-01 3.80424042161033e-01 2.19522408512674e-03
6.61558823529412e-01 3.76578608717789e-01 2.19970412150219e-03
6.77500000000000e-01 3.72772045996672e-01 2.20355287272467e-03
6.93441176470588e-01 3.69003961087039e-01 2.20679684513797e-03
7.09382352941176e-01 3.65273965038948e-01 2.20946119560220e-03
7.25323529411765e-01 3.61581672844683e-01 2.21156982685421e-03
7.41264705882353e-01 3.57926703378008e-01 2.21314547433501e-03
7.57205882352941e-01 3.54308679375192e-01 2.21420978477383e-03
7.73147058823529e-01 3.50727227376314e-01 2.21478338811871e-03
7.89088235294118e-01 3.47181977705886e-01 2.21488596288678e-03
8.05029411764706e-01 3.43672564416079e-01 2.21453629627702e-03
8.20970588235294e-01 3.40198625267030e-01 2.21375233833304e-03
8.36911764705882e-01 3.36759801675952e-01 2.21255125513745e-03
8.52852941176471e-01 3.33355738680885e-01 2.21094947131038e-03
8.68794117647059e-01 3.29986084915835e-01 2.20896271541403e-03
8.84735294117647e-01 3.26650492558818e-01 2.20660605896083e-03
9.00676470588235e-01 3.23348617311223e-01 2.20389395285885e-03
9.16617647058824e-01 3.20080118347411e-01 2.20084026143599e-03
9.32558823529412e-01 3.16844658294012e-01 2.19745829375306e-03
9.48500000000000e-01 3.13641903180995e-01 2.19376083294986e-03
9.64441176470588e-01 3.10471522420940e-01 2.18976016330587e-03
9.80382352941177e-01 3.07333188761520e-01 2.18546809569531e-03
9.96323529411765e-01 3.04226578264781e-01 2.18089599214533e-03
1.01226470588235e+00 3.01151370254904e-01 2.17605478183578e-03
1.02820588235294e+00 2.98107247333391e-01 2.17095499441493e-03
1.04414705882353e+00 2.95093895254161e-01 2.16560677294681e-03
1.06008823529412e+00 2.92111002977185e-01 2.16001987607411e-03
1.07602941176471e+00 2.89158262633802e-01 2.15420372481623e-03
1.09197058823529e+00 2.86235369412631e-01 2.14816740362291e-03
1.10791176470588e+00 2.83342021610804e-01 2.14191966077946e-03
1.12385294117647e+00 2.80477920600575e-01 2.13546895137964e-03
1.13979411764706e+00 2.77642770721869e-01 2.12882343647454e-03
1.15573529411765e+00 2.74836279328756e-01 2.12199098175090e-03
1.17167647058824e+00 2.72058156757083e-01 2.11497919682318e-03
1.18761764705882e+00 2.69308116223257e-01 2.10779543293527e-03
1.20355882352941e+00 2.66585873866397e-01 2.10044678037588e-03
1.21950000000000e+00 2.63891148716969e-01 2.09294010461743e-03
1.23544117647059e+00 2.61223662601296e-01 2.08528203895307e-03
1.25138235294118e+00 2.58583140200617e-01 2.07747899696870e-03
1.26732352941176e+00 2.55969308937305e-01 2.06953718597529e-03
1.28326470588235e+00 2.53381899010057e-01 2.06146259878892e-03
1.29920588235294e+00 2.50820643364280e-01 2.05326104528284e-03
1.31514705882353e+00 2.48285277605675e-01 2.04493814796920e-03
1.33108823529412e+00 2.45775540032164e-01 2.03649933749890e-03
1.34702941176471e+00 2.43291171605303e-01 2.02794988204186e-03
1.36297058823529e+00 2.40831915868397e-01 2.01929488242486e-03
1.37891176470588e+00 2.38397518975462e-01 2.01053926719897e-03
1.39485294117647e+00 2.35987729663626e-01 2.00168782009621e-03
1.41079411764706e+00 2.33602299175436e-01 1.99274517484414e-03
1.42673529411765e+00 2.31240981285204e-01 1.98371580994761e-03
1.44267647058824e+00 2.28903532272254e-01 1.97460407442503e-03
1.45861764705882e+00 2.26589710847191e-01 1.96541418238889e-03
1.47455882352941e+00 2.24299278175869e-01 1.95615020765371e-03
1.49050000000000e+00 2.22031997853444e-01 1.94681610791888e-03
1.50644117647059e+00 2.19787635834349e-01 1.93741571616175e-03
1.52238235294118e+00 2.17565960468451e-01 1.92795274733476e-03
1.53832352941176e+00 2.15366742418295e-01 1.91843080591217e-03
1.55426470588235e+00 2.13189754679155e-01 1.90885337714513e-03
1.57020588235294e+00 2.11034772554474e-01 1.89922384882064e-03
1.58614705882353e+00 2.08901573591770e-01 1.88954550569006e-03
1.60208823529412e+00 2.06789937600834e-01 1.87982152396566e-03
1.61802941176471e+00 2.04699646629974e-01 1.87005499188198e-03
1.63397058823529e+00 2.02630484904969e-01 1.86024890413853e-03
1.64991176470588e+00 2.00582238845557e-01 1.85040615639805e-03
1.66585294117647e+00 1.98554697042468e-01 1.84052956474988e-03
1.68179411764706e+00 1.96547650199221e-01 1.83062186019046e-03
1.69773529411765e+00 1.94560891147097e-01 1.82068568316686e-03
1.71367647058824e+00 1.92594214822870e-01 1.81072360202760e-03
1.72961764705882e+00 1.90647418213311e-01 1.80073810755530e-03
1.74555882352941e+00 1.88720300368775e-01 1.79073160758843e-03
1.76150000000000e+00 1.86812662381600e-01 1.78070644453260e-03
1.77744117647059e+00 1.84924307333167e-01 1.77066488761189e-03
1.79338235294118e+00 1.83055040316462e-01 1.76060913703017e-03
1.80932352941176e+00 1.81204668374021e-01 1.75054132881096e-03
1.82526470588235e+00 1.79373000509212e-01 1.74046352708964e-03
1.84120588235294e+00 1.77559847665751e-01 1.73037774010634e-03
1.85714705882353e+00 1.75765022678885e-01 1.72028591503747e-03
1.87308823529412e+00 1.73988340285563e-01 1.71018993292053e-03
1.88902941176471e+00 1.72229617104618e-01 1.70009162387756e-03
1.90497058823529e+00 1.70488671590093e-01 1.68999276206677e-03
1.92091176470588e+00 1.68765324040404e-01 1.67989506071331e-03
1.93685294117647e+00 1.67059396579151e-01 1.66980018661439e-03
1.95279411764706e+00 1.65370713110479e-01 1.65970975521132e-03
1.96873529411765e+00 1.63699099327330e-01 1.64962532574095e-03
1.98467647058824e+00 1.62044382692835e-01 1.63954841506725e-03
2.00061764705882e+00 1.60406392397614e-01 1.62948049287094e-03
2.01655882352941e+00 1.58784959367196e-01 1.61942297693211e-03
2.03250000000000e+00 1.57179916243968e-01 1.60937724632730e-03
2.04844117647059e+00 1.55591097346316e-01 1.59934463489490e-03
2.06438235294118e+00 1.54018338682761e-01 1.58932643405405e-03
2.08032352941177e+00 1.52461477904436e-01 1.57932389615587e-03
2.09626470588235e+00 1.50920354311107e-01 1.56933822803080e-03
2.11220588235294e+00 1.49394808834057e-01 1.55937060314351e-03
2.12814705882353e+00 1.47884683998183e-01 1.54942215715831e-03
2.14408823529412e+00 1.46389823927363e-01 1.53949398359256e-03
2.16002941176471e+00 1.44910074327868e-01 1.52958714543427e-03
2.17597058823529e+00 1.43445282452048e-01 1.51970267084113e-03
2.19191176470588e+00 1.41995297103070e-01 1.50984154891581e-03
2.20785294117647e+00 1.40559968618868e-01 1.50000474081705e-03
2.22379411764706e+00 1.39139148837309e-01 1.49019317558689e-03
2.23973529411765e+00 1.37732691100393e-01 1.48040774605260e-03
2.25567647058824e+00 1.36340450238679e-01 1.47064931945861e-03
2.27161764705882e+00 1.34962282537892e-01 1.46091873341589e-03
2.28755882352941e+00 1.33598045742609e-01 1.45121679193323e-03
2.30350000000000e+00 1.32247599041160e-01 1.44154427559398e-03
2.31944117647059e+00 1.30910803033593e-01 1.43190193616646e-03
2.33538235294118e+00 1.29587519740470e-01 1.42229049861721e-03
2.35132352941176e+00 1.28277612565891e-01 1.41271066354220e-03
2.36726470588235e+00 1.26980946300333e-01 1.40316310186077e-03
2.38320588235294e+00 1.25697387106305e-01 1.39364846423868e-03
2.39914705882353e+00 1.24426802488534e-01 1.38416737738821e-03
2.41508823529412e+00 1.23169061296392e-01 1.37472044044403e-03
2.43102941176471e+00 1.21924033710005e-01 1.36530823399318e-03
2.44697058823529e+00 1.20691591211621e-01 1.35593131649667e-03
2.46291176470588e+00 1.19471606587663e-01 1.34659022077755e-03
2.47885294117647e+00 1.18263953915275e-01 1.33728546267785e-03
2.49479411764706e+00 1.17068508534812e-01 1.32801753759568e-03
2.51073529411765e+00 1.15885147051568e-01 1.31878691708690e-03
2.52667647058824e+00 1.14713747322720e-01 1.30959405716729e-03
2.54261764705882e+00 1.13554188430909e-01 1.30043939495867e-03
2.55855882352941e+00 1.12406350685657e-01 1.29132334540446e-03
2.57450000000000e+00 1.11270115610709e-01 1.28224630923289e-03
2.59044117647059e+00 1.10145365918642e-01 1.27320866854742e-03
2.60638235294118e+00 1.09031985516205e-01 1.26421078831492e-03
2.62232352941176e+00 1.07929859475214e-01 1.25525301818211e-03
2.63826470588235e+00 1.06838874033449e-01 1.24633568814061e-03
2.65420588235294e+00 1.05758916582632e-01 1.23745911592760e-03
2.67014705882353e+00 1.04689875644719e-01 1.22862360397341e-03
2.68608823529412e+00 1.03631640872555e-01 1.21982943641266e-03
2.70202941176471e+00 1.02584103038223e-01 1.21107688618859e-03
2.71797058823529e+00 1.01547154010243e-01 1.20236621210445e-03
2.73391176470588e+00 1.00520686754008e-01 1.19369765593091e-03
2.74985294117647e+00 9.95045953204875e-02 1.18507144922823e-03
2.76579411764706e+00 9.84987748243014e-02 1.17648781049600e-03
2.78173529411765e+00 9.75031214439506e-02 1.16794694237711e-03
2.79767647058824e+00 9.65175324108670e-02 1.15944903821031e-03
2.81361764705882e+00 9.55419059883169e-02 1.15099427927264e-03
2.82955882352941e+00 9.45761414714563e-02 1.14258283207922e-03
2.84550000000000e+00 9.36201391767058e-02 1.13421485467777e-03
2.86144117647059e+00 9.26738004214560e-02 1.12589049305048e-03
2.87738235294118e+00 9.17370275271526e-02 1.11760988223876e-03
2.89332352941176e+00 9.08097237961760e-02 1.10937314772850e-03
2.90926470588235e+00 8.98917935115830e-02 1.10118040191498e-03
2.92520588235294e+00 8.89831419270169e-02 1.09303174996808e-03
2.94114705882353e+00 8.80836752477071e-02 1.08492728732602e-03
2.95708823529412e+00 8.71933006300681e-02 1.07686709724112e-03
2.97302941176471e+00 8.63119261719212e-02 1.06885125641741e-03
2.98897058823529e+00 8.54394608941999e-02 1.06087983259048e-03
3.00491176470588e+00 8.45758147404206e-02 1.05295288215393e-03
3.02085294117647e+00 8.37208985672046e-02 1.04507045557954e-03
3.03679411764706e+00 8.28746241266602e-02 1.03723259507879e-03
3.05273529411765e+00 8.20369040657411e-02 1.02943933230959e-03
3.06867647058824e+00 8.12076519170529e-02 1.02169069358814e-03
3.08461764705882e+00 8.03867820818879e-02 1.01398669762770e-03
3.10055882352941e+00 7.95742098294816e-02 1.00632735332447e-03
3.11650000000000e+00 7.87698512880950e-02 9.98712664769487e-04
3.13244117647059e+00 7.79736234286752e-02 9.91142628313882e-04
3.14838235294118e+00 7.71854440664773e-02 9.83617233432749e-04
3.16432352941177e+00 7.64052318425616e-02 9.76136463795974e-04
3.18026470588235e+00 7.56329062228707e-02 9.68700294385674e-04
3.19620588235294e+00 7.48683874897575e-02 9.61308696176089e-04
3.21214705882353e+00 7.41115967266595e-02 9.53961634078774e-04
3.22808823529412e+00 7.33624558170972e-02 9.46659064930568e-04
3.24402941176471e+00 7.26208874364631e-02 9.39400941996214e-04
3.25997058823529e+00 7.18868150372512e-02 9.32187212984484e-04
3.27591176470588e+00 7.11601628479862e-02 9.25017818102673e-04
3.29185294117647e+00 7.04408558652642e-02 9.17892694389574e-04
3.30779411764706e+00 6.97288198395154e-02 9.10811773798821e-04
3.32373529411765e+00 6.90239812738751e-02 9.03774981319314e-04
3.33967647058824e+00 6.83262674164631e-02 8.96782239145515e-04
3.35561764705882e+00 6.76356062466613e-02 8.89833464824286e-04
3.37155882352941e+00 6.69519264739335e-02 8.82928569440191e-04
3.38750000000000e+00 6.62751575303350e-02 8.76067461629356e-04
3.40344117647059e+00 6.56052295572869e-02 8.69250045183699e-04
3.41938235294118e+00 6.49420734062509e-02 8.62476219721904e-04
3.43532352941176e+00 6.42856206238352e-02 8.55745881526068e-04
3.45126470588235e+00 6.36358034505169e-02 8.49058921188889e-04
3.46720588235294e+00 6.29925548135274e-02 8.42415227367430e-04
3.48314705882353e+00 6.23558083144258e-02 8.35814685098841e-04
3.49908823529412e+00 6.17254982277847e-02 8.29257174150850e-04
3.51502941176471e+00 6.11015594942930e-02 8.22742572636119e-04
3.53097058823529e+00 6.04839277087712e-02 8.16270755386017e-04
3.54691176470588e+00 5.98725391188252e-02 8.09841592355866e-04
3.56285294117647e+00 5.92673306181600e-02 8.03454952105524e-04
3.57879411764706e+00 5.86682397350190e-02 7.97110700228195e-04
3.59473529411765e+00 5.80752046308137e-02 7.90808697809723e-04
3.61067647058824e+00 5.74881640936377e-02 7.84548804780906e-04
3.62661764705882e+00 5.69070575271159e-02 7.78330878398348e-04
3.64255882352941e+00 5.63318249490141e-02 7.72154771756784e-04
3.65850000000000e+00 5.57624069849472e-02 7.66020337017821e-04
3.67444117647059e+00 5.51987448576230e-02 7.59927423451920e-04
3.69038235294118e+00 5.46407803869180e-02 7.53875877964270e-04
3.70632352941176e+00 5.40884559778274e-02 7.47865545753423e-04
3.72226470588235e+00 5.35417146190312e-02 7.41896268388396e-04
3.73820588235294e+00 5.30004998769176e-02 7.35967886832177e-04
3.75414705882353e+00 5.24647558854640e-02 7.30080240060439e-04
3.77008823529412e+00 5.19344273447924e-02 7.24233163708682e-04
3.78602941176471e+00 5.14094595153742e-02 7.18426492985133e-04
3.80197058823529e+00 5.08897982082654e-02 7.12660061336828e-04
3.81791176470588e+00 5.03753897836534e-02 7.06933699141620e-04
3.83385294117647e+00 4.98661811452388e-02 7.01247236514969e-04
3.84979411764706e+00 4.93621197308097e-02 6.95600502021039e-04
3.86573529411765e+00 4.88631535107861e-02 6.89993321408947e-04
3.88167647058824e+00 4.83692309827690e-02 6.84425520317583e-04
3.89761764705882e+00 4.78803011624448e-02 6.78896923029361e-04
3.91355882352941e+00 4.73963135821276e-02 6.73407351249719e-04
3.92950000000000e+00 4.69172182854722e-02 6.67956626713780e-04
3.94544117647059e+00 4.64429658186948e-02 6.62544569584105e-04
3.96138235294118e+00 4.59735072302787e-02 6.57170998865335e-04
3.97732352941176e+00 4.55087940611856e-02 6.51835732925849e-04
3.99326470588235e+00 4.50487783433894e-02 6.46538587924178e-04
4.00920588235294e+00 4.45934125948529e-02 6.41279380252712e-04
4.02514705882353e+00 4.41426498112598e-02 6.36057925403833e-04
4.04108823529412e+00 4.36964434645520e-02 6.30874036859297e-04
4.05702941176471e+00 4.32547474980599e-02 6.25727528445784e-04
4.07297058823529e+00 4.28175163185184e-02 6.20618213239748e-04
4.08891176470588e+00 4.23847047946108e-02 6.15545902493506e-04
4.10485294117647e+00 4.19562682522471e-02 6.10510407906100e-04
4.12079411764706e+00 4.15321624668536e-02 6.05511540565004e-04
4.13673529411765e+00 4.11123436619264e-02 6.00549109908365e-04
4.15267647058824e+00 4.06967685044511e-02 5.95622925914342e-04
4.16861764705882e+00 4.02853940974576e-02 5.90732798077808e-04
4.18455882352941e+00 3.98781779785845e-02 5.85878534407969e-04
4.20050000000000e+00 3.94750781156351e-02 5.81059943539192e-04
4.21644117647059e+00 3.90760528993888e-02 5.76276833418076e-04
4.23238235294118e+00 3.86810611430915e-02 5.71529011632123e-04
4.24832352941177e+00 3.82900620744762e-02 5.66816285824919e-04
4.26426470588235e+00 3.79030153343381e-02 5.62138462406554e-04
4.28020588235294e+00 3.75198809723131e-02 5.57495348534386e-04
4.29614705882353e+00 3.71406194401005e-02 5.52886751181358e-04
4.31208823529412e+00 3.67651915900521e-02 5.48312476223354e-04
4.32802941176471e+00 3.63935586710784e-02 5.43772330349306e-04
4.34397058823529e+00 3.60256823221024e-02 5.39266120161174e-04
4.35991176470588e+00 3.56615245706621e-02 5.34793651291338e-04
4.37585294117647e+00 3.53010478289419e-02 5.30354730244823e-04
4.39179411764706e+00 3.49442148874475e-02 5.25949163529475e-04
4.40773529411765e+00 3.45909889136257e-02 5.21576756802865e-04
4.42367647058824e+00 3.42413334480142e-02 5.17237316649111e-04
4.43961764705882e+00 3.38952123981313e-02 5.12930649737665e-04
4.45555882352941e+00 3.35525900371132e-02 5.08656561999274e-04
4.47150000000000e+00 3.32134309999788e-02 5.04414860339719e-04
4.48744117647059e+00 3.28777002777268e-02 5.00205351562474e-04
4.50338235294118e+00 3.25453632167141e-02 4.96027842630319e-04
4.51932352941177e+00 3.22163855121311e-02 4.91882140997051e-04
4.53526470588235e+00 3.18907332066624e-02 4.87768053549252e-04
4.55120588235294e+00 3.15683726869372e-02 4.83685388215720e-04
4.56714705882353e+00 3.12492706779613e-02 4.79633953201139e-04
4.58308823529412e+00 3.09333942417952e-02 4.75613556235296e-04
4.59902941176471e+00 3.06207107741130e-02 4.71624006125709e-04
4.61497058823529e+00 3.03111879988208e-02 4.67665112017124e-04
4.63091176470588e+00 3.00047939667542e-02 4.63736682665414e-04
4.64685294117647e+00 2.97014970523414e-02 4.59838527935563e-04
4.66279411764706e+00 2.94012659484023e-02 4.55970458085880e-04
4.67873529411765e+00 2.91040696648654e-02 4.52132283066049e-04
4.69467647058824e+00 2.88098775255317e-02 4.48323813962444e-04
4.71061764705882e+00 2.85186591630481e-02 4.44544862305875e-04
4.72655882352941e+00 2.82303845176451e-02 4.40795239393317e-04
4.74250000000000e+00 2.79450238339970e-02 4.37074757682388e-04
4.75844117647059e+00 2.76625476563646e-02 4.33383229906280e-04
4.77438235294118e+00 2.73829268279272e-02 4.29720469282648e-04
4.79032352941176e+00 2.71061324854348e-02 4.26086289779442e-04
4.80626470588235e+00 2.68321360579757e-02 4.22480505245446e-04
4.82220588235294e+00 2.65609092639925e-02 4.18902930720804e-04
4.83814705882353e+00 2.62924241066966e-02 4.15353381805938e-04
4.85408823529412e+00 2.60266528728561e-02 4.11831674043309e-04
4.87002941176471e+00 2.57635681299024e-02 4.08337624182076e-04
4.88597058823529e+00 2.55031427214975e-02 4.04871049568237e-04
4.90191176470588e+00 2.52453497663422e-02 4.01431767546598e-04
4.91785294117647e+00 2.49901626553710e-02 3.98019596681297e-04
4.93379411764706e+00 2.47375550474659e-02 3.94634356166197e-04
4.94973529411765e+00 2.44875008682871e-02 3.91275865246670e-04
4.96567647058824e+00 2.42399743075510e-02 3.87943944397608e-04
4.98161764705882e+00 2.39949498148874e-02 3.84638414753075e-04
4.99755882352941e+00 2.37524020986909e-02 3.81359097547508e-04
5.01350000000000e+00 2.35123061234816e-02 3.78105815252622e-04
5.02944117647059e+00 2.32746371058989e-02 3.74878390849336e-04
