Energy (eV)          EEDF (eV^-(3/2))     First Anisotropy
1.25000000000000e-02 6.11347751937304e-01 3.11300704520911e-08
3.75000000000000e-02 6.11347674679636e-01 2.67088618667914e-07
6.25000000000000e-02 6.11346979843066e-01 1.19399587197606e-06
8.75000000000000e-02 6.11344978429241e-01 3.03121087698604e-06
1.12500000000000e-01 6.11341147744619e-01 5.82921046832357e-06
1.37500000000000e-01 6.11335013941949e-01 9.61833661324984e-06
1.62500000000000e-01 6.11326171992339e-01 1.42677035769514e-05
1.87500000000000e-01 6.11314433324157e-01 1.96578975942862e-05
2.12500000000000e-01 6.11299581011699e-01 2.55003554427072e-05
2.37500000000000e-01 6.11281816173475e-01 3.16733948464353e-05
2.62500000000000e-01 6.11261034759244e-01 3.82912425072891e-05
2.87500000000000e-01 6.11237229951739e-01 4.52558963019251e-05
3.12500000000000e-01 6.11210384838677e-01 5.45327571906875e-05
3.37500000000000e-01 6.11178370958006e-01 6.95813805161706e-05
3.62500000000000e-01 6.11137761514926e-01 9.06447659432432e-05
3.87500000000000e-01 6.11086635457089e-01 1.15561876893304e-04
4.12500000000000e-01 6.11024090943894e-01 1.44394395939911e-04
4.37500000000000e-01 6.10948386640009e-01 1.79933157965527e-04
4.62500000000000e-01 6.10856205134494e-01 2.22628795415792e-04
4.87500000000000e-01 6.10745637957919e-01 2.70021513233345e-04
5.12500000000000e-01 6.10615846903157e-01 3.20204499976819e-04
5.37500000000000e-01 6.10466759688285e-01 3.72455547798743e-04
5.62500000000000e-01 6.10298180077862e-01 4.25857232090384e-04
5.87500000000000e-01 6.10110707205499e-01 4.78867455720333e-04
6.12500000000000e-01 6.09905335027560e-01 5.44480627839938e-04
6.37500000000000e-01 6.09672061756729e-01 6.44201075150069e-04
6.62500000000000e-01 6.09395279820522e-01 7.79084506356396e-04
6.87500000000000e-01 6.09065384465475e-01 9.36932302315524e-04
7.12500000000000e-01 6.08677240574822e-01 1.10293194075781e-03
7.37500000000000e-01 6.08233069164678e-01 1.29057120972984e-03
7.62500000000000e-01 6.07717768502142e-01 1.54009695882386e-03
7.87500000000000e-01 6.07104468585936e-01 1.85554171907794e-03
8.12500000000000e-01 6.06376794909395e-01 2.20909522957130e-03
8.37500000000000e-01 6.05529314898505e-01 2.56736902964518e-03
8.62500000000000e-01 6.04569849562548e-01 2.90245166793879e-03
8.87500000000000e-01 6.03512120160788e-01 3.20576126062455e-03
9.12500000000000e-01 6.02368912505924e-01 3.48788651410150e-03
9.37500000000000e-01 6.01145707978072e-01 3.76743074407529e-03
9.62500000000000e-01 5.99842093193259e-01 4.05203624809929e-03
9.87500000000000e-01 5.98458233523648e-01 4.33892302911136e-03
1.01250000000000e+00 5.96995477000995e-01 4.72456086747665e-03
1.03750000000000e+00 5.95390660110367e-01 5.36588599344341e-03
1.06250000000000e+00 5.93545880250398e-01 6.28233378396658e-03
1.08750000000000e+00 5.91390665716823e-01 7.40242607889102e-03
1.11250000000000e+00 5.88876744396890e-01 8.68370324583702e-03
1.13750000000000e+00 5.85961007048027e-01 1.00875598309081e-02
1.16250000000000e+00 5.82620128427477e-01 1.15776030458866e-02
1.18750000000000e+00 5.78836386822826e-01 1.31296139022744e-02
1.21250000000000e+00 5.74601793359629e-01 1.47289770852205e-02
1.23750000000000e+00 5.69902139655471e-01 1.63359867734317e-02
1.26250000000000e+00 5.64751497287579e-01 1.79395451865769e-02
1.28750000000000e+00 5.59146688601578e-01 1.95629166165579e-02
1.31250000000000e+00 5.53087291705778e-01 2.11465931919869e-02
1.33750000000000e+00 5.46607703754108e-01 2.26920002639164e-02
1.36250000000000e+00 5.39706357356011e-01 2.43101156243386e-02
1.38750000000000e+00 5.32349274341053e-01 2.60426789937201e-02
1.41250000000000e+00 5.24510760014505e-01 2.78581507606319e-02
1.43750000000000e+00 5.16175715907541e-01 2.97320007994117e-02
1.46250000000000e+00 5.07332872313472e-01 3.16542248109349e-02
1.48750000000000e+00 4.97972909999545e-01 3.36085115578614e-02
1.51250000000000e+00 4.88093834598403e-01 3.56461730118589e-02
1.53750000000000e+00 4.77647982906712e-01 3.77409745635709e-02
1.56250000000000e+00 4.66646867107314e-01 3.97748608340963e-02
1.58750000000000e+00 4.55117994095889e-01 4.17274318066129e-02
1.61250000000000e+00 4.43083668003432e-01 4.37283767834018e-02
1.63750000000000e+00 4.30475735710045e-01 4.59137851635810e-02
1.66250000000000e+00 4.17236711423247e-01 4.84251039698376e-02
1.68750000000000e+00 4.03239700960914e-01 5.13359484812010e-02
1.71250000000000e+00 3.88385919650805e-01 5.46761354254920e-02
1.73750000000000e+00 3.72504417904015e-01 5.81095433575648e-02
1.76250000000000e+00 3.55679854486112e-01 6.10359638312639e-02
1.78750000000000e+00 3.38104487318274e-01 6.32980016576959e-02
1.81250000000000e+00 3.19952552736922e-01 6.59336860517733e-02
1.83750000000000e+00 3.00600089215216e-01 6.87556999323651e-02
1.86250000000000e+00 2.80296439396464e-01 7.06536421137178e-02
1.88750000000000e+00 2.59283720679214e-01 7.16945115069034e-02
1.91250000000000e+00 2.37793560519256e-01 7.15267752774473e-02
1.93750000000000e+00 2.16335774951264e-01 6.97743510188097e-02
1.96250000000000e+00 1.95397999847369e-01 6.66265921440125e-02
1.98750000000000e+00 1.75372218667153e-01 6.23624131245631e-02
2.01250000000000e+00 1.56603320131748e-01 5.73842200613380e-02
2.03750000000000e+00 1.39283727228029e-01 5.23198652540768e-02
2.06250000000000e+00 1.23367372409977e-01 4.74645755736158e-02
2.08750000000000e+00 1.08828460383085e-01 4.28056422222248e-02
2.11250000000000e+00 9.56258409183030e-02 3.82523246249171e-02
2.13750000000000e+00 8.38855939319746e-02 3.39556322879669e-02
2.16250000000000e+00 7.34330635214549e-02 3.01869283655732e-02
2.18750000000000e+00 6.41089121492995e-02 2.68953915532924e-02
2.21250000000000e+00 5.57698592409177e-02 2.39196086286024e-02
2.23750000000000e+00 4.83818787078270e-02 2.11092977890511e-02
2.26250000000000e+00 4.18923062752849e-02 1.84735011014094e-02
2.28750000000000e+00 3.62379968985903e-02 1.60283831521764e-02
2.31250000000000e+00 3.13559735456344e-02 1.38135206627916e-02
2.33750000000000e+00 2.71625213636913e-02 1.18964554681698e-02
2.36250000000000e+00 2.35483170400257e-02 1.02753468690426e-02
2.38750000000000e+00 2.04256576252040e-02 8.89801379034926e-03
2.41250000000000e+00 1.77201488650028e-02 7.70984141586628e-03
2.43750000000000e+00 1.53833151591253e-02 6.66075039260546e-03
2.46250000000000e+00 1.33727792011162e-02 5.73120332343486e-03
2.48750000000000e+00 1.16501039231095e-02 4.90836983613173e-03
2.51250000000000e+00 1.01818011489512e-02 4.18863151937162e-03
2.53750000000000e+00 8.93330684146162e-03 3.57806659865825e-03
2.56250000000000e+00 7.86718379931100e-03 3.06925515093211e-03
2.58750000000000e+00 6.95304125121949e-03 2.64397142857036e-03
2.61250000000000e+00 6.16572867567112e-03 2.28452454905494e-03
2.63750000000000e+00 5.48751904988188e-03 1.97700192527378e-03
2.66250000000000e+00 4.90217592471624e-03 1.71526949000192e-03
2.68750000000000e+00 4.39527922741237e-03 1.49346037816735e-03
2.71250000000000e+00 3.95465651179585e-03 1.30103061709648e-03
2.73750000000000e+00 3.57512425836245e-03 1.13164618154391e-03
2.76250000000000e+00 3.24782679214622e-03 9.85462681219389e-04
2.78750000000000e+00 2.96528208252401e-03 8.59050295581304e-04
2.81250000000000e+00 2.72114806263506e-03 7.49392060150096e-04
2.83750000000000e+00 2.51134168766789e-03 6.57133695410750e-04
2.86250000000000e+00 2.32897719440955e-03 5.83032466817652e-04
2.88750000000000e+00 2.16860349593019e-03 5.23832437394465e-04
2.91250000000000e+00 2.02571101674673e-03 4.74627299377480e-04
2.93750000000000e+00 1.89822555512053e-03 4.29613373664257e-04
2.96250000000000e+00 1.78511337418271e-03 3.86630390769853e-04
2.98750000000000e+00 1.68541656760614e-03 3.45524538858253e-04
3.01250000000000e+00 1.59824554177187e-03 3.08670648014929e-04
3.03750000000000e+00 1.52066536657640e-03 2.76957203583335e-04
3.06250000000000e+00 1.45168493500218e-03 2.48395592917239e-04
3.08750000000000e+00 1.39034843256012e-03 2.22798048874461e-04
3.11250000000000e+00 1.33580685584343e-03 1.99540879696003e-04
3.13750000000000e+00 1.28761718096742e-03 1.78571710649758e-04
3.16250000000000e+00 1.24494282995810e-03 1.60241924707424e-04
3.18750000000000e+00 1.20703917380306e-03 1.44297438407748e-04
3.21250000000000e+00 1.17324413723336e-03 1.30765344484196e-04
3.23750000000000e+00 1.14274517791422e-03 1.19321108227729e-04
3.26250000000000e+00 1.11510708594051e-03 1.09384865448572e-04
3.28750000000000e+00 1.08993383977803e-03 1.00842064551233e-04
3.31250000000000e+00 1.06686550184452e-03 9.36872470388613e-05
3.33750000000000e+00 1.04548062141013e-03 8.77194318377215e-05
3.36250000000000e+00 1.02554122880399e-03 8.26706861330437e-05
3.38750000000000e+00 1.00681393326865e-03 7.85143841499809e-05
3.41250000000000e+00 9.89082650069812e-04 7.51025994076579e-05
3.43750000000000e+00 9.72191362175912e-04 7.21267265159251e-05
3.46250000000000e+00 9.56072850566654e-04 6.93150098986989e-05
3.48750000000000e+00 9.40699057341015e-04 6.65811489828410e-05
3.51250000000000e+00 9.26043439513655e-04 6.40109502901995e-05
3.53750000000000e+00 9.12024402746805e-04 6.16422982730996e-05
3.56250000000000e+00 8.98602066904541e-04 5.94168008303566e-05
3.58750000000000e+00 8.85739095300053e-04 5.73261291020328e-05
3.61250000000000e+00 8.73400548855042e-04 5.52716077570885e-05
3.63750000000000e+00 8.61593396852026e-04 5.30757550787219e-05
3.66250000000000e+00 8.50360120559841e-04 5.06646544820479e-05
3.68750000000000e+00 8.39738486000156e-04 4.80519412297883e-05
3.71250000000000e+00 8.29763442855349e-04 4.53717242177579e-05
3.73750000000000e+00 8.20402731154682e-04 4.28117595274720e-05
3.76250000000000e+00 8.11613297593503e-04 4.04668075936916e-05
3.78750000000000e+00 8.03335808503520e-04 3.83722852510825e-05
3.81250000000000e+00 7.95513844516373e-04 3.65197046451589e-05
3.83750000000000e+00 7.88093326186476e-04 3.49020367233531e-05
3.86250000000000e+00 7.81022393573532e-04 3.35117340497042e-05
3.88750000000000e+00 7.74251665489399e-04 3.23407327159915e-05
3.91250000000000e+00 7.67734113754510e-04 3.13939667961139e-05
3.93750000000000e+00 7.61415869791131e-04 3.06484991746783e-05
3.96250000000000e+00 7.55260984289810e-04 3.00691307719812e-05
3.98750000000000e+00 7.49235053725192e-04 2.96507018123879e-05
4.01250000000000e+00 7.43305164633433e-04 2.93707907619317e-05
4.03750000000000e+00 7.37443158967009e-04 2.91516681071457e-05
4.06250000000000e+00 7.31648043507783e-04 2.89351419331875e-05
4.08750000000000e+00 7.25918844991913e-04 2.87211686430327e-05
4.11250000000000e+00 7.20254608554534e-04 2.85099178192930e-05
4.13750000000000e+00 7.14654314491563e-04 2.83017570545074e-05
4.16250000000000e+00 7.09116884341775e-04 2.80968323869789e-05
4.18750000000000e+00 7.03641263650951e-04 2.78950807041898e-05
4.21250000000000e+00 6.98226421485739e-04 2.77061476968013e-05
4.23750000000000e+00 6.92865843283541e-04 2.75292556393185e-05
4.26250000000000e+00 6.87558899228413e-04 2.73538060468951e-05
4.28750000000000e+00 6.82304968040298e-04 2.71797855847284e-05
4.31250000000000e+00 6.77103437618188e-04 2.70067865343125e-05
4.33750000000000e+00 6.71953855301225e-04 2.68340316026127e-05
4.36250000000000e+00 6.66855916280991e-04 2.66611561247116e-05
4.38750000000000e+00 6.61809313705320e-04 2.64881847887172e-05
4.41250000000000e+00 6.56813738831287e-04 2.63254065404847e-05
4.43750000000000e+00 6.51863358288641e-04 2.61732549019040e-05
4.46250000000000e+00 6.46957776200170e-04 2.60217634698432e-05
4.48750000000000e+00 6.42096600192653e-04 2.58709359477730e-05
4.51250000000000e+00 6.37279440542357e-04 2.57410309895331e-05
4.53750000000000e+00 6.32495140697826e-04 2.56324508925929e-05
4.56250000000000e+00 6.27743283449682e-04 2.55251336652971e-05
4.58750000000000e+00 6.23023456516978e-04 2.54190734873979e-05
4.61250000000000e+00 6.18335252437702e-04 2.53099286848109e-05
4.63750000000000e+00 6.13680501946428e-04 2.51969987185053e-05
4.66250000000000e+00 6.09059042109073e-04 2.50839681327631e-05
4.68750000000000e+00 6.04470707902313e-04 2.49708564634272e-05
4.71250000000000e+00 5.99915332701228e-04 2.48596567045656e-05
4.73750000000000e+00 5.95391716361058e-04 2.47501447951709e-05
4.76250000000000e+00 5.90899787177754e-04 2.46398688333966e-05
4.78750000000000e+00 5.86439556265109e-04 2.45286211312902e-05
4.81250000000000e+00 5.82011028476398e-04 2.44281861596849e-05
4.83750000000000e+00 5.77608123981030e-04 2.43385782115212e-05
4.86250000000000e+00 5.73230896050074e-04 2.42479652946421e-05
4.88750000000000e+00 5.68879391940909e-04 2.41563826343573e-05
4.91250000000000e+00 5.64553652869428e-04 2.40917803761595e-05
4.93750000000000e+00 5.60239360656488e-04 2.40540387251875e-05
4.96250000000000e+00 5.55936683907266e-04 2.40148002033135e-05
4.98750000000000e+00 5.51645871079524e-04 2.38881169438978e-05
5.01250000000000e+00 5.47411420639039e-04 2.36415051313696e-05
5.03750000000000e+00 5.43249784203636e-04 2.34846902600869e-05
5.06250000000000e+00 5.39097882983216e-04 2.34514319961060e-05
5.08750000000000e+00 5.34955717494695e-04 2.34178186525196e-05
5.11250000000000e+00 5.30823285661906e-04 2.33571299321653e-05
5.13750000000000e+00 5.26714173135125e-04 2.32695603060939e-05
5.16250000000000e+00 5.22628238689723e-04 2.31821770514986e-05
5.18750000000000e+00 5.18565340263167e-04 2.30949924545531e-05
5.21250000000000e+00 5.14525335033854e-04 2.30098707816502e-05
5.23750000000000e+00 5.10507143156376e-04 2.29268118073389e-05
5.26250000000000e+00 5.06510631308641e-04 2.28439500171669e-05
5.28750000000000e+00 5.02535665373549e-04 2.27612966498287e-05
5.31250000000000e+00 4.98582110620527e-04 2.26715519121185e-05
5.33750000000000e+00 4.94653507262589e-04 2.25747501391192e-05
5.36250000000000e+00 4.90749683175185e-04 2.24782892604904e-05
5.38750000000000e+00 4.86870466119412e-04 2.23821781222362e-05
5.41250000000000e+00 4.83015683800205e-04 2.22900343002760e-05
5.43750000000000e+00 4.79183362097290e-04 2.22018540521964e-05
5.46250000000000e+00 4.75373346998859e-04 2.21139960249821e-05
5.48750000000000e+00 4.71585484684403e-04 2.20264673915763e-05
5.51250000000000e+00 4.67819621237552e-04 2.19428357641634e-05
5.53750000000000e+00 4.64073835594074e-04 2.18630958218046e-05
5.56250000000000e+00 4.60347990894212e-04 2.17836573140550e-05
5.58750000000000e+00 4.56641950165397e-04 2.17045273698234e-05
5.61250000000000e+00 4.52955576370724e-04 2.16151903528151e-05
5.63750000000000e+00 4.49293931454775e-04 2.15156840448664e-05
5.66250000000000e+00 4.45656827453842e-04 2.14166475389477e-05
5.68750000000000e+00 4.42044076941412e-04 2.13180856803271e-05
5.71250000000000e+00 4.38455493148681e-04 2.12200027751682e-05
5.73750000000000e+00 4.34890890003901e-04 2.11228305228164e-05
5.76250000000000e+00 4.31349938296054e-04 2.10274164400081e-05
5.78750000000000e+00 4.27832171098585e-04 2.09341624389290e-05
5.81250000000000e+00 4.24337129943466e-04 2.08498991708791e-05
5.83750000000000e+00 4.20861028088743e-04 2.07745798253276e-05
5.86250000000000e+00 4.17403454241103e-04 2.07012456977353e-05
5.88750000000000e+00 4.13964004082380e-04 2.06298698107307e-05
5.91250000000000e+00 4.10542280176346e-04 2.05536391331694e-05
5.93750000000000e+00 4.07141172610816e-04 2.04725353813870e-05
5.96250000000000e+00 4.03760270736186e-04 2.03933736180909e-05
5.98750000000000e+00 4.00399171571054e-04 2.03161236968402e-05
6.01250000000000e+00 3.97057479705949e-04 2.02369703630893e-05
6.03750000000000e+00 3.93736559452788e-04 2.01550732508343e-05
6.06250000000000e+00 3.90436282885893e-04 2.00734204037218e-05
6.08750000000000e+00 3.87156522359818e-04 1.99920156564243e-05
6.11250000000000e+00 3.83897150520584e-04 1.99192278019269e-05
6.13750000000000e+00 3.80654065186755e-04 1.98550578613512e-05
6.16250000000000e+00 3.77427170210089e-04 1.97910807490795e-05
6.18750000000000e+00 3.74216369560338e-04 1.97273000530891e-05
6.21250000000000e+00 3.71021567344899e-04 1.96637116073683e-05
6.23750000000000e+00 3.67842670292584e-04 1.96003040983987e-05
6.26250000000000e+00 3.64679587555174e-04 1.95370740785937e-05
6.28750000000000e+00 3.61532228322033e-04 1.94740252827854e-05
6.31250000000000e+00 3.58400501864849e-04 1.94160951686166e-05
6.33750000000000e+00 3.55282001353461e-04 1.93632903395832e-05
6.36250000000000e+00 3.52176649459117e-04 1.93106535476148e-05
6.38750000000000e+00 3.49084368971701e-04 1.92581875189944e-05
6.41250000000000e+00 3.46005082819341e-04 1.92042570519371e-05
6.43750000000000e+00 3.42939478210038e-04 1.91488428372564e-05
6.46250000000000e+00 3.39887480943396e-04 1.90935726966283e-05
6.48750000000000e+00 3.36849016909622e-04 1.90384495087892e-05
6.51250000000000e+00 3.33824012066895e-04 1.89834695841795e-05
6.53750000000000e+00 3.30812394544918e-04 1.89286229738334e-05
6.56250000000000e+00 3.27814094508296e-04 1.88739064103833e-05
6.58750000000000e+00 3.24829042142635e-04 1.88193228710215e-05
6.61250000000000e+00 3.21857167672900e-04 1.87696623020395e-05
6.63750000000000e+00 3.18896184554033e-04 1.87249372160676e-05
6.66250000000000e+00 3.15946031974951e-04 1.86803473373374e-05
6.68750000000000e+00 3.13006649255841e-04 1.86358945595378e-05
6.71250000000000e+00 3.10077975855818e-04 1.85915806749097e-05
6.73750000000000e+00 3.07159951389377e-04 1.85474073650238e-05
6.76250000000000e+00 3.04252515636876e-04 1.85033762260085e-05
6.78750000000000e+00 3.01355608552992e-04 1.84594887614171e-05
6.81250000000000e+00 2.98469170279405e-04 1.84126329902397e-05
6.83750000000000e+00 2.95594575679876e-04 1.83628091000801e-05
6.86250000000000e+00 2.92731758297842e-04 1.83131464272699e-05
6.88750000000000e+00 2.89880651900786e-04 1.82636463249115e-05
6.91250000000000e+00 2.87041190488225e-04 1.82173845688443e-05
6.93750000000000e+00 2.84211896241097e-04 1.81743522939528e-05
6.96250000000000e+00 2.81392713958712e-04 1.81314506805713e-05
6.98750000000000e+00 2.78583588613318e-04 1.80886809818882e-05
7.01250000000000e+00 2.75784465357332e-04 1.80436681874565e-05
7.03750000000000e+00 2.72996362329632e-04 1.79962160675042e-05
7.06250000000000e+00 2.70219280799930e-04 1.79485199820787e-05
7.08750000000000e+00 2.67453220706975e-04 1.79005894649639e-05
7.11250000000000e+00 2.64698180676137e-04 1.78523726362139e-05
7.13750000000000e+00 2.61954197237146e-04 1.78040245652321e-05
7.16250000000000e+00 2.59221221383383e-04 1.77557590711254e-05
7.18750000000000e+00 2.56499204009920e-04 1.77075789447170e-05
7.21250000000000e+00 2.53788095922033e-04 1.76595270713897e-05
7.23750000000000e+00 2.51087822623829e-04 1.76115157839498e-05
7.26250000000000e+00 2.48398362562002e-04 1.75634187415740e-05
7.28750000000000e+00 2.45719693399949e-04 1.75152425004939e-05
7.31250000000000e+00 2.43051792023783e-04 1.74669707680495e-05
7.33750000000000e+00 2.40394648602866e-04 1.74186581111494e-05
7.36250000000000e+00 2.37748223768712e-04 1.73703809588894e-05
7.38750000000000e+00 2.35112477810175e-04 1.73221433758194e-05
7.41250000000000e+00 2.32487370683156e-04 1.72747165933967e-05
7.43750000000000e+00 2.29872397710907e-04 1.72265796996121e-05
7.46250000000000e+00 2.27267982967923e-04 1.71754717576523e-05
7.48750000000000e+00 2.24674537982063e-04 1.71214666519422e-05
7.51250000000000e+00 2.22092461866674e-04 1.70646377934436e-05
7.53750000000000e+00 2.19522141458882e-04 1.70050580802966e-05
7.56250000000000e+00 2.16963951461192e-04 1.69427998690375e-05
7.58750000000000e+00 2.14418254586037e-04 1.68779349562351e-05
7.61250000000000e+00 2.11885401700463e-04 1.68102217804847e-05
7.63750000000000e+00 2.09365916126676e-04 1.67402925795456e-05
7.66250000000000e+00 2.06859955433220e-04 1.66690820719742e-05
7.68750000000000e+00 2.04367670385018e-04 1.65966327678784e-05
7.71250000000000e+00 2.01889205036119e-04 1.65231058284432e-05
7.73750000000000e+00 1.99424627643946e-04 1.64483395234480e-05
7.76250000000000e+00 1.96974130485007e-04 1.63720562018520e-05
7.78750000000000e+00 1.94537897694344e-04 1.62943067981940e-05
7.81250000000000e+00 1.92116105379540e-04 1.62149509460731e-05
7.83750000000000e+00 1.89709031252343e-04 1.61343494068601e-05
7.86250000000000e+00 1.87316742260617e-04 1.60530478318954e-05
7.88750000000000e+00 1.84939300321144e-04 1.59710793280890e-05
