Energy (eV)          EEDF (eV^-(3/2))     First Anisotropy
8.86363636363636e-03 1.81319827569477e-01 8.37188538836788e-05
2.65909090909091e-02 1.80370588717878e-01 1.38346854399077e-04
4.43181818181818e-02 1.79426319283720e-01 1.82907205704323e-04
6.20454545454545e-02 1.78486993255561e-01 2.16927146050984e-04
7.97727272727273e-02 1.77552584752813e-01 2.45438862498124e-04
9.75000000000000e-02 1.76623068031122e-01 2.70340437722166e-04
1.15227272727273e-01 1.75698417483440e-01 2.92611919436111e-04
1.32954545454545e-01 1.74778607629913e-01 3.12843829024826e-04
1.50681818181818e-01 1.73863613129014e-01 3.31426959102124e-04
1.68409090909091e-01 1.72953408771952e-01 3.48636916243406e-04
1.86136363636364e-01 1.72047969487149e-01 3.64677279491941e-04
2.03863636363636e-01 1.71147270323304e-01 3.79703827206125e-04
2.21590909090909e-01 1.70251286465182e-01 3.93839130292771e-04
2.39318181818182e-01 1.69359993231462e-01 4.07181840197452e-04
2.57045454545455e-01 1.68473366062064e-01 4.19812858190185e-04
2.74772727272727e-01 1.67591380529493e-01 4.31799584596403e-04
2.92500000000000e-01 1.66714012334094e-01 4.43198935818829e-04
3.10227272727273e-01 1.65841237306375e-01 4.54059540338665e-04
3.27954545454545e-01 1.64973031397424e-01 4.64423371118076e-04
3.45681818181818e-01 1.64109370687207e-01 4.74326983019245e-04
3.63409090909091e-01 1.63250231380932e-01 4.83802468123693e-04
3.81136363636364e-01 1.62395589810695e-01 4.92878203125569e-04
3.98863636363636e-01 1.61545422427785e-01 5.01579440665453e-04
4.16590909090909e-01 1.60699705809122e-01 5.09928783221736e-04
4.34318181818182e-01 1.59858416656250e-01 5.17946570003176e-04
4.52045454545455e-01 1.59021531788689e-01 5.25651191207417e-04
4.69772727272727e-01 1.58189028149324e-01 5.33059347722376e-04
4.87500000000000e-01 1.57360882801735e-01 5.40186268496541e-04
5.05227272727273e-01 1.56537072931250e-01 5.47045892860197e-04
5.22954545454545e-01 1.55717575839274e-01 5.53651023543864e-04
5.40681818181818e-01 1.54902368947729e-01 5.60013456644764e-04
5.58409090909091e-01 1.54091429796742e-01 5.66144093799475e-04
5.76136363636364e-01 1.53284736045447e-01 5.72053038601359e-04
5.93863636363636e-01 1.52482265467056e-01 5.77749679008748e-04
6.11590909090909e-01 1.51683995952578e-01 5.83242758587976e-04
6.29318181818182e-01 1.50889905510055e-01 5.88540440752489e-04
6.47045454545454e-01 1.50099972260088e-01 5.93650363039501e-04
6.64772727272727e-01 1.49314174439115e-01 5.98579684992493e-04
6.82500000000000e-01 1.48532490397503e-01 6.03335131330683e-04
7.00227272727273e-01 1.47754898600085e-01 6.07923030167971e-04
7.17954545454545e-01 1.46981377622172e-01 6.12349346181865e-04
7.35681818181818e-01 1.46211906152371e-01 6.16619710127861e-04
7.53409090909091e-01 1.45446462990860e-01 6.20739446082718e-04
7.71136363636364e-01 1.44685027049802e-01 6.24713595856448e-04
7.88863636363636e-01 1.43927577349743e-01 6.28546940191107e-04
8.06590909090909e-01 1.43174093022068e-01 6.32244017634115e-04
8.24318181818182e-01 1.42424553308332e-01 6.35809143329579e-04
8.42045454545455e-01 1.41678937556922e-01 6.39246424380603e-04
8.59772727272727e-01 1.40937225225267e-01 6.42559773940680e-04
8.77500000000000e-01 1.40199395878336e-01 6.45752924790111e-04
8.95227272727273e-01 1.39465429188905e-01 6.48829441696459e-04
9.12954545454545e-01 1.38735304934507e-01 6.51792732032678e-04
9.30681818181818e-01 1.38009002999375e-01 6.54646055458470e-04
9.48409090909091e-01 1.37286503373052e-01 6.57392533512009e-04
9.66136363636364e-01 1.36567786150589e-01 6.60035158403156e-04
9.83863636363636e-01 1.35852831529737e-01 6.62576800462991e-04
1.00159090909091e+00 1.35141619812665e-01 6.65020215629549e-04
1.01931818181818e+00 1.34434131401863e-01 6.67368050139210e-04
1.03704545454545e+00 1.33730346810154e-01 6.69622848792894e-04
1.05477272727273e+00 1.33030246647342e-01 6.71787061942253e-04
1.07250000000000e+00 1.32333811624731e-01 6.73863049258969e-04
1.09022727272727e+00 1.31641022548319e-01 6.75853081207254e-04
1.10795454545455e+00 1.30951860337408e-01 6.77759346702262e-04
1.12568181818182e+00 1.30266306004668e-01 6.79583960404679e-04
1.14340909090909e+00 1.29584340662184e-01 6.81328963407933e-04
1.16113636363636e+00 1.28905945515148e-01 6.82996324151698e-04
1.17886363636364e+00 1.28231101878891e-01 6.84587944796596e-04
1.19659090909091e+00 1.27559791160577e-01 6.86105668726520e-04
1.21431818181818e+00 1.26891994859268e-01 6.87551274918559e-04
1.23204545454545e+00 1.26227694581978e-01 6.88926485104272e-04
1.24977272727273e+00 1.25566872026381e-01 6.90232969227480e-04
1.26750000000000e+00 1.24909508985963e-01 6.91472344954341e-04
1.28522727272727e+00 1.24255587344486e-01 6.92646177459179e-04
1.30295454545455e+00 1.23605089090798e-01 6.93755984321512e-04
1.32068181818182e+00 1.22957996302833e-01 6.94803240263246e-04
1.33840909090909e+00 1.22314291152367e-01 6.95789376283578e-04
1.35613636363636e+00 1.21673955899834e-01 6.96715779075114e-04
1.37386363636364e+00 1.21036972908017e-01 6.97583795322711e-04
1.39159090909091e+00 1.20403324627215e-01 6.98394737098183e-04
1.40931818181818e+00 1.19772993595178e-01 6.99149875864542e-04
1.42704545454545e+00 1.19145962450077e-01 6.99850447734725e-04
1.44477272727273e+00 1.18522213916417e-01 7.00497657328203e-04
1.46250000000000e+00 1.17901730809135e-01 7.01092676496023e-04
1.48022727272727e+00 1.17284496029012e-01 7.01636643323737e-04
1.49795454545455e+00 1.16670492574721e-01 7.02130665688005e-04
1.51568181818182e+00 1.16059703529692e-01 7.02575824732742e-04
1.53340909090909e+00 1.15452112065926e-01 7.02973173473731e-04
1.55113636363636e+00 1.14847701439664e-01 7.03323735673079e-04
1.56886363636364e+00 1.14246455002617e-01 7.03628509066664e-04
1.58659090909091e+00 1.13648356189684e-01 7.03888469604987e-04
1.60431818181818e+00 1.13053388518820e-01 7.04104565669581e-04
1.62204545454545e+00 1.12461535601717e-01 7.04277722255251e-04
1.63977272727273e+00 1.11872781132095e-01 7.04408843951931e-04
1.65750000000000e+00 1.11287108889033e-01 7.04498813422029e-04
1.67522727272727e+00 1.10704502733091e-01 7.04548490131688e-04
1.69295454545455e+00 1.10124946616296e-01 7.04558713146626e-04
1.71068181818182e+00 1.09548424571156e-01 7.04530303883465e-04
1.72840909090909e+00 1.08974920713778e-01 7.04464064564329e-04
1.74613636363636e+00 1.08404419240192e-01 7.04360776914913e-04
1.76386363636364e+00 1.07836904435705e-01 7.04221204754551e-04
1.78159090909091e+00 1.07272360664576e-01 7.04046097509904e-04
1.79931818181818e+00 1.06710772369834e-01 7.03836184821578e-04
1.81704545454545e+00 1.06152124082214e-01 7.03592180031477e-04
1.83477272727273e+00 1.05596400410271e-01 7.03314782620716e-04
1.85250000000000e+00 1.05043586043133e-01 7.03004676650697e-04
1.87022727272727e+00 1.04493665747172e-01 7.02662529429677e-04
1.88795454545455e+00 1.03946624374403e-01 7.02288993821570e-04
1.90568181818182e+00 1.03402446853165e-01 7.01884710528915e-04
1.92340909090909e+00 1.02861118190701e-01 7.01450306550704e-04
1.94113636363636e+00 1.02322623470000e-01 7.00986393855432e-04
1.95886363636364e+00 1.01786947857693e-01 7.00493571548332e-04
1.97659090909091e+00 1.01254076595258e-01 6.99972428877875e-04
1.99431818181818e+00 1.00723994998803e-01 6.99423540271889e-04
2.01204545454545e+00 1.00196688466640e-01 6.98847468331605e-04
2.02977272727273e+00 9.96721424708322e-02 6.98244765896523e-04
2.04750000000000e+00 9.91503425594959e-02 6.97615974535598e-04
2.06522727272727e+00 9.86312743539185e-02 6.96961623237967e-04
2.08295454545455e+00 9.81149235556936e-02 6.96282230380543e-04
2.10068181818182e+00 9.76012759387264e-02 6.95578305679989e-04
2.11840909090909e+00 9.70903173514016e-02 6.94850348716653e-04
2.13613636363636e+00 9.65820337138352e-02 6.94098847648360e-04
2.15386363636364e+00 9.60764110246100e-02 6.93324281073418e-04
2.17159090909091e+00 9.55734353532025e-02 6.92527120655873e-04
2.18931818181818e+00 9.50730928397566e-02 6.91707826580650e-04
2.20704545454545e+00 9.45753697015524e-02 6.90866850172962e-04
2.22477272727273e+00 9.40802522257147e-02 6.90004635687889e-04
2.24250000000000e+00 9.35877267711555e-02 6.89121618886636e-04
2.26022727272727e+00 9.30977797660551e-02 6.88218225788799e-04
2.27795454545455e+00 9.26103977139805e-02 6.87294874384474e-04
2.29568181818182e+00 9.21255671869648e-02 6.86351976336968e-04
2.31340909090909e+00 9.16432748273414e-02 6.85389935596938e-04
2.33113636363636e+00 9.11635073453368e-02 6.84409147184603e-04
2.34886363636364e+00 9.06862515248627e-02 6.83409998820411e-04
2.36659090909091e+00 9.02114942169412e-02 6.82392873248748e-04
2.38431818181818e+00 8.97392223394716e-02 6.81358144083649e-04
2.40204545454545e+00 8.92694228828043e-02 6.80306178129991e-04
2.41977272727273e+00 8.88020829033980e-02 6.79237336958571e-04
2.43750000000000e+00 8.83371895254714e-02 6.78151975579076e-04
2.45522727272727e+00 8.78747299387859e-02 6.77050441269075e-04
2.47295454545455e+00 8.74146914039322e-02 6.75933075084972e-04
2.49068181818182e+00 8.69570612462930e-02 6.74800213367693e-04
2.50840909090909e+00 8.65018268576071e-02 6.73652186454115e-04
2.52613636363636e+00 8.60489756938453e-02 6.72489317537541e-04
2.54386363636364e+00 8.55984952802281e-02 6.71311924113102e-04
2.56159090909091e+00 8.51503732054752e-02 6.70120320054502e-04
2.57931818181818e+00 8.47045971215713e-02 6.68914811816494e-04
2.59704545454545e+00 8.42611547486019e-02 6.67695700510564e-04
2.61477272727273e+00 8.38200338691968e-02 6.66463283306596e-04
2.63250000000000e+00 8.33812223299448e-02 6.65217852203659e-04
2.65022727272727e+00 8.29447080394298e-02 6.63959692939541e-04
2.66795454545455e+00 8.25104789728269e-02 6.62689086337776e-04
2.68568181818182e+00 8.20785231666030e-02 6.61406309652063e-04
2.70340909090909e+00 8.16488287198579e-02 6.60111635374133e-04
2.72113636363636e+00 8.12213837924396e-02 6.58805330174307e-04
2.73886363636364e+00 8.07961766093168e-02 6.57487656194001e-04
2.75659090909091e+00 8.03731954555193e-02 6.56158872914848e-04
2.77431818181818e+00 7.99524286759060e-02 6.54819233684917e-04
2.79204545454545e+00 7.95338646793841e-02 6.53468987586973e-04
2.80977272727273e+00 7.91174919340144e-02 6.52108380696030e-04
2.82750000000000e+00 7.87032989682281e-02 6.50737654944284e-04
2.84522727272727e+00 7.82912743690790e-02 6.49357047109812e-04
2.86295454545455e+00 7.78814067862612e-02 6.47966790026569e-04
2.88068181818182e+00 7.74736849274315e-02 6.46567113793397e-04
2.89840909090909e+00 7.70680975593652e-02 6.45158244673699e-04
2.91613636363636e+00 7.66646335062759e-02 6.43740404113854e-04
2.93386363636364e+00 7.62632816536450e-02 6.42313809906876e-04
2.95159090909091e+00 7.58640309437470e-02 6.40878677883372e-04
2.96931818181818e+00 7.54668703754217e-02 6.39435218730509e-04
2.98704545454545e+00 7.50717890077747e-02 6.37983639682316e-04
3.00477272727273e+00 7.46787759558423e-02 6.36524145654713e-04
3.02250000000000e+00 7.42878203916448e-02 6.35056938198730e-04
3.04022727272727e+00 7.38989115426223e-02 6.33582214564811e-04
3.05795454545455e+00 7.35120386951652e-02 6.32100168795917e-04
3.07568181818182e+00 7.31271911904638e-02 6.30610992820507e-04
3.09340909090909e+00 7.27443584255101e-02 6.29114875438204e-04
3.11113636363636e+00 7.23635298515935e-02 6.27612001412083e-04
3.12886363636364e+00 7.19846949776686e-02 6.26102552521423e-04
3.14659090909091e+00 7.16078433663810e-02 6.24586709097864e-04
3.16431818181818e+00 7.12329646338453e-02 6.23064647109158e-04
3.18204545454545e+00 7.08600484529035e-02 6.21536539694437e-04
3.19977272727273e+00 7.04890845492702e-02 6.20002558193243e-04
3.21750000000000e+00 7.01200627024471e-02 6.18462871180854e-04
3.23522727272727e+00 6.97529727443187e-02 6.16917643603492e-04
3.25295454545455e+00 6.93878045622658e-02 6.15367037770131e-04
3.27068181818182e+00 6.90245480954691e-02 6.13811214345003e-04
3.28840909090909e+00 6.86631933357805e-02 6.12250331412560e-04
3.30613636363636e+00 6.83037303263699e-02 6.10684543638517e-04
3.32386363636364e+00 6.79461491647011e-02 6.09114003226657e-04
3.34159090909091e+00 6.75904399989858e-02 6.07538861318847e-04
3.35931818181818e+00 6.72365930279691e-02 6.05959265317833e-04
3.37704545454545e+00 6.68845985038104e-02 6.04375360286520e-04
3.39477272727273e+00 6.65344467286418e-02 6.02787289884402e-04
3.41250000000000e+00 6.61861280553646e-02 6.01195195478552e-04
3.43022727272727e+00 6.58396328863847e-02 5.99599215344514e-04
3.44795454545455e+00 6.54949516763679e-02 5.97999485569354e-04
3.46568181818182e+00 6.51520749289365e-02 5.96396140956029e-04
3.48340909090909e+00 6.48109931974285e-02 5.94789314161494e-04
3.50113636363636e+00 6.44716970836775e-02 5.93179134921448e-04
3.51886363636364e+00 6.41341772406501e-02 5.91565730922562e-04
3.53659090909091e+00 6.37984243692720e-02 5.89949229082033e-04
3.55431818181818e+00 6.34644292182216e-02 5.88329753086831e-04
3.57204545454545e+00 6.31321825864846e-02 5.86707424672563e-04
3.58977272727273e+00 6.28016753202716e-02 5.85082364478129e-04
3.60750000000000e+00 6.24728983137143e-02 5.83454691225900e-04
3.62522727272727e+00 6.21458425077222e-02 5.81824520983651e-04
3.64295454545455e+00 6.18204988924300e-02 5.80191967989071e-04
3.66068181818182e+00 6.14968585042341e-02 5.78557145476131e-04
3.67840909090909e+00 6.11749124264577e-02 5.76920164880200e-04
3.69613636363636e+00 6.08546517882467e-02 5.75281135121682e-04
3.71386363636364e+00 6.05360677669140e-02 5.73640163403273e-04
3.73159090909091e+00 6.02191515850907e-02 5.71997356381939e-04
3.74931818181818e+00 5.99038945105267e-02 5.70352817904847e-04
3.76704545454545e+00 5.95902878583643e-02 5.68706650180388e-04
3.78477272727273e+00 5.92783229883682e-02 5.67058954560287e-04
3.80250000000000e+00 5.89679913055356e-02 5.65409830783464e-04
3.82022727272727e+00 5.86592842590605e-02 5.63759376293787e-04
3.83795454545455e+00 5.83521933445125e-02 5.62107686994876e-04
3.85568181818182e+00 5.80467101011724e-02 5.60454858006928e-04
3.87340909090909e+00 5.77428261126146e-02 5.58800982933213e-04
3.89113636363636e+00 5.74405330057061e-02 5.57146153197903e-04
3.90886363636364e+00 5.71398224526965e-02 5.55490458776522e-04
3.92659090909091e+00 5.68406861686527e-02 5.53833989271574e-04
3.94431818181818e+00 5.65431159112679e-02 5.52176831826752e-04
3.96204545454545e+00 5.62471034828903e-02 5.50519072201675e-04
3.97977272727273e+00 5.59526407280264e-02 5.48860795489075e-04
3.99750000000000e+00 5.56597195338783e-02 5.47202085416735e-04
4.01522727272727e+00 5.53683318294011e-02 5.45543023716743e-04
4.03295454545455e+00 5.50784695872503e-02 5.43883690817864e-04
4.05068181818182e+00 5.47901248213772e-02 5.42224166540124e-04
4.06840909090909e+00 5.45032895875422e-02 5.40564529417498e-04
4.08613636363636e+00 5.42179559824037e-02 5.38904856085513e-04
4.10386363636364e+00 5.39341161453866e-02 5.37245221951800e-04
4.12159090909091e+00 5.36517622563665e-02 5.35585702184802e-04
4.13931818181818e+00 5.33708865354870e-02 5.33926369790575e-04
4.15704545454545e+00 5.30914812449741e-02 5.32267296600535e-04
4.17477272727273e+00 5.28135386868810e-02 5.30608553930284e-04
4.19250000000000e+00 5.25370512035611e-02 5.28950211934968e-04
4.21022727272727e+00 5.22620111768099e-02 5.27292339025701e-04
4.22795454545455e+00 5.19884110296078e-02 5.25635002505873e-04
4.24568181818182e+00 5.17162432239464e-02 5.23978269209532e-04
4.26340909090909e+00 5.14455002612808e-02 5.22322204875618e-04
4.28113636363636e+00 5.11761746816994e-02 5.20666873581405e-04
4.29886363636364e+00 5.09082590655975e-02 5.19012338359047e-04
4.31659090909091e+00 5.06417460315823e-02 5.17358662105803e-04
4.33431818181818e+00 5.03766282362982e-02 5.15705905808733e-04
4.35204545454545e+00 5.01128983760533e-02 5.14054129454179e-04
4.36977272727273e+00 4.98505491847779e-02 5.12403392633913e-04
4.38750000000000e+00 4.95895734344413e-02 5.10753753949113e-04
4.40522727272727e+00 4.93299639342694e-02 5.09105270470433e-04
4.42295454545455e+00 4.90717135323072e-02 5.07457998323487e-04
4.44068181818182e+00 4.88148151134505e-02 5.05811993276635e-04
4.45840909090909e+00 4.85592615998443e-02 5.04167310162395e-04
4.47613636363636e+00 4.83050459501249e-02 5.02524002352957e-04
4.49386363636364e+00 4.80521611609227e-02 5.00882122327828e-04
4.51159090909091e+00 4.78006002649622e-02 4.99241722512982e-04
4.52931818181818e+00 4.75503563308959e-02 4.97602853640867e-04
4.54704545454545e+00 4.73014224647646e-02 4.95965565588401e-04
4.56477272727273e+00 4.70537918081462e-02 4.94329907935596e-04
4.58250000000000e+00 4.68074575385231e-02 4.92695929414388e-04
4.60022727272727e+00 4.65624128685677e-02 4.91063677408487e-04
4.61795454545455e+00 4.63186510475464e-02 4.89433198493016e-04
4.63568181818182e+00 4.60761653595327e-02 4.87804538976342e-04
4.65340909090909e+00 4.58349491237596e-02 4.86177744364700e-04
4.67113636363636e+00 4.55949956939263e-02 4.84552858876462e-04
4.68886363636364e+00 4.53562984595496e-02 4.82929925965507e-04
4.70659090909091e+00 4.51188508442381e-02 4.81308989095589e-04
4.72431818181818e+00 4.48826463055344e-02 4.79690090223980e-04
4.74204545454545e+00 4.46476783362283e-02 4.78073270574880e-04
4.75977272727273e+00 4.44139404626746e-02 4.76458571154628e-04
4.77750000000000e+00 4.41814262451187e-02 4.74846032241519e-04
4.79522727272727e+00 4.39501292770418e-02 4.73235692922481e-04
4.81295454545455e+00 4.37200431864251e-02 4.71627591590977e-04
4.83068181818182e+00 4.34911616341248e-02 4.70021766447045e-04
4.84840909090909e+00 4.32634783141841e-02 4.68418255001688e-04
4.86613636363636e+00 4.30369869531981e-02 4.66817093626639e-04
4.88386363636364e+00 4.28116813115307e-02 4.65218318037450e-04
4.90159090909091e+00 4.25875551817454e-02 4.63621964008994e-04
4.91931818181818e+00 4.23646023884535e-02 4.62028065972284e-04
4.93704545454545e+00 4.21428167894991e-02 4.60436657728787e-04
4.95477272727273e+00 4.19221922744273e-02 4.58847772926354e-04
4.97250000000000e+00 4.17027227647720e-02 4.57261444586662e-04
4.99022727272727e+00 4.14844022134560e-02 4.55677704675682e-04
5.00795454545455e+00 4.12672246059312e-02 4.54096584563660e-04
5.02568181818182e+00 4.10511839586978e-02 4.52518115486939e-04
5.04340909090909e+00 4.08362743195813e-02 4.50942328088851e-04
5.06113636363636e+00 4.06224897671495e-02 4.49369252002369e-04
5.07886363636364e+00 4.04098244118107e-02 4.47798916296387e-04
5.09659090909091e+00 4.01982723943832e-02 4.46231350137349e-04
5.11431818181818e+00 3.99878278859518e-02 4.44666581489904e-04
5.13204545454545e+00 3.97784850889364e-02 4.43104637777365e-04
5.14977272727273e+00 3.95702382356960e-02 4.41545546321630e-04
5.16750000000000e+00 3.93630815887841e-02 4.39989333905280e-04
5.18522727272727e+00 3.91570094403972e-02 4.38436026373168e-04
5.20295454545455e+00 3.89520161134046e-02 4.36885649057663e-04
5.22068181818182e+00 3.87480959599982e-02 4.35338227205765e-04
5.23840909090909e+00 3.85452433619375e-02 4.33793785553539e-04
5.25613636363636e+00 3.83434527300141e-02 4.32252347938857e-04
5.27386363636364e+00 3.81427185050446e-02 4.30713937714208e-04
5.29159090909091e+00 3.79430351565639e-02 4.29178578359040e-04
5.30931818181818e+00 3.77443971826898e-02 4.27646292275639e-04
5.32704545454545e+00 3.75467991110886e-02 4.26117101400372e-04
5.34477272727273e+00 3.73502354977005e-02 4.24591027610656e-04
5.36250000000000e+00 3.71547009269662e-02 4.23068092319096e-04
5.38022727272727e+00 3.69601900113198e-02 4.21548316103597e-04
5.39795454545455e+00 3.67666973921200e-02 4.20031719100796e-04
5.41568181818182e+00 3.65742177384171e-02 4.18518321401529e-04
5.43340909090909e+00 3.63827457471697e-02 4.17008142656104e-04
5.45113636363636e+00 3.61922761427530e-02 4.15501201714745e-04
5.46886363636364e+00 3.60028036778564e-02 4.13997517009681e-04
5.48659090909091e+00 3.58143231322900e-02 4.12497107122469e-04
5.50431818181818e+00 3.56268293128551e-02 4.10999989667438e-04
5.52204545454545e+00 3.54403170542191e-02 4.09506181857700e-04
5.53977272727273e+00 3.52547812177494e-02 4.08015700882086e-04
5.55750000000000e+00 3.50702166917149e-02 4.06528563528440e-04
5.57522727272727e+00 3.48866183908197e-02 4.05044785840337e-04
5.59295454545455e+00 3.47039812570453e-02 4.03564383481399e-04
