Energy (eV)          EEDF (eV^-(3/2))     First Anisotropy
8.15625000000000e-02 5.36225119054867e-02 4.98776485063018e-05
2.44687500000000e-01 5.24788273886723e-02 8.17587028158338e-05
4.07812500000000e-01 5.13595358782036e-02 1.06343772091414e-04
5.70937500000000e-01 5.02641171093251e-02 1.24082830419687e-04
7.34062500000000e-01 4.91920619137075e-02 1.38120347129948e-04
8.97187500000000e-01 4.81428719827857e-02 1.49672456751262e-04
1.06031250000000e+00 4.71160596361387e-02 1.59382058008271e-04
1.22343750000000e+00 4.61111475948077e-02 1.67645365616614e-04
1.38656250000000e+00 4.51276687594494e-02 1.74730344814803e-04
1.54968750000000e+00 4.41651659932206e-02 1.80829972534169e-04
1.71281250000000e+00 4.32231919092938e-02 1.86089682158735e-04
1.87593750000000e+00 4.23013086629045e-02 1.90622914269568e-04
2.03906250000000e+00 4.13990877478339e-02 1.94520571481436e-04
2.20218750000000e+00 4.05161097972321e-02 1.97857089717814e-04
2.36531250000000e+00 3.96519643886901e-02 2.00694510962977e-04
2.52843750000000e+00 3.88062498534684e-02 2.03085315071001e-04
2.69156250000000e+00 3.79785730897950e-02 2.05074448665212e-04
2.85468750000000e+00 3.71685493801453e-02 2.06700816292202e-04
3.01781250000000e+00 3.63758022124195e-02 2.07998400668973e-04
3.18093750000000e+00 3.55999631049333e-02 2.08997120518482e-04
3.34406250000000e+00 3.48406714351417e-02 2.09723498591636e-04
3.50718750000000e+00 3.40975742720162e-02 2.10201189681927e-04
3.67031250000000e+00 3.33703262119964e-02 2.10451403563399e-04
3.83343750000000e+00 3.26585892184408e-02 2.10493247834891e-04
3.99656250000000e+00 3.19620324645021e-02 2.10344008855090e-04
4.15968750000000e+00 3.12803321793537e-02 2.10019384215431e-04
4.32281250000000e+00 3.06131714976954e-02 2.09533676838297e-04
4.48593750000000e+00 2.99602403124695e-02 2.08899958367052e-04
4.64906250000000e+00 2.93212351307181e-02 2.08130207744550e-04
4.81218750000000e+00 2.86958589325143e-02 2.07235429565507e-04
4.97531250000000e+00 2.80838210329033e-02 2.06225755804615e-04
5.13843750000000e+00 2.74848369467864e-02 2.05110533776385e-04
5.30156250000000e+00 2.68986282566885e-02 2.03898402610929e-04
5.46468750000000e+00 2.63249224833447e-02 2.02597360087452e-04
5.62781250000000e+00 2.57634529590477e-02 2.01214821321711e-04
5.79093750000000e+00 2.52139587036966e-02 1.99757670531568e-04
5.95406250000000e+00 2.46761843034884e-02 1.98232306888806e-04
6.11718750000000e+00 2.41498797921985e-02 1.96644685292641e-04
6.28031250000000e+00 2.36348005349914e-02 1.95000352761334e-04
6.44343750000000e+00 2.31307071147115e-02 1.93304481025577e-04
6.60656250000000e+00 2.26373652205970e-02 1.91561895815461e-04
6.76968750000000e+00 2.21545455393697e-02 1.89777103257370e-04
6.93281250000000e+00 2.16820236486452e-02 1.87954313735029e-04
7.09593750000000e+00 2.12195799126190e-02 1.86097463517360e-04
7.25906250000000e+00 2.07669993799752e-02 1.84210234412836e-04
7.42218750000000e+00 2.03240716839743e-02 1.82296071674070e-04
7.58531250000000e+00 1.98905909446712e-02 1.80358200346103e-04
7.74843750000000e+00 1.94663556732186e-02 1.78399640226348e-04
7.91156250000000e+00 1.90511686782122e-02 1.76423219582466e-04
8.07468750000000e+00 1.86448369740325e-02 1.74431587756017e-04
8.23781250000000e+00 1.82471716911423e-02 1.72427226763945e-04
8.40093750000000e+00 1.78579879882967e-02 1.70412461996467e-04
8.56406250000000e+00 1.74771049666266e-02 1.68389472098291e-04
8.72718750000000e+00 1.71043455855531e-02 1.66360298110067e-04
8.89031250000000e+00 1.67395365804969e-02 1.64326851938218e-04
9.05343750000000e+00 1.63825083823418e-02 1.62290924213805e-04
9.21656250000000e+00 1.60330950386162e-02 1.60254191594478e-04
9.37968750000000e+00 1.56911341363558e-02 1.58218223557785e-04
9.54281250000000e+00 1.53564667266116e-02 1.56184488729093e-04
9.70593750000000e+00 1.50289372505675e-02 1.54154360782948e-04
9.86906250000000e+00 1.47083934672343e-02 1.52129123952792e-04
1.00321875000000e+01 1.43946863826856e-02 1.50109978180508e-04
1.01953125000000e+01 1.40876701808031e-02 1.48098043934225e-04
1.03584375000000e+01 1.37872021554985e-02 1.46094366720118e-04
1.05215625000000e+01 1.34931426443820e-02 1.44099921311529e-04
1.06846875000000e+01 1.32053549638445e-02 1.42115615716585e-04
1.08478125000000e+01 1.29237053455251e-02 1.40142294903605e-04
1.10109375000000e+01 1.26480628741333e-02 1.38180744301853e-04
1.11740625000000e+01 1.23782994265976e-02 1.36231693093673e-04
1.13371875000000e+01 1.21142896125116e-02 1.34295817312693e-04
1.15003125000000e+01 1.18559107158507e-02 1.32373742761491e-04
1.16634375000000e+01 1.16030426379315e-02 1.30466047761066e-04
1.18265625000000e+01 1.13555678415883e-02 1.28573265743406e-04
1.19896875000000e+01 1.11133712965397e-02 1.26695887697574e-04
1.21528125000000e+01 1.08763404259208e-02 1.24834364478853e-04
1.23159375000000e+01 1.06443650539554e-02 1.22989108989820e-04
1.24790625000000e+01 1.04173373547449e-02 1.21160498241481e-04
1.26421875000000e+01 1.01951518021489e-02 1.19348875302007e-04
1.28053125000000e+01 9.97770512073480e-03 1.17554551140038e-04
1.29684375000000e+01 9.76489623777386e-03 1.15777806369043e-04
1.31315625000000e+01 9.55662623626101e-03 1.14018892898690e-04
1.32946875000000e+01 9.35279830893656e-03 1.12278035498827e-04
1.34578125000000e+01 9.15331771328862e-03 1.10555433281233e-04
1.36209375000000e+01 8.95809172751524e-03 1.08851261103938e-04
1.37840625000000e+01 8.76702960742587e-03 1.07165670902624e-04
1.39471875000000e+01 8.58004254426195e-03 1.05498792953259e-04
1.41103125000000e+01 8.39704362341719e-03 1.03850737069877e-04
1.42734375000000e+01 8.21794778403823e-03 1.02221593741157e-04
1.44365625000000e+01 8.04267177948702e-03 1.00611435209165e-04
1.45996875000000e+01 7.87113413864641e-03 9.90203164934899e-05
1.47628125000000e+01 7.70325512805106e-03 9.74482763637395e-05
1.49259375000000e+01 7.53895671482606e-03 9.58953382631657e-05
1.50890625000000e+01 7.37816253041596e-03 9.43615111860766e-05
1.52521875000000e+01 7.22079783508746e-03 9.28467905114751e-05
1.54153125000000e+01 7.06678948318914e-03 9.13511587952311e-05
1.55784375000000e+01 6.91606588915224e-03 8.98745865229707e-05
1.57415625000000e+01 6.76855699421645e-03 8.84170328257080e-05
1.59046875000000e+01 6.62419423386554e-03 8.69784461601495e-05
1.60678125000000e+01 6.48291050595743e-03 8.55587649554824e-05
1.62309375000000e+01 6.34464013953404e-03 8.41579182283415e-05
1.63940625000000e+01 6.20931886429635e-03 8.27758261675705e-05
1.65571875000000e+01 6.07688378073057e-03 8.14124006902870e-05
1.67203125000000e+01 5.94727333087138e-03 8.00675459706849e-05
1.68834375000000e+01 5.82042726968883e-03 7.87411589429311e-05
1.70465625000000e+01 5.69628663708545e-03 7.74331297794193e-05
1.72096875000000e+01 5.57479373049069e-03 7.61433423456009e-05
1.73728125000000e+01 5.45589207803976e-03 7.48716746325317e-05
1.75359375000000e+01 5.33952641232467e-03 7.36179991682120e-05
1.76990625000000e+01 5.22564264470500e-03 7.23821834087473e-05
1.78621875000000e+01 5.11418784016664e-03 7.11640901102930e-05
1.80253125000000e+01 5.00511019271676e-03 6.99635776827084e-05
1.81884375000000e+01 4.89835900130351e-03 6.87805005257889e-05
1.83515625000000e+01 4.79388464624937e-03 6.76147093488979e-05
1.85146875000000e+01 4.69163856618714e-03 6.64660514747868e-05
1.86778125000000e+01 4.59157323548780e-03 6.53343711283441e-05
1.88409375000000e+01 4.49364214216985e-03 6.42195097109849e-05
1.90040625000000e+01 4.39779976627981e-03 6.31213060613454e-05
1.91671875000000e+01 4.30400155873376e-03 6.20395967029197e-05
1.93303125000000e+01 4.21220392061025e-03 6.09742160792592e-05
1.94934375000000e+01 4.12236418288478e-03 5.99249967772882e-05
1.96565625000000e+01 4.03444058659660e-03 5.88917697392982e-05
1.98196875000000e+01 3.94839226343843e-03 5.78743644641482e-05
1.99828125000000e+01 3.86417921676020e-03 5.68726091981494e-05
2.01459375000000e+01 3.78176230297801e-03 5.58863311161209e-05
2.03090625000000e+01 3.70110321337953e-03 5.49153564930656e-05
2.04721875000000e+01 3.62216445631747e-03 5.39595108668901e-05
2.06353125000000e+01 3.54490933978291e-03 5.30186191925774e-05
2.07984375000000e+01 3.46930195435023e-03 5.20925059882081e-05
2.09615625000000e+01 3.39530715648581e-03 5.11809954731957e-05
2.11246875000000e+01 3.32289055221279e-03 5.02839116990912e-05
2.12878125000000e+01 3.25201848112418e-03 4.94010786732969e-05
2.14509375000000e+01 3.18265800073694e-03 4.85323204760087e-05
2.16140625000000e+01 3.11477687117979e-03 4.76774613706980e-05
2.17771875000000e+01 3.04834354020763e-03 4.68363259084211e-05
2.19403125000000e+01 2.98332712853550e-03 4.60087390262396e-05
2.21034375000000e+01 2.91969741548541e-03 4.51945261400221e-05
2.22665625000000e+01 2.85742482493929e-03 4.43935132318799e-05
2.24296875000000e+01 2.79648041159152e-03 4.36055269324738e-05
2.25928125000000e+01 2.73683584749468e-03 4.28303945984372e-05
2.27559375000000e+01 2.67846340889229e-03 4.20679443851321e-05
2.29190625000000e+01 2.62133596333232e-03 4.13180053149484e-05
2.30821875000000e+01 2.56542695705563e-03 4.05804073413515e-05
2.32453125000000e+01 2.51071040265331e-03 3.98549814088752e-05
2.34084375000000e+01 2.45716086698736e-03 3.91415595092452e-05
2.35715625000000e+01 2.40475345936891e-03 3.84399747338047e-05
2.37346875000000e+01 2.35346381998867e-03 3.77500613224187e-05
2.38978125000000e+01 2.30326810859407e-03 3.70716547090191e-05
2.40609375000000e+01 2.25414299340792e-03 3.64045915639394e-05
2.42240625000000e+01 2.20606564028345e-03 3.57487098331938e-05
2.43871875000000e+01 2.15901370209059e-03 3.51038487748427e-05
2.45503125000000e+01 2.11296530832873e-03 3.44698489925767e-05
2.47134375000000e+01 2.06789905496088e-03 3.38465524666508e-05
2.48765625000000e+01 2.02379399446478e-03 3.32338025822942e-05
2.50396875000000e+01 1.98062962609613e-03 3.26314441557146e-05
2.52028125000000e+01 1.93838588635952e-03 3.20393234578088e-05
2.53659375000000e+01 1.89704313968260e-03 3.14572882356917e-05
2.55290625000000e+01 1.85658216928915e-03 3.08851877321459e-05
2.56921875000000e+01 1.81698416826679e-03 3.03228727030932e-05
2.58553125000000e+01 1.77823073082524e-03 2.97701954331808e-05
2.60184375000000e+01 1.74030384374101e-03 2.92270097495760e-05
2.61815625000000e+01 1.70318587798458e-03 2.86931710340589e-05
2.63446875000000e+01 1.66685958052609e-03 2.81685362334917e-05
2.65078125000000e+01 1.63130806631594e-03 2.76529638687493e-05
2.66709375000000e+01 1.59651481043623e-03 2.71463140421856e-05
2.68340625000000e+01 1.56246364041984e-03 2.66484484437095e-05
2.69971875000000e+01 1.52913872873309e-03 2.61592303555428e-05
2.71603125000000e+01 1.49652458541893e-03 2.56785246557238e-05
2.73234375000000e+01 1.46460605089691e-03 2.52061978204230e-05
2.74865625000000e+01 1.43336828891680e-03 2.47421179251344e-05
2.76496875000000e+01 1.40279677966241e-03 2.42861546447976e-05
2.78128125000000e+01 1.37287731300260e-03 2.38381792529104e-05
2.79759375000000e+01 1.34359598188615e-03 2.33980646196847e-05
2.81390625000000e+01 1.31493917587754e-03 2.29656852092965e-05
2.83021875000000e+01 1.28689357483060e-03 2.25409170762818e-05
2.84653125000000e+01 1.25944614269710e-03 2.21236378611241e-05
2.86284375000000e+01 1.23258412146740e-03 2.17137267850797e-05
2.87915625000000e+01 1.20629502524027e-03 2.13110646442829e-05
2.89546875000000e+01 1.18056663441929e-03 2.09155338031748e-05
2.91178125000000e+01 1.15538699003296e-03 2.05270181872928e-05
2.92809375000000e+01 1.13074438817599e-03 2.01454032754613e-05
2.94440625000000e+01 1.10662737456911e-03 1.97705760914181e-05
2.96071875000000e+01 1.08302473923499e-03 1.94024251949115e-05
2.97703125000000e+01 1.05992551128760e-03 1.90408406723033e-05
2.99334375000000e+01 1.03731895383280e-03 1.86857141267065e-05
3.00965625000000e+01 1.01519455897765e-03 1.83369386676883e-05
3.02596875000000e+01 9.93542042946170e-04 1.79944089005717e-05
3.04228125000000e+01 9.72351341299281e-04 1.76580209153581e-05
3.05859375000000e+01 9.51612604256685e-04 1.73276722752991e-05
3.07490625000000e+01 9.31316192118527e-04 1.70032620051445e-05
3.09121875000000e+01 9.11452670784714e-04 1.66846905790889e-05
3.10753125000000e+01 8.92012807369789e-04 1.63718599084403e-05
3.12384375000000e+01 8.72987565911333e-04 1.60646733290342e-05
3.14015625000000e+01 8.54368103169912e-04 1.57630355884111e-05
3.15646875000000e+01 8.36145764518589e-04 1.54668528327808e-05
3.17278125000000e+01 8.18312079920116e-04 1.51760325937896e-05
3.18909375000000e+01 8.00858759989927e-04 1.48904837751123e-05
3.20540625000000e+01 7.83777692143094e-04 1.46101166388833e-05
3.22171875000000e+01 7.67060936823468e-04 1.43348427919838e-05
3.23803125000000e+01 7.50700723813246e-04 1.40645751722034e-05
3.25434375000000e+01 7.34689448621248e-04 1.37992280342879e-05
3.27065625000000e+01 7.19019668948226e-04 1.35387169358896e-05
3.28696875000000e+01 7.03684101227562e-04 1.32829587234339e-05
3.30328125000000e+01 6.88675617239753e-04 1.30318715179133e-05
3.31959375000000e+01 6.73987240799093e-04 1.27853747006243e-05
3.33590625000000e+01 6.59612144511037e-04 1.25433888988558e-05
3.35221875000000e+01 6.45543646598708e-04 1.23058359715417e-05
3.36853125000000e+01 6.31775207797111e-04 1.20726389948893e-05
3.38484375000000e+01 6.18300428313565e-04 1.18437222479913e-05
3.40115625000000e+01 6.05113044852987e-04 1.16190111984326e-05
3.41746875000000e+01 5.92206927706603e-04 1.13984324879008e-05
3.43378125000000e+01 5.79576077902764e-04 1.11819139178088e-05
3.45009375000000e+01 5.67214624418527e-04 1.09693844349372e-05
3.46640625000000e+01 5.55116821450710e-04 1.07607741171047e-05
3.48271875000000e+01 5.43277045745144e-04 1.05560141588748e-05
3.49903125000000e+01 5.31689793982903e-04 1.03550368573032e-05
3.51534375000000e+01 5.20349680222263e-04 1.01577755977350e-05
3.53165625000000e+01 5.09251433395236e-04 9.96416483965629e-06
3.54796875000000e+01 4.98389894857491e-04 9.77414010260746e-06
3.56428125000000e+01 4.87760015990531e-04 9.58763795216130e-06
3.58059375000000e+01 4.77356855855014e-04 9.40459598597332e-06
3.59690625000000e+01 4.67175578894127e-04 9.22495281990842e-06
3.61321875000000e+01 4.57211452685936e-04 9.04864807424748e-06
3.62953125000000e+01 4.47459845743689e-04 8.87562235998002e-06
3.64584375000000e+01 4.37916225363014e-04 8.70581726518574e-06
3.66215625000000e+01 4.28576155515056e-04 8.53917534150838e-06
3.67846875000000e+01 4.19435294784533e-04 8.37564009072631e-06
3.69478125000000e+01 4.10489394351776e-04 8.21515595142251e-06
3.71109375000000e+01 4.01734296017812e-04 8.05766828575702e-06
3.72740625000000e+01 3.93165930271564e-04 7.90312336634541e-06
3.74371875000000e+01 3.84780314398278e-04 7.75146836324479e-06
3.76003125000000e+01 3.76573550628290e-04 7.60265133105039e-06
3.77634375000000e+01 3.68541824325283e-04 7.45662119610495e-06
3.79265625000000e+01 3.60681402213181e-04 7.31332774382253e-06
3.80896875000000e+01 3.52988630640861e-04 7.17272160612925e-06
3.82528125000000e+01 3.45459933883878e-04 7.03475424902216e-06
3.84159375000000e+01 3.38091812482413e-04 6.89937796024801e-06
3.85790625000000e+01 3.30880841614661e-04 6.76654583710310e-06
3.87421875000000e+01 3.23823669504927e-04 6.63621177435601e-06
3.89053125000000e+01 3.16917015865659e-04 6.50833045229376e-06
3.90684375000000e+01 3.10157670372722e-04 6.38285732489194e-06
3.92315625000000e+01 3.03542491173185e-04 6.25974860811151e-06
3.93946875000000e+01 2.97068403424940e-04 6.13896126832079e-06
3.95578125000000e+01 2.90732397867461e-04 6.02045301084430e-06
3.97209375000000e+01 2.84531529423057e-04 5.90418226863990e-06
3.98840625000000e+01 2.78462915827946e-04 5.79010819110289e-06
4.00471875000000e+01 2.72523736292539e-04 5.67819063299802e-06
4.02103125000000e+01 2.66711230190285e-04 5.56839014352015e-06
4.03734375000000e+01 2.61022695774492e-04 5.46066795548355e-06
4.05365625000000e+01 2.55455488922508e-04 5.35498597463929e-06
4.06996875000000e+01 2.50007021906693e-04 5.25130676912149e-06
4.08628125000000e+01 2.44674762191602e-04 5.14959355902150e-06
4.10259375000000e+01 2.39456231256815e-04 5.04981020609053e-06
4.11890625000000e+01 2.34349003444890e-04 4.95192120357031e-06
4.13521875000000e+01 2.29350704833871e-04 4.85589166615104e-06
4.15153125000000e+01 2.24459012133856e-04 4.76168732005721e-06
4.16784375000000e+01 2.19671651607089e-04 4.66927449326003e-06
4.18415625000000e+01 2.14986398011095e-04 4.57862010581570e-06
4.20046875000000e+01 2.10401073564348e-04 4.48969166033002e-06
4.21678125000000e+01 2.05913546934005e-04 4.40245723254870e-06
4.23309375000000e+01 2.01521732245225e-04 4.31688546207166e-06
4.24940625000000e+01 1.97223588111627e-04 4.23294554319134e-06
4.26571875000000e+01 1.93017116686412e-04 4.15060721585459e-06
4.28203125000000e+01 1.88900362733741e-04 4.06984075674708e-06
4.29834375000000e+01 1.84871412719900e-04 3.99061697049930e-06
4.31465625000000e+01 1.80928393923866e-04 3.91290718101342e-06
4.33096875000000e+01 1.77069473566835e-04 3.83668322291043e-06
4.34728125000000e+01 1.73292857960313e-04 3.76191743309645e-06
4.36359375000000e+01 1.69596791672384e-04 3.68858264244727e-06
4.37990625000000e+01 1.65979556711756e-04 3.61665216761050e-06
4.39621875000000e+01 1.62439471729210e-04 3.54609980292374e-06
4.41253125000000e+01 1.58974891236084e-04 3.47689981244858e-06
4.42884375000000e+01 1.55584204839421e-04 3.40902692211906e-06
4.44515625000000e+01 1.52265836493434e-04 3.34245631200325e-06
4.46146875000000e+01 1.49018243766931e-04 3.27716360867756e-06
4.47778125000000e+01 1.45839917126375e-04 3.21312487771243e-06
4.49409375000000e+01 1.42729379234222e-04 3.15031661626815e-06
4.51040625000000e+01 1.39685184262231e-04 3.08871574580018e-06
4.52671875000000e+01 1.36705917219425e-04 3.02829960487242e-06
4.54303125000000e+01 1.33790193294375e-04 2.96904594207764e-06
4.55934375000000e+01 1.30936657211520e-04 2.91093290906415e-06
4.57565625000000e+01 1.28143982601211e-04 2.85393905366671e-06
4.59196875000000e+01 1.25410871383196e-04 2.79804331314188e-06
4.60828125000000e+01 1.22736053163247e-04 2.74322500750571e-06
4.62459375000000e+01 1.20118284642665e-04 2.68946383297267e-06
4.64090625000000e+01 1.17556349040372e-04 2.63673985549549e-06
4.65721875000000e+01 1.15049055527332e-04 2.58503350440394e-06
4.67353125000000e+01 1.12595238673033e-04 2.53432556614162e-06
4.68984375000000e+01 1.10193757903779e-04 2.48459717809979e-06
4.70615625000000e+01 1.07843496972532e-04 2.43582982254719e-06
4.72246875000000e+01 1.05543363440059e-04 2.38800532065438e-06
4.73878125000000e+01 1.03292288167154e-04 2.34110582661160e-06
4.75509375000000e+01 1.01089224817682e-04 2.29511382183916e-06
4.77140625000000e+01 9.89331493722238e-05 2.25001210928898e-06
4.78771875000000e+01 9.68230596520978e-05 2.20578380783639e-06
4.80403125000000e+01 9.47579748535298e-05 2.16241234676077e-06
4.82034375000000e+01 9.27369350917598e-05 2.11988146031423e-06
4.83665625000000e+01 9.07590009548723e-05 2.07817518237690e-06
4.85296875000000e+01 8.88232530671420e-05 2.03727784119798e-06
4.86928125000000e+01 8.69287916616936e-05 1.99717405422125e-06
4.88559375000000e+01 8.50747361622755e-05 1.95784872299406e-06
4.90190625000000e+01 8.32602247739535e-05 1.91928702815850e-06
4.91821875000000e+01 8.14844140825349e-05 1.88147442452379e-06
4.93453125000000e+01 7.97464786625357e-05 1.84439663621902e-06
4.95084375000000e+01 7.80456106935097e-05 1.80803965192463e-06
4.96715625000000e+01 7.63810195845606e-05 1.77238972018200e-06
4.98346875000000e+01 7.47519316068621e-05 1.73743334477989e-06
4.99978125000000e+01 7.31575895340169e-05 1.70315728021671e-06
5.01609375000000e+01 7.15972522900853e-05 1.66954852723770e-06
5.03240625000000e+01 7.00701946051209e-05 1.63659432844549e-06
5.04871875000000e+01 6.85757066780539e-05 1.60428216398371e-06
5.06503125000000e+01 6.71130938467639e-05 1.57259974729204e-06
5.08134375000000e+01 6.56816762651896e-05 1.54153502093196e-06
5.09765625000000e+01 6.42807885873256e-05 1.51107615248218e-06
5.11396875000000e+01 6.29097796579587e-05 1.48121153050257e-06
5.13028125000000e+01 6.15680122100003e-05 1.45192976056574e-06
5.14659375000000e+01 6.02548625682747e-05 1.42321966135539e-06
