Energy (eV)          EEDF (eV^-(3/2))     First Anisotropy
1.15384615384615e-02 4.90102076556179e-01 3.57389486056857e-04
3.46153846153846e-02 4.83629308766506e-01 5.88232083030259e-04
5.76923076923077e-02 4.77242026684359e-01 7.71464378120783e-04
8.07692307692308e-02 4.70939101314358e-01 9.07621153468723e-04
1.03846153846154e-01 4.64719418544876e-01 1.01868445727361e-03
1.26923076923077e-01 4.58581879011444e-01 1.11304572783496e-03
1.50000000000000e-01 4.52525397833208e-01 1.19508735715519e-03
1.73076923076923e-01 4.46548904437712e-01 1.26747930143675e-03
1.96153846153846e-01 4.40651342469791e-01 1.33200777111323e-03
2.19230769230769e-01 4.34831669482356e-01 1.38994604497118e-03
2.42307692307692e-01 4.29088856796348e-01 1.44224459833088e-03
2.65384615384615e-01 4.23421889318729e-01 1.48963831052422e-03
2.88461538461538e-01 4.17829765362947e-01 1.53271132437379e-03
3.11538461538462e-01 4.12311496471827e-01 1.57193848735322e-03
3.34615384615385e-01 4.06866107242669e-01 1.60771301095886e-03
3.57692307692308e-01 4.01492635155135e-01 1.64036560384732e-03
3.80769230769231e-01 3.96190130400903e-01 1.67017810861938e-03
4.03846153846154e-01 3.90957655715778e-01 1.69739347101599e-03
4.26923076923077e-01 3.85794286214010e-01 1.72222318891016e-03
4.50000000000000e-01 3.80699109224816e-01 1.74485298592889e-03
4.73076923076923e-01 3.75671224120400e-01 1.76544720148430e-03
4.96153846153846e-01 3.70709742189540e-01 1.78415224504959e-03
5.19230769230769e-01 3.65813786446798e-01 1.80109934742970e-03
5.42307692307692e-01 3.60982491489083e-01 1.81640677357069e-03
5.65384615384615e-01 3.56215003342676e-01 1.83018162840190e-03
5.88461538461538e-01 3.51510479312287e-01 1.84252134142745e-03
6.11538461538462e-01 3.46868087832091e-01 1.85351489878876e-03
6.34615384615385e-01 3.42287008318716e-01 1.86324387410598e-03
6.57692307692308e-01 3.37766431026258e-01 1.87178329746212e-03
6.80769230769231e-01 3.33305556903118e-01 1.87920239302944e-03
7.03846153846154e-01 3.28903597450757e-01 1.88556520920292e-03
7.26923076923077e-01 3.24559774584326e-01 1.89093116012814e-03
7.50000000000000e-01 3.20273320495127e-01 1.89535549425669e-03
7.73076923076923e-01 3.16043477509472e-01 1.89888969903439e-03
7.96153846153846e-01 3.11869497971360e-01 1.90158185692720e-03
8.19230769230769e-01 3.07750644093377e-01 1.90347695775006e-03
8.42307692307692e-01 3.03686187832056e-01 1.90461717073087e-03
8.65384615384615e-01 2.99675410759188e-01 1.90504208734086e-03
8.88461538461539e-01 2.95717603934832e-01 1.90478893623219e-03
9.11538461538462e-01 2.91812067782007e-01 1.90389277467047e-03
9.34615384615385e-01 2.87958111963018e-01 1.90238665960544e-03
9.57692307692308e-01 2.84155055257462e-01 1.90030180104263e-03
9.80769230769231e-01 2.80402225441802e-01 1.89766769996594e-03
1.00384615384615e+00 2.76698959170544e-01 1.89451227496717e-03
1.02692307692308e+00 2.73044601841115e-01 1.89086196657802e-03
1.05000000000000e+00 2.69438507543017e-01 1.88674184661328e-03
1.07307692307692e+00 2.65880038866475e-01 1.88217571547742e-03
1.09615384615385e+00 2.62368566820056e-01 1.87718618067326e-03
1.11923076923077e+00 2.58903470689259e-01 1.87179472568127e-03
1.14230769230769e+00 2.55484138019335e-01 1.86602178882208e-03
1.16538461538462e+00 2.52109964412406e-01 1.85988683994286e-03
1.18846153846154e+00 2.48780353425588e-01 1.85340841588487e-03
1.21153846153846e+00 2.45494716549433e-01 1.84660418732050e-03
1.23461538461538e+00 2.42252473018016e-01 1.83949102041762e-03
1.25769230769231e+00 2.39053049710807e-01 1.83208500103512e-03
1.28076923076923e+00 2.35895881127580e-01 1.82440148921123e-03
1.30384615384615e+00 2.32780409210457e-01 1.81645516966322e-03
1.32692307692308e+00 2.29706083249110e-01 1.80826006790387e-03
1.35000000000000e+00 2.26672359853078e-01 1.79982959535103e-03
1.37307692307692e+00 2.23678702784623e-01 1.79117658829261e-03
1.39615384615385e+00 2.20724582888127e-01 1.78231333046020e-03
1.41923076923077e+00 2.17809477976493e-01 1.77325157551259e-03
1.44230769230769e+00 2.14932872800122e-01 1.76400257937640e-03
1.46538461538462e+00 2.12094258893359e-01 1.75457713372098e-03
1.48846153846154e+00 2.09293134487502e-01 1.74498557095805e-03
1.51153846153846e+00 2.06529004478321e-01 1.73523779479975e-03
1.53461538461538e+00 2.03801380281156e-01 1.72534330891267e-03
1.55769230769231e+00 2.01109779747226e-01 1.71531121904108e-03
1.58076923076923e+00 1.98453727130069e-01 1.70515025939383e-03
1.60384615384615e+00 1.95832752948725e-01 1.69486881744718e-03
1.62692307692308e+00 1.93246393907080e-01 1.68447493393803e-03
1.65000000000000e+00 1.90694192859643e-01 1.67397632584295e-03
1.67307692307692e+00 1.88175698682192e-01 1.66338040572193e-03
1.69615384615385e+00 1.85690466208518e-01 1.65269428952727e-03
1.71923076923077e+00 1.83238056137790e-01 1.64192480504419e-03
1.74230769230769e+00 1.80818034999416e-01 1.63107850860362e-03
1.76538461538462e+00 1.78429975033165e-01 1.62016170334712e-03
1.78846153846154e+00 1.76073454115371e-01 1.60918043628810e-03
1.81153846153846e+00 1.73748055723627e-01 1.59814051545416e-03
1.83461538461538e+00 1.71453368823110e-01 1.58704752610810e-03
1.85769230769231e+00 1.69188987795634e-01 1.57590682703274e-03
1.88076923076923e+00 1.66954512404341e-01 1.56472356584315e-03
1.90384615384615e+00 1.64749547685889e-01 1.55350269349563e-03
1.92692307692308e+00 1.62573703882144e-01 1.54224896001438e-03
1.95000000000000e+00 1.60426596405079e-01 1.53096692823178e-03
1.97307692307692e+00 1.58307845734435e-01 1.51966098503498e-03
1.99615384615385e+00 1.56217077362279e-01 1.50833534398098e-03
2.01923076923077e+00 1.54153921716821e-01 1.49699404859221e-03
2.04230769230769e+00 1.52118014127510e-01 1.48564098230541e-03
2.06538461538462e+00 1.50108994729658e-01 1.47427987984907e-03
2.08846153846154e+00 1.48126508402035e-01 1.46291432233388e-03
2.11153846153846e+00 1.46170204732391e-01 1.45154774811136e-03
2.13461538461538e+00 1.44239737926732e-01 1.44018346310507e-03
2.15769230769231e+00 1.42334766749341e-01 1.42882463575896e-03
2.18076923076923e+00 1.40454954488788e-01 1.41747430693706e-03
2.20384615384615e+00 1.38599968871632e-01 1.40613539934966e-03
2.22692307692308e+00 1.36769482004708e-01 1.39481071243071e-03
2.25000000000000e+00 1.34963170341732e-01 1.38350293138476e-03
2.27307692307692e+00 1.33180714601162e-01 1.37221463440212e-03
2.29615384615385e+00 1.31421799718204e-01 1.36094829322766e-03
2.31923076923077e+00 1.29686114781814e-01 1.34970627432299e-03
2.34230769230769e+00 1.27973353002001e-01 1.33849084533935e-03
2.36538461538462e+00 1.26283211632992e-01 1.32730418279981e-03
2.38846153846154e+00 1.24615391920555e-01 1.31614836705939e-03
2.41153846153846e+00 1.22969599069983e-01 1.30502538971337e-03
2.43461538461538e+00 1.21345542172851e-01 1.29393716067005e-03
2.45769230769231e+00 1.19742934156389e-01 1.28288550317463e-03
2.48076923076923e+00 1.18161491752169e-01 1.27187216064983e-03
2.50384615384615e+00 1.16600935426288e-01 1.26089880322989e-03
2.52692307692308e+00 1.15060989330673e-01 1.24996702287129e-03
2.55000000000000e+00 1.13541381272513e-01 1.23907833967616e-03
2.57307692307692e+00 1.12041842647682e-01 1.22823420682230e-03
2.59615384615385e+00 1.10562108399508e-01 1.21743601029187e-03
2.61923076923077e+00 1.09101916966473e-01 1.20668506908906e-03
2.64230769230769e+00 1.07661010252553e-01 1.19598263970038e-03
2.66538461538462e+00 1.06239133564781e-01 1.18532992155203e-03
2.68846153846154e+00 1.04836035568818e-01 1.17472805242165e-03
2.71153846153846e+00 1.03451468260058e-01 1.16417811373609e-03
2.73461538461538e+00 1.02085186904019e-01 1.15368113564080e-03
2.75769230769231e+00 1.00736949993647e-01 1.14323809253707e-03
2.78076923076923e+00 9.94065192211867e-02 1.13284990801438e-03
2.80384615384615e+00 9.80936594212729e-02 1.12251745957165e-03
2.82692307692308e+00 9.67981385298767e-02 1.11224157428600e-03
2.85000000000000e+00 9.55197275569548e-02 1.10202303340663e-03
2.87307692307692e+00 9.42582005321081e-02 1.09186257586631e-03
2.89615384615385e+00 9.30133344693267e-02 1.08176089767948e-03
2.91923076923077e+00 9.17849093234610e-02 1.07171865173629e-03
2.94230769230769e+00 9.05727079638351e-02 1.06173645099582e-03
2.96538461538462e+00 8.93765161231832e-02 1.05181487249423e-03
2.98846153846154e+00 8.81961223602038e-02 1.04195445335883e-03
3.01153846153846e+00 8.70313180339360e-02 1.03215569471560e-03
3.03461538461538e+00 8.58818972549555e-02 1.02241906543461e-03
3.05769230769231e+00 8.47476568493919e-02 1.01274499827961e-03
3.08076923076923e+00 8.36283963340552e-02 1.00313389356636e-03
3.10384615384615e+00 8.25239178697960e-02 9.93586122669826e-04
3.12692307692308e+00 8.14340262269087e-02 9.84102024308508e-04
3.15000000000000e+00 8.03585287610125e-02 9.74681907969534e-04
3.17307692307692e+00 7.92972353684670e-02 9.65326056481724e-04
3.19615384615385e+00 7.82499584563284e-02 9.56034725310935e-04
3.21923076923077e+00 7.72165129060526e-02 9.46808142174504e-04
3.24230769230769e+00 7.61967160503121e-02 9.37646509388549e-04
3.26538461538462e+00 7.51903876310398e-02 9.28550006878807e-04
3.28846153846154e+00 7.41973497678829e-02 9.19518788792751e-04
3.31153846153846e+00 7.32174269357399e-02 9.10552986443785e-04
3.33461538461538e+00 7.22504459246274e-02 9.01652711136620e-04
3.35769230769231e+00 7.12962358093659e-02 8.92818050905728e-04
3.38076923076923e+00 7.03546279278216e-02 8.84049073282585e-04
3.40384615384615e+00 6.94254558425192e-02 8.75345827951396e-04
3.42692307692308e+00 6.85085553114993e-02 8.66708343611226e-04
3.45000000000000e+00 6.76037642672581e-02 8.58136630576085e-04
3.47307692307692e+00 6.67109227800234e-02 8.49630682698435e-04
3.49615384615385e+00 6.58298730322134e-02 8.41190476665906e-04
3.51923076923077e+00 6.49604592881257e-02 8.32815971554847e-04
3.54230769230769e+00 6.41025278737482e-02 8.24507110588332e-04
3.56538461538462e+00 6.32559271421604e-02 8.16263823434225e-04
3.58846153846154e+00 6.24205074469647e-02 8.08086023357684e-04
3.61153846153846e+00 6.15961211227552e-02 7.99973609473060e-04
3.63461538461539e+00 6.07826224520003e-02 7.91926468907003e-04
3.65769230769231e+00 5.99798676395123e-02 7.83944474062233e-04
3.68076923076923e+00 5.91877147935568e-02 7.76027484740064e-04
3.70384615384615e+00 5.84060238941552e-02 7.68175350179358e-04
3.72692307692308e+00 5.76346567685432e-02 7.60387906428190e-04
3.75000000000000e+00 5.68734770729105e-02 7.52664978343592e-04
3.77307692307692e+00 5.61223502620574e-02 7.45006381050379e-04
3.79615384615385e+00 5.53811435677208e-02 7.37411919285428e-04
3.81923076923077e+00 5.46497259732338e-02 7.29881386948731e-04
3.84230769230769e+00 5.39279681960546e-02 7.22414568438051e-04
3.86538461538462e+00 5.32157426591542e-02 7.15011240423646e-04
3.88846153846154e+00 5.25129234686443e-02 7.07671169468972e-04
3.91153846153846e+00 5.18193863968960e-02 7.00394113772383e-04
3.93461538461538e+00 5.11350088551372e-02 6.93179824841277e-04
3.95769230769231e+00 5.04596698719559e-02 6.86028045208274e-04
3.98076923076923e+00 4.97932500769897e-02 6.78938510076241e-04
4.00384615384615e+00 4.91356316746854e-02 6.71910948899655e-04
4.02692307692308e+00 4.84866984236351e-02 6.64945083192787e-04
4.05000000000000e+00 4.78463356208263e-02 6.58040628082714e-04
4.07307692307692e+00 4.72144300765098e-02 6.51197293427691e-04
4.09615384615385e+00 4.65908700958314e-02 6.44414783226836e-04
4.11923076923077e+00 4.59755454576287e-02 6.37692795196958e-04
4.14230769230769e+00 4.53683473993836e-02 6.31031021796107e-04
4.16538461538462e+00 4.47691685935069e-02 6.24429151606074e-04
4.18846153846154e+00 4.41779031285025e-02 6.17886867350784e-04
4.21153846153846e+00 4.35944464944414e-02 6.11403847254694e-04
4.23461538461538e+00 4.30186955602389e-02 6.04979766349155e-04
4.25769230769231e+00 4.24505485555563e-02 5.98614294571422e-04
4.28076923076923e+00 4.18899050567779e-02 5.92307098049763e-04
4.30384615384615e+00 4.13366659652423e-02 5.86057840339340e-04
4.32692307692308e+00 4.07907334898466e-02 5.79866180598790e-04
4.35000000000000e+00 4.02520111335153e-02 5.73731774805231e-04
4.37307692307692e+00 3.97204036723426e-02 5.67654276618598e-04
4.39615384615385e+00 3.91958171400433e-02 5.61633336861167e-04
4.41923076923077e+00 3.86781588101979e-02 5.55668603132198e-04
4.44230769230769e+00 3.81673371833403e-02 5.49759720599032e-04
4.46538461538462e+00 3.76632619672635e-02 5.43906333081389e-04
4.48846153846154e+00 3.71658440611646e-02 5.38108081403613e-04
4.51153846153846e+00 3.66749955431873e-02 5.32364604461028e-04
4.53461538461538e+00 3.61906296515468e-02 5.26675540245928e-04
4.55769230769231e+00 3.57126607692942e-02 5.21040524267412e-04
4.58076923076923e+00 3.52410044122992e-02 5.15459190561438e-04
4.60384615384615e+00 3.47755772111608e-02 5.09931172662600e-04
4.62692307692308e+00 3.43162968965640e-02 5.04456102088902e-04
4.65000000000000e+00 3.38630822876905e-02 4.99033609297892e-04
4.67307692307692e+00 3.34158532748810e-02 4.93663324358931e-04
4.69615384615385e+00 3.29745308064831e-02 4.88344876499991e-04
4.71923076923077e+00 3.25390368739757e-02 4.83077893764122e-04
4.74230769230769e+00 3.21092945009200e-02 4.77862003624579e-04
4.76538461538462e+00 3.16852277265801e-02 4.72696833839652e-04
4.78846153846154e+00 3.12667615925779e-02 4.67582011083754e-04
4.81153846153846e+00 3.08538221322388e-02 4.62517161788792e-04
4.83461538461539e+00 3.04463363548891e-02 4.57501912953898e-04
4.85769230769231e+00 3.00442322330323e-02 4.52535890832845e-04
4.88076923076923e+00 2.96474386920767e-02 4.47618721731788e-04
4.90384615384615e+00 2.92558855952821e-02 4.42750032777016e-04
4.92692307692308e+00 2.88695037314351e-02 4.37929450656482e-04
4.95000000000000e+00 2.84882248049475e-02 4.33156602375667e-04
4.97307692307692e+00 2.81119814214239e-02 4.28431115783000e-04
4.99615384615385e+00 2.77407070765458e-02 4.23752619178621e-04
5.01923076923077e+00 2.73743361436022e-02 4.19120741012281e-04
5.04230769230769e+00 2.70128038640559e-02 4.14535110363783e-04
5.06538461538462e+00 2.66560463339049e-02 4.09995357619863e-04
5.08846153846154e+00 2.63040004924494e-02 4.05501113337218e-04
5.11153846153846e+00 2.59566041132001e-02 4.01052008909034e-04
5.13461538461539e+00 2.56137957907991e-02 3.96647677206652e-04
5.15769230769231e+00 2.52755149302267e-02 3.92287751489469e-04
5.18076923076923e+00 2.49417017380385e-02 3.87971866037441e-04
5.20384615384615e+00 2.46122972098246e-02 3.83699656759964e-04
5.22692307692308e+00 2.42872431198361e-02 3.79470760150728e-04
5.25000000000000e+00 2.39664820125424e-02 3.75284813887536e-04
5.27307692307692e+00 2.36499571906045e-02 3.71141457244545e-04
5.29615384615385e+00 2.33376127054842e-02 3.67040330756422e-04
5.31923076923077e+00 2.30293933469880e-02 3.62981075955104e-04
5.34230769230769e+00 2.27252446352275e-02 3.58963335746504e-04
5.36538461538462e+00 2.24251128092504e-02 3.54986754948284e-04
5.38846153846154e+00 2.21289448175868e-02 3.51050979345435e-04
5.41153846153846e+00 2.18366883105037e-02 3.47155656220120e-04
5.43461538461538e+00 2.15482916290999e-02 3.43300434861841e-04
5.45769230769231e+00 2.12637037962227e-02 3.39484965661962e-04
5.48076923076923e+00 2.09828745090054e-02 3.35708900616833e-04
5.50384615384615e+00 2.07057541284087e-02 3.31971893812188e-04
5.52692307692308e+00 2.04322936704906e-02 3.28273600555042e-04
5.55000000000000e+00 2.01624447992187e-02 3.24613677851086e-04
5.57307692307692e+00 1.98961598164389e-02 3.20991784729152e-04
5.59615384615385e+00 1.96333916539456e-02 3.17407581954098e-04
5.61923076923077e+00 1.93740938647110e-02 3.13860731798911e-04
5.64230769230769e+00 1.91182206160441e-02 3.10350898340932e-04
5.66538461538462e+00 1.88657266801045e-02 3.06877747890305e-04
5.68846153846154e+00 1.86165674259468e-02 3.03440948205360e-04
5.71153846153846e+00 1.83706988129319e-02 3.00040168914920e-04
5.73461538461538e+00 1.81280773816262e-02 2.96675081925036e-04
5.75769230769231e+00 1.78886602461576e-02 2.93345360666640e-04
5.78076923076923e+00 1.76524050878697e-02 2.90050680496811e-04
5.80384615384615e+00 1.74192701465917e-02 2.86790719085171e-04
5.82692307692308e+00 1.71892142132921e-02 2.83565155692539e-04
5.85000000000000e+00 1.69621966239677e-02 2.80373671551932e-04
5.87307692307692e+00 1.67381772512695e-02 2.77215950124571e-04
5.89615384615385e+00 1.65171164978095e-02 2.74091676855061e-04
5.91923076923077e+00 1.62989752888013e-02 2.71000538975053e-04
5.94230769230769e+00 1.60837150662465e-02 2.67942225736760e-04
5.96538461538462e+00 1.58712977810136e-02 2.64916428755102e-04
5.98846153846154e+00 1.56616858861431e-02 2.61922841355570e-04
6.01153846153846e+00 1.54548423312494e-02 2.58961158911655e-04
6.03461538461539e+00 1.52507305549206e-02 2.56031079169784e-04
6.05769230769231e+00 1.50493144782856e-02 2.53132301624029e-04
6.08076923076923e+00 1.48505584996241e-02 2.50264527836833e-04
6.10384615384615e+00 1.46544274870743e-02 2.47427461747851e-04
6.12692307692308e+00 1.44608867724514e-02 2.44620809074396e-04
6.15000000000000e+00 1.42699021460573e-02 2.41844277616076e-04
6.17307692307692e+00 1.40814398496855e-02 2.39097577457179e-04
6.19615384615385e+00 1.38954665709730e-02 2.36380420758446e-04
6.21923076923077e+00 1.37119494372244e-02 2.33692521588479e-04
6.24230769230769e+00 1.35308560104761e-02 2.31033596108120e-04
6.26538461538462e+00 1.33521542808776e-02 2.28403362844242e-04
6.28846153846154e+00 1.31758126610575e-02 2.25801542147513e-04
6.31153846153846e+00 1.30017999813728e-02 2.23227856462492e-04
6.33461538461539e+00 1.28300854835570e-02 2.20682030587753e-04
6.35769230769231e+00 1.26606388153068e-02 2.18163791155932e-04
6.38076923076923e+00 1.24934300257083e-02 2.15672866890536e-04
6.40384615384615e+00 1.23284295591423e-02 2.13208988853275e-04
6.42692307692308e+00 1.21656082500822e-02 2.10771889945481e-04
6.45000000000000e+00 1.20049373186910e-02 2.08361305152155e-04
6.47307692307692e+00 1.18463883649737e-02 2.05976971702206e-04
6.49615384615385e+00 1.16899333640131e-02 2.03618628891578e-04
6.51923076923077e+00 1.15355446607851e-02 2.01286017938913e-04
6.54230769230769e+00 1.13831949659729e-02 1.98978882131356e-04
6.56538461538462e+00 1.12328573504327e-02 1.96696967043962e-04
6.58846153846154e+00 1.10845052404533e-02 1.94440020088675e-04
6.61153846153846e+00 1.09381124137269e-02 1.92207790730869e-04
6.63461538461539e+00 1.07936529940383e-02 1.90000030697875e-04
6.65769230769231e+00 1.06511014467097e-02 1.87816493546463e-04
6.68076923076923e+00 1.05104325747226e-02 1.85656934868811e-04
6.70384615384615e+00 1.03716215136210e-02 1.83521112490826e-04
6.72692307692308e+00 1.02346437271341e-02 1.81408786057371e-04
6.75000000000000e+00 1.00994750034440e-02 1.79319717228059e-04
6.77307692307692e+00 9.96609145029423e-03 1.77253669804264e-04
6.79615384615385e+00 9.83446949097310e-03 1.75210409579092e-04
6.81923076923077e+00 9.70458585995970e-03 1.73189704214038e-04
6.84230769230769e+00 9.57641759937665e-03 1.71191323354399e-04
6.86538461538462e+00 9.44994205436079e-03 1.69215038805390e-04
6.88846153846154e+00 9.32513686907410e-03 1.67260624156773e-04
6.91153846153846e+00 9.20197998328976e-03 1.65327854956710e-04
6.93461538461538e+00 9.08044962794895e-03 1.63416508879172e-04
6.95769230769231e+00 8.96052432132787e-03 1.61526365363956e-04
6.98076923076923e+00 8.84218286575213e-03 1.59657205782088e-04
7.00384615384615e+00 8.72540434333254e-03 1.57808813595088e-04
7.02692307692308e+00 8.61016811228145e-03 1.55980974009730e-04
7.05000000000000e+00 8.49645380375131e-03 1.54173474135311e-04
7.07307692307692e+00 8.38424131774176e-03 1.52386103084427e-04
7.09615384615385e+00 8.27351081971280e-03 1.50618651845827e-04
7.11923076923077e+00 8.16424273692865e-03 1.48870913179188e-04
7.14230769230769e+00 8.05641775545343e-03 1.47142681706552e-04
7.16538461538462e+00 7.95001681627696e-03 1.45433754053824e-04
7.18846153846154e+00 7.84502111195816e-03 1.43743928538243e-04
7.21153846153846e+00 7.74141208373408e-03 1.42073005308122e-04
7.23461538461538e+00 7.63917141780119e-03 1.40420786477392e-04
7.25769230769231e+00 7.53828104209001e-03 1.38787075825853e-04
7.28076923076923e+00 7.43872312348333e-03 1.37171678932153e-04
