Energy (eV)          EEDF (eV^-(3/2))     First Anisotropy
1.60000000000000e-01 8.34490907160823e-02 1.24467139229726e-04
4.80000000000000e-01 7.87855422393838e-02 2.00461501880777e-04
8.00000000000000e-01 7.43826159481116e-02 2.51534175334200e-04
1.12000000000000e+00 7.02257469837969e-02 2.83129147880192e-04
1.44000000000000e+00 6.63011844443935e-02 3.04031444564123e-04
1.76000000000000e+00 6.25959458963637e-02 3.17826920975855e-04
2.08000000000000e+00 5.90977744288521e-02 3.26494729542361e-04
2.40000000000000e+00 5.57950981078852e-02 3.31296042835467e-04
2.72000000000000e+00 5.26769916964705e-02 3.33104869575705e-04
3.04000000000000e+00 4.97331405139668e-02 3.32560768742486e-04
3.36000000000000e+00 4.69538063151714e-02 3.30149652606422e-04
3.68000000000000e+00 4.43297950762527e-02 3.26250816153976e-04
4.00000000000000e+00 4.18524265809649e-02 3.21166316105234e-04
4.32000000000000e+00 3.95135057065355e-02 3.15140356239287e-04
4.64000000000000e+00 3.73052953142392e-02 3.08372648590325e-04
4.96000000000000e+00 3.52204906549816e-02 3.01027955383048e-04
5.28000000000000e+00 3.32521952052250e-02 2.93243106669584e-04
5.60000000000000e+00 3.13938978533225e-02 2.85132290206697e-04
5.92000000000000e+00 2.96394513607925e-02 2.76791123017599e-04
6.24000000000000e+00 2.79830520272847e-02 2.68299841535185e-04
6.56000000000000e+00 2.64192204919674e-02 2.59725839667602e-04
6.88000000000000e+00 2.49427836078293e-02 2.51125714923891e-04
7.20000000000000e+00 2.35488573289344e-02 2.42546936954262e-04
7.52000000000000e+00 2.22328305540219e-02 2.34029221814154e-04
7.84000000000000e+00 2.09903498730067e-02 2.25605673740651e-04
8.16000000000000e+00 1.98173051659196e-02 2.17303741013558e-04
8.48000000000000e+00 1.87098160066509e-02 2.09146021520124e-04
8.80000000000000e+00 1.76642188265200e-02 2.01150945628490e-04
9.12000000000000e+00 1.66770547952084e-02 1.93333358023634e-04
9.44000000000000e+00 1.57450583789658e-02 1.85705015679429e-04
9.76000000000000e+00 1.48651465382406e-02 1.78275015725233e-04
1.00800000000000e+01 1.40344085290003e-02 1.71050164331567e-04
1.04000000000000e+01 1.32500962740048e-02 1.64035295686511e-04
1.07200000000000e+01 1.25096152721801e-02 1.57233548518120e-04
1.10400000000000e+01 1.18105160160215e-02 1.50646606334001e-04
1.13600000000000e+01 1.11504858886353e-02 1.44274906519928e-04
1.16800000000000e+01 1.05273415136130e-02 1.38117822607980e-04
1.20000000000000e+01 9.93902153243331e-03 1.32173823347932e-04
1.23200000000000e+01 9.38357978549801e-03 1.26440611661005e-04
1.26400000000000e+01 8.85917887424576e-03 1.20915246097522e-04
1.29600000000000e+01 8.36408408304666e-03 1.15594247040269e-04
1.32800000000000e+01 7.89665764077153e-03 1.10473689578341e-04
1.36000000000000e+01 7.45535330305305e-03 1.05549284710251e-04
1.39200000000000e+01 7.03871123731704e-03 1.00816450310707e-04
1.42400000000000e+01 6.64535319366348e-03 9.62703731053933e-05
1.45600000000000e+01 6.27397794562265e-03 9.19060627362684e-05
1.48800000000000e+01 5.92335698570437e-03 8.77183988617066e-05
1.52000000000000e+01 5.59233046150128e-03 8.37021721171896e-05
1.55200000000000e+01 5.27980333890279e-03 7.98521196602117e-05
1.58400000000000e+01 4.98474177972766e-03 7.61629559348786e-05
1.61600000000000e+01 4.70616972179235e-03 7.26293992153134e-05
1.64800000000000e+01 4.44316565010217e-03 6.92461944206032e-05
1.68000000000000e+01 4.19485954848419e-03 6.60081326361951e-05
1.71200000000000e+01 3.96043002157805e-03 6.29100677261380e-05
1.74400000000000e+01 3.73910157766414e-03 5.99469303763342e-05
1.77600000000000e+01 3.53014206334082e-03 5.71137398701693e-05
1.80800000000000e+01 3.33286024156457e-03 5.44056138637511e-05
1.84000000000000e+01 3.14660350504127e-03 5.18177763979361e-05
1.87200000000000e+01 2.97075571740448e-03 4.93455643577949e-05
1.90400000000000e+01 2.80473517503936e-03 4.69844325667109e-05
1.93600000000000e+01 2.64799268281001e-03 4.47299576815547e-05
1.96800000000000e+01 2.50000973732466e-03 4.25778410369705e-05
2.00000000000000e+01 2.36029681172896e-03 4.05239105704770e-05
2.03200000000000e+01 2.22839173635364e-03 3.85641219455703e-05
2.06400000000000e+01 2.10385816985945e-03 3.66945589771000e-05
2.09600000000000e+01 1.98628415582220e-03 3.49114334516926e-05
2.12800000000000e+01 1.87528075998293e-03 3.32110844257523e-05
2.16000000000000e+01 1.77048078365527e-03 3.15899770744192e-05
2.19200000000000e+01 1.67153754903406e-03 3.00447011567156e-05
2.22400000000000e+01 1.57812375238680e-03 2.85719691548213e-05
2.25600000000000e+01 1.48993038133459e-03 2.71686141389096e-05
2.28800000000000e+01 1.40666569264065e-03 2.58315874031537e-05
2.32000000000000e+01 1.32805424712514e-03 2.45579559133131e-05
2.35200000000000e+01 1.25383599851376e-03 2.33448996016519e-05
2.38400000000000e+01 1.18376543320587e-03 2.21897085407783e-05
2.41600000000000e+01 1.11761075811679e-03 2.10897800242663e-05
2.44800000000000e+01 1.05515313390737e-03 2.00426155785910e-05
2.48000000000000e+01 9.96185951064549e-04 1.90458179279205e-05
2.51200000000000e+01 9.40514146438101e-04 1.80970879306449e-05
2.54400000000000e+01 8.87953557972705e-04 1.71942215041321e-05
2.57600000000000e+01 8.38330315500765e-04 1.63351065520714e-05
2.60800000000000e+01 7.91480265580754e-04 1.55177199068533e-05
2.64000000000000e+01 7.47248428478439e-04 1.47401242977376e-05
2.67200000000000e+01 7.05488485494685e-04 1.40004653540359e-05
2.70400000000000e+01 6.66062294943917e-04 1.32969686511829e-05
2.73600000000000e+01 6.28839435182105e-04 1.26279368063617e-05
2.76800000000000e+01 5.93696773172614e-04 1.19917466292702e-05
2.80000000000000e+01 5.60518057162718e-04 1.13868463326630e-05
2.83200000000000e+01 5.29193532123379e-04 1.08117528064505e-05
2.86400000000000e+01 4.99619576680150e-04 1.02650489583854e-05
2.89600000000000e+01 4.71698360334183e-04 9.74538112369853e-06
2.92800000000000e+01 4.45337519839415e-04 9.25145654545961e-06
2.96000000000000e+01 4.20449853665411e-04 8.78204092691481e-06
2.99200000000000e+01 3.96953033535126e-04 8.33595605660016e-06
3.02400000000000e+01 3.74769332083376e-04 7.91207750662728e-06
3.05600000000000e+01 3.53825365735090e-04 7.50933240418824e-06
3.08800000000000e+01 3.34051851952813e-04 7.12669727602179e-06
3.12000000000000e+01 3.15383380050406e-04 6.76319596531857e-06
3.15200000000000e+01 2.97758194814826e-04 6.41789762031515e-06
3.18400000000000e+01 2.81117992220179e-04 6.08991475363147e-06
3.21600000000000e+01 2.65407726558295e-04 5.77840137123865e-06
3.24800000000000e+01 2.50575428347791e-04 5.48255116980547e-06
3.28000000000000e+01 2.36572032419290e-04 5.20159580105325e-06
3.31200000000000e+01 2.23351215608077e-04 4.93480320165190e-06
3.34400000000000e+01 2.10869243517299e-04 4.68147598711227e-06
3.37600000000000e+01 1.99084825844798e-04 4.44094990806760e-06
3.40800000000000e+01 1.87958979794994e-04 4.21259236728855e-06
3.44000000000000e+01 1.77454901123987e-04 3.99580099574221e-06
3.47200000000000e+01 1.67537842391304e-04 3.79000228598124e-06
3.50400000000000e+01 1.58174998015535e-04 3.59465028113554e-06
3.53600000000000e+01 1.49335395753628e-04 3.40922531777423e-06
3.56800000000000e+01 1.40989794244868e-04 3.23323282090761e-06
3.60000000000000e+01 1.33110586280596e-04 3.06620214940848e-06
3.63200000000000e+01 1.25671707479699e-04 2.90768549014672e-06
3.66400000000000e+01 1.18648550067766e-04 2.75725679915099e-06
3.69600000000000e+01 1.12017881474693e-04 2.61451078813565e-06
3.72800000000000e+01 1.05757767481453e-04 2.47906195475827e-06
3.76000000000000e+01 9.98474996618104e-05 2.35054365500433e-06
3.79200000000000e+01 9.42675268789462e-05 2.22860721612837e-06
3.82400000000000e+01 8.89993906103959e-05 2.11292108861682e-06
3.85600000000000e+01 8.40256638873475e-05 2.00317003567400e-06
3.88800000000000e+01 7.93298936463144e-05 1.89905435877171e-06
3.92000000000000e+01 7.48965463024824e-05 1.80028915784177e-06
3.95200000000000e+01 7.07109563646882e-05 1.70660362473086e-06
3.98400000000000e+01 6.67592779220464e-05 1.61774036857766e-06
4.01600000000000e+01 6.30284388417448e-05 1.53345477181284e-06
4.04800000000000e+01 5.95060975264933e-05 1.45351437552329e-06
4.08000000000000e+01 5.61806020885810e-05 1.37769829296267e-06
4.11200000000000e+01 5.30409518054893e-05 1.30579665003045e-06
4.14400000000000e+01 5.00767607295555e-05 1.23761005158220e-06
4.17600000000000e+01 4.72782233313096e-05 1.17294907247266e-06
4.20800000000000e+01 4.46360820628309e-05 1.11163377227260e-06
4.24000000000000e+01 4.21415967338252e-05 1.05349323263847e-06
4.27200000000000e+01 3.97865155991183e-05 9.98365116351267e-07
4.30400000000000e+01 3.75630480619237e-05 9.46095247078061e-07
4.33600000000000e+01 3.54638389025869e-05 8.96537208945048e-07
4.36800000000000e+01 3.34819439475548e-05 8.49551965046382e-07
4.40000000000000e+01 3.16108070980839e-05 8.05007494046917e-07
4.43200000000000e+01 2.98442386426984e-05 7.62778444070205e-07
4.46400000000000e+01 2.81763947816542e-05 7.22745803095298e-07
4.49600000000000e+01 2.66017582956792e-05 6.84796585117215e-07
4.52800000000000e+01 2.51151202950383e-05 6.48823531356221e-07
4.56000000000000e+01 2.37115629885525e-05 6.14724825830452e-07
4.59200000000000e+01 2.23864434155694e-05 5.82403824634804e-07
4.62400000000000e+01 2.11353780870724e-05 5.51768798296498e-07
4.65600000000000e+01 1.99542284851208e-05 5.22732686604282e-07
4.68800000000000e+01 1.88390873726528e-05 4.95212865333794e-07
4.72000000000000e+01 1.77862658683642e-05 4.69130924316364e-07
4.75200000000000e+01 1.67922812439078e-05 4.44412456322343e-07
4.78400000000000e+01 1.58538454030447e-05 4.20986856252955e-07
4.81600000000000e+01 1.49678540046386e-05 3.98787130156754e-07
4.84800000000000e+01 1.41313761935100e-05 3.77749713608062e-07
4.88000000000000e+01 1.33416449051825e-05 3.57814299005161e-07
4.91200000000000e+01 1.25960477124465e-05 3.38923671365606e-07
4.94400000000000e+01 1.18921181834631e-05 3.21023552214978e-07
4.97600000000000e+01 1.12275277228198e-05 3.04062451183455e-07
5.00800000000000e+01 1.06000778685482e-05 2.87991524941947e-07
5.04000000000000e+01 1.00076930196228e-05 2.72764443126265e-07
5.07200000000000e+01 9.44841356988300e-06 2.58337260913777e-07
5.10400000000000e+01 8.92038942566544e-06 2.44668297932285e-07
5.13600000000000e+01 8.42187388570346e-06 2.31718023195616e-07
5.16800000000000e+01 7.95121786304781e-06 2.19448945774454e-07
5.20000000000000e+01 7.50686442989519e-06 2.07825510924419e-07
5.23200000000000e+01 7.08734366727877e-06 1.96814001406321e-07
5.26400000000000e+01 6.69126780258343e-06 1.86382443745816e-07
5.29600000000000e+01 6.31732661880082e-06 1.76500519191551e-07
5.32800000000000e+01 5.96428312033799e-06 1.67139479142168e-07
5.36000000000000e+01 5.63096944104201e-06 1.58272064823306e-07
5.39200000000000e+01 5.31628298090452e-06 1.49872431006104e-07
5.42400000000000e+01 5.01918275866633e-06 1.41916073568554e-07
5.45600000000000e+01 4.73868596825655e-06 1.34379760710481e-07
5.48800000000000e+01 4.47386472767495e-06 1.27241467641944e-07
5.52000000000000e+01 4.22384300956285e-06 1.20480314573432e-07
5.55200000000000e+01 3.98779374330900e-06 1.14076507844449e-07
5.58400000000000e+01 3.76493607910400e-06 1.08011284034930e-07
5.61600000000000e+01 3.55453280489303e-06 1.02266856911383e-07
5.64800000000000e+01 3.35588790768198e-06 9.68263670668208e-08
5.68000000000000e+01 3.16834427112990e-06 9.16738341203269e-08
5.71200000000000e+01 2.99128150181140e-06 8.67941113486147e-08
5.74400000000000e+01 2.82411387695823e-06 8.21728426281199e-08
5.77600000000000e+01 2.66628840689127e-06 7.77964215720820e-08
5.80800000000000e+01 2.51728300573339e-06 7.36519527526888e-08
5.84000000000000e+01 2.37660476435193e-06 6.97272149037358e-08
5.87200000000000e+01 2.24378831981776e-06 6.60106260043609e-08
5.90400000000000e+01 2.11839431598693e-06 6.24912101492843e-08
5.93600000000000e+01 2.00000795011279e-06 5.91585661156388e-08
5.96800000000000e+01 1.88823760068049e-06 5.60028375408861e-08
6.00000000000000e+01 1.78271353192499e-06 5.30146846305312e-08
6.03200000000000e+01 1.68308667074691e-06 5.01852573183668e-08
6.06400000000000e+01 1.58902745198050e-06 4.75061698057883e-08
6.09600000000000e+01 1.50022472819365e-06 4.49694764103642e-08
6.12800000000000e+01 1.41638474041375e-06 4.25676486573095e-08
6.16000000000000e+01 1.33723014637441e-06 4.02935535508030e-08
6.19200000000000e+01 1.26249910306869e-06 3.81404329652287e-08
6.22400000000000e+01 1.19194440057364e-06 3.61018840994047e-08
6.25600000000000e+01 1.12533264428114e-06 3.41718409397067e-08
6.28800000000000e+01 1.06244348282966e-06 3.23445566806923e-08
6.32000000000000e+01 1.00306887918309e-06 3.06145870544068e-08
6.35200000000000e+01 9.47012422445192e-07 2.89767745219959e-08
6.38400000000000e+01 8.94088678133348e-07 2.74262332835737e-08
6.41600000000000e+01 8.44122574762215e-07 2.59583350645142e-08
6.44800000000000e+01 7.96948824708102e-07 2.45686956384307e-08
6.48000000000000e+01 7.52411377438326e-07 2.32531620491119e-08
6.51200000000000e+01 7.10362903296824e-07 2.20078004955862e-08
6.54400000000000e+01 6.70664306138374e-07 2.08288848462928e-08
6.57600000000000e+01 6.33184263199232e-07 1.97128857500550e-08
6.60800000000000e+01 5.97798790682077e-07 1.86564603131907e-08
6.64000000000000e+01 5.64390833618221e-07 1.76564423136412e-08
6.67200000000000e+01 5.32849878650350e-07 1.67098329244825e-08
6.70400000000000e+01 5.03071588454880e-07 1.58137919205785e-08
6.73600000000000e+01 4.74957456594609e-07 1.49656293434745e-08
6.76800000000000e+01 4.48414481659905e-07 1.41627976008933e-08
6.80000000000000e+01 4.23354859620502e-07 1.34028839783976e-08
6.83200000000000e+01 3.99695693370201e-07 1.26836035419281e-08
6.86400000000000e+01 3.77358718503651e-07 1.20027924110121e-08
6.89600000000000e+01 3.56270044418082e-07 1.13584013834672e-08
6.92800000000000e+01 3.36359909883555e-07 1.07484898934057e-08
6.96000000000000e+01 3.17562452273160e-07 1.01712202852749e-08
6.99200000000000e+01 2.99815489689763e-07 9.62485238755394e-09
7.02400000000000e+01 2.83060315268607e-07 9.10773837056324e-09
7.05600000000000e+01 2.67241502975284e-07 8.61831787364347e-09
7.08800000000000e+01 2.52306724256692e-07 8.15511338771515e-09
7.12000000000000e+01 2.38206574938437e-07 7.71672587994871e-09
7.15200000000000e+01 2.24894411796066e-07 7.30183064795715e-09
7.18400000000000e+01 2.12326198259516e-07 6.90917339157062e-09
7.21600000000000e+01 2.00460358740348e-07 6.53756649086721e-09
7.24800000000000e+01 1.89257641099917e-07 6.18588547971709e-09
7.28000000000000e+01 1.78680986803479e-07 5.85306570465142e-09
7.31200000000000e+01 1.68695408330751e-07 5.53809915939293e-09
7.34400000000000e+01 1.59267873437358e-07 5.24003148588362e-09
7.37600000000000e+01 1.50367195884337e-07 4.95795913311907e-09
7.40800000000000e+01 1.41963932274211e-07 4.69102666554740e-09
7.44000000000000e+01 1.34030284652372e-07 4.43842421321794e-09
7.47200000000000e+01 1.26540008551589e-07 4.19938505626894e-09
7.50400000000000e+01 1.19468326175437e-07 3.97318333672731e-09
7.53600000000000e+01 1.12791844433468e-07 3.75913189095802e-09
7.56800000000000e+01 1.06488477556986e-07 3.55658019644616e-09
7.60000000000000e+01 1.00537374039430e-07 3.36491242692245e-09
7.63200000000000e+01 9.49188476596927e-08 3.18354561015408e-09
7.66400000000000e+01 8.96143123602024e-08 3.01192788301791e-09
7.69600000000000e+01 8.46062207643316e-08 2.84953683875271e-09
7.72800000000000e+01 7.98780061297638e-08 2.69587796155282e-09
7.76000000000000e+01 7.54140275457911e-08 2.55048314391740e-09
7.79200000000000e+01 7.11995181932586e-08 2.41290928240817e-09
7.82400000000000e+01 6.72205364959995e-08 2.28273694769518e-09
7.85600000000000e+01 6.34639200021698e-08 2.15956912498505e-09
7.88800000000000e+01 5.99172418429226e-08 2.04303002112967e-09
7.92000000000000e+01 5.65687696243872e-08 1.93276393490684e-09
7.95200000000000e+01 5.34074266169676e-08 1.82843418714745e-09
7.98400000000000e+01 5.04227551135761e-08 1.72972210755738e-09
8.01600000000000e+01 4.76048818355896e-08 1.63632607524750e-09
8.04800000000000e+01 4.49444852720926e-08 1.54796061014096e-09
8.08000000000000e+01 4.24327648443647e-08 1.46435551257532e-09
8.11200000000000e+01 4.00614117936103e-08 1.38525504855742e-09
8.14400000000000e+01 3.78225816956248e-08 1.31041717826215e-09
8.17600000000000e+01 3.57088685114782e-08 1.23961282549236e-09
8.20800000000000e+01 3.37132800883749e-08 1.17262518593708e-09
8.24000000000000e+01 3.18292150296465e-08 1.10924907217843e-09
8.27200000000000e+01 3.00504408573645e-08 1.04929029350528e-09
8.30400000000000e+01 2.83710733953338e-08 9.92565068693714e-10
8.33600000000000e+01 2.67855573042669e-08 9.38899470010927e-10
8.36800000000000e+01 2.52886477047486e-08 8.88128896790840e-10
8.40000000000000e+01 2.38753928272015e-08 8.40097577016493e-10
8.43200000000000e+01 2.25411176314558e-08 7.94658095426676e-10
8.46400000000000e+01 2.12814083417401e-08 7.51670946742231e-10
8.49600000000000e+01 2.00920978459326e-08 7.11004112681308e-10
8.52800000000000e+01 1.89692519107747e-08 6.72532661503070e-10
8.56000000000000e+01 1.79091561674468e-08 6.36138368885661e-10
8.59200000000000e+01 1.69083038244547e-08 6.01709359007212e-10
8.62400000000000e+01 1.59633840671807e-08 5.69139764758288e-10
8.65600000000000e+01 1.50712711057247e-08 5.38329406070722e-10
8.68800000000000e+01 1.42290138348070e-08 5.09183485401329e-10
8.72000000000000e+01 1.34338260715265e-08 4.81612299459722e-10
8.75200000000000e+01 1.26830773386815e-08 4.55530966317588e-10
8.78400000000000e+01 1.19742841631637e-08 4.30859167082321e-10
8.81600000000000e+01 1.13051018606419e-08 4.07520901361079e-10
8.84800000000000e+01 1.06733167793574e-08 3.85444255782282e-10
8.88000000000000e+01 1.00768389773752e-08 3.64561184880263e-10
8.91200000000000e+01 9.51369530906591e-09 3.44807303685575e-10
8.94400000000000e+01 8.98202289795040e-09 3.26121691398218e-10
8.97600000000000e+01 8.48006297431302e-09 3.08446705554010e-10
9.00800000000000e+01 8.00615505720030e-09 2.91727806125579e-10
9.04000000000000e+01 7.55873146155813e-09 2.75913389028998e-10
9.07200000000000e+01 7.13631211233725e-09 2.60954628535173e-10
9.10400000000000e+01 6.73749964841236e-09 2.46805328111580e-10
9.13600000000000e+01 6.36097480011837e-09 2.33421779245142e-10
9.16800000000000e+01 6.00549202511283e-09 2.20762627820854e-10
9.20000000000000e+01 5.66987538812804e-09 2.08788747653317e-10
9.23200000000000e+01 5.35301467098295e-09 1.97463120789753e-10
9.26400000000000e+01 5.05386169998691e-09 1.86750724223280e-10
9.29600000000000e+01 4.77142687858624e-09 1.76618422674446e-10
9.32800000000000e+01 4.50477591378376e-09 1.67034867117169e-10
9.36000000000000e+01 4.25302672550209e-09 1.57970398742442e-10
9.39200000000000e+01 4.01534652866715e-09 1.49396958069454e-10
9.42400000000000e+01 3.79094907835924e-09 1.41287998929232e-10
9.45600000000000e+01 3.57909206891868e-09 1.33618407060504e-10
9.48800000000000e+01 3.37907467840239e-09 1.26364423071355e-10
9.52000000000000e+01 3.19023525026835e-09 1.19503569533338e-10
9.55200000000000e+01 3.01194910461897e-09 1.13014581987138e-10
9.58400000000000e+01 2.84362647176316e-09 1.06877343650646e-10
9.61600000000000e+01 2.68471054126100e-09 1.01072823631424e-10
9.64800000000000e+01 2.53467561999763e-09 9.55830184561096e-11
9.68000000000000e+01 2.39302539319295e-09 9.03908967392816e-11
9.71200000000000e+01 2.25929128259481e-09 8.54803468237741e-11
9.74400000000000e+01 2.13303089642449e-09 8.08361272333886e-11
9.77600000000000e+01 2.01382656594681e-09 7.64438197874230e-11
9.80800000000000e+01 1.90128396382404e-09 7.22897852344716e-11
9.84000000000000e+01 1.79503079968305e-09 6.83611212705640e-11
9.87200000000000e+01 1.69471558858052e-09 6.46456228139028e-11
9.90400000000000e+01 1.60000648829253e-09 6.11317444152789e-11
9.93600000000000e+01 1.51059020158211e-09 5.78085646897037e-11
9.96800000000000e+01 1.42617093981352e-09 5.46657526609052e-11
1.00000000000000e+02 1.34646944448489e-09 5.16935359161284e-11
1.00320000000000e+02 1.27122206344248e-09 4.88826704741526e-11
1.00640000000000e+02 1.20017987872067e-09 4.62244122746336e-11
1.00960000000000e+02 1.13310788312252e-09 4.37104902017892e-11
