Energy (eV)          EEDF (eV^-(3/2))     First Anisotropy
1.97500000000000e-01 2.98865577420250e-01 7.29174173013096e-04
5.92500000000000e-01 2.51354892761877e-01 1.11210664255951e-03
9.87500000000000e-01 2.11396985429655e-01 1.24307972146736e-03
1.38250000000000e+00 1.77791189810186e-01 1.24644491637206e-03
1.77750000000000e+00 1.49527710198309e-01 1.19232194876603e-03
2.17250000000000e+00 1.25757278192581e-01 1.11033043216132e-03
2.56750000000000e+00 1.05765633657011e-01 1.01607148751961e-03
2.96250000000000e+00 8.89520624463474e-02 9.18440158673682e-04
3.35750000000000e+00 7.48113459908757e-02 8.22625418875613e-04
3.75250000000000e+00 6.29185803571701e-02 7.31608404187158e-04
4.14750000000000e+00 5.29164086239605e-02 6.47001133962065e-04
4.54250000000000e+00 4.45042829282282e-02 5.69550622548868e-04
4.93750000000000e+00 3.74294335246885e-02 4.99456007538491e-04
5.33250000000000e+00 3.14792734946073e-02 4.36573931303072e-04
5.72750000000000e+00 2.64750108786620e-02 3.80553881369225e-04
6.12250000000000e+00 2.22662762895512e-02 3.30928111253532e-04
6.51750000000000e+00 1.87266045734552e-02 2.87171390160360e-04
6.91250000000000e+00 1.57496347521350e-02 2.48740376868518e-04
7.30750000000000e+00 1.32459140605376e-02 2.15099088610356e-04
7.70250000000000e+00 1.11402100467989e-02 1.85734831275952e-04
8.09750000000000e+00 9.36924996792277e-03 1.60167584255350e-04
8.49250000000000e+00 7.87981955390910e-03 1.37954915465037e-04
8.88750000000000e+00 6.62716401150031e-03 1.18693876677452e-04
9.28250000000000e+00 5.57364322048935e-03 1.02020896521716e-04
9.67750000000000e+00 4.68760071357794e-03 8.76103855419008e-05
1.00725000000000e+01 3.94241245459684e-03 7.51725536952493e-05
1.04675000000000e+01 3.31568683252821e-03 6.44507885805970e-05
1.08625000000000e+01 2.78859183254209e-03 5.52188341901762e-05
1.12575000000000e+01 2.34528916670670e-03 4.72779324710204e-05
1.16525000000000e+01 1.97245836098489e-03 4.04540346671877e-05
1.20475000000000e+01 1.65889649815866e-03 3.45951500764807e-05
1.24425000000000e+01 1.39518158965290e-03 2.95688720622408e-05
1.28375000000000e+01 1.17338946116712e-03 2.52601017242815e-05
1.32325000000000e+01 9.86855645020797e-04 2.15689762459583e-05
1.36275000000000e+01 8.29975124491688e-04 1.84089999187692e-05
1.40225000000000e+01 6.98033912812523e-04 1.57053699770712e-05
1.44175000000000e+01 5.87067406068073e-04 1.33934857577711e-05
1.48125000000000e+01 4.93741253743442e-04 1.14176276775534e-05
1.52075000000000e+01 4.15251167290794e-04 9.72979161371764e-06
1.56025000000000e+01 3.49238656136209e-04 8.28866413390750e-06
1.59975000000000e+01 2.93720159140248e-04 7.05872439030077e-06
1.63925000000000e+01 2.47027442035870e-04 6.00945919112159e-06
1.67875000000000e+01 2.07757469890405e-04 5.11467865463197e-06
1.71825000000000e+01 1.74730248346235e-04 4.35192084449849e-06
1.75775000000000e+01 1.46953366842801e-04 3.70193481534807e-06
1.79725000000000e+01 1.23592178405440e-04 3.14823251891723e-06
1.83675000000000e+01 1.03944719955564e-04 2.67670100510505e-06
1.87625000000000e+01 8.74206195411232e-05 2.27526728007841e-06
1.91575000000000e+01 7.35233566863319e-05 1.93360904483600e-06
1.95525000000000e+01 6.18353428150063e-05 1.64290532737354e-06
1.99475000000000e+01 5.20053734401950e-05 1.39562173873097e-06
2.03425000000000e+01 4.37380750802241e-05 1.18532572928585e-06
2.07375000000000e+01 3.67850297993389e-05 1.00652779992867e-06
2.11325000000000e+01 3.09373106808274e-05 8.54545137496711e-07
2.15275000000000e+01 2.60192039365764e-05 7.25384599897564e-07
2.19225000000000e+01 2.18829290133711e-05 6.15642378793832e-07
2.23175000000000e+01 1.84041980443175e-05 5.22418021614288e-07
2.27125000000000e+01 1.54784812146261e-05 4.43240804914004e-07
2.31075000000000e+01 1.30178658224940e-05 3.76006722376939e-07
2.35025000000000e+01 1.09484146553297e-05 3.18924587374157e-07
2.38975000000000e+01 9.20794430511912e-06 2.70469955946767e-07
2.42925000000000e+01 7.74415666517540e-06 2.29345755006854e-07
2.46875000000000e+01 6.51306746299925e-06 1.94448655722831e-07
2.50825000000000e+01 5.47768460939558e-06 1.64840366420935e-07
2.54775000000000e+01 4.60689665053645e-06 1.39723135517374e-07
2.58725000000000e+01 3.87453792288816e-06 1.18418855326562e-07
2.62675000000000e+01 3.25860232053402e-06 1.00351244129948e-07
2.66625000000000e+01 2.74058204996855e-06 8.50306584517666e-08
2.70575000000000e+01 2.30491150309466e-06 7.20411516658386e-08
2.74525000000000e+01 1.93849953777485e-06 6.10294502460201e-08
2.78475000000000e+01 1.63033611178042e-06 5.16955663904682e-08
2.82425000000000e+01 1.37116145017312e-06 4.37848064580454e-08
2.86375000000000e+01 1.15318780517454e-06 3.70809695772803e-08
2.90325000000000e+01 9.69865447891184e-07 3.14005607258879e-08
2.94275000000000e+01 8.15685860353678e-07 2.65878682266671e-08
2.98225000000000e+01 6.86016214133210e-07 2.25107775649200e-08
3.02175000000000e+01 5.76960161905471e-07 1.90572122230634e-08
3.06125000000000e+01 4.85240758990791e-07 1.61321082984182e-08
3.10075000000000e+01 4.08101996866356e-07 1.36548434070994e-08
3.14025000000000e+01 3.43225989903845e-07 1.15570521136485e-08
3.17975000000000e+01 2.88663326937977e-07 9.78077014927017e-09
3.21925000000000e+01 2.42774494851761e-07 8.27685823774880e-09
3.25875000000000e+01 2.04180614059061e-07 7.00366364907049e-09
3.29825000000000e+01 1.71722005571431e-07 5.92588382822463e-09
3.33775000000000e+01 1.44423344661627e-07 5.01360175650096e-09
3.37725000000000e+01 1.21464354052019e-07 4.24146722846745e-09
3.41675000000000e+01 1.02155156009168e-07 3.58800208418050e-09
3.45625000000000e+01 8.59155427178916e-08 3.03501072104309e-09
3.49575000000000e+01 7.22575420456255e-08 2.56708000693886e-09
3.53525000000000e+01 6.07707548286027e-08 2.17115509753856e-09
3.57475000000000e+01 5.11100230908245e-08 1.83617968729230e-09
3.61425000000000e+01 4.29850586472414e-08 1.55279094795160e-09
3.65375000000000e+01 3.61517204487135e-08 1.31306087522706e-09
3.69325000000000e+01 3.04046785681379e-08 1.11027701155325e-09
3.73275000000000e+01 2.55712443932853e-08 9.38756573471429e-10
3.77225000000000e+01 2.15061816343738e-08 7.93688913636267e-10
3.81175000000000e+01 1.80873422261815e-08 6.71002013589226e-10
3.85125000000000e+01 1.52119959911486e-08 5.67249354410855e-10
3.89075000000000e+01 1.27937437762284e-08 4.79514065367725e-10
3.93025000000000e+01 1.07599213086187e-08 4.05327720361607e-10
3.96975000000000e+01 9.04941576075532e-09 3.42601550845998e-10
4.00925000000000e+01 7.61082941614187e-09 2.89568182520995e-10
4.04875000000000e+01 6.40093525736911e-09 2.44732290591990e-10
4.08825000000000e+01 5.38337806943000e-09 2.06828812372835e-10
4.12775000000000e+01 4.52758202874427e-09 1.74787563072963e-10
4.16725000000000e+01 3.80783195284267e-09 1.47703276294848e-10
4.20675000000000e+01 3.20250060386230e-09 1.24810239814151e-10
4.24625000000000e+01 2.69339882766674e-09 1.05460823641503e-10
4.28575000000000e+01 2.26522900140209e-09 8.91073045898398e-11
4.32525000000000e+01 1.90512536653855e-09 7.52864824986371e-11
4.36475000000000e+01 1.60226743520506e-09 6.36066603632516e-11
4.40425000000000e+01 1.34755485334967e-09 5.37366259793127e-11
4.44375000000000e+01 1.13333395092927e-09 4.53963281181061e-11
4.48325000000000e+01 9.53167762437390e-10 3.83489872099871e-11
4.52275000000000e+01 8.01642607287073e-10 3.23944203115875e-11
4.56225000000000e+01 6.74205418125676e-10 2.73633938575282e-11
4.60175000000000e+01 5.67026929080430e-10 2.31128462723242e-11
4.64125000000000e+01 4.76886612979502e-10 1.95218467270180e-11
4.68075000000000e+01 4.01075910112204e-10 1.64881768328139e-11
4.72025000000000e+01 3.37316840720893e-10 1.39254394346918e-11
4.75975000000000e+01 2.83693555671525e-10 1.17606133800824e-11
4.79925000000000e+01 2.38594768519566e-10 9.93198559690081e-12
4.83875000000000e+01 2.00665339154967e-10 8.38740236557933e-12
4.87825000000000e+01 1.68765554198964e-10 7.08279060285012e-12
4.91775000000000e+01 1.41936880599434e-10 5.98090753815559e-12
4.95725000000000e+01 1.19373163379933e-10 5.05028356624909e-12
4.99675000000000e+01 1.00396402084865e-10 4.26432847939543e-12
5.03625000000000e+01 8.44363780450865e-11 3.60057587008335e-12
5.07575000000000e+01 7.10135202987273e-11 3.04004437783815e-12
5.11525000000000e+01 5.97244953179421e-11 2.56669773960670e-12
5.15475000000000e+01 5.02300875379475e-11 2.16698838380003e-12
5.19425000000000e+01 4.22450065193251e-11 1.82947166094173e-12
5.23375000000000e+01 3.55293144665450e-11 1.54447979464146e-12
5.27325000000000e+01 2.98812165145528e-11 1.30384632089815e-12
5.31275000000000e+01 2.51309971440720e-11 1.10067320862211e-12
5.35225000000000e+01 2.11359205254502e-11 9.29134059619407e-13
5.39175000000000e+01 1.77759415552487e-11 7.84307805861719e-13
5.43125000000000e+01 1.49500987096888e-11 6.62038184245951e-13
5.47075000000000e+01 1.25734803264722e-11 5.58814998422781e-13
5.51025000000000e+01 1.05746731570225e-11 4.71673794116234e-13
5.54975000000000e+01 8.89361652258036e-12 3.98111095998989e-13
5.58925000000000e+01 7.47979759527486e-12 3.36012795296494e-13
5.62875000000000e+01 6.29073357550694e-12 2.83593650279262e-13
5.66825000000000e+01 5.29069515771517e-12 2.39346177169209e-13
5.70775000000000e+01 4.44963292689042e-12 2.01997475619218e-13
5.74725000000000e+01 3.74227442592211e-12 1.70472758343600e-13
5.78675000000000e+01 3.14736476222043e-12 1.43864545041484e-13
5.82625000000000e+01 2.64702793516432e-12 1.21406641846133e-13
5.86575000000000e+01 2.22622969337596e-12 1.02452163702208e-13
5.90525000000000e+01 1.87232578161709e-12 8.64549721700246e-14
5.94475000000000e+01 1.57468200291229e-12 7.29539984368495e-14
5.98425000000000e+01 1.32435467942670e-12 6.15600035341697e-14
6.02375000000000e+01 1.11382191050360e-12 5.19443972453681e-14
6.06325000000000e+01 9.36757552633053e-13 4.38297959097080e-14
6.10275000000000e+01 7.87841129843021e-13 3.69820489511642e-14
6.14225000000000e+01 6.62597962650712e-13 3.12035058924166e-14
6.18175000000000e+01 5.57264711727290e-13 2.63273310456857e-14
6.22125000000000e+01 4.68676296096918e-13 2.22127030094528e-14
6.26075000000000e+01 3.94170787958705e-13 1.87407613943168e-14
6.30025000000000e+01 3.31509426386387e-13 1.58111845715348e-14
6.33975000000000e+01 2.78809346456555e-13 1.33393002921573e-14
6.37925000000000e+01 2.34487002432710e-13 1.12536462770184e-14
6.41875000000000e+01 1.97210584970277e-13 9.49391076252602e-15
6.45825000000000e+01 1.65860002562315e-13 8.00919387134468e-15
6.49775000000000e+01 1.39493224737999e-13 6.75653987093462e-15
6.53725000000000e+01 1.17317975685520e-13 5.69969814871079e-15
6.57675000000000e+01 9.86679277420053e-14 4.80807729189173e-15
6.61625000000000e+01 8.29826794062490e-14 4.05586220016547e-15
6.65575000000000e+01 6.97909162483475e-14 3.42126883831902e-15
6.69525000000000e+01 5.86962487308776e-14 2.88591518764643e-15
6.73475000000000e+01 4.93653013927671e-14 2.43429029221881e-15
6.77425000000000e+01 4.15176954965569e-14 2.05330611439884e-15
6.81375000000000e+01 3.49176241350240e-14 1.73191929393708e-15
6.85325000000000e+01 2.93667666437778e-14 1.46081191470937e-15
6.89275000000000e+01 2.46983294102495e-14 1.23212208018400e-15
6.93225000000000e+01 2.07720340157517e-14 1.03921653165047e-15
6.97175000000000e+01 1.74699021129943e-14 8.76498753156997e-16
7.01125000000000e+01 1.46927103819571e-14 7.39247028672975e-16
7.05075000000000e+01 1.23570090417107e-14 6.23477779508663e-16
7.09025000000000e+01 1.03926143296496e-14 5.25830238229953e-16
7.12975000000000e+01 8.74049960150278e-15 4.43469130097332e-16
7.16925000000000e+01 7.35102168334251e-15 3.74002552084234e-16
7.20875000000000e+01 6.18242918055632e-15 3.15412677695417e-16
7.24825000000000e+01 5.19960792106038e-15 2.65997285697953e-16
7.28775000000000e+01 4.37302583550517e-15 2.24320423125477e-16
7.32725000000000e+01 3.67784556995901e-15 1.89170776496481e-16
7.36675000000000e+01 3.09317816662396e-15 1.59526547679254e-16
7.40625000000000e+01 2.60145538698782e-15 1.34525818639636e-16
7.44575000000000e+01 2.18790181681465e-15 1.13441547827147e-16
7.48525000000000e+01 1.84009089064699e-15 9.56604747530822e-17
7.52475000000000e+01 1.54757149512842e-15 8.06653222433038e-17
7.56425000000000e+01 1.30155393122561e-15 6.80197811613694e-17
7.60375000000000e+01 1.09464579906097e-15 5.73558428402500e-17
7.64325000000000e+01 9.20629869154560e-16 4.83631123516650e-17
7.68275000000000e+01 7.74277265492280e-16 4.07797930380710e-17
7.72225000000000e+01 6.51190346896680e-16 3.43850810858525e-17
7.76175000000000e+01 5.47670565558723e-16 2.89927497240217e-17
7.80125000000000e+01 4.60607332109303e-16 2.44457370681150e-17
7.84075000000000e+01 3.87384547819197e-16 2.06115806878273e-17
7.88025000000000e+01 3.25801995382637e-16 1.88791787753359e-17
