Energy (eV)          EEDF (eV^-(3/2))     First Anisotropy
1.98611111111111e-02 1.33596004252674e-01 8.33360838620966e-05
5.95833333333333e-02 1.32318455559544e-01 1.37415550966138e-04
9.93055555555555e-02 1.31053123778859e-01 1.80885576640107e-04
1.39027777777778e-01 1.29799892077675e-01 2.13596216349320e-04
1.78750000000000e-01 1.28558644754429e-01 2.40618774530516e-04
2.18472222222222e-01 1.27329267203237e-01 2.63878327375016e-04
2.58194444444444e-01 1.26111645915373e-01 2.84374893871489e-04
2.97916666666667e-01 1.24905668463778e-01 3.02714594831466e-04
3.37638888888889e-01 1.23711223505914e-01 3.19300888989765e-04
3.77361111111111e-01 1.22528200758810e-01 3.34419964163011e-04
4.17083333333333e-01 1.21356490994111e-01 3.48284429931495e-04
4.56805555555556e-01 1.20195986028186e-01 3.61057903982607e-04
4.96527777777778e-01 1.19046578709618e-01 3.72869855844677e-04
5.36250000000000e-01 1.17908162916622e-01 3.83825072595937e-04
5.75972222222222e-01 1.16780633539576e-01 3.94009963881484e-04
6.15694444444444e-01 1.15663886474029e-01 4.03496913703883e-04
6.55416666666667e-01 1.14557818609381e-01 4.12347375704837e-04
6.95138888888889e-01 1.13462327824643e-01 4.20614131776369e-04
7.34861111111111e-01 1.12377312973511e-01 4.28342976192569e-04
7.74583333333333e-01 1.11302673876904e-01 4.35573994647256e-04
8.14305555555556e-01 1.10238311313769e-01 4.42342553240060e-04
8.54027777777778e-01 1.09184127010650e-01 4.48680073403366e-04
8.93750000000000e-01 1.08140023636419e-01 4.54614648229966e-04
9.33472222222222e-01 1.07105904789370e-01 4.60171538082892e-04
9.73194444444444e-01 1.06081674989670e-01 4.65373572868403e-04
1.01291666666667e+00 1.05067239669542e-01 4.70241482418436e-04
1.05263888888889e+00 1.04062505165639e-01 4.74794169326799e-04
1.09236111111111e+00 1.03067378715165e-01 4.79048938426786e-04
1.13208333333333e+00 1.02081768438151e-01 4.83021688844858e-04
1.17180555555556e+00 1.01105583333397e-01 4.86727076485505e-04
1.21152777777778e+00 1.00138733261981e-01 4.90178650055164e-04
1.25125000000000e+00 9.91811289633103e-02 4.93388971853114e-04
1.29097222222222e+00 9.82326820219383e-02 4.96369722154218e-04
1.33069444444444e+00 9.72933048679383e-02 4.99131785655883e-04
1.37041666666667e+00 9.63629107620477e-02 5.01685327010581e-04
1.41013888888889e+00 9.54414138084020e-02 5.04039860206831e-04
1.44986111111111e+00 9.45287289254062e-02 5.06204309715934e-04
1.48958333333333e+00 9.36247718450369e-02 5.08187059925520e-04
1.52930555555556e+00 9.27294591051774e-02 5.09996003171047e-04
1.56902777777778e+00 9.18427080362211e-02 5.11638578429851e-04
1.60875000000000e+00 9.09644367706109e-02 5.13121809592818e-04
1.64847222222222e+00 9.00945642177755e-02 5.14452339853768e-04
1.68819444444444e+00 8.92330100626046e-02 5.15636459304449e-04
1.72791666666667e+00 8.83796947531191e-02 5.16680129975110e-04
1.76763888888889e+00 8.75345395081428e-02 5.17589011173315e-04
1.80736111111111e+00 8.66974662947320e-02 5.18368482538485e-04
1.84708333333333e+00 8.58683978261276e-02 5.19023661255759e-04
1.88680555555556e+00 8.50472575546867e-02 5.19559421238318e-04
1.92652777777778e+00 8.42339696605806e-02 5.19980407293049e-04
1.96625000000000e+00 8.34284590575804e-02 5.20291051221316e-04
2.00597222222222e+00 8.26306513731215e-02 5.20495586663361e-04
2.04569444444444e+00 8.18404729458532e-02 5.20598059999708e-04
2.08541666666667e+00 8.10578508151069e-02 5.20602340545068e-04
2.12513888888889e+00 8.02827127255359e-02 5.20512132247301e-04
2.16486111111111e+00 7.95149871088810e-02 5.20330984569769e-04
2.20458333333333e+00 7.87546030812562e-02 5.20062299447373e-04
2.24430555555556e+00 7.80014904366476e-02 5.19709340700541e-04
2.28402777777778e+00 7.72555796371639e-02 5.19275239959890e-04
2.32375000000000e+00 7.65168018164840e-02 5.18763004854831e-04
2.36347222222222e+00 7.57850887634803e-02 5.18175526705864e-04
2.40319444444444e+00 7.50603729193158e-02 5.17515585393759e-04
2.44291666666667e+00 7.43425873682885e-02 5.16785854050331e-04
2.48263888888889e+00 7.36316658405404e-02 5.15988905413503e-04
2.52236111111111e+00 7.29275426969191e-02 5.15127217837347e-04
2.56208333333333e+00 7.22301529259521e-02 5.14203178285415e-04
2.60180555555556e+00 7.15394321378741e-02 5.13219087676414e-04
2.64152777777778e+00 7.08553165560948e-02 5.12177163505205e-04
2.68125000000000e+00 7.01777430191245e-02 5.11079544612906e-04
2.72097222222222e+00 6.95066489668181e-02 5.09928295732704e-04
2.76069444444444e+00 6.88419724372819e-02 5.08725409808429e-04
2.80041666666667e+00 6.81836520588177e-02 5.07472810309799e-04
2.84013888888889e+00 6.75316270513567e-02 5.06172355117962e-04
2.87986111111111e+00 6.68858372136496e-02 5.04825840247519e-04
2.91958333333333e+00 6.62462229201298e-02 5.03435001105214e-04
2.95930555555556e+00 6.56127251154282e-02 5.02001515868183e-04
2.99902777777778e+00 6.49852853068339e-02 5.00527006618017e-04
3.03875000000000e+00 6.43638455651976e-02 4.99013042412103e-04
3.07847222222222e+00 6.37483485131963e-02 4.97461142243580e-04
3.11819444444444e+00 6.31387373221949e-02 4.95872776160040e-04
3.15791666666667e+00 6.25349557051020e-02 4.94249366439365e-04
3.19763888888889e+00 6.19369479169393e-02 4.92592290183387e-04
3.23736111111111e+00 6.13446587438541e-02 4.90902881827527e-04
3.27708333333333e+00 6.07580334999848e-02 4.89182433576318e-04
3.31680555555556e+00 6.01770180224269e-02 4.87432197715493e-04
3.35652777777778e+00 5.96015586645237e-02 4.85653387024187e-04
3.39625000000000e+00 5.90316022960741e-02 4.83847176905903e-04
3.43597222222222e+00 5.84670962932020e-02 4.82014707460493e-04
3.47569444444444e+00 5.79079885352627e-02 4.80157083995368e-04
3.51541666666667e+00 5.73542273984680e-02 4.78275377612886e-04
3.55513888888889e+00 5.68057617558659e-02 4.76370627059120e-04
3.59486111111111e+00 5.62625409678159e-02 4.74443840527154e-04
3.63458333333333e+00 5.57245148789279e-02 4.72495995683359e-04
3.67430555555556e+00 5.51916338134434e-02 4.70528041346978e-04
3.71402777777778e+00 5.46638485692329e-02 4.68540897536140e-04
3.75375000000000e+00 5.41411104175282e-02 4.66535457031530e-04
3.79347222222222e+00 5.36233710940979e-02 4.64512586907483e-04
3.83319444444444e+00 5.31105827962516e-02 4.62473128720538e-04
3.87291666666667e+00 5.26026981771254e-02 4.60417898776924e-04
3.91263888888889e+00 5.20996703452585e-02 4.58347689516912e-04
3.95236111111111e+00 5.16014528562697e-02 4.56263270873813e-04
3.99208333333333e+00 5.11079997099113e-02 4.54165390094058e-04
4.03180555555556e+00 5.06192653458302e-02 4.52054773013175e-04
4.07152777777778e+00 5.01352046381789e-02 4.49932123913155e-04
4.11125000000000e+00 4.96557728950220e-02 4.47798126719259e-04
4.15097222222222e+00 4.91809258505958e-02 4.45653446178529e-04
4.19069444444444e+00 4.87106196624411e-02 4.43498727872274e-04
4.23041666666667e+00 4.82448109062628e-02 4.41334598303829e-04
4.27013888888889e+00 4.77834565752338e-02 4.39161665974490e-04
4.30986111111111e+00 4.73265140726737e-02 4.36980522445124e-04
4.34958333333333e+00 4.68739412092422e-02 4.34791742055074e-04
4.38930555555556e+00 4.64256961990496e-02 4.32595882924924e-04
4.42902777777778e+00 4.59817376548020e-02 4.30393486718810e-04
4.46875000000000e+00 4.55420245869919e-02 4.28185079590131e-04
4.50847222222222e+00 4.51065163970683e-02 4.25971173117086e-04
4.54819444444444e+00 4.46751728747159e-02 4.23752264218613e-04
4.58791666666667e+00 4.42479541932188e-02 4.21528835139623e-04
4.62763888888889e+00 4.38248209085833e-02 4.19301354311224e-04
4.66736111111111e+00 4.34057339530658e-02 4.17070277202909e-04
4.70708333333333e+00 4.29906546325169e-02 4.14836045996892e-04
4.74680555555556e+00 4.25795446228131e-02 4.12599090396678e-04
4.78652777777778e+00 4.21723659654733e-02 4.10359827345482e-04
4.82625000000000e+00 4.17690810667085e-02 4.08118661792074e-04
4.86597222222222e+00 4.13696526913689e-02 4.05875987450987e-04
4.90569444444444e+00 4.09740439603765e-02 4.03632186666745e-04
4.94541666666667e+00 4.05822183465348e-02 4.01387630340993e-04
4.98513888888889e+00 4.01941396735370e-02 3.99142678635245e-04
5.02486111111111e+00 3.98097721102202e-02 3.96897681669391e-04
5.06458333333333e+00 3.94290801680651e-02 3.94652979182628e-04
5.10430555555556e+00 3.90520286979232e-02 3.92408901198437e-04
5.14402777777778e+00 3.86785828860504e-02 3.90165767727822e-04
5.18375000000000e+00 3.83087082530719e-02 3.87923889401132e-04
5.22347222222222e+00 3.79423706485965e-02 3.85683568097111e-04
5.26319444444444e+00 3.75795362488059e-02 3.83445096781601e-04
5.30291666666667e+00 3.72201715526604e-02 3.81208759402603e-04
5.34263888888889e+00 3.68642433808407e-02 3.78974831474082e-04
5.38236111111111e+00 3.65117188706286e-02 3.76743580657904e-04
5.42208333333333e+00 3.61625654735633e-02 3.74515266428512e-04
5.46180555555556e+00 3.58167509524395e-02 3.72290140628298e-04
5.50152777777778e+00 3.54742433777121e-02 3.70068447171861e-04
5.54125000000000e+00 3.51350111264170e-02 3.67850422574893e-04
5.58097222222222e+00 3.47990228773638e-02 3.65636296482092e-04
5.62069444444444e+00 3.44662476088798e-02 3.63426291495684e-04
5.66041666666667e+00 3.41366545953690e-02 3.61220623054262e-04
5.70013888888889e+00 3.38102134062235e-02 3.59019499924217e-04
5.73986111111111e+00 3.34868939012479e-02 3.56823124690639e-04
5.77958333333333e+00 3.31666662284696e-02 3.54631693435230e-04
5.81930555555556e+00 3.28495008213852e-02 3.52445396205792e-04
5.85902777777778e+00 3.25353683956982e-02 3.50264416730427e-04
5.89875000000000e+00 3.22242399482233e-02 3.48088932865437e-04
5.93847222222222e+00 3.19160867525847e-02 3.45919117043326e-04
5.97819444444444e+00 3.16108803571106e-02 3.43755136100170e-04
6.01791666666667e+00 3.13085925817087e-02 3.41597151148019e-04
6.05763888888889e+00 3.10091955167721e-02 3.39445317992826e-04
6.09736111111111e+00 3.07126615190799e-02 3.37299787552718e-04
6.13708333333333e+00 3.04189632097561e-02 3.35160705554123e-04
6.17680555555556e+00 3.01280734717442e-02 3.33028212932351e-04
6.21652777777778e+00 2.98399654468429e-02 3.30902445560619e-04
6.25625000000000e+00 2.95546125346162e-02 3.28783534632914e-04
6.29597222222222e+00 2.92719883885345e-02 3.26671607047491e-04
6.33569444444444e+00 2.89920669140142e-02 3.24566785238522e-04
6.37541666666667e+00 2.87148222655777e-02 3.22469187047963e-04
6.41513888888889e+00 2.84402288457720e-02 3.20378926084008e-04
6.45486111111111e+00 2.81682613014880e-02 3.18296112080327e-04
6.49458333333333e+00 2.78988945220619e-02 3.16220850612470e-04
6.53430555555556e+00 2.76321036369585e-02 3.14153243442443e-04
6.57402777777778e+00 2.73678640130759e-02 3.12093388264875e-04
6.61375000000000e+00 2.71061512536764e-02 3.10041379036626e-04
6.65347222222222e+00 2.68469411949172e-02 3.07997306307521e-04
6.69319444444444e+00 2.65902099040291e-02 3.05961257059390e-04
6.73291666666667e+00 2.63359336767326e-02 3.03933314580924e-04
6.77263888888889e+00 2.60840890361824e-02 3.01913558777159e-04
6.81236111111111e+00 2.58346527296560e-02 2.99902066480134e-04
6.85208333333333e+00 2.55876017267908e-02 2.97898911186210e-04
6.89180555555556e+00 2.53429132174592e-02 2.95904163354287e-04
6.93152777777778e+00 2.51005646093157e-02 2.93917890170004e-04
6.97125000000000e+00 2.48605335267586e-02 2.91940155831202e-04
7.01097222222222e+00 2.46227978078068e-02 2.89971021834812e-04
7.05069444444444e+00 2.43873355024091e-02 2.88010546824964e-04
7.09041666666667e+00 2.41541248700921e-02 2.86058786472958e-04
7.13013888888889e+00 2.39231443789396e-02 2.84115793745992e-04
7.16986111111111e+00 2.36943727026083e-02 2.82181619177198e-04
7.20958333333333e+00 2.34677887186938e-02 2.80256310623664e-04
7.24930555555556e+00 2.32433715067808e-02 2.78339913525835e-04
7.28902777777778e+00 2.30211003462097e-02 2.76432470689620e-04
7.32875000000000e+00 2.28009547150766e-02 2.74534022534999e-04
7.36847222222222e+00 2.25829142874171e-02 2.72644607346023e-04
7.40819444444444e+00 2.23669589316392e-02 2.70764261128703e-04
7.44791666666667e+00 2.21530687083804e-02 2.68893017497353e-04
7.48763888888889e+00 2.19412238695281e-02 2.67030907908988e-04
7.52736111111111e+00 2.17314048555272e-02 2.65177961899135e-04
7.56708333333333e+00 2.15235922938655e-02 2.63334206859659e-04
7.60680555555555e+00 2.13177669972865e-02 2.61499668265409e-04
7.64652777777778e+00 2.11139099617533e-02 2.59674369473740e-04
7.68625000000000e+00 2.09120023654924e-02 2.57858331941818e-04
7.72597222222222e+00 2.07120255664506e-02 2.56051575445433e-04
7.76569444444444e+00 2.05139611008440e-02 2.54254117946848e-04
7.80541666666667e+00 2.03177906812053e-02 2.52465975488095e-04
7.84513888888889e+00 2.01234961954483e-02 2.50687162396237e-04
7.88486111111111e+00 1.99310597044354e-02 2.48917691490043e-04
7.92458333333333e+00 1.97404634405767e-02 2.47157573876526e-04
7.96430555555556e+00 1.95516898061901e-02 2.45406819149722e-04
8.00402777777778e+00 1.93647213716451e-02 2.43665435206728e-04
8.04375000000000e+00 1.91795408744531e-02 2.41933428438346e-04
8.08347222222222e+00 1.89961312169677e-02 2.40210803921201e-04
8.12319444444444e+00 1.88144754650432e-02 2.38497565295451e-04
8.16291666666667e+00 1.86345568462536e-02 2.36793714665244e-04
8.20263888888889e+00 1.84563587490039e-02 2.35099252779024e-04
8.24236111111111e+00 1.82798647203303e-02 2.33414179211259e-04
8.28208333333333e+00 1.81050584646045e-02 2.31738492176479e-04
8.32180555555555e+00 1.79319238420302e-02 2.30072188704114e-04
8.36152777777778e+00 1.77604448669493e-02 2.28415264470051e-04
8.40125000000000e+00 1.75906057069804e-02 2.26767713964407e-04
8.44097222222222e+00 1.74223906809369e-02 2.25129530660690e-04
8.48069444444444e+00 1.72557842575882e-02 2.23500706903031e-04
8.52041666666667e+00 1.70907710540337e-02 2.21881233813708e-04
8.56013888888889e+00 1.69273358348626e-02 2.20271101451983e-04
8.59986111111111e+00 1.67654635101621e-02 2.18670298974343e-04
8.63958333333333e+00 1.66051391343208e-02 2.17078814464741e-04
8.67930555555555e+00 1.64463479046488e-02 2.15496635088804e-04
8.71902777777778e+00 1.62890751598329e-02 2.13923746939835e-04
8.75875000000000e+00 1.61333063791223e-02 2.12360135186813e-04
8.79847222222222e+00 1.59790271804436e-02 2.10805784223756e-04
8.83819444444444e+00 1.58262233192560e-02 2.09260677565926e-04
8.87791666666667e+00 1.56748806870672e-02 2.07724797764250e-04
8.91763888888889e+00 1.55249853106417e-02 2.06198126545600e-04
8.95736111111111e+00 1.53765233501956e-02 2.04680644954410e-04
8.99708333333333e+00 1.52294810982912e-02 2.03172333197851e-04
9.03680555555555e+00 1.50838449785725e-02 2.01673170782149e-04
9.07652777777778e+00 1.49396015443538e-02 2.00183136371940e-04
9.11625000000000e+00 1.47967374778540e-02 1.98702207921136e-04
9.15597222222222e+00 1.46552395884872e-02 1.97230362805089e-04
9.19569444444444e+00 1.45150948118062e-02 1.95767577725251e-04
9.23541666666667e+00 1.43762902081474e-02 1.94313828630173e-04
9.27513888888889e+00 1.42388129618862e-02 1.92869090839650e-04
9.31486111111111e+00 1.41026503797999e-02 1.91433339170099e-04
9.35458333333333e+00 1.39677898900483e-02 1.90006547793522e-04
9.39430555555555e+00 1.38342190410127e-02 1.88588690358210e-04
9.43402777777778e+00 1.37019255000080e-02 1.87179739860411e-04
9.47375000000000e+00 1.35708970525633e-02 1.85779668760262e-04
9.51347222222222e+00 1.34411216008710e-02 1.84388449098938e-04
9.55319444444444e+00 1.33125871628124e-02 1.83006052411234e-04
9.59291666666667e+00 1.31852818707193e-02 1.81632449652775e-04
9.63263888888889e+00 1.30591939706767e-02 1.80267611310061e-04
9.67236111111111e+00 1.29343118210360e-02 1.78911507511726e-04
9.71208333333333e+00 1.28106238914750e-02 1.77564107900051e-04
9.75180555555555e+00 1.26881187619335e-02 1.76225381738053e-04
9.79152777777778e+00 1.25667851214362e-02 1.74895297792468e-04
9.83125000000000e+00 1.24466117674192e-02 1.73573824436626e-04
9.87097222222222e+00 1.23275876043219e-02 1.72260929754472e-04
9.91069444444444e+00 1.22097016426878e-02 1.70956581460466e-04
9.95041666666667e+00 1.20929429980340e-02 1.69660746832628e-04
9.99013888888889e+00 1.19773008901978e-02 1.68373392810288e-04
1.00298611111111e+01 1.18627646419868e-02 1.67094486012549e-04
1.00695833333333e+01 1.17493236785346e-02 1.65823992784647e-04
1.01093055555556e+01 1.16369675258715e-02 1.64561879646061e-04
1.01490277777778e+01 1.15256858091027e-02 1.63308111947213e-04
1.01887500000000e+01 1.14154682547333e-02 1.62062654762957e-04
1.02284722222222e+01 1.13063046864091e-02 1.60825473713749e-04
1.02681944444444e+01 1.11981850250906e-02 1.59596534130902e-04
1.03079166666667e+01 1.10910992870933e-02 1.58375800342383e-04
1.03476388888889e+01 1.09850375862780e-02 1.57163236445112e-04
1.03873611111111e+01 1.08799901300002e-02 1.55958807089537e-04
1.04270833333333e+01 1.07759472192590e-02 1.54762476322023e-04
1.04668055555556e+01 1.06728992478044e-02 1.53574208341434e-04
1.05065277777778e+01 1.05708367002874e-02 1.52393966438243e-04
1.05462500000000e+01 1.04697501542893e-02 1.51221713722016e-04
1.05859722222222e+01 1.03696302765198e-02 1.50057413860639e-04
1.06256944444444e+01 1.02704678229407e-02 1.48901030327048e-04
1.06654166666667e+01 1.01722536370013e-02 1.47752525754171e-04
1.07051388888889e+01 1.00749786515503e-02 1.46611862630209e-04
1.07448611111111e+01 9.97863388521824e-03 1.45479004005092e-04
1.07845833333333e+01 9.88321044252150e-03 1.44353912445904e-04
1.08243055555556e+01 9.78869951304319e-03 1.43236550718216e-04
1.08640277777778e+01 9.69509236976565e-03 1.42126880828329e-04
1.09037500000000e+01 9.60238037084398e-03 1.41024864678464e-04
1.09434722222222e+01 9.51055495620749e-03 1.39930464732653e-04
1.09831944444444e+01 9.41960764764370e-03 1.38843643336634e-04
1.10229166666667e+01 9.32953004720656e-03 1.37764362134984e-04
1.10626388888889e+01 9.24031383888820e-03 1.36692582697482e-04
1.11023611111111e+01 9.15195078538381e-03 1.35628267155616e-04
1.11420833333333e+01 9.06443272815925e-03 1.34571377259529e-04
1.11818055555556e+01 8.97775158669968e-03 1.33521874991953e-04
1.12215277777778e+01 8.89189935700517e-03 1.32479721703122e-04
1.12612500000000e+01 8.80686811314178e-03 1.31444878701279e-04
1.13009722222222e+01 8.72265000420088e-03 1.30417307852836e-04
1.13406944444444e+01 8.63923725435044e-03 1.29396970968001e-04
1.13804166666667e+01 8.55662216139853e-03 1.28383829273936e-04
1.14201388888889e+01 8.47479709825577e-03 1.27377843979332e-04
1.14598611111111e+01 8.39375451003974e-03 1.26378976848225e-04
1.14995833333333e+01 8.31348691411290e-03 1.25387189348202e-04
1.15393055555556e+01 8.23398689939345e-03 1.24402443203921e-04
1.15790277777778e+01 8.15524712499706e-03 1.23424699615388e-04
1.16187500000000e+01 8.07726032159442e-03 1.22453919790422e-04
1.16584722222222e+01 8.00001928868816e-03 1.21490065485907e-04
1.16981944444444e+01 7.92351689463776e-03 1.20533098452579e-04
1.17379166666667e+01 7.84774607536210e-03 1.19582979958553e-04
1.17776388888889e+01 7.77269983562000e-03 1.18639671298529e-04
1.18173611111111e+01 7.69837124641582e-03 1.17703134311397e-04
1.18570833333333e+01 7.62475344501378e-03 1.16773330610474e-04
1.18968055555556e+01 7.55183963430567e-03 1.15850222082853e-04
1.19365277777778e+01 7.47962308158373e-03 1.14933770182698e-04
1.19762500000000e+01 7.40809711972971e-03 1.14023936411625e-04
1.20159722222222e+01 7.33725514477391e-03 1.13120682807079e-04
1.20556944444444e+01 7.26709061589905e-03 1.12223971440374e-04
1.20954166666667e+01 7.19759705426756e-03 1.11333763985619e-04
1.21351388888889e+01 7.12876804414355e-03 1.10450022179192e-04
1.21748611111111e+01 7.06059723056642e-03 1.09572708286896e-04
1.22145833333333e+01 6.99307831934610e-03 1.08701784408038e-04
1.22543055555556e+01 6.92620507648312e-03 1.07837212926112e-04
1.22940277777778e+01 6.85997132705919e-03 1.06978955869660e-04
1.23337500000000e+01 6.79437095627929e-03 1.06126975345879e-04
1.23734722222222e+01 6.72939790728188e-03 1.05281233981523e-04
1.24131944444444e+01 6.66504618112590e-03 1.04441694468878e-04
1.24529166666667e+01 6.60130983573030e-03 1.03608319175604e-04
1.24926388888889e+01 6.53818298685759e-03 1.02781070559583e-04
1.25323611111111e+01 6.47565980602604e-03 1.01959911590700e-04
