Energy (eV)          EEDF (eV^-(3/2))     First Anisotropy
2.86290322580645e-02 3.40901330777130e-02 1.62458433427983e-05
8.58870967741936e-02 3.39009624032992e-02 2.68423115822186e-05
1.43145161290323e-01 3.37128414622173e-02 3.54767922637162e-05
2.00403225806452e-01 3.35257644285482e-02 4.20620405828078e-05
2.57661290322581e-01 3.33397255108933e-02 4.75754243099023e-05
3.14919354838710e-01 3.31547189475362e-02 5.23857612344229e-05
3.72177419354839e-01 3.29707390105292e-02 5.66835660889146e-05
4.29435483870968e-01 3.27877800023776e-02 6.05836799566136e-05
4.86693548387097e-01 3.26058362582976e-02 6.41621331172398e-05
5.43951612903226e-01 3.24249021440279e-02 6.74725679068965e-05
6.01209677419355e-01 3.22449720573623e-02 7.05546236471689e-05
6.58467741935484e-01 3.20660404264911e-02 7.34386446355128e-05
7.15725806451613e-01 3.18881017111400e-02 7.61485166404687e-05
7.72983870967742e-01 3.17111504012241e-02 7.87034717821321e-05
8.30241935483871e-01 3.15351810177391e-02 8.11192881764554e-05
8.87500000000000e-01 3.13601881116232e-02 8.34091163589904e-05
9.44758064516129e-01 3.11861662644772e-02 8.55840658281852e-05
1.00201612903226e+00 3.10131100875760e-02 8.76536320360902e-05
1.05927419354839e+00 3.08410142226230e-02 8.96260142512456e-05
1.11653225806452e+00 3.06698733395832e-02 9.15083560316531e-05
1.17379032258065e+00 3.04996821407533e-02 9.33069312992421e-05
1.23104838709677e+00 3.03304353560886e-02 9.50272901908881e-05
1.28830645161290e+00 3.01621277435583e-02 9.66743731566624e-05
1.34556451612903e+00 2.99947540928772e-02 9.82526041981313e-05
1.40282258064516e+00 2.98283092201297e-02 9.97659656690620e-05
1.46008064516129e+00 2.96627879726031e-02 1.01218059620337e-04
1.51733870967742e+00 2.94981852238371e-02 1.02612158540971e-04
1.57459677419355e+00 2.93344958780673e-02 1.03951247548058e-04
1.63185483870968e+00 2.91717148656419e-02 1.05238059846279e-04
1.68911290322581e+00 2.90098371471251e-02 1.06475106620787e-04
1.74637096774194e+00 2.88488577090358e-02 1.07664702509962e-04
1.80362903225806e+00 2.86887715676519e-02 1.08808987182680e-04
1.86088709677419e+00 2.85295737659009e-02 1.09909944667646e-04
1.91814516129032e+00 2.83712593734229e-02 1.10969418608215e-04
1.97540322580645e+00 2.82138234888884e-02 1.11989126900789e-04
2.03266129032258e+00 2.80572612365453e-02 1.12970673811483e-04
2.08991935483871e+00 2.79015677692693e-02 1.13915560681821e-04
2.14717741935484e+00 2.77467382653076e-02 1.14825195389041e-04
2.20443548387097e+00 2.75927679311452e-02 1.15700900653980e-04
2.26169354838710e+00 2.74396519984276e-02 1.16543921444098e-04
2.31895161290323e+00 2.72873857266594e-02 1.17355431512167e-04
2.37620967741936e+00 2.71359644002899e-02 1.18136539268073e-04
2.43346774193548e+00 2.69853833312587e-02 1.18888292869917e-04
2.49072580645161e+00 2.68356378568406e-02 1.19611685419359e-04
2.54798387096774e+00 2.66867233396135e-02 1.20307658444473e-04
2.60524193548387e+00 2.65386351690710e-02 1.20977106190365e-04
2.66250000000000e+00 2.63913687591379e-02 1.21620878952249e-04
2.71975806451613e+00 2.62449195503124e-02 1.22239786175938e-04
2.77701612903226e+00 2.60992830072962e-02 1.22834599306736e-04
2.83427419354839e+00 2.59544546210299e-02 1.23406054349689e-04
2.89153225806452e+00 2.58104299064279e-02 1.23954854236592e-04
2.94879032258065e+00 2.56672044043165e-02 1.24481670854108e-04
3.00604838709677e+00 2.55247736797423e-02 1.24987147440715e-04
3.06330645161290e+00 2.53831333219104e-02 1.25471899755596e-04
3.12056451612903e+00 2.52422789454317e-02 1.25936518152452e-04
3.17782258064516e+00 2.51022061883424e-02 1.26381569011481e-04
3.23508064516129e+00 2.49629107137743e-02 1.26807596131461e-04
3.29233870967742e+00 2.48243882080532e-02 1.27215122042082e-04
3.34959677419355e+00 2.46866343822957e-02 1.27604649191029e-04
3.40685483870968e+00 2.45496449705817e-02 1.27976661069404e-04
3.46411290322581e+00 2.44134157314826e-02 1.28331623229705e-04
3.52137096774194e+00 2.42779424463028e-02 1.28669984256562e-04
3.57862903225806e+00 2.41432209205443e-02 1.28992176555918e-04
3.63588709677419e+00 2.40092469825827e-02 1.29298617551193e-04
3.69314516129032e+00 2.38760164835888e-02 1.29589709913950e-04
3.75040322580645e+00 2.37435252984810e-02 1.29865842641537e-04
3.80766129032258e+00 2.36117693243568e-02 1.30127391650420e-04
3.86491935483871e+00 2.34807444817795e-02 1.30374720395252e-04
3.92217741935484e+00 2.33504467132639e-02 1.30608180470459e-04
3.97943548387097e+00 2.32208719845139e-02 1.30828112152626e-04
4.03669354838710e+00 2.30920162829588e-02 1.31034844930760e-04
4.09395161290323e+00 2.29638756189435e-02 1.31228697983247e-04
4.15120967741935e+00 2.28364460243144e-02 1.31409980647230e-04
4.20846774193548e+00 2.27097235535639e-02 1.31578992762712e-04
4.26572580645161e+00 2.25837042827599e-02 1.31736025397479e-04
4.32298387096774e+00 2.24583843094591e-02 1.31881360759943e-04
4.38024193548387e+00 2.23337597534563e-02 1.32015272870059e-04
4.43750000000000e+00 2.22098267555052e-02 1.32138027830573e-04
4.49475806451613e+00 2.20865814783381e-02 1.32249884140349e-04
4.55201612903226e+00 2.19640201054268e-02 1.32351093009032e-04
4.60927419354839e+00 2.18421388419666e-02 1.32441898636847e-04
4.66653225806452e+00 2.17209339136743e-02 1.32522538497535e-04
4.72379032258065e+00 2.16004015677384e-02 1.32593243520032e-04
4.78104838709677e+00 2.14805380719040e-02 1.32654238619570e-04
4.83830645161290e+00 2.13613397143847e-02 1.32705742510180e-04
4.89556451612903e+00 2.12428028044849e-02 1.32747968203841e-04
4.95282258064516e+00 2.11249236715034e-02 1.32781123158531e-04
5.01008064516129e+00 2.10076986655864e-02 1.32805409470795e-04
5.06733870967742e+00 2.08911241566628e-02 1.32821024075084e-04
5.12459677419355e+00 2.07751965352688e-02 1.32828158917781e-04
5.18185483870968e+00 2.06599122115134e-02 1.32827001138682e-04
5.23911290322581e+00 2.05452676158762e-02 1.32817733228620e-04
5.29637096774194e+00 2.04312591982014e-02 1.32800533195153e-04
5.35362903225806e+00 2.03178834284699e-02 1.32775574644697e-04
5.41088709677419e+00 2.02051367960297e-02 1.32743027178135e-04
5.46814516129032e+00 2.00930158095077e-02 1.32703056156036e-04
5.52540322580645e+00 1.99815169973161e-02 1.32655823075345e-04
5.58266129032258e+00 1.98706369067261e-02 1.32601485639214e-04
5.63991935483871e+00 1.97603721045680e-02 1.32540197870469e-04
5.69717741935484e+00 1.96507191763293e-02 1.32472110234013e-04
5.75443548387097e+00 1.95416747268335e-02 1.32397369740446e-04
5.81169354838710e+00 1.94332353793616e-02 1.32316120058961e-04
5.86895161290323e+00 1.93253977763096e-02 1.32228501612204e-04
5.92620967741935e+00 1.92181585783335e-02 1.32134651680567e-04
5.98346774193548e+00 1.91115144649863e-02 1.32034704434878e-04
6.04072580645161e+00 1.90054621340610e-02 1.31928791250291e-04
6.09798387096774e+00 1.88999983015039e-02 1.31817040461184e-04
6.15524193548387e+00 1.87951197018319e-02 1.31699577662410e-04
6.21250000000000e+00 1.86908230873405e-02 1.31576525739159e-04
6.26975806451613e+00 1.85871052286844e-02 1.31448004937592e-04
6.32701612903226e+00 1.84839629141056e-02 1.31314132944880e-04
6.38427419354839e+00 1.83813929499969e-02 1.31175024954315e-04
6.44153225806452e+00 1.82793921601489e-02 1.31030793739858e-04
6.49879032258065e+00 1.81779573862971e-02 1.30881549666767e-04
6.55604838709677e+00 1.80770854875406e-02 1.30727400959184e-04
6.61330645161290e+00 1.79767733402584e-02 1.30568453459544e-04
6.67056451612903e+00 1.78770178384661e-02 1.30404810886535e-04
6.72782258064516e+00 1.77778158931153e-02 1.30236574846603e-04
6.78508064516129e+00 1.76791644325951e-02 1.30063844883562e-04
6.84233870967742e+00 1.75810604020471e-02 1.29886718537250e-04
6.89959677419355e+00 1.74835007638533e-02 1.29705291389504e-04
6.95685483870968e+00 1.73864824969668e-02 1.29519657119173e-04
7.01411290322581e+00 1.72900025973863e-02 1.29329907544788e-04
7.07137096774194e+00 1.71940580775023e-02 1.29136132676222e-04
7.12862903225806e+00 1.70986459665584e-02 1.28938420709904e-04
7.18588709677419e+00 1.70037633101441e-02 1.28736858255379e-04
7.24314516129032e+00 1.69094071701149e-02 1.28531530105957e-04
7.30040322580645e+00 1.68155746248914e-02 1.28322519458073e-04
7.35766129032258e+00 1.67222627688485e-02 1.28109907909540e-04
7.41491935483871e+00 1.66294687127395e-02 1.27893775492796e-04
7.47217741935484e+00 1.65371895830991e-02 1.27674200716641e-04
7.52943548387097e+00 1.64454225226556e-02 1.27451260597227e-04
7.58669354838710e+00 1.63541646897470e-02 1.27225030697458e-04
7.64395161290323e+00 1.62634132587230e-02 1.26995585155902e-04
7.70120967741935e+00 1.61731654193733e-02 1.26762996724079e-04
7.75846774193548e+00 1.60834183773186e-02 1.26527336753314e-04
7.81572580645161e+00 1.59941693535663e-02 1.26288675390650e-04
7.87298387096774e+00 1.59054155844333e-02 1.26047081363857e-04
7.93024193548387e+00 1.58171543217984e-02 1.25802622171561e-04
7.98750000000000e+00 1.57293828325668e-02 1.25555364074214e-04
8.04475806451613e+00 1.56420983990306e-02 1.25305372116993e-04
8.10201612903226e+00 1.55552983183450e-02 1.25052710160584e-04
8.15927419354839e+00 1.54689799028788e-02 1.24797440902654e-04
8.21653225806452e+00 1.53831404797021e-02 1.24539625907053e-04
8.27379032258064e+00 1.52977773909279e-02 1.24279325587067e-04
8.33104838709678e+00 1.52128879933117e-02 1.24016599380979e-04
8.38830645161290e+00 1.51284696581772e-02 1.23751505549898e-04
8.44556451612903e+00 1.50445197716365e-02 1.23484101348435e-04
8.50282258064516e+00 1.49610357341072e-02 1.23214443012299e-04
8.56008064516129e+00 1.48780149606293e-02 1.22942585775507e-04
8.61733870967742e+00 1.47954548803924e-02 1.22668583894898e-04
8.67459677419355e+00 1.47133529370444e-02 1.22392490666290e-04
8.73185483870968e+00 1.46317065882283e-02 1.22114358447890e-04
8.78911290322581e+00 1.45505133058833e-02 1.21834238675473e-04
8.84637096774193e+00 1.44697705757910e-02 1.21552181884678e-04
8.90362903225807e+00 1.43894758978687e-02 1.21268237691850e-04
8.96088709677419e+00 1.43096267858139e-02 1.20982454949422e-04
9.01814516129032e+00 1.42302207670342e-02 1.20694881558818e-04
9.07540322580645e+00 1.41512553828338e-02 1.20405564621736e-04
9.13266129032258e+00 1.40727281879863e-02 1.20114550425413e-04
9.18991935483871e+00 1.39946367510068e-02 1.19821884454960e-04
9.24717741935484e+00 1.39169786537322e-02 1.19527611412358e-04
9.30443548387097e+00 1.38397514915869e-02 1.19231775228102e-04
9.36169354838710e+00 1.37629528731719e-02 1.18934419079401e-04
9.41895161290323e+00 1.36865804205233e-02 1.18635585401125e-04
9.47620967741936e+00 1.36106317687094e-02 1.18335315903253e-04
9.53346774193548e+00 1.35351045660838e-02 1.18033651550758e-04
9.59072580645161e+00 1.34599964739675e-02 1.17730632702270e-04
9.64798387096774e+00 1.33853051665832e-02 1.17426298937450e-04
9.70524193548387e+00 1.33110283312140e-02 1.17120689192131e-04
9.76250000000000e+00 1.32371636678235e-02 1.16813841742508e-04
9.81975806451613e+00 1.31637088892904e-02 1.16505794214150e-04
9.87701612903226e+00 1.30906617210344e-02 1.16196583597046e-04
9.93427419354839e+00 1.30180199012461e-02 1.15886246254098e-04
9.99153225806452e+00 1.29457811805199e-02 1.15574817964100e-04
1.00487903225806e+01 1.28739433220065e-02 1.15262333928681e-04
1.01060483870968e+01 1.28025041010565e-02 1.14948828420010e-04
1.01633064516129e+01 1.27314613062821e-02 1.14634335606554e-04
1.02205645161290e+01 1.26608127371614e-02 1.14318888898654e-04
1.02778225806452e+01 1.25905562067703e-02 1.14002521127678e-04
1.03350806451613e+01 1.25206895389515e-02 1.13685264860703e-04
1.03923387096774e+01 1.24512105703101e-02 1.13367151296628e-04
1.04495967741935e+01 1.23821171501164e-02 1.13048211921771e-04
1.05068548387097e+01 1.23134071382505e-02 1.12728477700692e-04
1.05641129032258e+01 1.22450784071325e-02 1.12407978277161e-04
1.06213709677419e+01 1.21771288416282e-02 1.12086743589923e-04
1.06786290322581e+01 1.21095563370584e-02 1.11764803083043e-04
1.07358870967742e+01 1.20423588010648e-02 1.11442184924922e-04
1.07931451612903e+01 1.19755341535206e-02 1.11118917585499e-04
1.08504032258065e+01 1.19090803245991e-02 1.10795029065043e-04
1.09076612903226e+01 1.18429952565818e-02 1.10470546131411e-04
1.09649193548387e+01 1.17772769037692e-02 1.10145495859780e-04
1.10221774193548e+01 1.17119232306100e-02 1.09819904878764e-04
1.10794354838710e+01 1.16469322134519e-02 1.09493798625937e-04
1.11366935483871e+01 1.15823018404533e-02 1.09167202851012e-04
1.11939516129032e+01 1.15180301097706e-02 1.08840142639892e-04
1.12512096774194e+01 1.14541150318202e-02 1.08512642645156e-04
1.13084677419355e+01 1.13905546269219e-02 1.08184727357591e-04
1.13657258064516e+01 1.13273469269508e-02 1.07856420144254e-04
1.14229838709677e+01 1.12644899752536e-02 1.07527744687320e-04
1.14802419354839e+01 1.12019818249321e-02 1.07198724278619e-04
1.15375000000000e+01 1.11398205404438e-02 1.06869381122410e-04
1.15947580645161e+01 1.10780041975204e-02 1.06539737740634e-04
1.16520161290323e+01 1.10165308815028e-02 1.06209816283872e-04
1.17092741935484e+01 1.09553986888916e-02 1.05879637849837e-04
1.17665322580645e+01 1.08946057272679e-02 1.05549223855993e-04
1.18237903225806e+01 1.08341501136770e-02 1.05218595366024e-04
1.18810483870968e+01 1.07740299761328e-02 1.04887772424160e-04
1.19383064516129e+01 1.07142434535384e-02 1.04556775395964e-04
1.19955645161290e+01 1.06547886941188e-02 1.04225624096150e-04
1.20528225806452e+01 1.05956638573682e-02 1.03894337993709e-04
1.21100806451613e+01 1.05368671120125e-02 1.03562936453032e-04
1.21673387096774e+01 1.04783966374318e-02 1.03231437873927e-04
1.22245967741935e+01 1.04202506235838e-02 1.02899860976499e-04
1.22818548387097e+01 1.03624272695180e-02 1.02568224169545e-04
1.23391129032258e+01 1.03049247847550e-02 1.02236544926797e-04
1.23963709677419e+01 1.02477413892120e-02 1.01904841042338e-04
1.24536290322581e+01 1.01908753117598e-02 1.01573130013653e-04
1.25108870967742e+01 1.01343247915605e-02 1.01241428431490e-04
1.25681451612903e+01 1.00780880779949e-02 1.00909753206705e-04
1.26254032258065e+01 1.00221634292611e-02 1.00578120967223e-04
1.26826612903226e+01 9.96654911367236e-03 1.00246547461602e-04
1.27399193548387e+01 9.91124340958546e-03 9.99150487580741e-05
1.27971774193548e+01 9.85624460404002e-03 9.95836406546055e-05
1.28544354838710e+01 9.80155099401769e-03 9.92523380962254e-05
1.29116935483871e+01 9.74716088637191e-03 9.89211563468573e-05
1.29689516129032e+01 9.69307259650601e-03 9.85901102253109e-05
1.30262096774194e+01 9.63928445000733e-03 9.82592142844560e-05
1.30834677419355e+01 9.58579478092847e-03 9.79284830212739e-05
1.31407258064516e+01 9.53260193298079e-03 9.75979301232610e-05
1.31979838709677e+01 9.47970425946686e-03 9.72675695926520e-05
1.32552419354839e+01 9.42710012202448e-03 9.69374151928727e-05
1.33125000000000e+01 9.37478789178496e-03 9.66074799014002e-05
1.33697580645161e+01 9.32276594930748e-03 9.62777770087885e-05
1.34270161290323e+01 9.27103268335805e-03 9.59483195775642e-05
1.34842741935484e+01 9.21958649203419e-03 9.56191199070214e-05
1.35415322580645e+01 9.16842578270053e-03 9.52901906077946e-05
1.35987903225806e+01 9.11754897080194e-03 9.49615440724922e-05
1.36560483870968e+01 9.06695448095584e-03 9.46331919525065e-05
1.37133064516129e+01 9.01664074688867e-03 9.43051462086654e-05
1.37705645161290e+01 8.96660621028229e-03 9.39774184254821e-05
1.38278225806452e+01 8.91684932219370e-03 9.36500199715849e-05
1.38850806451613e+01 8.86736854155549e-03 9.33229621875092e-05
1.39423387096774e+01 8.81816233621270e-03 9.29962557091108e-05
1.39995967741935e+01 8.76922918286127e-03 9.26699114763178e-05
1.40568548387097e+01 8.72056756595067e-03 9.23439402356074e-05
1.41141129032258e+01 8.67217597869087e-03 9.20183520485342e-05
1.41713709677419e+01 8.62405292299247e-03 9.16931572782310e-05
1.42286290322581e+01 8.57619690839919e-03 9.13683661030116e-05
1.42858870967742e+01 8.52860645306605e-03 9.10439880353311e-05
1.43431451612903e+01 8.48128008370099e-03 9.07200328866414e-05
1.44004032258065e+01 8.43421633452629e-03 9.03965102916191e-05
1.44576612903226e+01 8.38741374822929e-03 9.00734292376319e-05
1.45149193548387e+01 8.34087087590478e-03 8.97507990084579e-05
1.45721774193548e+01 8.29458627604489e-03 8.94286287185732e-05
1.46294354838710e+01 8.24855851546312e-03 8.91069268531188e-05
1.46866935483871e+01 8.20278616923757e-03 8.87857021909621e-05
1.47439516129032e+01 8.15726781972825e-03 8.84649632013046e-05
1.48012096774194e+01 8.11200205778032e-03 8.81447181846555e-05
1.48584677419355e+01 8.06698748144678e-03 8.78249754374844e-05
1.49157258064516e+01 8.02222269686687e-03 8.75057426566948e-05
1.49729838709677e+01 7.97770631821132e-03 8.71870278266766e-05
1.50302419354839e+01 7.93343696674596e-03 8.68688387813493e-05
1.50875000000000e+01 7.88941327168553e-03 8.65511827712762e-05
1.51447580645161e+01 7.84563387014030e-03 8.62340673314905e-05
1.52020161290323e+01 7.80209740620446e-03 8.59174998530832e-05
1.52592741935484e+01 7.75880253178634e-03 8.56014871595049e-05
1.53165322580645e+01 7.71574790655603e-03 8.52860363556721e-05
1.53737903225806e+01 7.67293219705800e-03 8.49711544086349e-05
1.54310483870968e+01 7.63035407751855e-03 8.46568477330955e-05
1.54883064516129e+01 7.58801222979420e-03 8.43431230221945e-05
1.55455645161290e+01 7.54590534250790e-03 8.40299867040908e-05
1.56028225806452e+01 7.50403211210194e-03 8.37174450687239e-05
1.56600806451613e+01 7.46239124171562e-03 8.34055044156920e-05
1.57173387096774e+01 7.42098144195374e-03 8.30941705177668e-05
1.57745967741935e+01 7.37980143083653e-03 8.27834494197677e-05
1.58318548387097e+01 7.33884993297582e-03 8.24733470436967e-05
1.58891129032258e+01 7.29812568032250e-03 8.21638687985944e-05
1.59463709677419e+01 7.25762741211759e-03 8.18550203623028e-05
1.60036290322581e+01 7.21735387408991e-03 8.15468072951841e-05
1.60608870967742e+01 7.17730381918303e-03 8.12392346580936e-05
1.61181451612903e+01 7.13747600750754e-03 8.09323077774515e-05
1.61754032258065e+01 7.09786920555948e-03 8.06260318671780e-05
1.62326612903226e+01 7.05848218692772e-03 8.03204116548055e-05
1.62899193548387e+01 7.01931373224697e-03 8.00154521302502e-05
1.63471774193548e+01 6.98036262843654e-03 7.97111581755757e-05
1.64044354838710e+01 6.94162766938885e-03 7.94075341992016e-05
1.64616935483871e+01 6.90310765592299e-03 7.91045848687337e-05
1.65189516129032e+01 6.86480139504340e-03 7.88023146310978e-05
1.65762096774194e+01 6.82670770083893e-03 7.85007278244038e-05
1.66334677419355e+01 6.78882539351965e-03 7.81998288081935e-05
1.66907258064516e+01 6.75115330007283e-03 7.78996214895859e-05
1.67479838709677e+01 6.71369025421811e-03 7.76001100284542e-05
1.68052419354839e+01 6.67643509569945e-03 7.73012984886091e-05
1.68625000000000e+01 6.63938667092348e-03 7.70031904930397e-05
1.69197580645161e+01 6.60254383291573e-03 7.67057899141806e-05
1.69770161290323e+01 6.56590544063055e-03 7.64091005325386e-05
1.70342741935484e+01 6.52947035957249e-03 7.61131256990902e-05
1.70915322580645e+01 6.49323746175341e-03 7.58178690110054e-05
1.71487903225806e+01 6.45720562501989e-03 7.55233339773642e-05
1.72060483870968e+01 6.42137373365833e-03 7.52295236887215e-05
1.72633064516129e+01 6.38574067835261e-03 7.49364414786337e-05
1.73205645161290e+01 6.35030535552873e-03 7.46440904902588e-05
1.73778225806452e+01 6.31506666814605e-03 7.43524737772968e-05
1.74350806451613e+01 6.28002352484618e-03 7.40615944213900e-05
1.74923387096774e+01 6.24517484053008e-03 7.37714551040743e-05
1.75495967741935e+01 6.21051953631697e-03 7.34820587436549e-05
1.76068548387097e+01 6.17605653891801e-03 7.31934081799151e-05
1.76641129032258e+01 6.14178478119808e-03 7.29055058625885e-05
1.77213709677419e+01 6.10770320213572e-03 7.26183544749005e-05
1.77786290322581e+01 6.07381074621240e-03 7.23319566249928e-05
1.78358870967742e+01 6.04010636395958e-03 7.20463145407397e-05
1.78931451612903e+01 6.00658901191946e-03 7.17614306802766e-05
1.79504032258065e+01 5.97325765204954e-03 7.14773074298429e-05
1.80076612903226e+01 5.94011125225547e-03 7.11939468049669e-05
1.80649193548387e+01 5.90714878635239e-03 7.09113510482921e-05
