Energy (eV)          EEDF (eV^-(3/2))     First Anisotropy
5.53061224489796e-03 5.72065323677161e-01 3.04467511317555e-04
1.65918367346939e-02 5.68046691483028e-01 5.02686435802417e-04
2.76530612244898e-02 5.64056289290463e-01 6.63401850306283e-04
3.87142857142857e-02 5.60093918790702e-01 7.85376228725280e-04
4.97755102040816e-02 5.56159383066521e-01 8.87003155599644e-04
6.08367346938776e-02 5.52252486591694e-01 9.75238491663843e-04
7.18979591836735e-02 5.48373035198271e-01 1.05368262919432e-03
8.29591836734694e-02 5.44520836090888e-01 1.12451016526057e-03
9.40204081632653e-02 5.40695697828439e-01 1.18916360965375e-03
1.05081632653061e-01 5.36897430314596e-01 1.24866269336113e-03
1.16142857142857e-01 5.33125844784762e-01 1.30376241527176e-03
1.27204081632653e-01 5.29380753822523e-01 1.35504185813778e-03
1.38265306122449e-01 5.25661971280221e-01 1.40295773025917e-03
1.49326530612245e-01 5.21969312373910e-01 1.44787846789481e-03
1.60387755102041e-01 5.18302593566251e-01 1.49010691704531e-03
1.71448979591837e-01 5.14661632656658e-01 1.52989596930418e-03
1.82510204081633e-01 5.11046248680451e-01 1.56745966938327e-03
1.93571428571429e-01 5.07456261985160e-01 1.60298130596533e-03
2.04632653061224e-01 5.03891494142012e-01 1.63661943741150e-03
2.15693877551020e-01 5.00351768011599e-01 1.66851246324828e-03
2.26755102040816e-01 4.96836907665046e-01 1.69878215270765e-03
2.37816326530612e-01 4.93346738441257e-01 1.72753640682623e-03
2.48877551020408e-01 4.89881086875892e-01 1.75487145107739e-03
2.59938775510204e-01 4.86439780751789e-01 1.78087359490163e-03
2.71000000000000e-01 4.83022649034370e-01 1.80562066050663e-03
2.82061224489796e-01 4.79629521916426e-01 1.82918315281465e-03
2.93122448979592e-01 4.76260230758918e-01 1.85162522748175e-03
3.04183673469388e-01 4.72914608131035e-01 1.87300549689233e-03
3.15244897959184e-01 4.69592487755579e-01 1.89337770766286e-03
3.26306122448980e-01 4.66293704545008e-01 1.91279131271766e-03
3.37367346938776e-01 4.63018094550775e-01 1.93129195871659e-03
3.48428571428571e-01 4.59765494995914e-01 1.94892190257015e-03
3.59489795918367e-01 4.56535744227824e-01 1.96572037052226e-03
3.70551020408163e-01 4.53328681747861e-01 1.98172386814792e-03
3.81612244897959e-01 4.50144148167141e-01 1.99696645038419e-03
3.92673469387755e-01 4.46981985233522e-01 2.01147995672107e-03
4.03734693877551e-01 4.43842035790079e-01 2.02529421796462e-03
4.14795918367347e-01 4.40724143799779e-01 2.03843723771254e-03
4.25857142857143e-01 4.37628154306351e-01 2.05093535322107e-03
4.36918367346939e-01 4.34553913456913e-01 2.06281337754930e-03
4.47979591836735e-01 4.31501268464992e-01 2.07409472651081e-03
4.59040816326531e-01 4.28470067631321e-01 2.08480153151196e-03
4.70102040816327e-01 4.25460160308806e-01 2.09495474102601e-03
4.81163265306122e-01 4.22471396921683e-01 2.10457421125247e-03
4.92224489795918e-01 4.19503628932248e-01 2.11367878816643e-03
5.03285714285714e-01 4.16556708858547e-01 2.12228638115491e-03
5.14346938775510e-01 4.13630490242704e-01 2.13041403005626e-03
5.25408163265306e-01 4.10724827667284e-01 2.13807796556511e-03
5.36469387755102e-01 4.07839576725097e-01 2.14529366453118e-03
5.47530612244898e-01 4.04974594034351e-01 2.15207589902581e-03
5.58591836734694e-01 4.02129737214852e-01 2.15843878609491e-03
5.69653061224490e-01 3.99304864881845e-01 2.16439582391211e-03
5.80714285714286e-01 3.96499836653586e-01 2.16995993395615e-03
5.91775510204082e-01 3.93714513124917e-01 2.17514349546400e-03
6.02836734693878e-01 3.90948755879296e-01 2.17995837770713e-03
6.13897959183674e-01 3.88202427463430e-01 2.18441597004069e-03
6.24959183673469e-01 3.85475391398478e-01 2.18852720932919e-03
6.36020408163265e-01 3.82767512155677e-01 2.19230260559426e-03
6.47081632653061e-01 3.80078655166768e-01 2.19575226546406e-03
6.58142857142857e-01 3.77408686800561e-01 2.19888591419854e-03
6.69204081632653e-01 3.74757474372646e-01 2.20171291585609e-03
6.80265306122449e-01 3.72124886122825e-01 2.20424229231618e-03
6.91326530612245e-01 3.69510791224176e-01 2.20648274071643e-03
7.02387755102041e-01 3.66915059761288e-01 2.20844264996959e-03
7.13448979591837e-01 3.64337562738729e-01 2.21013011591659e-03
7.24510204081633e-01 3.61778172060042e-01 2.21155295574016e-03
7.35571428571429e-01 3.59236760535650e-01 2.21271872119548e-03
7.46632653061225e-01 3.56713201862577e-01 2.21363471124610e-03
7.57693877551020e-01 3.54207370631827e-01 2.21430798366820e-03
7.68755102040816e-01 3.51719142308788e-01 2.21474536617725e-03
7.79816326530612e-01 3.49248393240124e-01 2.21495346664733e-03
7.90877551020408e-01 3.46795000634822e-01 2.21493868294941e-03
8.01938775510204e-01 3.44358842570632e-01 2.21470721198714e-03
8.13000000000000e-01 3.41939797975724e-01 2.21426505842986e-03
8.24061224489796e-01 3.39537746634705e-01 2.21361804273060e-03
8.35122448979592e-01 3.37152569170854e-01 2.21277180890728e-03
8.46183673469388e-01 3.34784147051744e-01 2.21173183168263e-03
8.57244897959184e-01 3.32432362572024e-01 2.21050342344112e-03
8.68306122448980e-01 3.30097098858675e-01 2.20909174060793e-03
8.79367346938775e-01 3.27778239854316e-01 2.20750178988951e-03
8.90428571428571e-01 3.25475670322106e-01 2.20573843399102e-03
9.01489795918367e-01 3.23189275829558e-01 2.20380639723181e-03
9.12551020408163e-01 3.20918942753108e-01 2.20171027068448e-03
9.23612244897959e-01 3.18664558262406e-01 2.19945451724316e-03
9.34673469387755e-01 3.16426010324586e-01 2.19704347625615e-03
9.45734693877551e-01 3.14203187689002e-01 2.19448136811291e-03
9.56795918367347e-01 3.11995979891216e-01 2.19177229843132e-03
9.67857142857143e-01 3.09804277238168e-01 2.18892026222078e-03
9.78918367346939e-01 3.07627970811894e-01 2.18592914767592e-03
9.89979591836735e-01 3.05466952455109e-01 2.18280273996487e-03
1.00104081632653e+00 3.03321114774676e-01 2.17954472519699e-03
1.01210204081633e+00 3.01190351125489e-01 2.17615869026610e-03
1.02316326530612e+00 2.99074555628153e-01 2.17264813571264e-03
1.03422448979592e+00 2.96973623114411e-01 2.16901646622228e-03
1.04528571428571e+00 2.94887449195149e-01 2.16526700131058e-03
1.05634693877551e+00 2.92815930174848e-01 2.16140297674399e-03
1.06740816326531e+00 2.90758963125506e-01 2.15742754651388e-03
1.07846938775510e+00 2.88716445803706e-01 2.15334378613090e-03
1.08953061224490e+00 2.86688276722120e-01 2.14915468969975e-03
1.10059183673469e+00 2.84674355087128e-01 2.14486319180195e-03
1.11165306122449e+00 2.82674580795689e-01 2.14047214096278e-03
1.12271428571429e+00 2.80688854483521e-01 2.13598432074903e-03
1.13377551020408e+00 2.78717077449340e-01 2.13140244761490e-03
1.14483673469388e+00 2.76759151719696e-01 2.12672917226565e-03
1.15589795918367e+00 2.74814979975424e-01 2.12196708223283e-03
1.16695918367347e+00 2.72884465614442e-01 2.11711870309884e-03
1.17802040816327e+00 2.70967512680343e-01 2.11218650091205e-03
1.18908163265306e+00 2.69064025923231e-01 2.10717287907221e-03
1.20014285714286e+00 2.67173910745872e-01 2.10208019749135e-03
1.21120408163265e+00 2.65297073200494e-01 2.09691074834032e-03
1.22226530612245e+00 2.63433420029877e-01 2.09166677455231e-03
1.23332653061224e+00 2.61582858601779e-01 2.08635046749050e-03
1.24438775510204e+00 2.59745296964372e-01 2.08096396779850e-03
1.25544897959184e+00 2.57920643782504e-01 2.07550936734371e-03
1.26651020408163e+00 2.56108808391471e-01 2.06998870998239e-03
1.27757142857143e+00 2.54309700735047e-01 2.06440399339593e-03
1.28863265306122e+00 2.52523231417643e-01 2.05875716977803e-03
1.29969387755102e+00 2.50749311644040e-01 2.05305014757290e-03
1.31075510204082e+00 2.48987853270001e-01 2.04728478836845e-03
1.32181632653061e+00 2.47238768756699e-01 2.04146292345334e-03
1.33287755102041e+00 2.45501971167556e-01 2.03558633208718e-03
1.34393877551020e+00 2.43777374202458e-01 2.02965675752227e-03
1.35500000000000e+00 2.42064892142137e-01 2.02367590463582e-03
1.36606122448980e+00 2.40364439894520e-01 2.01764544040480e-03
1.37712244897959e+00 2.38675932940598e-01 2.01156699534418e-03
1.38818367346939e+00 2.36999287379437e-01 2.00544216393101e-03
1.39924489795918e+00 2.35334419875475e-01 1.99927250597315e-03
1.41030612244898e+00 2.33681247702245e-01 1.99305954362389e-03
1.42136734693878e+00 2.32039688702425e-01 1.98680477616537e-03
1.43242857142857e+00 2.30409661284755e-01 1.98050966019849e-03
1.44348979591837e+00 2.28791084453594e-01 1.97417562396389e-03
1.45455102040816e+00 2.27183877760123e-01 1.96780406504571e-03
1.46561224489796e+00 2.25587961342514e-01 1.96139635065723e-03
1.47667346938776e+00 2.24003255878387e-01 1.95495381879501e-03
1.48773469387755e+00 2.22429682623858e-01 1.94847777849165e-03
1.49879591836735e+00 2.20867163367211e-01 1.94196951091960e-03
1.50985714285714e+00 2.19315620466861e-01 1.93543026961313e-03
1.52091836734694e+00 2.17774976806199e-01 1.92886128152654e-03
1.53197959183673e+00 2.16245155830508e-01 1.92226374423398e-03
1.54304081632653e+00 2.14726081512652e-01 1.91563883892763e-03
1.55410204081633e+00 2.13217678350105e-01 1.90898771267692e-03
1.56516326530612e+00 2.11719871389903e-01 1.90231149102797e-03
1.57622448979592e+00 2.10232586186684e-01 1.89561127583340e-03
1.58728571428571e+00 2.08755748836729e-01 1.88888814539167e-03
1.59834693877551e+00 2.07289285937036e-01 1.88214315535453e-03
1.60940816326531e+00 2.05833124618445e-01 1.87537733884540e-03
1.62046938775510e+00 2.04387192505716e-01 1.86859170733153e-03
1.63153061224490e+00 2.02951417749768e-01 1.86178724800665e-03
1.64259183673469e+00 2.01525728997272e-01 1.85496493551826e-03
1.65365306122449e+00 2.00110055387798e-01 1.84812571577290e-03
1.66471428571429e+00 1.98704326575592e-01 1.84127051731671e-03
1.67577551020408e+00 1.97308472692378e-01 1.83440024929105e-03
1.68683673469388e+00 1.95922424377164e-01 1.82751580149573e-03
1.69789795918367e+00 1.94546112739936e-01 1.82061804514730e-03
1.70895918367347e+00 1.93179469390678e-01 1.81370783292759e-03
1.72002040816327e+00 1.91822426403941e-01 1.80678599971496e-03
1.73108163265306e+00 1.90474916347095e-01 1.79985336014556e-03
1.74214285714286e+00 1.89136872253298e-01 1.79291071923485e-03
1.75320408163265e+00 1.87808227618746e-01 1.78595885758007e-03
1.76426530612245e+00 1.86488916421754e-01 1.77899854166734e-03
1.77532653061224e+00 1.85178873089669e-01 1.77203052196231e-03
1.78638775510204e+00 1.83878032525046e-01 1.76505553292102e-03
1.79744897959184e+00 1.82586330073336e-01 1.75807429363161e-03
1.80851020408163e+00 1.81303701548398e-01 1.75108750781634e-03
1.81957142857143e+00 1.80030083200933e-01 1.74409586445201e-03
1.83063265306122e+00 1.78765411743346e-01 1.73710003776291e-03
1.84169387755102e+00 1.77509624318914e-01 1.73010068782126e-03
1.85275510204082e+00 1.76262658526008e-01 1.72309845831575e-03
1.86381632653061e+00 1.75024452394519e-01 1.71609398601072e-03
1.87487755102041e+00 1.73794944383264e-01 1.70908788745228e-03
1.88593877551020e+00 1.72574073396316e-01 1.70208076815419e-03
1.89700000000000e+00 1.71361778754145e-01 1.69507322084051e-03
1.90806122448980e+00 1.70158000216117e-01 1.68806582541606e-03
1.91912244897959e+00 1.68962677952289e-01 1.68105914949855e-03
1.93018367346939e+00 1.67775752565348e-01 1.67405374838308e-03
1.94124489795918e+00 1.66597165063043e-01 1.66705016555794e-03
1.95230612244898e+00 1.65426856879574e-01 1.66004893063891e-03
1.96336734693878e+00 1.64264769854473e-01 1.65305056798194e-03
1.97442857142857e+00 1.63110846230132e-01 1.64605558450986e-03
1.98548979591837e+00 1.61965028666207e-01 1.63906447807829e-03
1.99655102040816e+00 1.60827260213763e-01 1.63207773584401e-03
2.00761224489796e+00 1.59697484335179e-01 1.62509583421415e-03
2.01867346938776e+00 1.58575644878870e-01 1.61811923930688e-03
2.02973469387755e+00 1.57461686098700e-01 1.61114840689687e-03
2.04079591836735e+00 1.56355552629270e-01 1.60418378286238e-03
2.05185714285714e+00 1.55257189504851e-01 1.59722580312691e-03
2.06291836734694e+00 1.54166542135220e-01 1.59027489409404e-03
2.07397959183673e+00 1.53083556324128e-01 1.58333147076475e-03
2.08504081632653e+00 1.52008178250751e-01 1.57639594445083e-03
2.09610204081633e+00 1.50940354467366e-01 1.56946871181245e-03
2.10716326530612e+00 1.49880031911764e-01 1.56255016235135e-03
2.11822448979592e+00 1.48827157884547e-01 1.55564067691931e-03
2.12928571428571e+00 1.47781680066344e-01 1.54874062765173e-03
2.14034693877551e+00 1.46743546495601e-01 1.54185037835820e-03
2.15140816326531e+00 1.45712705585386e-01 1.53497028445308e-03
2.16246938775510e+00 1.44689106101661e-01 1.52810069333533e-03
2.17353061224490e+00 1.43672697179680e-01 1.52124194265026e-03
2.18459183673469e+00 1.42663428307273e-01 1.51439436733895e-03
2.19565306122449e+00 1.41661249322655e-01 1.50755828957867e-03
2.20671428571429e+00 1.40666110425412e-01 1.50073402563463e-03
2.21777551020408e+00 1.39677962156074e-01 1.49392188447831e-03
2.22883673469388e+00 1.38696755411406e-01 1.48712216771312e-03
2.23989795918367e+00 1.37722441424416e-01 1.48033516991782e-03
2.25095918367347e+00 1.36754971779290e-01 1.47356117857074e-03
2.26202040816327e+00 1.35794298391817e-01 1.46680047438373e-03
2.27308163265306e+00 1.34840373523982e-01 1.46005332969626e-03
2.28414285714286e+00 1.33893149768870e-01 1.45332001492849e-03
2.29520408163265e+00 1.32952580048594e-01 1.44660078934292e-03
2.30626530612245e+00 1.32018617624053e-01 1.43989590731633e-03
2.31732653061224e+00 1.31091216076492e-01 1.43320561706153e-03
2.32838775510204e+00 1.30170329321135e-01 1.42653016054878e-03
2.33944897959184e+00 1.29255911589131e-01 1.41986977380908e-03
2.35051020408163e+00 1.28347917440869e-01 1.41322468685499e-03
2.36157142857143e+00 1.27446301748303e-01 1.40659512397617e-03
2.37263265306122e+00 1.26551019707955e-01 1.39998130365948e-03
2.38369387755102e+00 1.25662026823609e-01 1.39338343887736e-03
2.39475510204082e+00 1.24779278919017e-01 1.38680173562721e-03
2.40581632653061e+00 1.23902732124531e-01 1.38023639874120e-03
2.41687755102041e+00 1.23032342875159e-01 1.37368762354015e-03
2.42793877551020e+00 1.22168067919047e-01 1.36715560148223e-03
2.43900000000000e+00 1.21309864301149e-01 1.36064051899726e-03
2.45006122448980e+00 1.20457689375120e-01 1.35414255740610e-03
2.46112244897959e+00 1.19611500787320e-01 1.34766189318360e-03
2.47218367346939e+00 1.18771256488433e-01 1.34119869787762e-03
2.48324489795918e+00 1.17936914717808e-01 1.33475313836531e-03
2.49430612244898e+00 1.17108434014801e-01 1.32832537550416e-03
2.50536734693878e+00 1.16285773206668e-01 1.32191556946396e-03
2.51642857142857e+00 1.15468891406725e-01 1.31552387204816e-03
2.52748979591837e+00 1.14657748021904e-01 1.30915043187865e-03
2.53855102040816e+00 1.13852302737965e-01 1.30279539331755e-03
2.54961224489796e+00 1.13052515530131e-01 1.29645889638669e-03
2.56067346938776e+00 1.12258346648592e-01 1.29014107700198e-03
2.57173469387755e+00 1.11469756628903e-01 1.28384206689328e-03
2.58279591836735e+00 1.10686706277782e-01 1.27756199383305e-03
2.59385714285714e+00 1.09909156683271e-01 1.27130098155625e-03
2.60491836734694e+00 1.09137069200826e-01 1.26505914998417e-03
2.61597959183674e+00 1.08370405463241e-01 1.25883661399679e-03
2.62704081632653e+00 1.07609127369875e-01 1.25263348824694e-03
2.63810204081633e+00 1.06853197084931e-01 1.24644988021069e-03
2.64916326530612e+00 1.06102577044054e-01 1.24028589486835e-03
2.66022448979592e+00 1.05357229941178e-01 1.23414163372186e-03
2.67128571428571e+00 1.04617118737836e-01 1.22801719471648e-03
2.68234693877551e+00 1.03882206650274e-01 1.22191267244549e-03
2.69340816326531e+00 1.03152457158553e-01 1.21582815807190e-03
2.70446938775510e+00 1.02427833993917e-01 1.20976373952866e-03
2.71553061224490e+00 1.01708301147695e-01 1.20371950038495e-03
2.72659183673469e+00 1.00993822861495e-01 1.19769552427267e-03
2.73765306122449e+00 1.00284363625586e-01 1.19169188848315e-03
2.74871428571429e+00 9.95798881847978e-02 1.18570866827333e-03
2.75977551020408e+00 9.88803615265604e-02 1.17974593595612e-03
2.77083673469388e+00 9.81857488892638e-02 1.17380376082398e-03
2.78189795918367e+00 9.74960157505401e-02 1.16788220933297e-03
2.79295918367347e+00 9.68111278354318e-02 1.16198134502702e-03
2.80402040816327e+00 9.61310511049076e-02 1.15610122871759e-03
2.81508163265306e+00 9.54557517638504e-02 1.15024191743539e-03
2.82614285714286e+00 9.47851962521285e-02 1.14440346850519e-03
2.83720408163265e+00 9.41193512430703e-02 1.13858593364219e-03
2.84826530612245e+00 9.34581836487400e-02 1.13278936291500e-03
2.85932653061225e+00 9.28016606090619e-02 1.12701380390440e-03
2.87038775510204e+00 9.21497494993235e-02 1.12125930162955e-03
2.88144897959184e+00 9.15024179195115e-02 1.11552589871369e-03
2.89251020408163e+00 9.08596337016514e-02 1.10981363531107e-03
2.90357142857143e+00 9.02213648993513e-02 1.10412254926880e-03
2.91463265306122e+00 8.95875797949810e-02 1.09845267605453e-03
2.92569387755102e+00 8.89582468894185e-02 1.09280404891509e-03
2.93675510204082e+00 8.83333349090730e-02 1.08717669792219e-03
2.94781632653061e+00 8.77128127978985e-02 1.08157065366197e-03
2.95887755102041e+00 8.70966497159761e-02 1.07598594187960e-03
2.96993877551020e+00 8.64848150441348e-02 1.07042258706877e-03
2.98100000000000e+00 8.58772783742338e-02 1.06488061170420e-03
2.99206122448980e+00 8.52740095157642e-02 1.05936003617185e-03
3.00312244897959e+00 8.46749784863180e-02 1.05386087891521e-03
3.01418367346939e+00 8.40801555180471e-02 1.04838315636575e-03
3.02524489795918e+00 8.34895110483158e-02 1.04292688308627e-03
3.03630612244898e+00 8.29030157260199e-02 1.03749207088815e-03
3.04736734693878e+00 8.23206404042954e-02 1.03207873223263e-03
3.05842857142857e+00 8.17423561391804e-02 1.02668687528711e-03
3.06948979591837e+00 8.11681341937639e-02 1.02131650723417e-03
3.08055102040816e+00 8.05979460293171e-02 1.01596763356128e-03
3.09161224489796e+00 8.00317633112403e-02 1.01064025799394e-03
3.10267346938776e+00 7.94695579003641e-02 1.00533438262792e-03
3.11373469387755e+00 7.89113018587680e-02 1.00005000786317e-03
3.12479591836735e+00 7.83569674412476e-02 9.94787132533317e-04
3.13585714285714e+00 7.78065271010087e-02 9.89545753840152e-04
3.14691836734694e+00 7.72599534812956e-02 9.84325867480635e-04
3.15797959183673e+00 7.67172194209643e-02 9.79127466842518e-04
3.16904081632653e+00 7.61782979479409e-02 9.73950546089926e-04
3.18010204081633e+00 7.56431622779791e-02 9.68795095672387e-04
3.19116326530612e+00 7.51117858183028e-02 9.63661105326501e-04
3.20222448979592e+00 7.45841421596606e-02 9.58548563428275e-04
3.21328571428571e+00 7.40602050815711e-02 9.53457456929929e-04
3.22434693877551e+00 7.35399485445273e-02 9.48387771477499e-04
3.23540816326531e+00 7.30233466951308e-02 9.43339491348680e-04
3.24646938775510e+00 7.25103738584421e-02 9.38312599567635e-04
3.25753061224490e+00 7.20010045430069e-02 9.33307077160974e-04
3.26859183673469e+00 7.14952134348685e-02 9.28322906005329e-04
3.27965306122449e+00 7.09929753963988e-02 9.23360064677303e-04
3.29071428571429e+00 7.04942654695732e-02 9.18418531224616e-04
3.30177551020408e+00 6.99990588687041e-02 9.13498282565823e-04
3.31283673469388e+00 6.95073309851759e-02 9.08599294430610e-04
3.32389795918367e+00 6.90190573803141e-02 9.03721541466315e-04
3.33495918367347e+00 6.85342137900207e-02 8.98864997178975e-04
3.34602040816327e+00 6.80527761177757e-02 8.94029634037741e-04
3.35708163265306e+00 6.75747204391755e-02 8.89215422785779e-04
3.36814285714286e+00 6.71000229964481e-02 8.84422335070317e-04
3.37920408163265e+00 6.66286601973511e-02 8.79650339605788e-04
3.39026530612245e+00 6.61606086181201e-02 8.74899404732998e-04
3.40132653061224e+00 6.56958449968167e-02 8.70169497862903e-04
3.41238775510204e+00 6.52343462376066e-02 8.65460585420286e-04
3.42344897959184e+00 6.47760894042310e-02 8.60772632940535e-04
3.43451020408163e+00 6.43210517241945e-02 8.56105605013706e-04
3.44557142857143e+00 6.38692105823579e-02 8.51459465379669e-04
3.45663265306122e+00 6.34205435250384e-02 8.46834176872752e-04
3.46769387755102e+00 6.29750282537205e-02 8.42229701514977e-04
3.47875510204082e+00 6.25326426290706e-02 8.37645999887537e-04
3.48981632653061e+00 6.20933646660000e-02 8.33083033521152e-04
