Energy (eV)          EEDF (eV^-(3/2))     First Anisotropy
6.15909090909091e-03 5.71833022856511e-01 3.21042818195598e-04
1.84772727272727e-02 5.67361330035190e-01 5.29841365264868e-04
3.07954545454545e-02 5.62924605528534e-01 6.98678633458215e-04
4.31136363636364e-02 5.58522575874275e-01 8.26476719759673e-04
5.54318181818182e-02 5.54154969777303e-01 9.32674550319960e-04
6.77500000000000e-02 5.49821518045876e-01 1.02463192795194e-03
8.00681818181818e-02 5.45521953594344e-01 1.10616257181880e-03
9.23863636363636e-02 5.41256011426169e-01 1.17957243080418e-03
1.04704545454545e-01 5.37023428617352e-01 1.24639278690694e-03
1.17022727272727e-01 5.32823944310281e-01 1.30770727967953e-03
1.29340909090909e-01 5.28657299659497e-01 1.36431907599808e-03
1.41659090909091e-01 5.24523237862516e-01 1.41684484553245e-03
1.53977272727273e-01 5.20421504124115e-01 1.46577145173843e-03
1.66295454545455e-01 5.16351845642154e-01 1.51149206105743e-03
1.78613636363636e-01 5.12314011614301e-01 1.55433018106692e-03
1.90931818181818e-01 5.08307753151737e-01 1.59455623005436e-03
2.03250000000000e-01 5.04332823336406e-01 1.63239931001183e-03
2.15568181818182e-01 5.00388977180887e-01 1.66805579707282e-03
2.27886363636364e-01 4.96475971613517e-01 1.70169573339552e-03
2.40204545454545e-01 4.92593565463526e-01 1.73346767980885e-03
2.52522727272727e-01 4.88741519461517e-01 1.76350246828060e-03
2.64840909090909e-01 4.84919596177444e-01 1.79191613407871e-03
2.77159090909091e-01 4.81127560054119e-01 1.81881224265770e-03
2.89477272727273e-01 4.77365177376207e-01 1.84428376683317e-03
3.01795454545455e-01 4.73632216256159e-01 1.86841460328044e-03
3.14113636363636e-01 4.69928446631565e-01 1.89128082289030e-03
3.26431818181818e-01 4.66253640214981e-01 1.91295169820824e-03
3.38750000000000e-01 4.62607570516408e-01 1.93349055963677e-03
3.51068181818182e-01 4.58990012816913e-01 1.95295552171873e-03
3.63386363636364e-01 4.55400744154842e-01 1.97140009208513e-03
3.75704545454545e-01 4.51839543312120e-01 1.98887368987616e-03
3.88022727272727e-01 4.48306190809700e-01 2.00542209452972e-03
4.00340909090909e-01 4.44800468866287e-01 2.02108782633868e-03
4.12659090909091e-01 4.41322161413032e-01 2.03591047545015e-03
4.24977272727273e-01 4.37871054070654e-01 2.04992699406936e-03
4.37295454545455e-01 4.34446934136369e-01 2.06317194589363e-03
4.49613636363636e-01 4.31049590578221e-01 2.07567773044763e-03
4.61931818181818e-01 4.27678813999251e-01 2.08747477538746e-03
4.74250000000000e-01 4.24334396647698e-01 2.09859170623673e-03
4.86568181818182e-01 4.21016132396374e-01 2.10905550245177e-03
4.98886363636364e-01 4.17723816729988e-01 2.11889163210433e-03
5.11204545454545e-01 4.14457246732563e-01 2.12812417221489e-03
5.23522727272727e-01 4.11216221081073e-01 2.13677592041044e-03
5.35840909090909e-01 4.08000540014327e-01 2.14486849052259e-03
5.48159090909091e-01 4.04810005339574e-01 2.15242239848803e-03
5.60477272727273e-01 4.01644420413879e-01 2.15945714479729e-03
5.72795454545455e-01 3.98503590132072e-01 2.16599128445514e-03
5.85113636363636e-01 3.95387320919971e-01 2.17204249493544e-03
5.97431818181818e-01 3.92295420706438e-01 2.17762763369061e-03
6.09750000000000e-01 3.89227698927725e-01 2.18276279040140e-03
6.22068181818182e-01 3.86183966510258e-01 2.18746333914558e-03
6.34386363636364e-01 3.83164035859006e-01 2.19174398267709e-03
6.46704545454545e-01 3.80167720845928e-01 2.19561879308364e-03
6.59022727272727e-01 3.77194836802967e-01 2.19910125231637e-03
6.71340909090909e-01 3.74245200497099e-01 2.20220428560543e-03
6.83659090909091e-01 3.71318630132746e-01 2.20494029212464e-03
6.95977272727273e-01 3.68414945335935e-01 2.20732117731594e-03
7.08295454545455e-01 3.65533967143223e-01 2.20935837890764e-03
7.20613636363636e-01 3.62675517994572e-01 2.21106289471714e-03
7.32931818181818e-01 3.59839421710520e-01 2.21244530485718e-03
7.45250000000000e-01 3.57025503493319e-01 2.21351579224550e-03
7.57568181818182e-01 3.54233589912118e-01 2.21428416537416e-03
7.69886363636364e-01 3.51463508892280e-01 2.21475987661931e-03
7.82204545454545e-01 3.48715089704788e-01 2.21495203936537e-03
7.94522727272727e-01 3.45988162959110e-01 2.21486944665520e-03
8.06840909090909e-01 3.43282560582471e-01 2.21452058535778e-03
8.19159090909091e-01 3.40598115819878e-01 2.21391364932958e-03
8.31477272727273e-01 3.37934663220335e-01 2.21305655510982e-03
8.43795454545455e-01 3.35292038626672e-01 2.21195695337789e-03
8.56113636363636e-01 3.32670079168444e-01 2.21062224283494e-03
8.68431818181818e-01 3.30068623242731e-01 2.20905958021952e-03
8.80750000000000e-01 3.27487510513416e-01 2.20727588964508e-03
8.93068181818182e-01 3.24926581898196e-01 2.20527787451205e-03
9.05386363636364e-01 3.22385679558777e-01 2.20307202628153e-03
9.17704545454545e-01 3.19864646891154e-01 2.20066463279548e-03
9.30022727272727e-01 3.17363328518613e-01 2.19806178839295e-03
9.42340909090909e-01 3.14881570274108e-01 2.19526940068879e-03
9.54659090909091e-01 3.12419219198873e-01 2.19229319691245e-03
9.66977272727273e-01 3.09976123530262e-01 2.18913873276920e-03
9.79295454545455e-01 3.07552132692407e-01 2.18581139805154e-03
9.91613636363636e-01 3.05147097289327e-01 2.18231642462598e-03
1.00393181818182e+00 3.02760869088478e-01 2.17865889193524e-03
1.01625000000000e+00 3.00393301016604e-01 2.17484372908274e-03
1.02856818181818e+00 2.98044247159724e-01 2.17087572505968e-03
1.04088636363636e+00 2.95713562737818e-01 2.16675953441888e-03
1.05320454545455e+00 2.93401104103084e-01 2.16249968337931e-03
1.06552272727273e+00 2.91106728709867e-01 2.15810056145845e-03
1.07784090909091e+00 2.88830295170030e-01 2.15356643583764e-03
1.09015909090909e+00 2.86571663179427e-01 2.14890146560778e-03
1.10247727272727e+00 2.84330693531028e-01 2.14410969076150e-03
1.11479545454545e+00 2.82107248106458e-01 2.13919504570331e-03
1.12711363636364e+00 2.79901189848161e-01 2.13416134923921e-03
1.13943181818182e+00 2.77712382809310e-01 2.12901231736962e-03
1.15175000000000e+00 2.75540692086487e-01 2.12375157601522e-03
1.16406818181818e+00 2.73385983831184e-01 2.11838265016800e-03
1.17638636363636e+00 2.71248125241589e-01 2.11290897173113e-03
1.18870454545455e+00 2.69126984554419e-01 2.10733388671458e-03
1.20102272727273e+00 2.67022431019557e-01 2.10166064540361e-03
1.21334090909091e+00 2.64934334944140e-01 2.09589241362390e-03
1.22565909090909e+00 2.62862567631915e-01 2.09003228398026e-03
1.23797727272727e+00 2.60807001392980e-01 2.08408326535385e-03
1.25029545454545e+00 2.58767509536013e-01 2.07804829363620e-03
1.26261363636364e+00 2.56743966344641e-01 2.07193022215813e-03
1.27493181818182e+00 2.54736247117443e-01 2.06573183192065e-03
1.28725000000000e+00 2.52744228112063e-01 2.05945584182331e-03
1.29956818181818e+00 2.50767786553786e-01 2.05310489851909e-03
1.31188636363636e+00 2.48806800627990e-01 2.04668158249410e-03
1.32420454545455e+00 2.46861149472659e-01 2.04018841364241e-03
1.33652272727273e+00 2.44930713156721e-01 2.03362784207756e-03
1.34884090909091e+00 2.43015372715616e-01 2.02700225731428e-03
1.36115909090909e+00 2.41115010100606e-01 2.02031399746479e-03
1.37347727272727e+00 2.39229508186057e-01 2.01356533957058e-03
1.38579545454545e+00 2.37358750762287e-01 2.00675850842490e-03
1.39811363636364e+00 2.35502622515311e-01 1.99989566773914e-03
1.41043181818182e+00 2.33661009059252e-01 1.99297892858761e-03
1.42275000000000e+00 2.31833796889418e-01 1.98601035787842e-03
1.43506818181818e+00 2.30020873388701e-01 1.97899196909657e-03
1.44738636363636e+00 2.28222126820654e-01 1.97192572720126e-03
1.45970454545455e+00 2.26437446322621e-01 1.96481355311313e-03
1.47202272727273e+00 2.24666721887069e-01 1.95765731532081e-03
1.48434090909091e+00 2.22909844390564e-01 1.95045883755425e-03
1.49665909090909e+00 2.21166705550975e-01 1.94321990649142e-03
1.50897727272727e+00 2.19437197932908e-01 1.93594226300021e-03
1.52129545454545e+00 2.17721214941133e-01 1.92862760955359e-03
1.53361363636364e+00 2.16018650803075e-01 1.92127760220709e-03
1.54593181818182e+00 2.14329400595319e-01 1.91389385771663e-03
1.55825000000000e+00 2.12653360203830e-01 1.90647796069525e-03
1.57056818181818e+00 2.10990426328729e-01 1.89903145526170e-03
1.58288636363636e+00 2.09340496477937e-01 1.89155584909020e-03
1.59520454545455e+00 2.07703468960868e-01 1.88405261711925e-03
1.60752272727273e+00 2.06079242872232e-01 1.87652319396616e-03
1.61984090909091e+00 2.04467718115824e-01 1.86896898045040e-03
1.63215909090909e+00 2.02868795368090e-01 1.86139135015801e-03
1.64447727272727e+00 2.01282376082162e-01 1.85379164156676e-03
1.65679545454545e+00 1.99708362481822e-01 1.84617116437480e-03
1.66911363636364e+00 1.98146657546260e-01 1.83853119227213e-03
1.68143181818182e+00 1.96597165031913e-01 1.83087296902686e-03
1.69375000000000e+00 1.95059789438480e-01 1.82319771461529e-03
1.70606818181818e+00 1.93534436012459e-01 1.81550661772873e-03
1.71838636363636e+00 1.92021010741314e-01 1.80780083918416e-03
1.73070454545455e+00 1.90519420347693e-01 1.80008151504730e-03
1.74302272727273e+00 1.89029572275273e-01 1.79234974981485e-03
1.75534090909091e+00 1.87551374708440e-01 1.78460662202592e-03
1.76765909090909e+00 1.86084736541040e-01 1.77685318991783e-03
1.77997727272727e+00 1.84629567379346e-01 1.76909048437145e-03
1.79229545454545e+00 1.83185777536521e-01 1.76131951437106e-03
1.80461363636364e+00 1.81753278019275e-01 1.75354126051567e-03
1.81693181818182e+00 1.80331980545967e-01 1.74575668027780e-03
1.82925000000000e+00 1.78921797517383e-01 1.73796671330667e-03
1.84156818181818e+00 1.77522642019323e-01 1.73017227472052e-03
1.85388636363636e+00 1.76134427817249e-01 1.72237425801859e-03
1.86620454545455e+00 1.74757069350983e-01 1.71457353774684e-03
1.87852272727273e+00 1.73390481722278e-01 1.70677096338477e-03
1.89084090909091e+00 1.72034580711184e-01 1.69896736421557e-03
1.90315909090909e+00 1.70689282749087e-01 1.69116355423996e-03
1.91547727272727e+00 1.69354504920864e-01 1.68336032586532e-03
1.92779545454545e+00 1.68030164959795e-01 1.67555845465437e-03
1.94011363636364e+00 1.66716181235827e-01 1.66775869351087e-03
1.95243181818182e+00 1.65412472770661e-01 1.65996177725783e-03
1.96475000000000e+00 1.64118959212483e-01 1.65216842725922e-03
1.97706818181818e+00 1.62835560837820e-01 1.64437934542163e-03
1.98938636363636e+00 1.61562198546630e-01 1.63659521670496e-03
2.00170454545455e+00 1.60298793857437e-01 1.62881671142037e-03
2.01402272727273e+00 1.59045268896375e-01 1.62104447975530e-03
2.02634090909091e+00 1.57801546410859e-01 1.61327915602818e-03
2.03865909090909e+00 1.56567549746208e-01 1.60552136298442e-03
2.05097727272727e+00 1.55343202847168e-01 1.59777170615343e-03
2.06329545454545e+00 1.54128430253241e-01 1.59003077800378e-03
2.07561363636364e+00 1.52923157088324e-01 1.58229915273650e-03
2.08793181818182e+00 1.51727309073331e-01 1.57457739029442e-03
2.10025000000000e+00 1.50540812504246e-01 1.56686604041256e-03
2.11256818181818e+00 1.49363594253404e-01 1.55916563725437e-03
2.12488636363636e+00 1.48195581764999e-01 1.55147670159297e-03
2.13720454545455e+00 1.47036703050608e-01 1.54379974280805e-03
2.14952272727273e+00 1.45886886679505e-01 1.53613525398283e-03
2.16184090909091e+00 1.44746061790124e-01 1.52848371564010e-03
2.17415909090909e+00 1.43614158069705e-01 1.52084559951720e-03
2.18647727272727e+00 1.42491105755318e-01 1.51322136351892e-03
2.19879545454545e+00 1.41376835629586e-01 1.50561145537077e-03
2.21111363636364e+00 1.40271279011494e-01 1.49801630795608e-03
2.22343181818182e+00 1.39174367767005e-01 1.49043634284359e-03
2.23575000000000e+00 1.38086034289897e-01 1.48287197385305e-03
2.24806818181818e+00 1.37006211502625e-01 1.47532360225685e-03
2.26038636363636e+00 1.35934832852185e-01 1.46779161868676e-03
2.27270454545455e+00 1.34871832306014e-01 1.46027640487906e-03
2.28502272727273e+00 1.33817144343395e-01 1.45277832928333e-03
2.29734090909091e+00 1.32770703965100e-01 1.44529775035601e-03
2.30965909090909e+00 1.31732446675595e-01 1.43783501989051e-03
2.32197727272727e+00 1.30702308483690e-01 1.43039047850126e-03
2.33429545454545e+00 1.29680225898610e-01 1.42296445884769e-03
2.34661363636364e+00 1.28666135921829e-01 1.41555728145686e-03
2.35893181818182e+00 1.27659976056015e-01 1.40816925783869e-03
2.37125000000000e+00 1.26661684288252e-01 1.40080069363604e-03
2.38356818181818e+00 1.25671199090563e-01 1.39345188432977e-03
2.39588636363636e+00 1.24688459416112e-01 1.38612311691308e-03
2.40820454545455e+00 1.23713404695449e-01 1.37881467142412e-03
2.42052272727273e+00 1.22745974828852e-01 1.37152681701099e-03
2.43284090909091e+00 1.21786110194476e-01 1.36425981484531e-03
2.44515909090909e+00 1.20833751632732e-01 1.35701392106923e-03
2.45747727272727e+00 1.19888840446653e-01 1.34978938275148e-03
2.46979545454545e+00 1.18951318398284e-01 1.34258644074196e-03
2.48211363636364e+00 1.18021127701406e-01 1.33540532592728e-03
2.49443181818182e+00 1.17098211029097e-01 1.32824626198974e-03
2.50675000000000e+00 1.16182511498992e-01 1.32110946819893e-03
2.51906818181818e+00 1.15273972673545e-01 1.31399515556441e-03
2.53138636363636e+00 1.14372538556544e-01 1.30690352831159e-03
2.54370454545455e+00 1.13478153589668e-01 1.29983478523324e-03
2.55602272727273e+00 1.12590762645652e-01 1.29278911616090e-03
2.56834090909091e+00 1.11710311035182e-01 1.28576670454913e-03
2.58065909090909e+00 1.10836744493155e-01 1.27876773009090e-03
2.59297727272727e+00 1.09970009178817e-01 1.27179236509346e-03
2.60529545454545e+00 1.09110051672446e-01 1.26484077701219e-03
2.61761363636364e+00 1.08256818968861e-01 1.25791312509221e-03
2.62993181818182e+00 1.07410258483820e-01 1.25100956281809e-03
2.64225000000000e+00 1.06570318041043e-01 1.24413024039366e-03
2.65456818181818e+00 1.05736945872262e-01 1.23727530129318e-03
2.66688636363636e+00 1.04910090614035e-01 1.23044488356649e-03
2.67920454545455e+00 1.04089701304580e-01 1.22363912103442e-03
2.69152272727273e+00 1.03275727377665e-01 1.21685814012246e-03
2.70384090909091e+00 1.02468118668457e-01 1.21010206215839e-03
2.71615909090909e+00 1.01666825401402e-01 1.20337100569840e-03
2.72847727272727e+00 1.00871798190182e-01 1.19666508327688e-03
2.74079545454545e+00 1.00082988034683e-01 1.18998440366047e-03
2.75311363636364e+00 9.93003463151753e-02 1.18332906883346e-03
2.76543181818182e+00 9.85238247977524e-02 1.17669917617805e-03
2.77775000000000e+00 9.77533756228646e-02 1.17009482068183e-03
2.79006818181818e+00 9.69889513052193e-02 1.16351609184339e-03
2.80238636363636e+00 9.62305047308555e-02 1.15696307482972e-03
2.81470454545455e+00 9.54779891542419e-02 1.15043585153621e-03
2.82702272727273e+00 9.47313581928037e-02 1.14393449774362e-03
2.83934090909091e+00 9.39905658318903e-02 1.13745908516494e-03
2.85165909090909e+00 9.32555664140569e-02 1.13100968351809e-03
2.86397727272727e+00 9.25263146388941e-02 1.12458635760870e-03
2.87629545454545e+00 9.18027655602414e-02 1.11818916933907e-03
2.88861363636364e+00 9.10848745809751e-02 1.11181817500049e-03
2.90093181818182e+00 9.03725974576289e-02 1.10547342721712e-03
2.91325000000000e+00 8.96658902902451e-02 1.09915497691438e-03
2.92556818181818e+00 8.89647095221597e-02 1.09286287054069e-03
2.93788636363636e+00 8.82690119373187e-02 1.08659715109610e-03
2.95020454545455e+00 8.75787546576162e-02 1.08035785907437e-03
2.96252272727273e+00 8.68938951379825e-02 1.07414502990834e-03
2.97484090909091e+00 8.62143911706125e-02 1.06795869579649e-03
2.98715909090909e+00 8.55402008754653e-02 1.06179888755304e-03
2.99947727272727e+00 8.48712826999969e-02 1.05566563198741e-03
3.01179545454545e+00 8.42075954166037e-02 1.04955895369802e-03
3.02411363636364e+00 8.35490981179424e-02 1.04347887263830e-03
3.03643181818182e+00 8.28957502208639e-02 1.03742540585239e-03
3.04875000000000e+00 8.22475114574113e-02 1.03139856923360e-03
3.06106818181818e+00 8.16043418745195e-02 1.02539837502779e-03
3.07338636363636e+00 8.09662018315536e-02 1.01942483274941e-03
3.08570454545455e+00 8.03330519978671e-02 1.01347795002051e-03
3.09802272727273e+00 7.97048533483873e-02 1.00755773027332e-03
3.11034090909091e+00 7.90815671672183e-02 1.00166417438304e-03
3.12265909090909e+00 7.84631550392052e-02 9.95797282321469e-04
3.13497727272727e+00 7.78495788495949e-02 9.89957050801280e-04
3.14729545454545e+00 7.72408007816912e-02 9.84143474879947e-04
3.15961363636364e+00 7.66367833126457e-02 9.78356545770256e-04
3.17193181818182e+00 7.60374892168123e-02 9.72596252392582e-04
3.18425000000000e+00 7.54428815577464e-02 9.66862582947715e-04
3.19656818181818e+00 7.48529236878432e-02 9.61155522671886e-04
3.20888636363636e+00 7.42675792460795e-02 9.55475054653622e-04
3.22120454545455e+00 7.36868121557739e-02 9.49821160582404e-04
3.23352272727273e+00 7.31105866206141e-02 9.44193818681493e-04
3.24584090909091e+00 7.25388671277307e-02 9.38593005168673e-04
3.25815909090909e+00 7.19716184401918e-02 9.33018695736889e-04
3.27047727272727e+00 7.14088055966145e-02 9.27470863434901e-04
3.28279545454545e+00 7.08503939090132e-02 9.21949480103063e-04
3.29511363636364e+00 7.02963489590101e-02 9.16454514402695e-04
3.30743181818182e+00 6.97466366006971e-02 9.10985933205851e-04
3.31975000000000e+00 6.92012229535141e-02 9.05543703004015e-04
3.33206818181818e+00 6.86600744018436e-02 9.00127787887829e-04
3.34438636363636e+00 6.81231575929403e-02 8.94738150276884e-04
3.35670454545455e+00 6.75904394348756e-02 8.89374751588529e-04
3.36902272727273e+00 6.70618870929589e-02 8.84037550376438e-04
3.38134090909091e+00 6.65374679923612e-02 8.78726503639633e-04
3.39365909090909e+00 6.60171498114283e-02 8.73441568149145e-04
3.40597727272727e+00 6.55009004812577e-02 8.68182698540141e-04
3.41829545454545e+00 6.49886881837248e-02 8.62949848598960e-04
3.43061363636364e+00 6.44804813480672e-02 8.57742969487968e-04
3.44293181818182e+00 6.39762486533288e-02 8.52562010991470e-04
3.45525000000000e+00 6.34759590220094e-02 8.47406922778777e-04
3.46756818181818e+00 6.29795816196318e-02 8.42277652584927e-04
3.47988636363636e+00 6.24870858528427e-02 8.37174146863474e-04
3.49220454545455e+00 6.19984413675272e-02 8.32096351384697e-04
3.50452272727273e+00 6.15136180455807e-02 8.27044209558582e-04
3.51684090909091e+00 6.10325860071503e-02 8.22017663608891e-04
3.52915909090909e+00 6.05553156046680e-02 8.17016655763313e-04
3.54147727272727e+00 6.00817774224062e-02 8.12041126534845e-04
3.55379545454545e+00 5.96119422746677e-02 8.07091015876428e-04
3.56611363636364e+00 5.91457812027031e-02 8.02166261581248e-04
3.57843181818182e+00 5.86832654767987e-02 7.97266800400729e-04
3.59075000000000e+00 5.82243665906072e-02 7.92392569177928e-04
3.60306818181818e+00 5.77690562606981e-02 7.87543503208378e-04
3.61538636363636e+00 5.73173064248157e-02 7.82719536824757e-04
3.62770454545455e+00 5.68690892401494e-02 7.77920603932568e-04
3.64002272727273e+00 5.64243770804197e-02 7.73146636498267e-04
3.65234090909091e+00 5.59831425377932e-02 7.68397565603362e-04
3.66465909090909e+00 5.55453584175511e-02 7.63673322513013e-04
3.67697727272727e+00 5.51109977376344e-02 7.58973837127067e-04
3.68929545454545e+00 5.46800337269830e-02 7.54299039016901e-04
3.70161363636364e+00 5.42524398227513e-02 7.49648855982851e-04
3.71393181818182e+00 5.38281896720936e-02 7.45023215058396e-04
3.72625000000000e+00 5.34072571270946e-02 7.40422043528231e-04
3.73856818181818e+00 5.29896162443131e-02 7.35845267450388e-04
3.75088636363636e+00 5.25752412831841e-02 7.31292812180379e-04
3.76320454545455e+00 5.21641067044326e-02 7.26764602851607e-04
3.77552272727273e+00 5.17561871674392e-02 7.22260563011418e-04
3.78784090909091e+00 5.13514575318781e-02 7.17780615568327e-04
3.80015909090909e+00 5.09498928529470e-02 7.13324683752515e-04
3.81247727272727e+00 5.05514683809091e-02 7.08892689718716e-04
3.82479545454545e+00 5.01561595595697e-02 7.04484555478152e-04
3.83711363636364e+00 4.97639420237593e-02 7.00100201596971e-04
3.84943181818182e+00 4.93747916008597e-02 6.95739548098860e-04
3.86175000000000e+00 4.89886843062659e-02 6.91402515380445e-04
3.87406818181818e+00 4.86055963429306e-02 6.87089022878038e-04
3.88638636363636e+00 4.82255040998977e-02 6.82798989537888e-04
