Energy (eV)          EEDF (eV^-(3/2))     First Anisotropy
1.88095238095238e-02 6.25513734535185e-02 2.95627358617743e-05
5.64285714285714e-02 6.22095689116137e-02 4.88473187473326e-05
9.40476190476190e-02 6.18696321196675e-02 6.45657459583571e-05
1.31666666666667e-01 6.15315528711164e-02 7.65570476640792e-05
1.69285714285714e-01 6.11953210178498e-02 8.65993276660604e-05
2.06904761904762e-01 6.08609264628005e-02 9.53634865193439e-05
2.44523809523810e-01 6.05283591663990e-02 1.03196041216947e-04
2.82142857142857e-01 6.01976091452922e-02 1.10305846784963e-04
3.19761904761905e-01 5.98686664679094e-02 1.16831159953356e-04
3.57380952380952e-01 5.95415212582782e-02 1.22869515182326e-04
3.95000000000000e-01 5.92161636953443e-02 1.28492978436093e-04
4.32619047619048e-01 5.88925840098129e-02 1.33756710784437e-04
4.70238095238095e-01 5.85707724874405e-02 1.38704127927404e-04
5.07857142857143e-01 5.82507194656091e-02 1.43370183141232e-04
5.45476190476191e-01 5.79324153352173e-02 1.47783548898936e-04
5.83095238095238e-01 5.76158505402603e-02 1.51968120311235e-04
6.20714285714286e-01 5.73010155757795e-02 1.55944081652260e-04
6.58333333333333e-01 5.69879009893353e-02 1.59728682686912e-04
6.95952380952381e-01 5.66764973806222e-02 1.63336816800581e-04
7.33571428571429e-01 5.63667953997313e-02 1.66781458827267e-04
7.71190476190476e-01 5.60587857487454e-02 1.70074002840956e-04
8.08809523809524e-01 5.57524591797234e-02 1.73224526505529e-04
8.46428571428572e-01 5.54478064956694e-02 1.76242000365761e-04
8.84047619047619e-01 5.51448185502066e-02 1.79134456258591e-04
9.21666666666667e-01 5.48434862462155e-02 1.81909123400967e-04
9.59285714285714e-01 5.45438005369645e-02 1.84572540016300e-04
9.96904761904762e-01 5.42457524245188e-02 1.87130645758736e-04
1.03452380952381e+00 5.39493329592376e-02 1.89588857390133e-04
1.07214285714286e+00 5.36545332450593e-02 1.91952134873277e-04
1.10976190476190e+00 5.33613444282108e-02 1.94225035196012e-04
1.14738095238095e+00 5.30697577061660e-02 1.96411757299450e-04
1.18500000000000e+00 5.27797643245040e-02 1.98516182681830e-04
1.22261904761905e+00 5.24913555790448e-02 2.00541910178070e-04
1.26023809523810e+00 5.22045228083162e-02 2.02492284514199e-04
1.29785714285714e+00 5.19192574006207e-02 2.04370420984189e-04
1.33547619047619e+00 5.16355507913124e-02 2.06179228581869e-04
1.37309523809524e+00 5.13533944646346e-02 2.07921430217691e-04
1.41071428571429e+00 5.10727799471588e-02 2.09599579105878e-04
1.44833333333333e+00 5.07936988138789e-02 2.11216073131068e-04
1.48595238095238e+00 5.05161426858140e-02 2.12773169058663e-04
1.52357142857143e+00 5.02401032316075e-02 2.14272995121541e-04
1.56119047619048e+00 4.99655721617373e-02 2.15717560946243e-04
1.59880952380952e+00 4.96925412338416e-02 2.17108766346642e-04
1.63642857142857e+00 4.94210022505823e-02 2.18448410914136e-04
1.67404761904762e+00 4.91509470594284e-02 2.19738201003569e-04
1.71166666666667e+00 4.88823675539837e-02 2.20979757625421e-04
1.74928571428571e+00 4.86152556689397e-02 2.22174622042653e-04
1.78690476190476e+00 4.83496033846696e-02 2.23324260773366e-04
1.82452380952381e+00 4.80854027253755e-02 2.24430071418371e-04
1.86214285714286e+00 4.78226457602669e-02 2.25493387923982e-04
1.89976190476190e+00 4.75613245990154e-02 2.26515484240611e-04
1.93738095238095e+00 4.73014313958524e-02 2.27497577606284e-04
1.97500000000000e+00 4.70429583478831e-02 2.28440832756105e-04
2.01261904761905e+00 4.67858976961391e-02 2.29346365744413e-04
2.05023809523810e+00 4.65302417214556e-02 2.30215246382509e-04
2.08785714285714e+00 4.62759827481527e-02 2.31048500429795e-04
2.12547619047619e+00 4.60231131424916e-02 2.31847112745109e-04
2.16309523809524e+00 4.57716253136189e-02 2.32612030159224e-04
2.20071428571429e+00 4.55215117098049e-02 2.33344163117236e-04
2.23833333333333e+00 4.52727648217712e-02 2.34044387153082e-04
2.27595238095238e+00 4.50253771812685e-02 2.34713545323541e-04
2.31357142857143e+00 4.47793413619276e-02 2.35352450433183e-04
2.35119047619048e+00 4.45346499758106e-02 2.35961886143806e-04
2.38880952380952e+00 4.42912956764326e-02 2.36542607965916e-04
2.42642857142857e+00 4.40492711574468e-02 2.37095345430053e-04
2.46404761904762e+00 4.38085691524365e-02 2.37620802900091e-04
2.50166666666667e+00 4.35691824356534e-02 2.38119661512657e-04
2.53928571428571e+00 4.33311038188934e-02 2.38592579842638e-04
2.57690476190476e+00 4.30943261542044e-02 2.39040194490608e-04
2.61452380952381e+00 4.28588423326966e-02 2.39463121586342e-04
2.65214285714286e+00 4.26246452852130e-02 2.39861958167327e-04
2.68976190476190e+00 4.23917279794383e-02 2.40237282610417e-04
2.72738095238095e+00 4.21600834223815e-02 2.40589655005355e-04
2.76500000000000e+00 4.19297046592648e-02 2.40919618410739e-04
2.80261904761905e+00 4.17005847741350e-02 2.41227700005914e-04
2.84023809523810e+00 4.14727168871790e-02 2.41514411355965e-04
2.87785714285714e+00 4.12460941570073e-02 2.41780248632353e-04
2.91547619047619e+00 4.10207097796134e-02 2.42025693681132e-04
2.95309523809524e+00 4.07965569889328e-02 2.42251215002848e-04
2.99071428571429e+00 4.05736290543422e-02 2.42457267897170e-04
3.02833333333333e+00 4.03519192827670e-02 2.42644294573018e-04
3.06595238095238e+00 4.01314210177040e-02 2.42812725071621e-04
3.10357142857143e+00 3.99121276397325e-02 2.42962978113126e-04
3.14119047619048e+00 3.96940325641802e-02 2.43095461153591e-04
3.17880952380952e+00 3.94771292430718e-02 2.43210570414476e-04
3.21642857142857e+00 3.92614111642096e-02 2.43308691876455e-04
3.25404761904762e+00 3.90468718509838e-02 2.43390201279806e-04
3.29166666666667e+00 3.88335048628252e-02 2.43455465043390e-04
3.32928571428571e+00 3.86213037930494e-02 2.43504840240596e-04
3.36690476190476e+00 3.84102622706372e-02 2.43538674554661e-04
3.40452380952381e+00 3.82003739593843e-02 2.43557306979138e-04
3.44214285714286e+00 3.79916325583179e-02 2.43561068459629e-04
3.47976190476190e+00 3.77840317996731e-02 2.43550281826126e-04
3.51738095238095e+00 3.75775654505483e-02 2.43525261708384e-04
3.55500000000000e+00 3.73722273121012e-02 2.43486315165187e-04
3.59261904761905e+00 3.71680112199320e-02 2.43433742260597e-04
3.63023809523810e+00 3.69649110421805e-02 2.43367835964308e-04
3.66785714285714e+00 3.67629206810687e-02 2.43288882037632e-04
3.70547619047619e+00 3.65620340721384e-02 2.43197159603856e-04
3.74309523809524e+00 3.63622451846045e-02 2.43092941670240e-04
3.78071428571429e+00 3.61635480195631e-02 2.42976495004890e-04
3.81833333333333e+00 3.59659366114299e-02 2.42848080001416e-04
3.85595238095238e+00 3.57694050272177e-02 2.42707951199829e-04
3.89357142857143e+00 3.55739473668621e-02 2.42556357763040e-04
3.93119047619048e+00 3.53795577615303e-02 2.42393543336676e-04
3.96880952380952e+00 3.51862303749661e-02 2.42219745898445e-04
4.00642857142857e+00 3.49939594028032e-02 2.42035198384851e-04
4.04404761904762e+00 3.48027390723942e-02 2.41840128536860e-04
4.08166666666667e+00 3.46125636431019e-02 2.41634759487758e-04
4.11928571428571e+00 3.44234274047197e-02 2.41419309606232e-04
4.15690476190476e+00 3.42353246787146e-02 2.41193992330888e-04
4.19452380952381e+00 3.40482498175838e-02 2.40959016606872e-04
4.23214285714286e+00 3.38621972051247e-02 2.40714587285039e-04
4.26976190476191e+00 3.36771612549394e-02 2.40460904957516e-04
4.30738095238095e+00 3.34931364115998e-02 2.40198165785683e-04
4.34500000000000e+00 3.33101171500353e-02 2.39926561906604e-04
4.38261904761905e+00 3.31280979757815e-02 2.39646281804167e-04
4.42023809523810e+00 3.29470734235636e-02 2.39357510139874e-04
4.45785714285714e+00 3.27670380583898e-02 2.39060427576921e-04
4.49547619047619e+00 3.25879864749671e-02 2.38755211159867e-04
4.53309523809524e+00 3.24099132979321e-02 2.38442034661401e-04
4.57071428571429e+00 3.22328131805053e-02 2.38121068410396e-04
4.60833333333333e+00 3.20566808055206e-02 2.37792479113858e-04
4.64595238095238e+00 3.18815108848661e-02 2.37456430213027e-04
4.68357142857143e+00 3.17072981596980e-02 2.37113082208574e-04
4.72119047619048e+00 3.15340373991628e-02 2.36762592487477e-04
4.75880952380952e+00 3.13617234013652e-02 2.36405115144325e-04
4.79642857142857e+00 3.11903509928342e-02 2.36040801436979e-04
4.83404761904762e+00 3.10199150283694e-02 2.35669799609814e-04
4.87166666666667e+00 3.08504103912337e-02 2.35292255323854e-04
4.90928571428571e+00 3.06818319919502e-02 2.34908311482389e-04
4.94690476190476e+00 3.05141747692037e-02 2.34518108051715e-04
4.98452380952381e+00 3.03474336893365e-02 2.34121782374466e-04
5.02214285714286e+00 3.01816037465267e-02 2.33719469455590e-04
5.05976190476191e+00 3.00166799616430e-02 2.33311301789131e-04
5.09738095238095e+00 2.98526573830945e-02 2.32897409180713e-04
5.13500000000000e+00 2.96895310863481e-02 2.32477919044151e-04
5.17261904761905e+00 2.95272961740934e-02 2.32052956672065e-04
5.21023809523810e+00 2.93659477751516e-02 2.31622645064784e-04
5.24785714285714e+00 2.92054810452774e-02 2.31187104755013e-04
5.28547619047619e+00 2.90458911666966e-02 2.30746454089203e-04
5.32309523809524e+00 2.88871733482588e-02 2.30300809484387e-04
5.36071428571429e+00 2.87293228243963e-02 2.29850285259445e-04
5.39833333333333e+00 2.85723348558827e-02 2.29394993462581e-04
5.43595238095238e+00 2.84162047293879e-02 2.28935044138785e-04
5.47357142857143e+00 2.82609277576209e-02 2.28470545573961e-04
5.51119047619048e+00 2.81064992783350e-02 2.28001604129071e-04
5.54880952380952e+00 2.79529146550455e-02 2.27528324070681e-04
5.58642857142857e+00 2.78001692766028e-02 2.27050807925228e-04
5.62404761904762e+00 2.76482585570546e-02 2.26569156312738e-04
5.66166666666667e+00 2.74971779357748e-02 2.26083468282470e-04
5.69928571428571e+00 2.73469228765226e-02 2.25593841149914e-04
5.73690476190476e+00 2.71974888681133e-02 2.25100370330612e-04
5.77452380952381e+00 2.70488714240137e-02 2.24603149581315e-04
5.81214285714286e+00 2.69010660824605e-02 2.24102271220117e-04
5.84976190476191e+00 2.67540684055610e-02 2.23597825966959e-04
5.88738095238095e+00 2.66078739799288e-02 2.23089902781007e-04
5.92500000000000e+00 2.64624784162941e-02 2.22578589091111e-04
5.96261904761905e+00 2.63178773496138e-02 2.22063971006119e-04
6.00023809523810e+00 2.61740664382108e-02 2.21546133158915e-04
6.03785714285714e+00 2.60310413643767e-02 2.21025158547572e-04
6.07547619047619e+00 2.58887978339966e-02 2.20501128755801e-04
6.11309523809524e+00 2.57473315766512e-02 2.19974124154161e-04
6.15071428571429e+00 2.56066383447928e-02 2.19444223747729e-04
6.18833333333333e+00 2.54667139143167e-02 2.18911505021050e-04
6.22595238095238e+00 2.53275540842000e-02 2.18376044149287e-04
6.26357142857143e+00 2.51891546765964e-02 2.17837916190907e-04
6.30119047619048e+00 2.50515115360465e-02 2.17297194939040e-04
6.33880952380952e+00 2.49146205300199e-02 2.16753952770285e-04
6.37642857142857e+00 2.47784775485678e-02 2.16208260930202e-04
6.41404761904762e+00 2.46430785041999e-02 2.15660189385297e-04
6.45166666666667e+00 2.45084193319701e-02 2.15109807093944e-04
6.48928571428571e+00 2.43744959887258e-02 2.14557181861660e-04
6.52690476190476e+00 2.42413044536178e-02 2.14002380193981e-04
6.56452380952381e+00 2.41088407277685e-02 2.13445467489463e-04
6.60214285714286e+00 2.39771008343510e-02 2.12886508215855e-04
6.63976190476191e+00 2.38460808178691e-02 2.12325565769089e-04
6.67738095238095e+00 2.37157767446418e-02 2.11762702330036e-04
6.71500000000000e+00 2.35861847024831e-02 2.11197979049864e-04
6.75261904761905e+00 2.34573008007752e-02 2.10631456219256e-04
6.79023809523810e+00 2.33291211697778e-02 2.10063193131145e-04
6.82785714285714e+00 2.32016419610882e-02 2.09493247941251e-04
6.86547619047619e+00 2.30748593473328e-02 2.08921677846252e-04
6.90309523809524e+00 2.29487695222343e-02 2.08348539246512e-04
6.94071428571429e+00 2.28233686999487e-02 2.07773887612440e-04
6.97833333333333e+00 2.26986531155030e-02 2.07197777348754e-04
7.01595238095238e+00 2.25746190244972e-02 2.06620261965925e-04
7.05357142857143e+00 2.24512627031664e-02 2.06041394236694e-04
7.09119047619048e+00 2.23285804477440e-02 2.05461226066030e-04
7.12880952380952e+00 2.22065685748780e-02 2.04879808359138e-04
7.16642857142857e+00 2.20852234213430e-02 2.04297191256326e-04
7.20404761904762e+00 2.19645413439314e-02 2.03713424003816e-04
7.24166666666667e+00 2.18445187195089e-02 2.03128555176993e-04
7.27928571428571e+00 2.17251519444069e-02 2.02542632554240e-04
7.31690476190476e+00 2.16064374348155e-02 2.01955702988846e-04
7.35452380952381e+00 2.14883716265080e-02 2.01367812567058e-04
7.39214285714286e+00 2.13709509748927e-02 2.00779006752394e-04
7.42976190476191e+00 2.12541719544285e-02 2.00189330262930e-04
7.46738095238095e+00 2.11380310589989e-02 1.99598826946831e-04
7.50500000000000e+00 2.10225248016461e-02 1.99007539934630e-04
7.54261904761905e+00 2.09076497146186e-02 1.98415511778351e-04
7.58023809523810e+00 2.07934023488086e-02 1.97822784332200e-04
7.61785714285714e+00 2.06797792741088e-02 1.97229398631519e-04
7.65547619047619e+00 2.05667770791554e-02 1.96635395039691e-04
7.69309523809524e+00 2.04543923713710e-02 1.96040813382265e-04
7.73071428571429e+00 2.03426217764244e-02 1.95445692830953e-04
7.76833333333333e+00 2.02314619385696e-02 1.94850071786065e-04
7.80595238095238e+00 2.01209095203976e-02 1.94253988018152e-04
7.84357142857143e+00 2.00109612028760e-02 1.93657478797405e-04
7.88119047619048e+00 1.99016136848287e-02 1.93060580780946e-04
7.91880952380952e+00 1.97928636832589e-02 1.92463329898554e-04
7.95642857142857e+00 1.96847079331094e-02 1.91865761548445e-04
7.99404761904762e+00 1.95771431871645e-02 1.91267910485451e-04
8.03166666666667e+00 1.94701662160857e-02 1.90669811007367e-04
8.06928571428571e+00 1.93637738079136e-02 1.90071496845705e-04
8.10690476190476e+00 1.92579627683742e-02 1.89473001054984e-04
8.14452380952381e+00 1.91527299206484e-02 1.88874356144021e-04
8.18214285714286e+00 1.90480721054039e-02 1.88275594195917e-04
8.21976190476190e+00 1.89439861803161e-02 1.87676746761934e-04
8.25738095238095e+00 1.88404690203597e-02 1.87077844753893e-04
8.29500000000000e+00 1.87375175175857e-02 1.86478918571022e-04
8.33261904761905e+00 1.86351285811509e-02 1.85879998215852e-04
8.37023809523810e+00 1.85332991368554e-02 1.85281113191110e-04
8.40785714285714e+00 1.84320261274214e-02 1.84682292395154e-04
8.44547619047619e+00 1.83313065122774e-02 1.84083564244517e-04
8.48309523809524e+00 1.82311372675841e-02 1.83484956785960e-04
8.52071428571429e+00 1.81315153857897e-02 1.82886497596232e-04
8.55833333333333e+00 1.80324378758951e-02 1.82288213680507e-04
8.59595238095238e+00 1.79339017632453e-02 1.81690131590828e-04
8.63357142857143e+00 1.78359040895529e-02 1.81092277534415e-04
8.67119047619048e+00 1.77384419124688e-02 1.80494677276276e-04
8.70880952380952e+00 1.76415123058361e-02 1.79897356040505e-04
8.74642857142857e+00 1.75451123594872e-02 1.79300338675064e-04
8.78404761904762e+00 1.74492391791569e-02 1.78703649555280e-04
8.82166666666667e+00 1.73538898865032e-02 1.78107312740707e-04
8.85928571428571e+00 1.72590616186961e-02 1.77511351880826e-04
8.89690476190476e+00 1.71647515286576e-02 1.76915790119526e-04
8.93452380952381e+00 1.70709567848674e-02 1.76320650205286e-04
8.97214285714286e+00 1.69776745713812e-02 1.75725954591973e-04
9.00976190476191e+00 1.68849020874342e-02 1.75131725347216e-04
9.04738095238095e+00 1.67926365476703e-02 1.74537984059565e-04
9.08500000000000e+00 1.67008751819536e-02 1.73944751945147e-04
9.12261904761905e+00 1.66096152353853e-02 1.73352049945162e-04
9.16023809523810e+00 1.65188539679199e-02 1.72759898636856e-04
9.19785714285714e+00 1.64285886545851e-02 1.72168318143337e-04
9.23547619047619e+00 1.63388165852991e-02 1.71577328236743e-04
9.27309523809524e+00 1.62495350648845e-02 1.70986948432648e-04
9.31071428571429e+00 1.61607414126993e-02 1.70397197903551e-04
9.34833333333333e+00 1.60724329628458e-02 1.69808095391216e-04
9.38595238095238e+00 1.59846070639940e-02 1.69219659306566e-04
9.42357142857143e+00 1.58972610793940e-02 1.68631907821082e-04
9.46119047619048e+00 1.58103923865189e-02 1.68044858782730e-04
9.49880952380953e+00 1.57239983772651e-02 1.67458529630764e-04
9.53642857142857e+00 1.56380764577807e-02 1.66872937535348e-04
9.57404761904762e+00 1.55526240483877e-02 1.66288099314271e-04
9.61166666666667e+00 1.54676385835927e-02 1.65704031565948e-04
9.64928571428571e+00 1.53831175117438e-02 1.65120750588003e-04
9.68690476190476e+00 1.52990582952214e-02 1.64538272294855e-04
9.72452380952381e+00 1.52154584102722e-02 1.63956612310907e-04
9.76214285714286e+00 1.51323153470189e-02 1.63375786055822e-04
9.79976190476190e+00 1.50496266091283e-02 1.62795808665440e-04
9.83738095238095e+00 1.49673897139939e-02 1.62216694911668e-04
9.87500000000000e+00 1.48856021925750e-02 1.61638459292755e-04
9.91261904761905e+00 1.48042615894044e-02 1.61061116115927e-04
9.95023809523810e+00 1.47233654622685e-02 1.60484679420528e-04
9.98785714285714e+00 1.46429113823811e-02 1.59909163018215e-04
1.00254761904762e+01 1.45628969339889e-02 1.59334580068590e-04
1.00630952380952e+01 1.44833197154136e-02 1.58760944061143e-04
1.01007142857143e+01 1.44041773366769e-02 1.58188267890351e-04
1.01383333333333e+01 1.43254674224296e-02 1.57616564261777e-04
1.01759523809524e+01 1.42471876087473e-02 1.57045845654817e-04
1.02135714285714e+01 1.41693355461640e-02 1.56476124287115e-04
1.02511904761905e+01 1.40919088965247e-02 1.55907412156758e-04
1.02888095238095e+01 1.40149053359649e-02 1.55339720637033e-04
1.03264285714286e+01 1.39383225525561e-02 1.54773062000891e-04
1.03640476190476e+01 1.38621582462757e-02 1.54207447167943e-04
1.04016666666667e+01 1.37864101311354e-02 1.53642887195435e-04
1.04392857142857e+01 1.37110759321849e-02 1.53079392936687e-04
1.04769047619048e+01 1.36361533883460e-02 1.52516975007475e-04
1.05145238095238e+01 1.35616402494678e-02 1.51955643825644e-04
1.05521428571429e+01 1.34875342791103e-02 1.51395409577886e-04
1.05897619047619e+01 1.34138332516515e-02 1.50836282258768e-04
1.06273809523810e+01 1.33405349550218e-02 1.50278271637963e-04
1.06650000000000e+01 1.32676371878604e-02 1.49721387298660e-04
1.07026190476190e+01 1.31951377622023e-02 1.49165638605218e-04
1.07402380952381e+01 1.31230345006835e-02 1.48611034740956e-04
1.07778571428571e+01 1.30513252391811e-02 1.48057584676267e-04
1.08154761904762e+01 1.29800078240664e-02 1.47505297205826e-04
1.08530952380952e+01 1.29090801147986e-02 1.46954180917109e-04
1.08907142857143e+01 1.28385399812254e-02 1.46404244227012e-04
1.09283333333333e+01 1.27683853061315e-02 1.45855495350798e-04
1.09659523809524e+01 1.26986139825851e-02 1.45307942338179e-04
1.10035714285714e+01 1.26292239164419e-02 1.44761593042648e-04
1.10411904761905e+01 1.25602130237375e-02 1.44216455156978e-04
1.10788095238095e+01 1.24915792331475e-02 1.43672535864983e-04
1.11164285714286e+01 1.24233204840355e-02 1.43129843150358e-04
1.11540476190476e+01 1.23554347264225e-02 1.42588383861174e-04
1.11916666666667e+01 1.22879199227455e-02 1.42048164990170e-04
1.12292857142857e+01 1.22207740453719e-02 1.41509193380831e-04
1.12669047619048e+01 1.21539950789422e-02 1.40971475698329e-04
1.13045238095238e+01 1.20875810179262e-02 1.40435018462957e-04
1.13421428571429e+01 1.20215298689261e-02 1.39899828021476e-04
1.13797619047619e+01 1.19558396482735e-02 1.39365910580029e-04
1.14173809523810e+01 1.18905083842926e-02 1.38833272175879e-04
1.14550000000000e+01 1.18255341149386e-02 1.38301918709807e-04
1.14926190476190e+01 1.17609148900212e-02 1.37771855918220e-04
1.15302380952381e+01 1.16966487688831e-02 1.37243089405109e-04
1.15678571428571e+01 1.16327338225857e-02 1.36715624614478e-04
1.16054761904762e+01 1.15691681316259e-02 1.36189466861789e-04
1.16430952380952e+01 1.15059497880851e-02 1.35664621306826e-04
1.16807142857143e+01 1.14430768933841e-02 1.35141092984655e-04
1.17183333333333e+01 1.13805475603952e-02 1.34618886778826e-04
1.17559523809524e+01 1.13183599112348e-02 1.34098007451841e-04
1.17935714285714e+01 1.12565120793397e-02 1.33578459618744e-04
1.18311904761905e+01 1.11950022072962e-02 1.33060247777153e-04
1.18688095238095e+01 1.11338284488816e-02 1.32543376007293e-04
