Energy (eV)          EEDF (eV^-(3/2))     First Anisotropy
1.07000000000000e-01 7.18421180485944e-02 8.39934067760552e-05
3.21000000000000e-01 6.94039828401952e-02 1.36803386150320e-04
5.35000000000000e-01 6.70485916189662e-02 1.75648001883921e-04
7.49000000000000e-01 6.47731362685319e-02 2.02307108164216e-04
9.63000000000000e-01 6.25749039727028e-02 2.22292806941790e-04
1.17700000000000e+00 6.04512739812361e-02 2.37781429648416e-04
1.39100000000000e+00 5.83997144853567e-02 2.49944609497775e-04
1.60500000000000e+00 5.64177795993150e-02 2.59516033532553e-04
1.81900000000000e+00 5.45031064443814e-02 2.66998778419961e-04
2.03300000000000e+00 5.26534123318038e-02 2.72759354942745e-04
2.24700000000000e+00 5.08664920413678e-02 2.77076587644634e-04
2.46100000000000e+00 4.91402151923151e-02 2.80169554187916e-04
2.67500000000000e+00 4.74725237034863e-02 2.82214724343072e-04
2.88900000000000e+00 4.58614293396604e-02 2.83357065921572e-04
3.10300000000000e+00 4.43050113411646e-02 2.83717564223107e-04
3.31700000000000e+00 4.28014141339290e-02 2.83398499900790e-04
3.53100000000000e+00 4.13488451172562e-02 2.82487266774884e-04
3.74500000000000e+00 3.99455725266686e-02 2.81059205091109e-04
3.95900000000000e+00 3.85899233692848e-02 2.79179750932924e-04
4.17300000000000e+00 3.72802814292638e-02 2.76906098354945e-04
4.38700000000000e+00 3.60150853409395e-02 2.74288506461871e-04
4.60100000000000e+00 3.47928267273484e-02 2.71371342633254e-04
4.81500000000000e+00 3.36120484019297e-02 2.68193926206458e-04
5.02900000000000e+00 3.24713426312564e-02 2.64791218871988e-04
5.24300000000000e+00 3.13693494567238e-02 2.61194395640828e-04
5.45700000000000e+00 3.03047550731962e-02 2.57431321568406e-04
5.67100000000000e+00 2.92762902626775e-02 2.53526953240268e-04
5.88500000000000e+00 2.82827288811395e-02 2.49503679551573e-04
6.09900000000000e+00 2.73228863967031e-02 2.45381613027280e-04
6.31300000000000e+00 2.63956184774298e-02 2.41178840484443e-04
6.52700000000000e+00 2.54998196270399e-02 2.36911639995267e-04
6.74100000000000e+00 2.46344218669313e-02 2.32594669704927e-04
6.95500000000000e+00 2.37983934629261e-02 2.28241132976384e-04
7.16900000000000e+00 2.29907376952296e-02 2.23862923492846e-04
7.38300000000000e+00 2.22104916701322e-02 2.19470753288047e-04
7.59700000000000e+00 2.14567251720405e-02 2.15074266151571e-04
7.81100000000000e+00 2.07285395544662e-02 2.10682138439151e-04
8.02500000000000e+00 2.00250666686526e-02 2.06302168982408e-04
8.23900000000000e+00 1.93454678285611e-02 2.01941359520811e-04
8.45300000000000e+00 1.86889328109825e-02 1.97605986857236e-04
8.66700000000000e+00 1.80546788895824e-02 1.93301667756885e-04
8.88100000000000e+00 1.74419499017288e-02 1.89033417459502e-04
9.09500000000000e+00 1.68500153469888e-02 1.84805702550449e-04
9.30900000000000e+00 1.62781695162200e-02 1.80622488832531e-04
9.52300000000000e+00 1.57257306502184e-02 1.76487284753496e-04
9.73700000000000e+00 1.51920401269200e-02 1.72403180870854e-04
9.95100000000000e+00 1.46764616761855e-02 1.68372885773665e-04
1.01650000000000e+01 1.41783806212347e-02 1.64398758828297e-04
1.03790000000000e+01 1.36972031458234e-02 1.60482840070069e-04
1.05930000000000e+01 1.32323555862909e-02 1.56626877524236e-04
1.08070000000000e+01 1.27832837476338e-02 1.52832352206554e-04
1.10210000000000e+01 1.23494522427904e-02 1.49100501025031e-04
1.12350000000000e+01 1.19303438543472e-02 1.45432337779676e-04
1.14490000000000e+01 1.15254589179091e-02 1.41828672435482e-04
1.16630000000000e+01 1.11343147263946e-02 1.38290128825058e-04
1.18770000000000e+01 1.07564449545493e-02 1.34817160920887e-04
1.20910000000000e+01 1.03913991029885e-02 1.31410067802745e-04
1.23050000000000e+01 1.00387419611087e-02 1.28069007433105e-04
1.25190000000000e+01 9.69805308822586e-03 1.24794009342164e-04
1.27330000000000e+01 9.36892631232246e-03 1.21584986314185e-04
1.29470000000000e+01 9.05096924580621e-03 1.18441745158119e-04
1.31610000000000e+01 8.74380281770225e-03 1.15363996637581e-04
1.33750000000000e+01 8.44706082172171e-03 1.12351364628368e-04
1.35890000000000e+01 8.16038947966766e-03 1.09403394565437e-04
1.38030000000000e+01 7.88344701965784e-03 1.06519561235746e-04
1.40170000000000e+01 7.61590326866154e-03 1.03699275968339e-04
1.42310000000000e+01 7.35743925886457e-03 1.00941893268602e-04
1.44450000000000e+01 7.10774684739334e-03 9.82467169395840e-05
1.46590000000000e+01 6.86652834894438e-03 9.56130057296237e-05
1.48730000000000e+01 6.63349618088158e-03 9.30399785422662e-05
1.50870000000000e+01 6.40837252037783e-03 9.05268192414708e-05
1.53010000000000e+01 6.19088897319240e-03 8.80726810824137e-05
1.55150000000000e+01 5.98078625368920e-03 8.56766907957527e-05
1.57290000000000e+01 5.77781387571429e-03 8.33379523510122e-05
1.59430000000000e+01 5.58172985396434e-03 8.10555504227000e-05
1.61570000000000e+01 5.39230041548979e-03 7.88285535809489e-05
1.63710000000000e+01 5.20929972098880e-03 7.66560172267820e-05
1.65850000000000e+01 5.03250959555990e-03 7.45369862905585e-05
1.67990000000000e+01 4.86171926859205e-03 7.24704977107721e-05
1.70130000000000e+01 4.69672512248227e-03 7.04555827090591e-05
1.72270000000000e+01 4.53733044988104e-03 6.84912688761089e-05
1.74410000000000e+01 4.38334521917625e-03 6.65765820820830e-05
1.76550000000000e+01 4.23458584793599e-03 6.47105482241446e-05
1.78690000000000e+01 4.09087498404008e-03 6.28921948227933e-05
1.80830000000000e+01 3.95204129423942e-03 6.11205524778431e-05
1.82970000000000e+01 3.81791925989117e-03 5.93946561941158e-05
1.85110000000000e+01 3.68834897962604e-03 5.77135465861965e-05
1.87250000000000e+01 3.56317597871261e-03 5.60762709709360e-05
1.89390000000000e+01 3.44225102489132e-03 5.44818843557749e-05
1.91530000000000e+01 3.32542995045854e-03 5.29294503303925e-05
1.93670000000000e+01 3.21257348038870e-03 5.14180418686656e-05
1.95810000000000e+01 3.10354706628948e-03 4.99467420474356e-05
1.97950000000000e+01 2.99822072599212e-03 4.85146446881275e-05
2.00090000000000e+01 2.89646888858564e-03 4.71208549268497e-05
2.02230000000000e+01 2.79817024471019e-03 4.57644897182239e-05
2.04370000000000e+01 2.70320760193105e-03 4.44446782778239e-05
2.06510000000000e+01 2.61146774502087e-03 4.31605624677723e-05
2.08650000000000e+01 2.52284130098357e-03 4.19112971297382e-05
2.10790000000000e+01 2.43722260865894e-03 4.06960503692848e-05
2.12930000000000e+01 2.35450959275262e-03 3.95140037952507e-05
2.15070000000000e+01 2.27460364214103e-03 3.83643527175983e-05
2.17210000000000e+01 2.19740949230647e-03 3.72463063069280e-05
2.19350000000000e+01 2.12283511176195e-03 3.61590877186440e-05
2.21490000000000e+01 2.05079159233050e-03 3.51019341845538e-05
2.23630000000000e+01 1.98119304314819e-03 3.40740970744912e-05
2.25770000000000e+01 1.91395648826428e-03 3.30748419303870e-05
2.27910000000000e+01 1.84900176771664e-03 3.21034484750379e-05
2.30050000000000e+01 1.78625144196445e-03 3.11592105976743e-05
2.32190000000000e+01 1.72563069956406e-03 3.02414363182882e-05
2.34330000000000e+01 1.66706726797830e-03 2.93494477325469e-05
2.36470000000000e+01 1.61049132741246e-03 2.84825809389914e-05
2.38610000000000e+01 1.55583542757467e-03 2.76401859501071e-05
2.40750000000000e+01 1.50303440726105e-03 2.68216265887420e-05
2.42890000000000e+01 1.45202531667004e-03 2.60262803712458e-05
2.45030000000000e+01 1.40274734235312e-03 2.52535383786144e-05
2.47170000000000e+01 1.35514173471253e-03 2.45028051168265e-05
2.49310000000000e+01 1.30915173795951e-03 2.37734983674840e-05
2.51450000000000e+01 1.26472252244964e-03 2.30650490297864e-05
2.53590000000000e+01 1.22180111931445e-03 2.23769009547963e-05
2.55730000000000e+01 1.18033635731151e-03 2.17085107728888e-05
2.57870000000000e+01 1.14027880181770e-03 2.10593477152114e-05
2.60010000000000e+01 1.10158069589282e-03 2.04288934299219e-05
2.62150000000000e+01 1.06419590334340e-03 1.98166417939167e-05
2.64290000000000e+01 1.02807985371873e-03 1.92220987207120e-05
2.66430000000000e+01 9.93189489173656e-04 1.86447819650870e-05
2.68570000000000e+01 9.59483213134630e-04 1.80842209250574e-05
2.70710000000000e+01 9.26920840707959e-04 1.75399564417037e-05
2.72850000000000e+01 8.95463550771047e-04 1.70115405973385e-05
2.74990000000000e+01 8.65073839689542e-04 1.64985365124583e-05
2.77130000000000e+01 8.35715476605197e-04 1.60005181418948e-05
2.79270000000000e+01 8.07353460241152e-04 1.55170700705443e-05
2.81410000000000e+01 7.79953977173130e-04 1.50477873090241e-05
2.83550000000000e+01 7.53484361516800e-04 1.45922750895796e-05
2.85690000000000e+01 7.27913055983245e-04 1.41501486625341e-05
2.87830000000000e+01 7.03209574256112e-04 1.37210330935528e-05
2.89970000000000e+01 6.79344464645575e-04 1.33045630619668e-05
2.92110000000000e+01 6.56289274975797e-04 1.29003826603827e-05
2.94250000000000e+01 6.34016518664017e-04 1.25081451957825e-05
2.96390000000000e+01 6.12499641950821e-04 1.21275129922992e-05
2.98530000000000e+01 5.91712992242541e-04 1.17581571958381e-05
3.00670000000000e+01 5.71631787528021e-04 1.13997575806935e-05
3.02810000000000e+01 5.52232086833311e-04 1.10520023582994e-05
3.04950000000000e+01 5.33490761679037e-04 1.07145879882355e-05
3.07090000000000e+01 5.15385468506448e-04 1.03872189915981e-05
3.09230000000000e+01 4.97894622039241e-04 1.00696077668322e-05
3.11370000000000e+01 4.80997369549422e-04 9.76147440811028e-06
3.13510000000000e+01 4.64673565996521e-04 9.46254652633246e-06
3.15650000000000e+01 4.48903750010502e-04 9.17255907281229e-06
3.17790000000000e+01 4.33669120689770e-04 8.89125416570296e-06
3.19930000000000e+01 4.18951515186582e-04 8.61838091921182e-06
3.22070000000000e+01 4.04733387053152e-04 8.35369527564065e-06
3.24210000000000e+01 3.90997785322637e-04 8.09695984028416e-06
3.26350000000000e+01 3.77728334300055e-04 7.84794371921033e-06
3.28490000000000e+01 3.64909214039055e-04 7.60642235994117e-06
3.30630000000000e+01 3.52525141481241e-04 7.37217739504634e-06
3.32770000000000e+01 3.40561352235597e-04 7.14499648865610e-06
3.34910000000000e+01 3.29003582976251e-04 6.92467318589648e-06
3.37050000000000e+01 3.17838054437631e-04 6.71100676524318e-06
3.39190000000000e+01 3.07051454986709e-04 6.50380209378767e-06
3.41330000000000e+01 2.96630924752768e-04 6.30286948540497e-06
3.43470000000000e+01 2.86564040295758e-04 6.10802456180900e-06
3.45610000000000e+01 2.76838799794972e-04 5.91908811647772e-06
3.47750000000000e+01 2.67443608740377e-04 5.73588598142802e-06
3.49890000000000e+01 2.58367266109550e-04 5.55824889681717e-06
3.52030000000000e+01 2.49598951013725e-04 5.38601238334528e-06
3.54170000000000e+01 2.41128209797042e-04 5.21901661743131e-06
3.56310000000000e+01 2.32944943573617e-04 5.05710630913248e-06
3.58450000000000e+01 2.25039396187568e-04 4.90013058277645e-06
3.60590000000000e+01 2.17402142581648e-04 4.74794286027223e-06
3.62730000000000e+01 2.10024077560612e-04 4.60040074706604e-06
3.64870000000000e+01 2.02896404935935e-04 4.45736592070617e-06
3.67010000000000e+01 1.96010627038924e-04 4.31870402197982e-06
3.69150000000000e+01 1.89358534589724e-04 4.18428454858444e-06
3.71290000000000e+01 1.82932196910157e-04 4.05398075129482e-06
3.73430000000000e+01 1.76723952468696e-04 3.92766953258657e-06
3.75570000000000e+01 1.70726399746332e-04 3.80523134767615e-06
3.77710000000000e+01 1.64932388412415e-04 3.68655010793663e-06
3.79850000000000e+01 1.59335010799982e-04 3.57151308664912e-06
3.81990000000000e+01 1.53927593670373e-04 3.46001082704819e-06
3.84130000000000e+01 1.48703690257347e-04 3.35193705262027e-06
3.86270000000000e+01 1.43657072581191e-04 3.24718857961348e-06
3.88410000000000e+01 1.38781724023678e-04 3.14566523171732e-06
3.90550000000000e+01 1.34071832155002e-04 3.04726975687085e-06
3.92690000000000e+01 1.29521781804153e-04 2.95190774615809e-06
3.94830000000000e+01 1.25126148364466e-04 2.85948755474899e-06
3.96970000000000e+01 1.20879691326362e-04 2.76992022484503e-06
3.99110000000000e+01 1.16777348029567e-04 2.68311941058860e-06
4.01250000000000e+01 1.12814227627372e-04 2.59900130489541e-06
4.03390000000000e+01 1.08985605255722e-04 2.51748456816961e-06
4.05530000000000e+01 1.05286916400199e-04 2.43849025886181e-06
4.07670000000000e+01 1.01713751454167e-04 2.36194176583009e-06
4.09810000000000e+01 9.82618504616063e-05 2.28776474246491e-06
4.11950000000000e+01 9.49270980383604e-05 2.21588704253931e-06
4.14090000000000e+01 9.17055184657386e-05 2.14623865774582e-06
4.16230000000000e+01 8.85932709506347e-05 2.07875165688224e-06
4.18370000000000e+01 8.55866450465016e-05 2.01336012664914e-06
4.20510000000000e+01 8.26820562297275e-05 1.95000011402198e-06
4.22650000000000e+01 7.98760416261375e-05 1.88860957016177e-06
4.24790000000000e+01 7.71652558825276e-05 1.82912829582817e-06
4.26930000000000e+01 7.45464671783072e-05 1.77149788826006e-06
4.29070000000000e+01 7.20165533724969e-05 1.71566168948886e-06
4.31210000000000e+01 6.95724982814868e-05 1.66156473605028e-06
4.33350000000000e+01 6.72113880831183e-05 1.60915371006124e-06
4.35490000000000e+01 6.49304078428013e-05 1.55837689162881e-06
4.37630000000000e+01 6.27268381575272e-05 1.50918411255886e-06
4.39770000000000e+01 6.05980519137743e-05 1.46152671133258e-06
4.41910000000000e+01 5.85415111554420e-05 1.41535748931967e-06
4.44050000000000e+01 5.65547640580792e-05 1.37063066819765e-06
4.46190000000000e+01 5.46354420057994e-05 1.32730184854707e-06
4.48330000000000e+01 5.27812567673975e-05 1.28532796959343e-06
4.50470000000000e+01 5.09899977683028e-05 1.24466727006662e-06
4.52610000000000e+01 4.92595294551135e-05 1.20527925014992e-06
4.54750000000000e+01 4.75877887495730e-05 1.16712463449051e-06
4.56890000000000e+01 4.59727825889515e-05 1.13016533624463e-06
4.59030000000000e+01 4.44125855499005e-05 1.09436442213064e-06
4.61170000000000e+01 4.29053375529475e-05 1.05968607846407e-06
4.63310000000000e+01 4.14492416448943e-05 1.02609557814918e-06
4.65450000000000e+01 4.00425618564750e-05 9.93559248602050e-07
4.67590000000000e+01 3.86836211327193e-05 9.62044440580954e-07
4.69730000000000e+01 3.73707993335545e-05 9.31519497900235e-07
4.71870000000000e+01 3.61025313022609e-05 9.01953728004216e-07
4.74010000000000e+01 3.48773049994795e-05 8.73317373378617e-07
4.76150000000000e+01 3.36936597005468e-05 8.45581583777123e-07
4.78290000000000e+01 3.25501842540068e-05 8.18718389241370e-07
4.80430000000000e+01 3.14455153992251e-05 7.92700673893203e-07
4.82570000000000e+01 3.03783361410982e-05 7.67502150478424e-07
4.84710000000000e+01 2.93473741799219e-05 7.43097335641857e-07
4.86850000000000e+01 2.83514003945448e-05 7.19461525913931e-07
4.88990000000000e+01 2.73892273770006e-05 6.96570774389532e-07
4.91130000000000e+01 2.64597080168703e-05 6.74401868080275e-07
4.93270000000000e+01 2.55617341336885e-05 6.52932305921879e-07
4.95410000000000e+01 2.46942351557612e-05 6.32140277418720e-07
4.97550000000000e+01 2.38561768438220e-05 6.12004641908115e-07
4.99690000000000e+01 2.30465600580033e-05 5.92504908427239e-07
5.01830000000000e+01 2.22644195666542e-05 5.73621216166095e-07
5.03970000000000e+01 2.15088228955833e-05 5.55334315490413e-07
5.06110000000000e+01 2.07788692163551e-05 5.37625549518537e-07
5.08250000000000e+01 2.00736882723160e-05 5.20476836237030e-07
5.10390000000000e+01 1.93924393410662e-05 5.03870651139947e-07
5.12530000000000e+01 1.87343102321448e-05 4.87790010377127e-07
5.14670000000000e+01 1.80985163187287e-05 4.72218454397338e-07
5.16810000000000e+01 1.74842996021952e-05 4.57140032072339e-07
5.18950000000000e+01 1.68909278084291e-05 4.42539285288328e-07
5.21090000000000e+01 1.63176935148001e-05 4.28401233991651e-07
5.23230000000000e+01 1.57639133067678e-05 4.14711361675931e-07
5.25370000000000e+01 1.52289269631092e-05 4.01455601298105e-07
5.27510000000000e+01 1.47120966687977e-05 3.88620321611245e-07
5.29650000000000e+01 1.42128062545949e-05 3.76192313902312e-07
5.31790000000000e+01 1.37304604624489e-05 3.64158779123285e-07
5.33930000000000e+01 1.32644842358224e-05 3.52507315404487e-07
5.36070000000000e+01 1.28143220341061e-05 3.41225905939172e-07
5.38210000000000e+01 1.23794371702983e-05 3.30302907228748e-07
5.40350000000000e+01 1.19593111711629e-05 3.19727037678279e-07
5.42490000000000e+01 1.15534431591009e-05 3.09487366532213e-07
5.44630000000000e+01 1.11613492550002e-05 2.99573303140555e-07
5.46770000000000e+01 1.07825620013513e-05 2.89974586545942e-07
5.48910000000000e+01 1.04166298049405e-05 2.80681275382366e-07
5.51050000000000e+01 1.00631163984567e-05 2.71683738076503e-07
5.53190000000000e+01 9.72160032037031e-06 2.62972643342913e-07
5.55330000000000e+01 9.39167441246314e-06 2.54538950964588e-07
5.57470000000000e+01 9.07294533441126e-06 2.46373902850512e-07
5.59610000000000e+01 8.76503309484146e-06 2.38469014362205e-07
5.61750000000000e+01 8.46757059830244e-06 2.30816065901415e-07
5.63890000000000e+01 8.18020320761068e-06 2.23407094751291e-07
5.66030000000000e+01 7.90258832104915e-06 2.16234387163680e-07
5.68170000000000e+01 7.63439496391478e-06 2.09290470685313e-07
5.70310000000000e+01 7.37530339392771e-06 2.02568106715873e-07
5.72450000000000e+01 7.12500472003204e-06 1.96060283291151e-07
5.74590000000000e+01 6.88320053413337e-06 1.89760208084660e-07
5.76730000000000e+01 6.64960255533428e-06 1.83661301621295e-07
5.78870000000000e+01 6.42393228624355e-06 1.77757190696767e-07
5.81010000000000e+01 6.20592068094929e-06 1.72041701996746e-07
5.83150000000000e+01 5.99530782426028e-06 1.66508855909831e-07
5.85290000000000e+01 5.79184262183292e-06 1.61152860528581e-07
5.87430000000000e+01 5.59528250081460e-06 1.55968105833046e-07
5.89570000000000e+01 5.40539312064638e-06 1.50949158051413e-07
5.91710000000000e+01 5.22194809368023e-06 1.46090754192471e-07
5.93850000000000e+01 5.04472871527794e-06 1.41387796744795e-07
5.95990000000000e+01 4.87352370306961e-06 1.36835348537719e-07
5.98130000000000e+01 4.70812894506118e-06 1.32428627759232e-07
6.00270000000000e+01 4.54834725629040e-06 1.28163003126151e-07
6.02410000000000e+01 4.39398814374137e-06 1.24033989202012e-07
6.04550000000000e+01 4.24486757923723e-06 1.20037241858259e-07
6.06690000000000e+01 4.10080778004028e-06 1.16168553874458e-07
6.08830000000000e+01 3.96163699689796e-06 1.12423850673352e-07
6.10970000000000e+01 3.82718930928202e-06 1.08799186186738e-07
6.13110000000000e+01 3.69730442757672e-06 1.05290738848217e-07
6.15250000000000e+01 3.57182750198028e-06 1.01894807709025e-07
6.17390000000000e+01 3.45060893789168e-06 9.86078086732273e-08
6.19530000000000e+01 3.33350421756276e-06 9.54262708487005e-08
6.21670000000000e+01 3.22037372780303e-06 9.23468330103968e-08
6.23810000000000e+01 3.11108259353170e-06 8.93662401725189e-08
6.25950000000000e+01 3.00550051697848e-06 8.64813402663082e-08
6.28090000000000e+01 2.90350162234157e-06 8.36890809202672e-08
6.30230000000000e+01 2.80496430571750e-06 8.09865063397033e-08
6.32370000000000e+01 2.70977109012398e-06 7.83707542826029e-08
6.34510000000000e+01 2.61780848544290e-06 7.58390531289146e-08
6.36650000000000e+01 2.52896685311647e-06 7.33887190404011e-08
6.38790000000000e+01 2.44314027543529e-06 7.10171532083246e-08
6.40930000000000e+01 2.36022642926240e-06 6.87218391862912e-08
6.43070000000000e+01 2.28012646404276e-06 6.65003403056676e-08
6.45210000000000e+01 2.20274488395288e-06 6.43502971710619e-08
6.47350000000000e+01 2.12798943404992e-06 6.22694252334291e-08
6.49490000000000e+01 2.05577099028458e-06 6.02555124384354e-08
6.51630000000000e+01 1.98600345324670e-06 5.83064169477905e-08
6.53770000000000e+01 1.91860364551688e-06 5.64200649313211e-08
6.55910000000000e+01 1.85349121250162e-06 5.45944484276226e-08
6.58050000000000e+01 1.79058852663403e-06 5.28276232712006e-08
6.60190000000000e+01 1.72982059482551e-06 5.11177070840615e-08
6.62330000000000e+01 1.67111496905848e-06 4.94628773297872e-08
6.64470000000000e+01 1.61440166001319e-06 4.78613694281755e-08
6.66610000000000e+01 1.55961305362597e-06 4.63114749285938e-08
6.68750000000000e+01 1.50668383047911e-06 4.48115397402451e-08
6.70890000000000e+01 1.45555088792661e-06 4.33599624175997e-08
6.73030000000000e+01 1.40615326486263e-06 4.19551924992995e-08
6.75170000000000e+01 1.35843206904322e-06 4.05957288988914e-08
