Energy (eV)          EEDF (eV^-(3/2))     First Anisotropy
8.83695652173913e-04 9.84739625621913e+00 5.14530414624906e-03
2.65108695652174e-03 9.77371302412457e+00 8.49312477992357e-03
4.41847826086957e-03 9.70058112737741e+00 1.12033208599328e-02
6.18586956521739e-03 9.62799644078941e+00 1.32570717134045e-02
7.95326086956522e-03 9.55595486972354e+00 1.49656221543330e-02
9.72065217391305e-03 9.48445235041061e+00 1.64467542409650e-02
1.14880434782609e-02 9.41348484947727e+00 1.77614716375937e-02
1.32554347826087e-02 9.34304836351753e+00 1.89466428905990e-02
1.50228260869565e-02 9.27313891920633e+00 2.00267396545566e-02
1.67902173913043e-02 9.20375257294926e+00 2.10190718787633e-02
1.85576086956522e-02 9.13488541066007e+00 2.19364635085872e-02
2.03250000000000e-02 9.06653354753973e+00 2.27887563982505e-02
2.20923913043478e-02 8.99869312757324e+00 2.35837172433980e-02
2.38597826086957e-02 8.93136032419177e+00 2.43276153245007e-02
2.56271739130435e-02 8.86453133914566e+00 2.50256069149479e-02
2.73945652173913e-02 8.79820240260652e+00 2.56820002570911e-02
2.91619565217391e-02 8.73236977295434e+00 2.63004438882719e-02
3.09293478260870e-02 8.66702973656629e+00 2.68840638590008e-02
3.26967391304348e-02 8.60217860760712e+00 2.74355659299986e-02
3.44641304347826e-02 8.53781272782113e+00 2.79573131443309e-02
3.62315217391304e-02 8.47392846632579e+00 2.84513856977090e-02
3.79989130434783e-02 8.41052221940685e+00 2.89196278336519e-02
3.97663043478261e-02 8.34759041031503e+00 2.93636850624651e-02
4.15336956521739e-02 8.28512948906423e+00 2.97850340520418e-02
4.33010869565217e-02 8.22313593223087e+00 3.01850068909930e-02
4.50684782608696e-02 8.16160624275597e+00 3.05648109757211e-02
4.68358695652174e-02 8.10053694974732e+00 3.09255454554949e-02
4.86032608695652e-02 8.03992460828378e+00 3.12682149416865e-02
5.03706521739131e-02 7.97976579922090e+00 3.15937410218564e-02
5.21380434782609e-02 7.92005712899805e+00 3.19029719968267e-02
5.39054347826087e-02 7.86079522944696e+00 3.21966911675398e-02
5.56728260869565e-02 7.80197675760175e+00 3.24756239294472e-02
5.74402173913044e-02 7.74359839551035e+00 3.27404438795116e-02
5.92076086956522e-02 7.68565685004730e+00 3.29917781002838e-02
6.09750000000000e-02 7.62814885272801e+00 3.32302117643339e-02
6.27423913043478e-02 7.57107115944257e+00 3.34562921148369e-02
6.45097826086957e-02 7.51442055052178e+00 3.36705320057614e-02
6.62771739130435e-02 7.45819383030265e+00 3.38734130213914e-02
6.80445652173913e-02 7.40238782703383e+00 3.40653881825529e-02
6.98119565217391e-02 7.34699939269662e+00 3.42468843865269e-02
7.15793478260870e-02 7.29202540282744e+00 3.44183045687924e-02
7.33467391304348e-02 7.23746275634155e+00 3.45800296330395e-02
7.51141304347826e-02 7.18330837535813e+00 3.47324201795123e-02
7.68815217391304e-02 7.12955920502662e+00 3.48758180571870e-02
7.86489130434783e-02 7.07621221335446e+00 3.50105477615594e-02
8.04163043478261e-02 7.02326439103599e+00 3.51369176966826e-02
8.21836956521739e-02 6.97071275128272e+00 3.52552213174706e-02
8.39510869565217e-02 6.91855432965479e+00 3.53657381660497e-02
8.57184782608696e-02 6.86678618389384e+00 3.54687348141640e-02
8.74858695652174e-02 6.81540539375703e+00 3.55644657220105e-02
8.92532608695652e-02 6.76440906085226e+00 3.56531740224965e-02
9.10206521739131e-02 6.71379430847468e+00 3.57350922388586e-02
9.27880434782609e-02 6.66355828144442e+00 3.58104429425551e-02
9.45554347826087e-02 6.61369814594551e+00 3.58794393575093e-02
9.63228260869565e-02 6.56421108936607e+00 3.59422859160563e-02
9.80902173913044e-02 6.51509432013959e+00 3.59991787713240e-02
9.98576086956522e-02 6.46634506758750e+00 3.60503062498051e-02
1.01625000000000e-01 6.41796058188898e+00 3.60958493980641e-02
1.03392391304348e-01 6.36993813325262e+00 3.61359821819160e-02
1.05159782608696e-01 6.32227501315398e+00 3.61708719590230e-02
1.06927173913043e-01 6.27496853290524e+00 3.62006800512854e-02
1.08694565217391e-01 6.22801602355375e+00 3.62255616624853e-02
1.10461956521739e-01 6.18141483690120e+00 3.62456663850838e-02
1.12229347826087e-01 6.13516234416520e+00 3.62611386132152e-02
1.13996739130435e-01 6.08925593623405e+00 3.62721176644332e-02
1.15764130434783e-01 6.04369302317074e+00 3.62787379105746e-02
1.17531521739130e-01 5.99847103512619e+00 3.62811291316669e-02
1.19298913043478e-01 5.95358742111945e+00 3.62794169119981e-02
1.21066304347826e-01 5.90903964893195e+00 3.62737224787480e-02
1.22833695652174e-01 5.86482520595662e+00 3.62641630743357e-02
1.24601086956522e-01 5.82094159804814e+00 3.62508523074645e-02
1.26368478260870e-01 5.77738634941896e+00 3.62338999723715e-02
1.28135869565217e-01 5.73415700342947e+00 3.62134123818840e-02
1.29903260869565e-01 5.69125112150489e+00 3.61894926821668e-02
1.31670652173913e-01 5.64866628302950e+00 3.61622406588062e-02
1.33438043478261e-01 5.60640008608558e+00 3.61317530369287e-02
1.35205434782609e-01 5.56445014643057e+00 3.60981237151734e-02
1.36972826086957e-01 5.52281409766205e+00 3.60614437681651e-02
1.38740217391304e-01 5.48148959082069e+00 3.60218014627332e-02
1.40507608695652e-01 5.44047429505927e+00 3.59792824668044e-02
1.42275000000000e-01 5.39976589669860e+00 3.59339701001282e-02
1.44042391304348e-01 5.35936209912346e+00 3.58859451280898e-02
1.45809782608696e-01 5.31926062340867e+00 3.58352860037955e-02
1.47577173913044e-01 5.27945920742401e+00 3.57820690984727e-02
1.49344565217391e-01 5.23995560573112e+00 3.57263684932230e-02
1.51111956521739e-01 5.20074759017065e+00 3.56682562024108e-02
1.52879347826087e-01 5.16183294901320e+00 3.56078023423341e-02
1.54646739130435e-01 5.12320948707902e+00 3.55450751014380e-02
1.56414130434783e-01 5.08487502539688e+00 3.54801407238693e-02
1.58181521739130e-01 5.04682740173973e+00 3.54130636630139e-02
1.59948913043478e-01 5.00906446983624e+00 3.53439067741458e-02
1.61716304347826e-01 4.97158409926942e+00 3.52727311095531e-02
1.63483695652174e-01 4.93438417598005e+00 3.51995961065334e-02
1.65251086956522e-01 4.89746260151555e+00 3.51245597672121e-02
1.67018478260870e-01 4.86081729293084e+00 3.50476784558887e-02
1.68785869565217e-01 4.82444618326161e+00 3.49690070752726e-02
1.70553260869565e-01 4.78834722080917e+00 3.48885992352263e-02
1.72320652173913e-01 4.75251836904194e+00 3.48065070530339e-02
1.74088043478261e-01 4.71695760704170e+00 3.47227813188801e-02
1.75855434782609e-01 4.68166292882198e+00 3.46374716172141e-02
1.77622826086957e-01 4.64663234340609e+00 3.45506262816987e-02
1.79390217391304e-01 4.61186387454329e+00 3.44622923619664e-02
1.81157608695652e-01 4.57735556111804e+00 3.43725157358281e-02
1.82925000000000e-01 4.54310545651249e+00 3.42813412557682e-02
1.84692391304348e-01 4.50911162851142e+00 3.41888125592696e-02
1.86459782608696e-01 4.47537215968829e+00 3.40949722131378e-02
1.88227173913043e-01 4.44188514679595e+00 3.39998618521903e-02
1.89994565217391e-01 4.40864870067317e+00 3.39035219936350e-02
1.91761956521739e-01 4.37566094660923e+00 3.38059921739039e-02
1.93529347826087e-01 4.34292002376160e+00 3.37073110470827e-02
1.95296739130435e-01 4.31042408521167e+00 3.36075163372104e-02
1.97064130434783e-01 4.27817129771549e+00 3.35066448010649e-02
1.98831521739130e-01 4.24615984203971e+00 3.34047323198391e-02
2.00598913043478e-01 4.21438791241495e+00 3.33018140219007e-02
2.02366304347826e-01 4.18285371644552e+00 3.31979241083708e-02
2.04133695652174e-01 4.15155547542708e+00 3.30930959744225e-02
2.05901086956522e-01 4.12049142382267e+00 3.29873623261702e-02
2.07668478260870e-01 4.08965980917453e+00 3.28807550105823e-02
2.09435869565217e-01 4.05905889240439e+00 3.27733051312614e-02
2.11203260869565e-01 4.02868694731167e+00 3.26650431600844e-02
2.12970652173913e-01 3.99854226048632e+00 3.25559987714655e-02
2.14738043478261e-01 3.96862313159355e+00 3.24462009528552e-02
2.16505434782609e-01 3.93892787289269e+00 3.23356780830304e-02
2.18272826086957e-01 3.90945480927155e+00 3.22244578853814e-02
2.20040217391304e-01 3.88020227803429e+00 3.21125673901537e-02
2.21807608695652e-01 3.85116862916447e+00 3.20000330078073e-02
2.23575000000000e-01 3.82235222487130e+00 3.18868806293326e-02
2.25342391304348e-01 3.79375143950642e+00 3.17731354714759e-02
2.27109782608696e-01 3.76536465981312e+00 3.16588221762318e-02
2.28877173913044e-01 3.73719028449062e+00 3.15439649069808e-02
2.30644565217391e-01 3.70922672411239e+00 3.14285871978868e-02
2.32411956521739e-01 3.68147240136254e+00 3.13127120492902e-02
2.34179347826087e-01 3.65392575061743e+00 3.11963619945368e-02
2.35946739130435e-01 3.62658521796828e+00 3.10795590557638e-02
2.37714130434783e-01 3.59944926103234e+00 3.09623247075773e-02
2.39481521739130e-01 3.57251634917213e+00 3.08446799398571e-02
2.41248913043478e-01 3.54578496309985e+00 3.07266453449379e-02
2.43016304347826e-01 3.51925359479914e+00 3.06082409772377e-02
2.44783695652174e-01 3.49292074773305e+00 3.04894864397531e-02
2.46551086956522e-01 3.46678493646344e+00 3.03704009677951e-02
2.48318478260870e-01 3.44084468657450e+00 3.02510032925058e-02
2.50085869565217e-01 3.41509853487010e+00 3.01313117240879e-02
2.51853260869565e-01 3.38954502900779e+00 3.00113442324095e-02
2.53620652173913e-01 3.36418272742344e+00 2.98911183143192e-02
2.55388043478261e-01 3.33901019951908e+00 2.97706510736707e-02
2.57155434782609e-01 3.31402602531052e+00 2.96499592769550e-02
2.58922826086957e-01 3.28922879543860e+00 2.95290593128827e-02
2.60690217391304e-01 3.26461711100608e+00 2.94079671587199e-02
2.62457608695652e-01 3.24018958375203e+00 2.92866984327063e-02
2.64225000000000e-01 3.21594483571775e+00 2.91652684676514e-02
2.65992391304348e-01 3.19188149917499e+00 2.90436921873784e-02
2.67759782608696e-01 3.16799821679168e+00 2.89219841798739e-02
2.69527173913044e-01 3.14429364131004e+00 2.88001587682302e-02
2.71294565217391e-01 3.12076643547624e+00 2.86782298905629e-02
2.73061956521739e-01 3.09741527219806e+00 2.85562111705324e-02
2.74829347826087e-01 3.07423883423468e+00 2.84341159660216e-02
2.76596739130435e-01 3.05123581420161e+00 2.83119573318751e-02
2.78364130434783e-01 3.02840491442423e+00 2.81897479886201e-02
2.80131521739130e-01 3.00574484708448e+00 2.80675003683979e-02
2.81898913043478e-01 2.98325433392634e+00 2.79452266800686e-02
2.83666304347826e-01 2.96093210618863e+00 2.78229387973804e-02
2.85433695652174e-01 2.93877690474461e+00 2.77006483236621e-02
2.87201086956522e-01 2.91678747981776e+00 2.75783666546408e-02
2.88968478260870e-01 2.89496259091610e+00 2.74561048697655e-02
2.90735869565217e-01 2.87330100696498e+00 2.73338737947028e-02
2.92503260869565e-01 2.85180150603294e+00 2.72116840620479e-02
2.94270652173913e-01 2.83046287526725e+00 2.70895460057114e-02
2.96038043478261e-01 2.80928391102041e+00 2.69674697212530e-02
2.97805434782609e-01 2.78826341858567e+00 2.68454651073548e-02
2.99572826086957e-01 2.76740021219561e+00 2.67235418324220e-02
3.01340217391304e-01 2.74669311489451e+00 2.66017093063402e-02
3.03107608695652e-01 2.72614095865612e+00 2.64799767196463e-02
3.04875000000000e-01 2.70574258413192e+00 2.63583530994493e-02
3.06642391304348e-01 2.68549684058969e+00 2.62368472110441e-02
3.08409782608696e-01 2.66540258602585e+00 2.61154676135169e-02
3.10177173913044e-01 2.64545868692212e+00 2.59942227138174e-02
3.11944565217391e-01 2.62566401818553e+00 2.58731206711379e-02
3.13711956521739e-01 2.60601746325534e+00 2.57521694506918e-02
3.15479347826087e-01 2.58651791386811e+00 2.56313768604992e-02
3.17246739130435e-01 2.56716427005303e+00 2.55107505208430e-02
3.19014130434783e-01 2.54795544001649e+00 2.53902978383194e-02
3.20781521739130e-01 2.52889034024186e+00 2.52700260406098e-02
3.22548913043478e-01 2.50996789526564e+00 2.51499422264454e-02
3.24316304347826e-01 2.49118703762017e+00 2.50300532764856e-02
3.26083695652174e-01 2.47254670792878e+00 2.49103659029758e-02
3.27851086956522e-01 2.45404585468923e+00 2.47908866980819e-02
3.29618478260870e-01 2.43568343421783e+00 2.46716220472630e-02
3.31385869565217e-01 2.41745841073998e+00 2.45525781773642e-02
3.33153260869565e-01 2.39936975618098e+00 2.44337612034386e-02
3.34920652173913e-01 2.38141645011106e+00 2.43151770445434e-02
3.36688043478261e-01 2.36359747983196e+00 2.41968314702787e-02
3.38455434782609e-01 2.34591184017446e+00 2.40787301325541e-02
3.40222826086957e-01 2.32835853349056e+00 2.39608785383843e-02
3.41990217391304e-01 2.31093656955201e+00 2.38432820266627e-02
3.43757608695652e-01 2.29364496563107e+00 2.37259457982062e-02
3.45525000000000e-01 2.27648274630726e+00 2.36088749591107e-02
3.47292391304348e-01 2.25944894341529e+00 2.34920744422170e-02
3.49059782608696e-01 2.24254259612189e+00 2.33755490502219e-02
3.50827173913044e-01 2.22576275073898e+00 2.32593034976864e-02
3.52594565217391e-01 2.20910846067255e+00 2.31433423346876e-02
3.54361956521739e-01 2.19257878649608e+00 2.30276699885860e-02
3.56129347826087e-01 2.17617279576967e+00 2.29122907924479e-02
3.57896739130435e-01 2.15988956303042e+00 2.27972089602235e-02
3.59664130434783e-01 2.14372816970041e+00 2.26824285654830e-02
3.61431521739131e-01 2.12768770415528e+00 2.25679535683082e-02
3.63198913043478e-01 2.11176726155141e+00 2.24537878542766e-02
3.64966304347826e-01 2.09596594377734e+00 2.23399351632062e-02
3.66733695652174e-01 2.08028285951914e+00 2.22263991278999e-02
3.68501086956522e-01 2.06471712409308e+00 2.21131833119231e-02
3.70268478260870e-01 2.04926785939813e+00 2.20002911403224e-02
3.72035869565217e-01 2.03393419397828e+00 2.18877259372059e-02
3.73803260869565e-01 2.01871526286060e+00 2.17754909623893e-02
3.75570652173913e-01 2.00361020750857e+00 2.16635893440318e-02
3.77338043478261e-01 1.98861817588174e+00 2.15520241150579e-02
3.79105434782609e-01 1.97373832227876e+00 2.14407982379035e-02
3.80872826086957e-01 1.95896980732624e+00 2.13299145824496e-02
3.82640217391304e-01 1.94431179789748e+00 2.12193759070551e-02
3.84407608695652e-01 1.92976346716810e+00 2.11091848819802e-02
3.86175000000000e-01 1.91532399446593e+00 2.09993441234425e-02
3.87942391304348e-01 1.90099256522674e+00 2.08898561307040e-02
3.89709782608696e-01 1.88676837104737e+00 2.07807233199293e-02
3.91477173913044e-01 1.87265060954021e+00 2.06719480572270e-02
3.93244565217391e-01 1.85863848428992e+00 2.05635325974630e-02
3.95011956521739e-01 1.84473120490411e+00 2.04554791171070e-02
3.96779347826087e-01 1.83092798687240e+00 2.03477897364953e-02
3.98546739130435e-01 1.81722805155448e+00 2.02404664997067e-02
4.00314130434783e-01 1.80363062610618e+00 2.01335113572190e-02
4.02081521739130e-01 1.79013494352676e+00 2.00269261869835e-02
4.03848913043478e-01 1.77674024252404e+00 1.99207128251825e-02
4.05616304347826e-01 1.76344576747314e+00 1.98148730090528e-02
4.07383695652174e-01 1.75025076846175e+00 1.97094084074475e-02
4.09151086956522e-01 1.73715450115923e+00 1.96043206506732e-02
4.10918478260870e-01 1.72415622677638e+00 1.94996112748744e-02
4.12685869565217e-01 1.71125521210856e+00 1.93952817517093e-02
4.14453260869565e-01 1.69845072940883e+00 1.92913335173291e-02
4.16220652173913e-01 1.68574205634852e+00 1.91877679182751e-02
4.17988043478261e-01 1.67312847605844e+00 1.90845862402733e-02
4.19755434782609e-01 1.66060927700585e+00 1.89817897277323e-02
4.21522826086957e-01 1.64818375298207e+00 1.88793795658515e-02
4.23290217391304e-01 1.63585120303680e+00 1.87773568651661e-02
4.25057608695652e-01 1.62361093151667e+00 1.86757226800099e-02
4.26825000000000e-01 1.61146224794730e+00 1.85744780355138e-02
4.28592391304348e-01 1.59940446699585e+00 1.84736238770173e-02
4.30359782608696e-01 1.58743690850781e+00 1.83731610969034e-02
4.32127173913044e-01 1.57555889739255e+00 1.82730905608176e-02
4.33894565217391e-01 1.56376976358673e+00 1.81734130584501e-02
4.35661956521739e-01 1.55206884208936e+00 1.80741293295931e-02
4.37429347826087e-01 1.54045547285085e+00 1.79752400817508e-02
4.39196739130435e-01 1.52892900076043e+00 1.78767459738120e-02
4.40964130434783e-01 1.51748877558623e+00 1.77786476019242e-02
4.42731521739130e-01 1.50613415200806e+00 1.76809455161669e-02
4.44498913043478e-01 1.49486448951102e+00 1.75836402450099e-02
4.46266304347826e-01 1.48367915235063e+00 1.74867322492728e-02
4.48033695652174e-01 1.47257750958418e+00 1.73902219464193e-02
4.49801086956522e-01 1.46155893496743e+00 1.72941097343066e-02
4.51568478260870e-01 1.45062280692051e+00 1.71983959463830e-02
4.53335869565217e-01 1.43976850855787e+00 1.71030808752988e-02
4.55103260869565e-01 1.42899542758797e+00 1.70081647959912e-02
4.56870652173913e-01 1.41830295627999e+00 1.69136479220828e-02
4.58638043478261e-01 1.40769049149231e+00 1.68195304288103e-02
4.60405434782609e-01 1.39715743457526e+00 1.67258124685142e-02
4.62172826086957e-01 1.38670319135857e+00 1.66324941561162e-02
4.63940217391304e-01 1.37632717209802e+00 1.65395755565274e-02
4.65707608695652e-01 1.36602879150211e+00 1.64470566993148e-02
4.67475000000000e-01 1.35580746863867e+00 1.63549376002504e-02
4.69242391304348e-01 1.34566262690318e+00 1.62632182204976e-02
4.71009782608696e-01 1.33559369404421e+00 1.61718984880208e-02
4.72777173913044e-01 1.32560010207276e+00 1.60809783185264e-02
4.74544565217391e-01 1.31568128723124e+00 1.59904575757395e-02
4.76311956521739e-01 1.30583669001778e+00 1.59003360922107e-02
4.78079347826087e-01 1.29606575509816e+00 1.58106136833443e-02
4.79846739130435e-01 1.28636793129345e+00 1.57212901341360e-02
4.81614130434783e-01 1.27674267153122e+00 1.56323651876593e-02
4.83381521739131e-01 1.26718943286820e+00 1.55438385583501e-02
4.85148913043478e-01 1.25770767640571e+00 1.54557099515771e-02
4.86916304347826e-01 1.24829686726026e+00 1.53679790264408e-02
4.88683695652174e-01 1.23895647458517e+00 1.52806454152061e-02
4.90451086956522e-01 1.22968597148842e+00 1.51937087423185e-02
4.92218478260870e-01 1.22048483500388e+00 1.51071685881913e-02
4.93985869565217e-01 1.21135254611195e+00 1.50210245081020e-02
4.95753260869565e-01 1.20228858965975e+00 1.49352760506868e-02
4.97520652173913e-01 1.19329245433301e+00 1.48499227226905e-02
4.99288043478261e-01 1.18436363267570e+00 1.47649640073269e-02
5.01055434782609e-01 1.17550162101255e+00 1.46803993766598e-02
5.02822826086957e-01 1.16670591943705e+00 1.45962282797957e-02
5.04590217391304e-01 1.15797603176792e+00 1.45124501326140e-02
5.06357608695652e-01 1.14931146556744e+00 1.44290643294920e-02
5.08125000000000e-01 1.14071173206700e+00 1.43460702605923e-02
5.09892391304348e-01 1.13217634614038e+00 1.42634672788355e-02
5.11659782608696e-01 1.12370482632121e+00 1.41812547170698e-02
5.13427173913044e-01 1.11529669473065e+00 1.40994319048811e-02
5.15194565217391e-01 1.10695147705122e+00 1.40179981364383e-02
5.16961956521739e-01 1.09866870254347e+00 1.39369526871895e-02
5.18729347826087e-01 1.09044790397569e+00 1.38562948250987e-02
5.20496739130435e-01 1.08228861761224e+00 1.37760237998557e-02
5.22264130434783e-01 1.07419038317366e+00 1.36961388334818e-02
5.24031521739130e-01 1.06615274385218e+00 1.36166391309701e-02
5.25798913043478e-01 1.05817524624418e+00 1.35375238960192e-02
5.27566304347826e-01 1.05025744032535e+00 1.34587923008889e-02
5.29333695652174e-01 1.04239887946546e+00 1.33804435020151e-02
5.31101086956522e-01 1.03459912036272e+00 1.33024766553072e-02
5.32868478260870e-01 1.02685772301945e+00 1.32248908867965e-02
5.34635869565217e-01 1.01917425075625e+00 1.31476853078289e-02
5.36403260869565e-01 1.01154827014807e+00 1.30708590299447e-02
5.38170652173913e-01 1.00397935100049e+00 1.29944111362997e-02
5.39938043478261e-01 9.96467066363184e-01 1.29183406964365e-02
5.41705434782609e-01 9.89010992467823e-01 1.28426467762271e-02
5.43472826086957e-01 9.81610708716926e-01 1.27673284282563e-02
5.45240217391304e-01 9.74265797648201e-01 1.26923846834348e-02
5.47007608695652e-01 9.66975844947065e-01 1.26178145604156e-02
5.48775000000000e-01 9.59740439386941e-01 1.25436170795231e-02
5.50542391304348e-01 9.52559172806697e-01 1.24697912359518e-02
5.52309782608696e-01 9.45431640122565e-01 1.23963360135940e-02
5.54077173913044e-01 9.38357439270091e-01 1.23232503985923e-02
5.55844565217391e-01 9.31336171182065e-01 1.22505333532376e-02
5.57611956521739e-01 9.24367439799875e-01 1.21781838294200e-02
