Energy (eV)          EEDF (eV^-(3/2))     First Anisotropy
1.88135593220339e-04 6.89600834009646e+01 2.60872398066233e-02
5.64406779661017e-04 6.85578791499721e+01 4.30967075041603e-02
9.40677966101695e-04 6.81580207231018e+01 5.69435828430659e-02
1.31694915254237e-03 6.77604944388014e+01 6.74942922640070e-02
1.69322033898305e-03 6.73652866945693e+01 7.63195226511089e-02
2.06949152542373e-03 6.69723839694051e+01 8.40122274511216e-02
2.44576271186441e-03 6.65817728180123e+01 9.08788181574043e-02
2.82203389830509e-03 6.61934398750452e+01 9.71040671642445e-02
3.19830508474576e-03 6.58073718539504e+01 1.02810348233651e-01
3.57457627118644e-03 6.54235555439021e+01 1.08084032788185e-01
3.95084745762712e-03 6.50419778126289e+01 1.12988969127864e-01
4.32711864406780e-03 6.46626256031941e+01 1.17574051822163e-01
4.70338983050848e-03 6.42854859354343e+01 1.21877782828840e-01
5.07966101694915e-03 6.39105459053680e+01 1.25931174249611e-01
5.45593220338983e-03 6.35377926833218e+01 1.29759677911373e-01
5.83220338983051e-03 6.31672135149185e+01 1.33384514796750e-01
6.20847457627119e-03 6.27987957205542e+01 1.36823618846191e-01
6.58474576271187e-03 6.24325266938147e+01 1.40092324037938e-01
6.96101694915254e-03 6.20683939021887e+01 1.43203875674690e-01
7.33728813559322e-03 6.17063848865765e+01 1.46169818224892e-01
7.71355932203390e-03 6.13464872599126e+01 1.49000294316174e-01
8.08983050847458e-03 6.09886887076938e+01 1.51704278728963e-01
8.46610169491526e-03 6.06329769875066e+01 1.54289764024934e-01
8.84237288135593e-03 6.02793399278038e+01 1.56763909407247e-01
9.21864406779661e-03 5.99277654285305e+01 1.59133161491725e-01
9.59491525423729e-03 5.95782414597345e+01 1.61403353204275e-01
9.97118644067797e-03 5.92307560618623e+01 1.63579785426189e-01
1.03474576271186e-02 5.88852973459112e+01 1.65667295170735e-01
1.07237288135593e-02 5.85418534904107e+01 1.67670312584859e-01
1.11000000000000e-02 5.82004127438678e+01 1.69592909138461e-01
1.14762711864407e-02 5.78609634233213e+01 1.71438838748058e-01
1.18525423728814e-02 5.75234939139491e+01 1.73211572818898e-01
1.22288135593220e-02 5.71879926686762e+01 1.74914330415955e-01
1.26050847457627e-02 5.68544482077736e+01 1.76550104275591e-01
1.29813559322034e-02 5.65228491200193e+01 1.78121683667499e-01
1.33576271186441e-02 5.61931840575921e+01 1.79631674005870e-01
1.37338983050847e-02 5.58654417404560e+01 1.81082514041683e-01
1.41101694915254e-02 5.55396109543625e+01 1.82476491297689e-01
1.44864406779661e-02 5.52156805504634e+01 1.83815755447155e-01
1.48627118644068e-02 5.48936394449409e+01 1.85102330230796e-01
1.52389830508475e-02 5.45734766186223e+01 1.86338123992774e-01
1.56152542372881e-02 5.42551811178357e+01 1.87524939311088e-01
1.59915254237288e-02 5.39387420502972e+01 1.88664481321235e-01
1.63677966101695e-02 5.36241485885160e+01 1.89758365188624e-01
1.67440677966102e-02 5.33113899681512e+01 1.90808123108726e-01
1.71203389830509e-02 5.30004554876396e+01 1.91815210398341e-01
1.74966101694915e-02 5.26913345078364e+01 1.92781011058241e-01
1.78728813559322e-02 5.23840164516496e+01 1.93706842762734e-01
1.82491525423729e-02 5.20784908046861e+01 1.94593961598519e-01
1.86254237288136e-02 5.17747471118354e+01 1.95443566120762e-01
1.90016949152542e-02 5.14727749799979e+01 1.96256801055320e-01
1.93779661016949e-02 5.11725640766903e+01 1.97034760932819e-01
1.97542372881356e-02 5.08741041296911e+01 1.97778493216999e-01
2.01305084745763e-02 5.05773849266896e+01 1.98489001224008e-01
2.05067796610170e-02 5.02823963149395e+01 1.99167246805656e-01
2.08830508474576e-02 4.99891282009093e+01 1.99814152773517e-01
2.12593220338983e-02 4.96975705507644e+01 2.00430605316956e-01
2.16355932203390e-02 4.94077133875202e+01 2.01017456008647e-01
2.20118644067797e-02 4.91195467932259e+01 2.01575523659835e-01
2.23881355932203e-02 4.88330609077764e+01 2.02105596263619e-01
2.27644067796610e-02 4.85482459285718e+01 2.02608432618146e-01
2.31406779661017e-02 4.82650921101878e+01 2.03084763879079e-01
2.35169491525424e-02 4.79835897640393e+01 2.03535294962233e-01
2.38932203389831e-02 4.77037292587535e+01 2.03960706014607e-01
2.42694915254237e-02 4.74255010177092e+01 2.04361653580571e-01
2.46457627118644e-02 4.71488955208580e+01 2.04738771689883e-01
2.50220338983051e-02 4.68739033036762e+01 2.05092673079377e-01
2.53983050847458e-02 4.66005149568397e+01 2.05423950172743e-01
2.57745762711864e-02 4.63287211259041e+01 2.05733176038882e-01
2.61508474576271e-02 4.60585125109845e+01 2.06020905290635e-01
2.65271186440678e-02 4.57898798664367e+01 2.06287674890872e-01
2.69033898305085e-02 4.55228140011390e+01 2.06534005058505e-01
2.72796610169492e-02 4.52573057763698e+01 2.06760399935597e-01
2.76559322033898e-02 4.49933461073167e+01 2.06967348213939e-01
2.80322033898305e-02 4.47309259621532e+01 2.07155323911463e-01
2.84084745762712e-02 4.44700363617292e+01 2.07324786956071e-01
2.87847457627119e-02 4.42106683792661e+01 2.07476183773759e-01
2.91610169491525e-02 4.39528131400498e+01 2.07609947810138e-01
2.95372881355932e-02 4.36964618216490e+01 2.07726500159163e-01
2.99135593220339e-02 4.34416056520364e+01 2.07826249989047e-01
3.02898305084746e-02 4.31882359108771e+01 2.07909594943746e-01
3.06661016949153e-02 4.29363439286970e+01 2.07976921694647e-01
3.10423728813559e-02 4.26859210865845e+01 2.08028606327240e-01
3.14186440677966e-02 4.24369588158982e+01 2.08065014742099e-01
3.17949152542373e-02 4.21894485979727e+01 2.08086503004520e-01
3.21711864406780e-02 4.19433819642859e+01 2.08093417801409e-01
3.25474576271187e-02 4.16987504947827e+01 2.08086096720620e-01
3.29237288135593e-02 4.14555458189833e+01 2.08064868514657e-01
3.33000000000000e-02 4.12137596152279e+01 2.08030053509800e-01
3.36762711864407e-02 4.09733836103916e+01 2.07981963870044e-01
3.40525423728814e-02 4.07344095796019e+01 2.07920903880043e-01
3.44288135593220e-02 4.04968293459576e+01 2.07847170215140e-01
3.48050847457627e-02 4.02606347802485e+01 2.07761052170475e-01
3.51813559322034e-02 4.00258178010784e+01 2.07662831993598e-01
3.55576271186441e-02 3.97923703733773e+01 2.07552785060745e-01
3.59338983050847e-02 3.95602845093460e+01 2.07431180043067e-01
3.63101694915254e-02 3.93295522677735e+01 2.07298279210673e-01
3.66864406779661e-02 3.91001657537642e+01 2.07154338608087e-01
3.70627118644068e-02 3.88721171184700e+01 2.06999608251108e-01
3.74389830508475e-02 3.86453985588202e+01 2.06834332289141e-01
3.78152542372881e-02 3.84200023176127e+01 2.06658749265923e-01
3.81915254237288e-02 3.81959206821682e+01 2.06473092238636e-01
3.85677966101695e-02 3.79731459851538e+01 2.06277588889923e-01
3.89440677966102e-02 3.77516706039556e+01 2.06072461769947e-01
3.93203389830509e-02 3.75314869604175e+01 2.05857928421640e-01
3.96966101694915e-02 3.73125875205825e+01 2.05634201527842e-01
4.00728813559322e-02 3.70949647944351e+01 2.05401489028289e-01
4.04491525423729e-02 3.68786113359653e+01 2.05159994329654e-01
4.08254237288136e-02 3.66635197419459e+01 2.04909916386254e-01
4.12016949152542e-02 3.64496826526532e+01 2.04651449775330e-01
4.15779661016949e-02 3.62370927512886e+01 2.04384784894709e-01
4.19542372881356e-02 3.60257427637277e+01 2.04110108053564e-01
4.23305084745763e-02 3.58156254582720e+01 2.03827601584637e-01
4.27067796610170e-02 3.56067336454013e+01 2.03537443952472e-01
4.30830508474576e-02 3.53990601775280e+01 2.03239809835262e-01
4.34593220338983e-02 3.51925979490368e+01 2.02934870293646e-01
4.38355932203390e-02 3.49873398951821e+01 2.02622792821818e-01
4.42118644067797e-02 3.47832789927114e+01 2.02303741394500e-01
4.45881355932203e-02 3.45804082593346e+01 2.01977876628047e-01
4.49644067796610e-02 3.43787207534848e+01 2.01645355843848e-01
4.53406779661017e-02 3.41782095740818e+01 2.01306333152622e-01
4.57169491525424e-02 3.39788678602954e+01 2.00960959515079e-01
4.60932203389831e-02 3.37806887915681e+01 2.00609382884116e-01
4.64694915254237e-02 3.35836655866043e+01 2.00251748238310e-01
4.68457627118644e-02 3.33877915039207e+01 1.99888197612038e-01
4.72220338983051e-02 3.31930598413533e+01 1.99518870232585e-01
4.75983050847458e-02 3.29994639358273e+01 1.99143902566915e-01
4.79745762711864e-02 3.28069971631300e+01 1.98763428388424e-01
4.83508474576271e-02 3.26156529376842e+01 1.98377578841623e-01
4.87271186440678e-02 3.24254247123223e+01 1.97986482485407e-01
4.91033898305085e-02 3.22363059782935e+01 1.97590265412431e-01
4.94796610169492e-02 3.20482902643443e+01 1.97189051268511e-01
4.98559322033898e-02 3.18613711371977e+01 1.96782961269276e-01
5.02322033898305e-02 3.16755422010985e+01 1.96372114316421e-01
5.06084745762712e-02 3.14907970975938e+01 1.95956627030715e-01
5.09847457627119e-02 3.13071295053162e+01 1.95536613804063e-01
5.13610169491526e-02 3.11245331397672e+01 1.95112186831924e-01
5.17372881355932e-02 3.09430017533121e+01 1.94683456217096e-01
5.21135593220339e-02 3.07625291343326e+01 1.94250529980576e-01
5.24898305084746e-02 3.05831091076515e+01 1.93813514069934e-01
5.28661016949153e-02 3.04047355341079e+01 1.93372512461183e-01
5.32423728813559e-02 3.02274023103467e+01 1.92927627183161e-01
5.36186440677966e-02 3.00511033686106e+01 1.92478958359927e-01
5.39949152542373e-02 2.98758326765317e+01 1.92026604235025e-01
5.43711864406780e-02 2.97015842371177e+01 1.91570661262761e-01
5.47474576271186e-02 2.95283520879669e+01 1.91111224112868e-01
5.51237288135593e-02 2.93561303016472e+01 1.90648385672896e-01
5.55000000000000e-02 2.91849129852977e+01 1.90182237138441e-01
5.58762711864407e-02 2.90146942804268e+01 1.89712868031038e-01
5.62525423728814e-02 2.88454683627124e+01 1.89240366232984e-01
5.66288135593220e-02 2.86772294418023e+01 1.88764818021351e-01
5.70050847457627e-02 2.85099717611159e+01 1.88286308085325e-01
5.73813559322034e-02 2.83436895978211e+01 1.87804919606033e-01
5.77576271186441e-02 2.81783772621147e+01 1.87320734256080e-01
5.81338983050848e-02 2.80140290975544e+01 1.86833832197067e-01
5.85101694915254e-02 2.78506394806884e+01 1.86344292159039e-01
5.88864406779661e-02 2.76882028208632e+01 1.85852191452759e-01
5.92627118644068e-02 2.75267135600325e+01 1.85357605997982e-01
5.96389830508475e-02 2.73661661725670e+01 1.84860610336302e-01
6.00152542372881e-02 2.72065551652241e+01 1.84361277702691e-01
6.03915254237288e-02 2.70478750764801e+01 1.83859680021902e-01
6.07677966101695e-02 2.68901204768263e+01 1.83355887903001e-01
6.11440677966102e-02 2.67332859684209e+01 1.82849970710949e-01
6.15203389830509e-02 2.65773661849047e+01 1.82341996575234e-01
6.18966101694915e-02 2.64223557912172e+01 1.81832032413607e-01
6.22728813559322e-02 2.62682494834145e+01 1.81320143941480e-01
6.26491525423729e-02 2.61150419886336e+01 1.80806395736416e-01
6.30254237288136e-02 2.59627280644710e+01 1.80290851232308e-01
6.34016949152542e-02 2.58113024992470e+01 1.79773572711795e-01
6.37779661016949e-02 2.56607601116786e+01 1.79254621371099e-01
6.41542372881356e-02 2.55110957507020e+01 1.78734057325887e-01
6.45305084745763e-02 2.53623042952967e+01 1.78211939631344e-01
6.49067796610170e-02 2.52143806543103e+01 1.77688326301875e-01
6.52830508474576e-02 2.50673197662839e+01 1.77163274317379e-01
6.56593220338983e-02 2.49211165994125e+01 1.76636839681075e-01
6.60355932203390e-02 2.47757661509710e+01 1.76109077411837e-01
6.64118644067797e-02 2.46312634475466e+01 1.75580041534876e-01
6.67881355932203e-02 2.44876035447338e+01 1.75049785140132e-01
6.71644067796610e-02 2.43447815269646e+01 1.74518360385633e-01
6.75406779661017e-02 2.42027925073411e+01 1.73985818514299e-01
6.79169491525424e-02 2.40616316274675e+01 1.73452209858223e-01
6.82932203389831e-02 2.39212940574073e+01 1.72917583891418e-01
6.86694915254237e-02 2.37817749951471e+01 1.72381989221091e-01
6.90457627118644e-02 2.36430696668051e+01 1.71845473577332e-01
6.94220338983051e-02 2.35051733263427e+01 1.71308083866611e-01
6.97983050847458e-02 2.33680812554021e+01 1.70769866173505e-01
7.01745762711865e-02 2.32317887631451e+01 1.70230865775125e-01
7.05508474576271e-02 2.30962911860923e+01 1.69691127155279e-01
7.09271186440678e-02 2.29615838879638e+01 1.69150694006856e-01
7.13033898305085e-02 2.28276622596327e+01 1.68609609279661e-01
7.16796610169492e-02 2.26945217186288e+01 1.68067915170878e-01
7.20559322033898e-02 2.25621577093221e+01 1.67525653114005e-01
7.24322033898305e-02 2.24305657026529e+01 1.66982863827468e-01
7.28084745762712e-02 2.22997411959770e+01 1.66439587315002e-01
7.31847457627119e-02 2.21696797129114e+01 1.65895862877827e-01
7.35610169491526e-02 2.20403768031814e+01 1.65351729115916e-01
7.39372881355932e-02 2.19118280425721e+01 1.64807223972010e-01
7.43135593220339e-02 2.17840290324636e+01 1.64262384721610e-01
7.46898305084746e-02 2.16569753999952e+01 1.63717247961583e-01
7.50661016949153e-02 2.15306627978111e+01 1.63171849655053e-01
7.54423728813559e-02 2.14050869039108e+01 1.62626225130786e-01
7.58186440677966e-02 2.12802434215014e+01 1.62080409093788e-01
7.61949152542373e-02 2.11561280788509e+01 1.61534435625629e-01
7.65711864406780e-02 2.10327366292384e+01 1.60988338225085e-01
7.69474576271187e-02 2.09100648505175e+01 1.60442149797913e-01
7.73237288135593e-02 2.07881085452650e+01 1.59895902645254e-01
7.77000000000000e-02 2.06668635405383e+01 1.59349628505183e-01
7.80762711864407e-02 2.05463256877336e+01 1.58803358551395e-01
7.84525423728814e-02 2.04264908624431e+01 1.58257123402439e-01
7.88288135593220e-02 2.03073549643146e+01 1.57710953130807e-01
7.92050847457627e-02 2.01889139169108e+01 1.57164877262389e-01
7.95813559322034e-02 2.00711636676582e+01 1.56618924813726e-01
7.99576271186441e-02 1.99541001874420e+01 1.56073124281681e-01
8.03338983050847e-02 1.98377194707363e+01 1.55527503631804e-01
8.07101694915254e-02 1.97220175353768e+01 1.54982090336485e-01
8.10864406779661e-02 1.96069904224250e+01 1.54436911373012e-01
8.14627118644068e-02 1.94926341960327e+01 1.53891993231543e-01
8.18389830508475e-02 1.93789449433072e+01 1.53347361914023e-01
8.22152542372881e-02 1.92659187742594e+01 1.52803042968730e-01
8.25915254237288e-02 1.91535518214234e+01 1.52259061479981e-01
8.29677966101695e-02 1.90418402399727e+01 1.51715442056631e-01
8.33440677966102e-02 1.89307802075058e+01 1.51172208867539e-01
8.37203389830509e-02 1.88203679239146e+01 1.50629385639203e-01
8.40966101694915e-02 1.87105996112551e+01 1.50086995662811e-01
8.44728813559322e-02 1.86014715136177e+01 1.49545061792682e-01
8.48491525423729e-02 1.84929798970756e+01 1.49003606478428e-01
8.52254237288136e-02 1.83851210493258e+01 1.48462651754803e-01
8.56016949152543e-02 1.82778912797946e+01 1.47922219230292e-01
8.59779661016949e-02 1.81712869194329e+01 1.47382330120219e-01
8.63542372881356e-02 1.80653043205913e+01 1.46843005244104e-01
8.67305084745763e-02 1.79599398568949e+01 1.46304265031817e-01
8.71067796610170e-02 1.78551899231194e+01 1.45766129529678e-01
8.74830508474576e-02 1.77510509350676e+01 1.45228618398551e-01
8.78593220338983e-02 1.76475193295173e+01 1.44691750943571e-01
8.82355932203390e-02 1.75445915638872e+01 1.44155546104095e-01
8.86118644067797e-02 1.74422641163287e+01 1.43620022442610e-01
8.89881355932204e-02 1.73405334855340e+01 1.43085198175364e-01
8.93644067796610e-02 1.72393961906167e+01 1.42551091169405e-01
8.97406779661017e-02 1.71388487709920e+01 1.42017718948007e-01
9.01169491525424e-02 1.70388877862591e+01 1.41485098688507e-01
9.04932203389831e-02 1.69395098161486e+01 1.40953247250044e-01
9.08694915254237e-02 1.68407114602074e+01 1.40422181163789e-01
9.12457627118644e-02 1.67424893378818e+01 1.39891916622084e-01
9.16220338983051e-02 1.66448400883348e+01 1.39362469507100e-01
9.19983050847458e-02 1.65477603703313e+01 1.38833855387742e-01
9.23745762711864e-02 1.64512468621235e+01 1.38306089524442e-01
9.27508474576271e-02 1.63552962613377e+01 1.37779186873896e-01
9.31271186440678e-02 1.62599052848607e+01 1.37253162086687e-01
9.35033898305085e-02 1.61650706687888e+01 1.36728029533006e-01
9.38796610169492e-02 1.60707891681326e+01 1.36203803293172e-01
9.42559322033898e-02 1.59770575568903e+01 1.35680497147102e-01
9.46322033898305e-02 1.58838726278754e+01 1.35158124600888e-01
9.50084745762712e-02 1.57912311926069e+01 1.34636698883612e-01
9.53847457627119e-02 1.56991300812006e+01 1.34116232951553e-01
9.57610169491526e-02 1.56075661422603e+01 1.33596739485729e-01
9.61372881355932e-02 1.55165362428266e+01 1.33078230915951e-01
9.65135593220339e-02 1.54260372680993e+01 1.32560719411611e-01
9.68898305084746e-02 1.53360661215021e+01 1.32044216871495e-01
9.72661016949153e-02 1.52466197245190e+01 1.31528734948719e-01
9.76423728813560e-02 1.51576950165894e+01 1.31014285047470e-01
9.80186440677966e-02 1.50692889550033e+01 1.30500878326769e-01
9.83949152542373e-02 1.49813985147967e+01 1.29988525697921e-01
9.87711864406780e-02 1.48940206887016e+01 1.29477237847095e-01
9.91474576271187e-02 1.48071524868835e+01 1.28967025226394e-01
9.95237288135593e-02 1.47207909369991e+01 1.28457898043971e-01
9.99000000000000e-02 1.46349330840409e+01 1.27949866311841e-01
1.00276271186441e-01 1.45495759900326e+01 1.27442939756868e-01
1.00652542372881e-01 1.44647167346440e+01 1.26937127897355e-01
1.01028813559322e-01 1.43803524142689e+01 1.26432440098705e-01
1.01405084745763e-01 1.42964801422355e+01 1.25928885473401e-01
1.01781355932203e-01 1.42130970487090e+01 1.25426472981719e-01
1.02157627118644e-01 1.41302002801076e+01 1.24925211258302e-01
1.02533898305085e-01 1.40477870004678e+01 1.24425108732112e-01
1.02910169491525e-01 1.39658543898765e+01 1.23926173754505e-01
1.03286440677966e-01 1.38843996448676e+01 1.23428414416125e-01
1.03662711864407e-01 1.38034199783257e+01 1.22931838612294e-01
1.04038983050847e-01 1.37229126193914e+01 1.22436454101820e-01
1.04415254237288e-01 1.36428748129088e+01 1.21942268341297e-01
1.04791525423729e-01 1.35633038207108e+01 1.21449288599417e-01
1.05167796610170e-01 1.34841969201384e+01 1.20957522079148e-01
1.05544067796610e-01 1.34055514044117e+01 1.20466975742741e-01
1.05920338983051e-01 1.33273645825384e+01 1.19977656427827e-01
1.06296610169492e-01 1.32496337787845e+01 1.19489570687868e-01
1.06672881355932e-01 1.31723563339000e+01 1.19002724902050e-01
1.07049152542373e-01 1.30955296037035e+01 1.18517125392865e-01
1.07425423728814e-01 1.30191509594353e+01 1.18032778257531e-01
1.07801694915254e-01 1.29432177876679e+01 1.17549689479667e-01
1.08177966101695e-01 1.28677274897998e+01 1.17067864775527e-01
1.08554237288136e-01 1.27926774832236e+01 1.16587309699760e-01
1.08930508474576e-01 1.27180651999735e+01 1.16108029758552e-01
1.09306779661017e-01 1.26438880870612e+01 1.15630030247237e-01
1.09683050847458e-01 1.25701436063883e+01 1.15153316307893e-01
1.10059322033898e-01 1.24968292346600e+01 1.14677892981066e-01
1.10435593220339e-01 1.24239424629045e+01 1.14203765058866e-01
1.10811864406780e-01 1.23514807975753e+01 1.13730937185787e-01
1.11188135593220e-01 1.22794417592712e+01 1.13259413966710e-01
1.11564406779661e-01 1.22078228830518e+01 1.12789199811662e-01
1.11940677966102e-01 1.21366217183535e+01 1.12320299038371e-01
1.12316949152542e-01 1.20658358285292e+01 1.11852715730687e-01
1.12693220338983e-01 1.19954627918997e+01 1.11386453835596e-01
1.13069491525424e-01 1.19255002005300e+01 1.10921517267235e-01
1.13445762711864e-01 1.18559456605291e+01 1.10457909757264e-01
1.13822033898305e-01 1.17867967919680e+01 1.09995634907738e-01
1.14198305084746e-01 1.17180512287990e+01 1.09534696238583e-01
1.14574576271186e-01 1.16497066184178e+01 1.09075097052190e-01
1.14950847457627e-01 1.15817606226573e+01 1.08616840526031e-01
1.15327118644068e-01 1.15142109166278e+01 1.08159929811955e-01
1.15703389830508e-01 1.14470551889993e+01 1.07704367893135e-01
1.16079661016949e-01 1.13802911419227e+01 1.07250157678343e-01
1.16455932203390e-01 1.13139164906105e+01 1.06797301871492e-01
1.16832203389831e-01 1.12479289642853e+01 1.06345803060747e-01
1.17208474576271e-01 1.11823263050698e+01 1.05895663814188e-01
1.17584745762712e-01 1.11171062682557e+01 1.05446886541897e-01
1.17961016949153e-01 1.10522666222266e+01 1.04999473586715e-01
1.18337288135593e-01 1.09878051480570e+01 1.04553427098488e-01
1.18713559322034e-01 1.09237196404168e+01 1.04108749119872e-01
