Energy (eV)          EEDF (eV^-(3/2))     First Anisotropy
8.04687500000000e-04 6.86765966824219e+00 3.07864683634347e-03
2.41406250000000e-03 6.83084780415808e+00 5.08719831482912e-03
4.02343750000000e-03 6.79423325815309e+00 6.72489661998522e-03
5.63281250000000e-03 6.75781497255917e+00 7.97469567238176e-03
7.24218750000000e-03 6.72159189538437e+00 9.02171210481306e-03
8.85156250000000e-03 6.68556298027667e+00 9.93578226998474e-03
1.04609375000000e-02 6.64972718649297e+00 1.07529712508444e-02
1.20703125000000e-02 6.61408347886888e+00 1.14950134139954e-02
1.36796875000000e-02 6.57863082778871e+00 1.21762943945535e-02
1.52890625000000e-02 6.54336820915574e+00 1.28069613215215e-02
1.68984375000000e-02 6.50829460436257e+00 1.33945106357615e-02
1.85078125000000e-02 6.47340900026176e+00 1.39446795267838e-02
2.01171875000000e-02 6.43871038913649e+00 1.44619829638669e-02
2.17265625000000e-02 6.40419776867152e+00 1.49500553745562e-02
2.33359375000000e-02 6.36987014192418e+00 1.54118777297496e-02
2.49453125000000e-02 6.33572651729559e+00 1.58499339616880e-02
2.65546875000000e-02 6.30176590850200e+00 1.62663219725145e-02
2.81640625000000e-02 6.26798733454635e+00 1.66628344390716e-02
2.97734375000000e-02 6.23438981968987e+00 1.70410189287593e-02
3.13828125000000e-02 6.20097239342394e+00 1.74022234800891e-02
3.29921875000000e-02 6.16773409044203e+00 1.77476317430113e-02
3.46015625000000e-02 6.13467395061181e+00 1.80782904730464e-02
3.62109375000000e-02 6.10179101894745e+00 1.83951313279814e-02
3.78203125000000e-02 6.06908434558200e+00 1.86989883532046e-02
3.94296875000000e-02 6.03655298573997e+00 1.89906121589613e-02
4.10390625000000e-02 6.00419599971003e+00 1.92706815272832e-02
4.26484375000000e-02 5.97201245281787e+00 1.95398129989137e-02
4.42578125000000e-02 5.94000141539918e+00 1.97985688560909e-02
4.58671875000000e-02 5.90816196277286e+00 2.00474638192185e-02
4.74765625000000e-02 5.87649317521421e+00 2.02869707033156e-02
4.90859375000000e-02 5.84499413792846e+00 2.05175252262426e-02
5.06953125000000e-02 5.81366394102427e+00 2.07395301200681e-02
5.23046875000000e-02 5.78250167948748e+00 2.09533586659163e-02
5.39140625000000e-02 5.75150645315500e+00 2.11593577487252e-02
5.55234375000000e-02 5.72067736668872e+00 2.13578505098009e-02
5.71328125000000e-02 5.69001352954976e+00 2.15491386604821e-02
5.87421875000000e-02 5.65951405597263e+00 2.17335045087394e-02
6.03515625000000e-02 5.62917806493973e+00 2.19112127413850e-02
6.19609375000000e-02 5.59900468015586e+00 2.20825119972438e-02
6.35703125000000e-02 5.56899303002291e+00 2.22476362607303e-02
6.51796875000000e-02 5.53914224761470e+00 2.24068061004565e-02
6.67890625000000e-02 5.50945147065193e+00 2.25602297736055e-02
6.83984375000000e-02 5.47991984147726e+00 2.27081042135877e-02
7.00078125000000e-02 5.45054650703053e+00 2.28506159158326e-02
7.16171875000000e-02 5.42133061882418e+00 2.29879417343990e-02
7.32265625000000e-02 5.39227133291863e+00 2.31202496002337e-02
7.48359375000000e-02 5.36336780989802e+00 2.32476991703840e-02
7.64453125000000e-02 5.33461921484586e+00 2.33704424161950e-02
7.80546875000000e-02 5.30602471732101e+00 2.34886241574206e-02
7.96640625000000e-02 5.27758349133359e+00 2.36023825482837e-02
8.12734375000000e-02 5.24929471532120e+00 2.37118495207062e-02
8.28828125000000e-02 5.22115757212516e+00 2.38171511892941e-02
8.44921875000000e-02 5.19317124896688e+00 2.39184082220836e-02
8.61015625000000e-02 5.16533493742445e+00 2.40157361805542e-02
8.77109375000000e-02 5.13764783340919e+00 2.41092458320183e-02
8.93203125000000e-02 5.11010913714252e+00 2.41990434371001e-02
9.09296875000000e-02 5.08271805313280e+00 2.42852310147316e-02
9.25390625000000e-02 5.05547379015235e+00 2.43679065868051e-02
9.41484375000000e-02 5.02837556121463e+00 2.44471644043796e-02
9.57578125000000e-02 5.00142258355149e+00 2.45230951571434e-02
9.73671875000000e-02 4.97461407859052e+00 2.45957861676396e-02
9.89765625000000e-02 4.94794927193263e+00 2.46653215716120e-02
1.00585937500000e-01 4.92142739332964e+00 2.47317824856812e-02
1.02195312500000e-01 4.89504767666202e+00 2.47952471634362e-02
1.03804687500000e-01 4.86880935991680e+00 2.48557911409240e-02
1.05414062500000e-01 4.84271168516550e+00 2.49134873724167e-02
1.07023437500000e-01 4.81675389854230e+00 2.49684063572536e-02
1.08632812500000e-01 4.79093525022223e+00 2.50206162584768e-02
1.10242187500000e-01 4.76525499439950e+00 2.50701830139068e-02
1.11851562500000e-01 4.73971238926596e+00 2.51171704402516e-02
1.13460937500000e-01 4.71430669698972e+00 2.51616403307939e-02
1.15070312500000e-01 4.68903718369377e+00 2.52036525471305e-02
1.16679687500000e-01 4.66390311943482e+00 2.52432651054153e-02
1.18289062500000e-01 4.63890377818219e+00 2.52805342575098e-02
1.19898437500000e-01 4.61403843779688e+00 2.53155145674107e-02
1.21507812500000e-01 4.58930638001065e+00 2.53482589832962e-02
1.23117187500000e-01 4.56470689040534e+00 2.53788189054929e-02
1.24726562500000e-01 4.54023925839216e+00 2.54072442506588e-02
1.26335937500000e-01 4.51590277719122e+00 2.54335835124289e-02
1.27945312500000e-01 4.49169674381110e+00 2.54578838187782e-02
1.29554687500000e-01 4.46762045902853e+00 2.54801909863110e-02
1.31164062500000e-01 4.44367322736819e+00 2.55005495716812e-02
1.32773437500000e-01 4.41985435708265e+00 2.55190029203423e-02
1.34382812500000e-01 4.39616316013236e+00 2.55355932127786e-02
1.35992187500000e-01 4.37259895216578e+00 2.55503615083954e-02
1.37601562500000e-01 4.34916105249960e+00 2.55633477872089e-02
1.39210937500000e-01 4.32584878409913e+00 2.55745909894736e-02
1.40820312500000e-01 4.30266147355867e+00 2.55841290533702e-02
1.42429687500000e-01 4.27959845108211e+00 2.55919989508751e-02
1.44039062500000e-01 4.25665905046357e+00 2.55982367219198e-02
1.45648437500000e-01 4.23384260906812e+00 2.56028775069444e-02
1.47257812500000e-01 4.21114846781271e+00 2.56059555779302e-02
1.48867187500000e-01 4.18857597114707e+00 2.56075043680080e-02
1.50476562500000e-01 4.16612446703480e+00 2.56075564997221e-02
1.52085937500000e-01 4.14379330693452e+00 2.56061438120221e-02
1.53695312500000e-01 4.12158184578115e+00 2.56032973860582e-02
1.55304687500000e-01 4.09948944196728e+00 2.55990475698389e-02
1.56914062500000e-01 4.07751545732463e+00 2.55934240018272e-02
1.58523437500000e-01 4.05565925710560e+00 2.55864556335197e-02
1.60132812500000e-01 4.03392020996497e+00 2.55781707510619e-02
1.61742187500000e-01 4.01229768794161e+00 2.55685969959636e-02
1.63351562500000e-01 3.99079106644040e+00 2.55577613849524e-02
1.64960937500000e-01 3.96939972421416e+00 2.55456903290118e-02
1.66570312500000e-01 3.94812304334568e+00 2.55324096516440e-02
1.68179687500000e-01 3.92696040922992e+00 2.55179446063963e-02
1.69789062500000e-01 3.90591121055622e+00 2.55023198936956e-02
1.71398437500000e-01 3.88497483929065e+00 2.54855596770211e-02
1.73007812500000e-01 3.86415069065845e+00 2.54676875984380e-02
1.74617187500000e-01 3.84343816312656e+00 2.54487267935396e-02
1.76226562500000e-01 3.82283665838626e+00 2.54286999058190e-02
1.77835937500000e-01 3.80234558133584e+00 2.54076291004921e-02
1.79445312500000e-01 3.78196434006346e+00 2.53855360778080e-02
1.81054687500000e-01 3.76169234583002e+00 2.53624420858665e-02
1.82664062500000e-01 3.74152901305218e+00 2.53383679329655e-02
1.84273437500000e-01 3.72147375928541e+00 2.53133339994946e-02
1.85882812500000e-01 3.70152600520721e+00 2.52873602494079e-02
1.87492187500000e-01 3.68168517460032e+00 2.52604662412839e-02
1.89101562500000e-01 3.66195069433614e+00 2.52326711389940e-02
1.90710937500000e-01 3.64232199435810e+00 2.52039937220044e-02
1.92320312500000e-01 3.62279850766528e+00 2.51744523953158e-02
1.93929687500000e-01 3.60337967029595e+00 2.51440651990571e-02
1.95539062500000e-01 3.58406492131133e+00 2.51128498177659e-02
1.97148437500000e-01 3.56485370277935e+00 2.50808235893502e-02
1.98757812500000e-01 3.54574545975859e+00 2.50480035137439e-02
2.00367187500000e-01 3.52673964028218e+00 2.50144062612849e-02
2.01976562500000e-01 3.50783569534191e+00 2.49800481808155e-02
2.03585937500000e-01 3.48903307887234e+00 2.49449453075219e-02
2.05195312500000e-01 3.47033124773503e+00 2.49091133705148e-02
2.06804687500000e-01 3.45172966170288e+00 2.48725678001730e-02
2.08414062500000e-01 3.43322778344449e+00 2.48353237352592e-02
2.10023437500000e-01 3.41482507850865e+00 2.47973960297987e-02
2.11632812500000e-01 3.39652101530890e+00 2.47587992597520e-02
2.13242187500000e-01 3.37831506510817e+00 2.47195477294898e-02
2.14851562500000e-01 3.36020670200355e+00 2.46796554780574e-02
2.16460937500000e-01 3.34219540291102e+00 2.46391362852490e-02
2.18070312500000e-01 3.32428064755039e+00 2.45980036775050e-02
2.19679687500000e-01 3.30646191843029e+00 2.45562709336355e-02
2.21289062500000e-01 3.28873870083317e+00 2.45139510903688e-02
2.22898437500000e-01 3.27111048280046e+00 2.44710569477359e-02
2.24507812500000e-01 3.25357675511778e+00 2.44276010743023e-02
2.26117187500000e-01 3.23613701130024e+00 2.43835958122441e-02
2.27726562500000e-01 3.21879074757778e+00 2.43390532822878e-02
2.29335937500000e-01 3.20153746288065e+00 2.42939853885015e-02
2.30945312500000e-01 3.18437665882490e+00 2.42484038229447e-02
2.32554687500000e-01 3.16730783969804e+00 2.42023200702027e-02
2.34164062500000e-01 3.15033051244466e+00 2.41557454117897e-02
2.35773437500000e-01 3.13344418665222e+00 2.41086909304216e-02
2.37382812500000e-01 3.11664837453689e+00 2.40611675141831e-02
2.38992187500000e-01 3.09994259092942e+00 2.40131858605783e-02
2.40601562500000e-01 3.08332635326118e+00 2.39647564804670e-02
2.42210937500000e-01 3.06679918155018e+00 2.39158897019037e-02
2.43820312500000e-01 3.05036059838722e+00 2.38665956738677e-02
2.45429687500000e-01 3.03401012892210e+00 2.38168843698970e-02
2.47039062500000e-01 3.01774730084989e+00 2.37667655916307e-02
2.48648437500000e-01 3.00157164439730e+00 2.37162489722523e-02
2.50257812500000e-01 2.98548269230913e+00 2.36653439798504e-02
2.51867187500000e-01 2.96947997983472e+00 2.36140599206897e-02
2.53476562500000e-01 2.95356304471457e+00 2.35624059423992e-02
2.55085937500000e-01 2.93773142716697e+00 2.35103910370825e-02
2.56695312500000e-01 2.92198466987472e+00 2.34580240443464e-02
2.58304687500000e-01 2.90632231797193e+00 2.34053136542537e-02
2.59914062500000e-01 2.89074391903085e+00 2.33522684102052e-02
2.61523437500000e-01 2.87524902304885e+00 2.32988967117505e-02
2.63132812500000e-01 2.85983718243536e+00 2.32452068173323e-02
2.64742187500000e-01 2.84450795199900e+00 2.31912068469581e-02
2.66351562500000e-01 2.82926088893470e+00 2.31369047848129e-02
2.67960937500000e-01 2.81409555281088e+00 2.30823084818076e-02
2.69570312500000e-01 2.79901150555676e+00 2.30274256580633e-02
2.71179687500000e-01 2.78400831144969e+00 2.29722639053430e-02
2.72789062500000e-01 2.76908553710259e+00 2.29168306894200e-02
2.74398437500000e-01 2.75424275145139e+00 2.28611333523992e-02
2.76007812500000e-01 2.73947952574261e+00 2.28051791149774e-02
2.77617187500000e-01 2.72479543352096e+00 2.27489750786506e-02
2.79226562500000e-01 2.71019005061703e+00 2.26925282278761e-02
2.80835937500000e-01 2.69566295513503e+00 2.26358454321860e-02
2.82445312500000e-01 2.68121372744060e+00 2.25789334482480e-02
2.84054687500000e-01 2.66684195014870e+00 2.25217989218764e-02
2.85664062500000e-01 2.65254720811155e+00 2.24644483900106e-02
2.87273437500000e-01 2.63832908840663e+00 2.24068882826421e-02
2.88882812500000e-01 2.62418718032476e+00 2.23491249246977e-02
2.90492187500000e-01 2.61012107535823e+00 2.22911645378818e-02
2.92101562500000e-01 2.59613036718901e+00 2.22330132424794e-02
2.93710937500000e-01 2.58221465167699e+00 2.21746770591242e-02
2.95320312500000e-01 2.56837352684834e+00 2.21161619105232e-02
2.96929687500000e-01 2.55460659288388e+00 2.20574736231441e-02
2.98539062500000e-01 2.54091345210753e+00 2.19986179288724e-02
3.00148437500000e-01 2.52729370897480e+00 2.19396004666258e-02
3.01757812500000e-01 2.51374697006142e+00 2.18804267839378e-02
3.03367187500000e-01 2.50027284405193e+00 2.18211023385112e-02
3.04976562500000e-01 2.48687094172840e+00 2.17616324997371e-02
3.06585937500000e-01 2.47354087595914e+00 2.17020225501789e-02
3.08195312500000e-01 2.46028226168760e+00 2.16422776870298e-02
3.09804687500000e-01 2.44709471592118e+00 2.15824030235395e-02
3.11414062500000e-01 2.43397785772019e+00 2.15224035904111e-02
3.13023437500000e-01 2.42093130818683e+00 2.14622843371706e-02
3.14632812500000e-01 2.40795469045429e+00 2.14020501335096e-02
3.16242187500000e-01 2.39504762967580e+00 2.13417057705978e-02
3.17851562500000e-01 2.38220975301386e+00 2.12812559623696e-02
3.19460937500000e-01 2.36944068962942e+00 2.12207053467895e-02
3.21070312500000e-01 2.35674007067122e+00 2.11600584870901e-02
3.22679687500000e-01 2.34410752926509e+00 2.10993198729838e-02
3.24289062500000e-01 2.33154270050337e+00 2.10384939218524e-02
3.25898437500000e-01 2.31904522143438e+00 2.09775849799146e-02
3.27507812500000e-01 2.30661473105191e+00 2.09165973233696e-02
3.29117187500000e-01 2.29425087028482e+00 2.08555351595159e-02
3.30726562500000e-01 2.28195328198664e+00 2.07944026278534e-02
3.32335937500000e-01 2.26972161092529e+00 2.07332038011660e-02
3.33945312500000e-01 2.25755550377278e+00 2.06719426865774e-02
3.35554687500000e-01 2.24545460909501e+00 2.06106232265876e-02
3.37164062500000e-01 2.23341857734167e+00 2.05492493000952e-02
3.38773437500000e-01 2.22144706083605e+00 2.04878247233969e-02
3.40382812500000e-01 2.20953971376508e+00 2.04263532511686e-02
3.41992187500000e-01 2.19769619216930e+00 2.03648385774264e-02
3.43601562500000e-01 2.18591615393293e+00 2.03032843364764e-02
3.45210937500000e-01 2.17419925877401e+00 2.02416941038411e-02
3.46820312500000e-01 2.16254516823452e+00 2.01800713971693e-02
3.48429687500000e-01 2.15095354567066e+00 2.01184196771316e-02
3.50039062500000e-01 2.13942405624308e+00 2.00567423482959e-02
3.51648437500000e-01 2.12795636690724e+00 1.99950427599954e-02
3.53257812500000e-01 2.11655014640379e+00 1.99333242071704e-02
3.54867187500000e-01 2.10520506524896e+00 1.98715899312019e-02
3.56476562500000e-01 2.09392079572509e+00 1.98098431207316e-02
3.58085937500000e-01 2.08269701187114e+00 1.97480869124577e-02
3.59695312500000e-01 2.07153338947328e+00 1.96863243919262e-02
3.61304687500000e-01 2.06042960605551e+00 1.96245585943089e-02
3.62914062500000e-01 2.04938534087038e+00 1.95627925051603e-02
3.64523437500000e-01 2.03840027488968e+00 1.95010290611659e-02
3.66132812500000e-01 2.02747409079528e+00 1.94392711508750e-02
3.67742187500000e-01 2.01660647296989e+00 1.93775216154254e-02
3.69351562500000e-01 2.00579710748801e+00 1.93157832492542e-02
3.70960937500000e-01 1.99504568210684e+00 1.92540588007900e-02
3.72570312500000e-01 1.98435188625723e+00 1.91923509731417e-02
3.74179687500000e-01 1.97371541103477e+00 1.91306624247727e-02
3.75789062500000e-01 1.96313594919080e+00 1.90689957701601e-02
3.77398437500000e-01 1.95261319512359e+00 1.90073535804475e-02
3.79007812500000e-01 1.94214684486948e+00 1.89457383840850e-02
3.80617187500000e-01 1.93173659609410e+00 1.88841526674595e-02
3.82226562500000e-01 1.92138214808365e+00 1.88225988755112e-02
3.83835937500000e-01 1.91108320173623e+00 1.87610794123442e-02
3.85445312500000e-01 1.90083945955315e+00 1.86995966418244e-02
3.87054687500000e-01 1.89065062563037e+00 1.86381528881665e-02
3.88664062500000e-01 1.88051640564998e+00 1.85767504365166e-02
3.90273437500000e-01 1.87043650687161e+00 1.85153915335189e-02
3.91882812500000e-01 1.86041063812408e+00 1.84540783878747e-02
3.93492187500000e-01 1.85043850979691e+00 1.83928131708959e-02
3.95101562500000e-01 1.84051983383200e+00 1.83315980170471e-02
3.96710937500000e-01 1.83065432371528e+00 1.82704350244762e-02
3.98320312500000e-01 1.82084169446845e+00 1.82093262555402e-02
3.99929687500000e-01 1.81108166264074e+00 1.81482737373233e-02
4.01539062500000e-01 1.80137394630074e+00 1.80872794621441e-02
4.03148437500000e-01 1.79171826502822e+00 1.80263453880554e-02
4.04757812500000e-01 1.78211433990607e+00 1.79654734393344e-02
4.06367187500000e-01 1.77256189351222e+00 1.79046655069688e-02
4.07976562500000e-01 1.76306064991163e+00 1.78439234491326e-02
4.09585937500000e-01 1.75361033464831e+00 1.77832490916555e-02
4.11195312500000e-01 1.74421067473742e+00 1.77226442284862e-02
4.12804687500000e-01 1.73486139865737e+00 1.76621106221445e-02
4.14414062500000e-01 1.72556223634194e+00 1.76016500041689e-02
4.16023437500000e-01 1.71631291917255e+00 1.75412640755575e-02
4.17632812500000e-01 1.70711317997044e+00 1.74809545072027e-02
4.19242187500000e-01 1.69796275298899e+00 1.74207229403166e-02
4.20851562500000e-01 1.68886137390602e+00 1.73605709868531e-02
4.22460937500000e-01 1.67980877981616e+00 1.73005002299191e-02
4.24070312500000e-01 1.67080470922327e+00 1.72405122241849e-02
4.25679687500000e-01 1.66184890203287e+00 1.71806084962856e-02
4.27289062500000e-01 1.65294109954463e+00 1.71207905452130e-02
4.28898437500000e-01 1.64408104444490e+00 1.70610598427089e-02
4.30507812500000e-01 1.63526848079927e+00 1.70014178336472e-02
4.32117187500000e-01 1.62650315404520e+00 1.69418659364102e-02
4.33726562500000e-01 1.61778481098464e+00 1.68824055432629e-02
4.35335937500000e-01 1.60911319977673e+00 1.68230380207173e-02
4.36945312500000e-01 1.60048806993050e+00 1.67637647098936e-02
4.38554687500000e-01 1.59190917229770e+00 1.67045869268771e-02
4.40164062500000e-01 1.58337625906552e+00 1.66455059630692e-02
4.41773437500000e-01 1.57488908374947e+00 1.65865230855297e-02
4.43382812500000e-01 1.56644740118629e+00 1.65276395373171e-02
4.44992187500000e-01 1.55805096752682e+00 1.64688565378256e-02
4.46601562500000e-01 1.54969954022897e+00 1.64101752831143e-02
4.48210937500000e-01 1.54139287805072e+00 1.63515969462329e-02
4.49820312500000e-01 1.53313074104315e+00 1.62931226775408e-02
4.51429687500000e-01 1.52491289054353e+00 1.62347536050252e-02
4.53039062500000e-01 1.51673908916838e+00 1.61764908346100e-02
4.54648437500000e-01 1.50860910080663e+00 1.61183354504622e-02
4.56257812500000e-01 1.50052269061283e+00 1.60602885152974e-02
4.57867187500000e-01 1.49247962500033e+00 1.60023510706738e-02
4.59476562500000e-01 1.48447967163455e+00 1.59445241372886e-02
4.61085937500000e-01 1.47652259942626e+00 1.58868087152669e-02
4.62695312500000e-01 1.46860817852492e+00 1.58292057844462e-02
4.64304687500000e-01 1.46073618031202e+00 1.57717163046573e-02
4.65914062500000e-01 1.45290637739447e+00 1.57143412160024e-02
4.67523437500000e-01 1.44511854359809e+00 1.56570814391289e-02
4.69132812500000e-01 1.43737245396098e+00 1.55999378754981e-02
4.70742187500000e-01 1.42966788472712e+00 1.55429114076490e-02
4.72351562500000e-01 1.42200461333984e+00 1.54860028994610e-02
4.73960937500000e-01 1.41438241843541e+00 1.54292131964138e-02
4.75570312500000e-01 1.40680107983666e+00 1.53725431258404e-02
4.77179687500000e-01 1.39926037854661e+00 1.53159934971788e-02
4.78789062500000e-01 1.39176009674212e+00 1.52595651022177e-02
4.80398437500000e-01 1.38430001776766e+00 1.52032587153430e-02
4.82007812500000e-01 1.37687992612896e+00 1.51470750937761e-02
4.83617187500000e-01 1.36949960748689e+00 1.50910149778107e-02
4.85226562500000e-01 1.36215884865117e+00 1.50350790910495e-02
4.86835937500000e-01 1.35485743757429e+00 1.49792681406321e-02
4.88445312500000e-01 1.34759516334534e+00 1.49235828174635e-02
4.90054687500000e-01 1.34037181618393e+00 1.48680237964396e-02
4.91664062500000e-01 1.33318718743413e+00 1.48125917366661e-02
4.93273437500000e-01 1.32604106955843e+00 1.47572872816782e-02
4.94882812500000e-01 1.31893325613179e+00 1.47021110596549e-02
4.96492187500000e-01 1.31186354183560e+00 1.46470636836326e-02
4.98101562500000e-01 1.30483172245184e+00 1.45921457517148e-02
4.99710937500000e-01 1.29783759485710e+00 1.45373578472749e-02
5.01320312500000e-01 1.29088095701676e+00 1.44827005391635e-02
5.02929687500000e-01 1.28396160797915e+00 1.44281743819094e-02
5.04539062500000e-01 1.27707934786972e+00 1.43737799159145e-02
5.06148437500000e-01 1.27023397788528e+00 1.43195176676522e-02
5.07757812500000e-01 1.26342530028829e+00 1.42653881498596e-02
