Energy (eV)          EEDF (eV^-(3/2))     First Anisotropy
8.47272727272727e-03 2.53866226851798e-01 1.28037764275010e-04
2.54181818181818e-02 2.52276531208092e-01 2.11475710114649e-04
4.23636363636364e-02 2.50696790143620e-01 2.79301658877025e-04
5.93090909090909e-02 2.49126941328040e-01 3.30908634990788e-04
7.62545454545454e-02 2.47566922813657e-01 3.74015003645193e-04
9.32000000000000e-02 2.46016673046033e-01 4.11536353063475e-04
1.10145454545455e-01 2.44476130856097e-01 4.44980215878150e-04
1.27090909090909e-01 2.42945235446125e-01 4.75256186454764e-04
1.44036363636364e-01 2.41423926421054e-01 5.02967026901769e-04
1.60981818181818e-01 2.39912143740550e-01 5.28538407366355e-04
1.77927272727273e-01 2.38409827760528e-01 5.52285172868172e-04
1.94872727272727e-01 2.36916919192677e-01 5.74448565999543e-04
2.11818181818182e-01 2.35433359128535e-01 5.95218657624164e-04
2.28763636363636e-01 2.33959089035868e-01 6.14748631212131e-04
2.45709090909091e-01 2.32494050734437e-01 6.33164275037429e-04
2.62654545454545e-01 2.31038186421535e-01 6.50570525821447e-04
2.79600000000000e-01 2.29591438644363e-01 6.67056114836312e-04
2.96545454545455e-01 2.28153750320985e-01 6.82696950900651e-04
3.13490909090909e-01 2.26725064716664e-01 6.97558638825717e-04
3.30436363636364e-01 2.25305325461459e-01 7.11698389385067e-04
3.47381818181818e-01 2.23894476529536e-01 7.25166492872181e-04
3.64327272727273e-01 2.22492462254212e-01 7.38007472204803e-04
3.81272727272727e-01 2.21099227309575e-01 7.50260998304824e-04
3.98218181818182e-01 2.19714716720022e-01 7.61962622195601e-04
4.15163636363636e-01 2.18338875857737e-01 7.73144373474941e-04
4.32109090909091e-01 2.16971650429956e-01 7.83835246224684e-04
4.49054545454545e-01 2.15612986490549e-01 7.94061602465448e-04
4.66000000000000e-01 2.14262830424880e-01 8.03847508105536e-04
4.82945454545455e-01 2.12921128960052e-01 8.13215014651577e-04
4.99890909090909e-01 2.11587829151041e-01 8.22184397512585e-04
5.16836363636364e-01 2.10262878389819e-01 8.30774358445823e-04
5.33781818181818e-01 2.08946224392575e-01 8.39002198960088e-04
5.50727272727273e-01 2.07637815207883e-01 8.46883969277076e-04
5.67672727272727e-01 2.06337599204856e-01 8.54434597679495e-04
5.84618181818182e-01 2.05045525078295e-01 8.61668000943474e-04
6.01563636363636e-01 2.03761541846487e-01 8.68597184297240e-04
6.18509090909091e-01 2.02485598842540e-01 8.75234325611426e-04
6.35454545454545e-01 2.01217645721092e-01 8.81590851046015e-04
6.52400000000000e-01 1.99957632447944e-01 8.87677501684833e-04
6.69345454545454e-01 1.98705509306156e-01 8.93504392435345e-04
6.86290909090909e-01 1.97461226886307e-01 8.99081064559488e-04
7.03236363636364e-01 1.96224736092049e-01 9.04416532390420e-04
7.20181818181818e-01 1.94995988130924e-01 9.09519325275644e-04
7.37127272727273e-01 1.93774934519441e-01 9.14397525079338e-04
7.54072727272727e-01 1.92561527074389e-01 9.19058800351806e-04
7.71018181818182e-01 1.91355717915935e-01 9.23510435590623e-04
7.87963636363636e-01 1.90157459465626e-01 9.27759360634821e-04
8.04909090909091e-01 1.88966704439825e-01 9.31812174494365e-04
8.21854545454545e-01 1.87783405854005e-01 9.35675168317741e-04
8.38800000000000e-01 1.86607517014922e-01 9.39354346139760e-04
8.55745454545454e-01 1.85438991524569e-01 9.42855443698665e-04
8.72690909090909e-01 1.84277783272716e-01 9.46183945749705e-04
8.89636363636364e-01 1.83123846440559e-01 9.49345101817589e-04
9.06581818181818e-01 1.81977135493599e-01 9.52343940755626e-04
9.23527272727273e-01 1.80837605185008e-01 9.55185284028816e-04
9.40472727272727e-01 1.79705210548824e-01 9.57873758288742e-04
9.57418181818182e-01 1.78579906901890e-01 9.60413805668443e-04
9.74363636363636e-01 1.77461649842024e-01 9.62809695755697e-04
9.91309090909091e-01 1.76350395242748e-01 9.65065534288500e-04
1.00825454545455e+00 1.75246099256180e-01 9.67185271648364e-04
1.02520000000000e+00 1.74148718309956e-01 9.69172714671002e-04
1.04214545454545e+00 1.73058209094072e-01 9.71031527680715e-04
1.05909090909091e+00 1.71974528588602e-01 9.72765245838315e-04
1.07603636363636e+00 1.70897634022355e-01 9.74377279291303e-04
1.09298181818182e+00 1.69827482912208e-01 9.75870919570098e-04
1.10992727272727e+00 1.68764033021227e-01 9.77249345754661e-04
1.12687272727273e+00 1.67707242396409e-01 9.78515627506587e-04
1.14381818181818e+00 1.66657069337536e-01 9.79672738902478e-04
1.16076363636364e+00 1.65613472396758e-01 9.80723550339099e-04
1.17770909090909e+00 1.64576410403704e-01 9.81670841473718e-04
1.19465454545455e+00 1.63545842428210e-01 9.82517303538200e-04
1.21160000000000e+00 1.62521727813684e-01 9.83265543006825e-04
1.22854545454545e+00 1.61504026141171e-01 9.83918085606717e-04
1.24549090909091e+00 1.60492697261459e-01 9.84477379541169e-04
1.26243636363636e+00 1.59487701260404e-01 9.84945799073079e-04
1.27938181818182e+00 1.58488998489852e-01 9.85325647366392e-04
1.29632727272727e+00 1.57496549534160e-01 9.85619159700320e-04
1.31327272727273e+00 1.56510315239984e-01 9.85828504168330e-04
1.33021818181818e+00 1.55530256691278e-01 9.85955791840429e-04
1.34716363636364e+00 1.54556335208627e-01 9.86003068126948e-04
1.36410909090909e+00 1.53588512369234e-01 9.85972322442334e-04
1.38105454545455e+00 1.52626749976738e-01 9.85865488791331e-04
1.39800000000000e+00 1.51671010087885e-01 9.85684447645471e-04
1.41494545454545e+00 1.50721254983330e-01 9.85431028193389e-04
1.43189090909091e+00 1.49777447193384e-01 9.85107010014814e-04
1.44883636363636e+00 1.48839549469755e-01 9.84714125129832e-04
1.46578181818182e+00 1.47907524810413e-01 9.84254059495290e-04
1.48272727272727e+00 1.46981336432230e-01 9.83728454876391e-04
1.49967272727273e+00 1.46060947795006e-01 9.83138908602881e-04
1.51661818181818e+00 1.45146322580954e-01 9.82486981632627e-04
1.53356363636364e+00 1.44237424693914e-01 9.81774190264084e-04
1.55050909090909e+00 1.43334218275558e-01 9.81002013874293e-04
1.56745454545455e+00 1.42436667680486e-01 9.80171894771800e-04
1.58440000000000e+00 1.41544737497939e-01 9.79285239228230e-04
1.60134545454545e+00 1.40658392527644e-01 9.78343418864406e-04
1.61829090909091e+00 1.39777597800832e-01 9.77347771580790e-04
1.63523636363636e+00 1.38902318556791e-01 9.76299602837999e-04
1.65218181818182e+00 1.38032520263228e-01 9.75200186496179e-04
1.66912727272727e+00 1.37168168593503e-01 9.74050766001345e-04
1.68607272727273e+00 1.36309229446351e-01 9.72852553749377e-04
1.70301818181818e+00 1.35455668928760e-01 9.71606737776091e-04
1.71996363636364e+00 1.34607453355125e-01 9.70314474088744e-04
1.73690909090909e+00 1.33764549260595e-01 9.68976893120429e-04
1.75385454545455e+00 1.32926923380202e-01 9.67595099261964e-04
1.77080000000000e+00 1.32094542666811e-01 9.66170171458203e-04
1.78774545454545e+00 1.31267374270834e-01 9.64703164125930e-04
1.80469090909091e+00 1.30445385557642e-01 9.63195107695037e-04
1.82163636363636e+00 1.29628544087839e-01 9.61647009466274e-04
1.83858181818182e+00 1.28816817634152e-01 9.60059854102823e-04
1.85552727272727e+00 1.28010174162254e-01 9.58434604433685e-04
1.87247272727273e+00 1.27208581847149e-01 9.56772200664832e-04
1.88941818181818e+00 1.26412009058699e-01 9.55073566083161e-04
1.90636363636364e+00 1.25620424360764e-01 9.53339600062054e-04
1.92330909090909e+00 1.24833796522319e-01 9.51571183582052e-04
1.94025454545455e+00 1.24052094499755e-01 9.49769178629382e-04
1.95720000000000e+00 1.23275287451894e-01 9.47934428551578e-04
1.97414545454545e+00 1.22503344722757e-01 9.46067758701229e-04
1.99109090909091e+00 1.21736235856147e-01 9.44169976760072e-04
2.00803636363636e+00 1.20973930578875e-01 9.42241873345899e-04
2.02498181818182e+00 1.20216398814921e-01 9.40284222307949e-04
2.04192727272727e+00 1.19463610669101e-01 9.38297781300463e-04
2.05887272727273e+00 1.18715536440831e-01 9.36283290952068e-04
2.07581818181818e+00 1.17972146611765e-01 9.34241479814442e-04
2.09276363636364e+00 1.17233411844936e-01 9.32173058020135e-04
2.10970909090909e+00 1.16499302994106e-01 9.30078722082138e-04
2.12665454545455e+00 1.15769791088619e-01 9.27959154248729e-04
2.14360000000000e+00 1.15044847346069e-01 9.25815022719361e-04
2.16054545454545e+00 1.14324443157537e-01 9.23646982117014e-04
2.17749090909091e+00 1.13608550099911e-01 9.21455673684977e-04
2.19443636363636e+00 1.12897139921487e-01 9.19241725735690e-04
2.21138181818182e+00 1.12190184553963e-01 9.17005753829929e-04
2.22832727272727e+00 1.11487656098392e-01 9.14748361203853e-04
2.24527272727273e+00 1.10789526836851e-01 9.12470137949680e-04
2.26221818181818e+00 1.10095769221787e-01 9.10171665360247e-04
2.27916363636364e+00 1.09406355875181e-01 9.07853510189874e-04
2.29610909090909e+00 1.08721259596465e-01 9.05516228874181e-04
2.31305454545455e+00 1.08040453349464e-01 9.03160366885864e-04
2.33000000000000e+00 1.07363910273163e-01 9.00786458865691e-04
2.34694545454545e+00 1.06691603668962e-01 8.98395028982193e-04
2.36389090909091e+00 1.06023507011160e-01 8.95986591050532e-04
2.38083636363636e+00 1.05359593934515e-01 8.93561648876433e-04
2.39778181818182e+00 1.04699838244456e-01 8.91120696364439e-04
2.41472727272727e+00 1.04044213904937e-01 8.88664217846606e-04
2.43167272727273e+00 1.03392695048384e-01 8.86192687299268e-04
2.44861818181818e+00 1.02745255966455e-01 8.83706572189744e-04
2.46556363636364e+00 1.02101871109232e-01 8.81206328284481e-04
2.48250909090909e+00 1.01462515091974e-01 8.78692403388943e-04
2.49945454545455e+00 1.00827162683776e-01 8.76165236726483e-04
2.51640000000000e+00 1.00195788816786e-01 8.73625259016100e-04
2.53334545454545e+00 9.95683685751286e-02 8.71072892754591e-04
2.55029090909091e+00 9.89448772038871e-02 8.68508552286863e-04
2.56723636363636e+00 9.83252900982797e-02 8.65932644076813e-04
2.58418181818182e+00 9.77095828124195e-02 8.63345566770430e-04
2.60112727272727e+00 9.70977310487345e-02 8.60747711456348e-04
2.61807272727273e+00 9.64897106665096e-02 8.58139460929800e-04
2.63501818181818e+00 9.58854976738185e-02 8.55521193119532e-04
2.65196363636364e+00 9.52850682267484e-02 8.52893276388786e-04
2.66890909090909e+00 9.46883986351935e-02 8.50256072869631e-04
2.68585454545455e+00 9.40954653529489e-02 8.47609937875454e-04
2.70280000000000e+00 9.35062449856478e-02 8.44955219944753e-04
2.71974545454545e+00 9.29207142810756e-02 8.42292261067738e-04
2.73669090909091e+00 9.23388501369130e-02 8.39621396725361e-04
2.75363636363636e+00 9.17606295912645e-02 8.36942956107690e-04
2.77058181818182e+00 9.11860298302131e-02 8.34257262148207e-04
2.78752727272727e+00 9.06150281785569e-02 8.31564631734610e-04
2.80447272727273e+00 9.00476021071814e-02 8.28865375023933e-04
2.82141818181818e+00 8.94837292259786e-02 8.26159798510560e-04
2.83836363636364e+00 8.89233872831074e-02 8.23448200769054e-04
2.85530909090909e+00 8.83665541699875e-02 8.20730875440595e-04
2.87225454545455e+00 8.78132079126047e-02 8.18008110683447e-04
2.88920000000000e+00 8.72633266783774e-02 8.15280189194782e-04
2.90614545454545e+00 8.67168887676489e-02 8.12547388396332e-04
2.92309090909091e+00 8.61738726203911e-02 8.09809980452736e-04
2.94003636363636e+00 8.56342568078792e-02 8.07068232451144e-04
2.95698181818182e+00 8.50980200392365e-02 8.04322406416665e-04
2.97392727272727e+00 8.45651411532867e-02 8.01572759486128e-04
2.99087272727273e+00 8.40355991249447e-02 7.98819543274496e-04
3.00781818181818e+00 8.35093730589752e-02 7.96063006631805e-04
3.02476363636364e+00 8.29864421892889e-02 7.93303391782122e-04
3.04170909090909e+00 8.24667858832663e-02 7.90540937008504e-04
3.05865454545455e+00 8.19503836340923e-02 7.87775876142434e-04
3.07560000000000e+00 8.14372150667226e-02 7.85008438570931e-04
3.09254545454545e+00 8.09272599303788e-02 7.82238849391231e-04
3.10949090909091e+00 8.04204981043766e-02 7.79467329415719e-04
3.12643636363636e+00 7.99169095907773e-02 7.76694095321874e-04
3.14338181818182e+00 7.94164745200815e-02 7.73919359655182e-04
3.16032727272727e+00 7.89191731440333e-02 7.71143330974465e-04
3.17727272727273e+00 7.84249858411823e-02 7.68366213268049e-04
3.19421818181818e+00 7.79338931113603e-02 7.65588208438806e-04
3.21116363636364e+00 7.74458755750143e-02 7.62809512798256e-04
3.22810909090909e+00 7.69609139769627e-02 7.60030319487679e-04
3.24505454545455e+00 7.64789891796136e-02 7.57250818005796e-04
3.26200000000000e+00 7.60000821681665e-02 7.54471194206377e-04
3.27894545454545e+00 7.55241740439692e-02 7.51691630428683e-04
3.29589090909091e+00 7.50512460296018e-02 7.48912305493614e-04
3.31283636363636e+00 7.45812794623680e-02 7.46133394830302e-04
3.32978181818182e+00 7.41142557992654e-02 7.43355070470941e-04
3.34672727272727e+00 7.36501566106079e-02 7.40577501173997e-04
3.36367272727273e+00 7.31889635848837e-02 7.37800851887120e-04
3.38061818181818e+00 7.27306585238499e-02 7.35025285992935e-04
3.39756363636364e+00 7.22752233419020e-02 7.32250962121925e-04
3.41450909090909e+00 7.18226400693481e-02 7.29478036341265e-04
3.43145454545455e+00 7.13728908463880e-02 7.26706661718959e-04
3.44840000000000e+00 7.09259579276641e-02 7.23936988315053e-04
3.46534545454545e+00 7.04818236763609e-02 7.21169163293058e-04
3.48229090909091e+00 7.00404705686550e-02 7.18403330910293e-04
3.49923636363636e+00 6.96018811879313e-02 7.15639632625960e-04
3.51618181818182e+00 6.91660382291352e-02 7.12878207090766e-04
3.53312727272727e+00 6.87329244931025e-02 7.10119190252316e-04
3.55007272727273e+00 6.83025228908162e-02 7.07362714861612e-04
3.56701818181818e+00 6.78748164390354e-02 7.04608912507266e-04
3.58396363636364e+00 6.74497882597013e-02 7.01857910714881e-04
3.60090909090909e+00 6.70274215827989e-02 6.99109834929843e-04
3.61785454545455e+00 6.66076997409958e-02 6.96364808116086e-04
3.63480000000000e+00 6.61906061736358e-02 6.93622950743287e-04
3.65174545454545e+00 6.57761244214819e-02 6.90884380882525e-04
3.66869090909091e+00 6.53642381306229e-02 6.88149214193028e-04
3.68563636363636e+00 6.49549310473192e-02 6.85417564015497e-04
3.70258181818182e+00 6.45481870218239e-02 6.82689541358247e-04
3.71952727272727e+00 6.41439900033285e-02 6.79965254988086e-04
3.73647272727273e+00 6.37423240437019e-02 6.77244810977358e-04
3.75341818181818e+00 6.33431732935858e-02 6.74528314549732e-04
3.77036363636364e+00 6.29465220018352e-02 6.71815867437649e-04
3.78730909090909e+00 6.25523545180262e-02 6.69107569681930e-04
3.80425454545455e+00 6.21606552876695e-02 6.66403519262413e-04
3.82120000000000e+00 6.17714088557236e-02 6.63703812082832e-04
3.83814545454545e+00 6.13845998618999e-02 6.61008542053750e-04
3.85509090909091e+00 6.10002130441002e-02 6.58317801076996e-04
3.87203636363636e+00 6.06182332338115e-02 6.55631679126685e-04
3.88898181818182e+00 6.02386453594705e-02 6.52950264233348e-04
3.90592727272727e+00 5.98614344419455e-02 6.50273642562964e-04
3.92287272727273e+00 5.94865855978293e-02 6.47601898001206e-04
3.93981818181818e+00 5.91140840359427e-02 6.44935113831116e-04
3.95676363636364e+00 5.87439150568080e-02 6.42273370323182e-04
3.97370909090909e+00 5.83760640548514e-02 6.39616746371173e-04
3.99065454545455e+00 5.80105165141198e-02 6.36965319152484e-04
4.00760000000000e+00 5.76472580113789e-02 6.34319164111649e-04
4.02454545454545e+00 5.72862742119090e-02 6.31678355032807e-04
4.04149090909091e+00 5.69275508725384e-02 6.29042964022736e-04
4.05843636363636e+00 5.65710738375183e-02 6.26413061581605e-04
4.07538181818182e+00 5.62168290414918e-02 6.23788716586078e-04
4.09232727272727e+00 5.58648025054464e-02 6.21169996358400e-04
4.10927272727273e+00 5.55149803396201e-02 6.18556966284907e-04
4.12621818181818e+00 5.51673487403638e-02 6.15949691342969e-04
4.14316363636364e+00 5.48218939896455e-02 6.13348233901174e-04
4.16010909090909e+00 5.44786024569895e-02 6.10752655208519e-04
4.17705454545455e+00 5.41374605956348e-02 6.08163015082189e-04
4.19400000000000e+00 5.37984549452719e-02 6.05579371890225e-04
4.21094545454545e+00 5.34615721282724e-02 6.03001782615087e-04
4.22789090909091e+00 5.31267988523689e-02 6.00430302836313e-04
4.24483636363636e+00 5.27941219069534e-02 5.97864986792605e-04
4.26178181818182e+00 5.24635281657029e-02 5.95305887364333e-04
4.27872727272727e+00 5.21350045829449e-02 5.92753056134353e-04
4.29567272727273e+00 5.18085381962287e-02 5.90206543037927e-04
4.31261818181818e+00 5.14841161235025e-02 5.87666397754242e-04
4.32956363636364e+00 5.11617255626486e-02 5.85132667696593e-04
4.34650909090909e+00 5.08413537931929e-02 5.82605399369723e-04
4.36345454545455e+00 5.05229881728527e-02 5.80084638082851e-04
4.38040000000000e+00 5.02066161399602e-02 5.77570427932154e-04
4.39734545454545e+00 4.98922252100723e-02 5.75062811856869e-04
4.41429090909091e+00 4.95798029783445e-02 5.72561831621661e-04
4.43123636363636e+00 4.92693371162026e-02 5.70067527871507e-04
4.44818181818182e+00 4.89608153736679e-02 5.67579940114218e-04
4.46512727272727e+00 4.86542255760890e-02 5.65099106774046e-04
4.48207272727273e+00 4.83495556264196e-02 5.62625064870377e-04
4.49901818181818e+00 4.80467935026751e-02 5.60157851287325e-04
4.51596363636364e+00 4.77459272574963e-02 5.57697500936010e-04
4.53290909090909e+00 4.74469450196596e-02 5.55244047993137e-04
4.54985454545455e+00 4.71498349909689e-02 5.52797525637143e-04
4.56680000000000e+00 4.68545854484047e-02 5.50357966030815e-04
4.58374545454545e+00 4.65611847410715e-02 5.47925400370987e-04
4.60069090909091e+00 4.62696212923039e-02 5.45499858871168e-04
4.61763636363636e+00 4.59798835966681e-02 5.43081370810161e-04
4.63458181818182e+00 4.56919602220254e-02 5.40669964514767e-04
4.65152727272727e+00 4.54058398065877e-02 5.38265667407390e-04
4.66847272727273e+00 4.51215110609387e-02 5.35868505710962e-04
4.68541818181818e+00 4.48389627657390e-02 5.33478505608500e-04
4.70236363636364e+00 4.45581837713159e-02 5.31095691561474e-04
4.71930909090909e+00 4.42791629990006e-02 5.28720087441063e-04
4.73625454545455e+00 4.40018894383240e-02 5.26351716285638e-04
4.75320000000000e+00 4.37263521489270e-02 5.23990600283756e-04
4.77014545454545e+00 4.34525402578065e-02 5.21636760818324e-04
4.78709090909091e+00 4.31804429611865e-02 5.19290218449642e-04
4.80403636363636e+00 4.29100495218132e-02 5.16950992958668e-04
4.82098181818182e+00 4.26413492707889e-02 5.14619103330122e-04
4.83792727272727e+00 4.23743316049141e-02 5.12294567794799e-04
4.85487272727273e+00 4.21089859884855e-02 5.09977403558706e-04
4.87181818181818e+00 4.18453019512199e-02 5.07667627862952e-04
4.88876363636364e+00 4.15832690878709e-02 5.05365256443844e-04
4.90570909090909e+00 4.13228770594126e-02 5.03070304567210e-04
4.92265454545455e+00 4.10641155905078e-02 5.00782786805323e-04
4.93960000000000e+00 4.08069744712067e-02 4.98502717020398e-04
4.95654545454545e+00 4.05514435544594e-02 4.96230108404043e-04
4.97349090909091e+00 4.02975127577811e-02 4.93964973460875e-04
4.99043636363636e+00 4.00451720608075e-02 4.91707324047012e-04
5.00738181818182e+00 3.97944115069270e-02 4.89457171353842e-04
5.02432727272727e+00 3.95452212008795e-02 4.87214525945836e-04
5.04127272727273e+00 3.92975913103555e-02 4.84979397511574e-04
5.05821818181818e+00 3.90515120641178e-02 4.82751795833476e-04
5.07516363636364e+00 3.88069737516419e-02 4.80531729376855e-04
5.09210909090909e+00 3.85639667241656e-02 4.78319206236153e-04
5.10905454545455e+00 3.83224813923998e-02 4.76114233929805e-04
5.12600000000000e+00 3.80825082280414e-02 4.73916819384545e-04
5.14294545454545e+00 3.78440377615230e-02 4.71726968970489e-04
5.15989090909091e+00 3.76070605834966e-02 4.69544688485455e-04
5.17683636363636e+00 3.73715673426218e-02 4.67369983189434e-04
5.19378181818182e+00 3.71375487470206e-02 4.65202857788981e-04
5.21072727272727e+00 3.69049955621037e-02 4.63043316471083e-04
5.22767272727273e+00 3.66738986119967e-02 4.60891362674308e-04
5.24461818181818e+00 3.64442487778364e-02 4.58746999976708e-04
5.26156363636364e+00 3.62160369974347e-02 4.56610230802113e-04
5.27850909090909e+00 3.59892542662107e-02 4.54481057286629e-04
5.29545454545454e+00 3.57638916351169e-02 4.52359481089864e-04
5.31240000000000e+00 3.55399402119893e-02 4.50245503379936e-04
5.32934545454545e+00 3.53173911595088e-02 4.48139124864939e-04
5.34629090909091e+00 3.50962356965247e-02 4.46040345778005e-04
