Energy (eV)          EEDF (eV^-(3/2))     First Anisotropy
3.26041666666667e-02 4.11496154990805e-02 2.22665228764032e-05
9.78125000000000e-02 4.08548779817691e-02 3.67602607161161e-05
1.63020833333333e-01 4.05622515451789e-02 4.85062632457586e-05
2.28229166666667e-01 4.02717210708838e-02 5.74167514847408e-05
2.93437500000000e-01 3.99832715454229e-02 6.48374245111357e-05
3.58645833333333e-01 3.96968880628544e-02 7.12772851579337e-05
4.23854166666667e-01 3.94125558259660e-02 7.69998467280518e-05
4.89062500000000e-01 3.91302601423804e-02 8.21642983506061e-05
5.54270833333333e-01 3.88499864245478e-02 8.68762568749640e-05
6.19479166666667e-01 3.85717201905489e-02 9.12103980783492e-05
6.84687500000000e-01 3.82954470615486e-02 9.52220215277180e-05
7.49895833333333e-01 3.80211527613701e-02 9.89535492549628e-05
8.15104166666667e-01 3.77488231168909e-02 1.02438444711373e-04
8.80312500000000e-01 3.74784440560661e-02 1.05703708476046e-04
9.45520833333333e-01 3.72100016073763e-02 1.08771538223536e-04
1.01072916666667e+00 3.69434818999831e-02 1.11660473335448e-04
1.07593750000000e+00 3.66788711627925e-02 1.14386208418590e-04
1.14114583333333e+00 3.64161557202216e-02 1.16962184808639e-04
1.20635416666667e+00 3.61553219995114e-02 1.19400032105572e-04
1.27156250000000e+00 3.58963565225183e-02 1.21709903758128e-04
1.33677083333333e+00 3.56392459057819e-02 1.23900733886719e-04
1.40197916666667e+00 3.53839768657355e-02 1.25980440375281e-04
1.46718750000000e+00 3.51305362118215e-02 1.27956086068279e-04
1.53239583333333e+00 3.48789108463671e-02 1.29834006312166e-04
1.59760416666667e+00 3.46290877689336e-02 1.31619914277860e-04
1.66281250000000e+00 3.43810540703992e-02 1.33318987300859e-04
1.72802083333333e+00 3.41347969327158e-02 1.34935936514689e-04
1.79322916666667e+00 3.38903036325997e-02 1.36475066572101e-04
1.85843750000000e+00 3.36475615363524e-02 1.37940325816873e-04
1.92364583333333e+00 3.34065580995404e-02 1.39335347078040e-04
1.98885416666667e+00 3.31672808701675e-02 1.40663483951574e-04
2.05406250000000e+00 3.29297174840774e-02 1.41927841873161e-04
2.11927083333333e+00 3.26938556645825e-02 1.43131303342195e-04
2.18447916666667e+00 3.24596832252184e-02 1.44276551213370e-04
2.24968750000000e+00 3.22271880656170e-02 1.45366088956952e-04
2.31489583333333e+00 3.19963581711016e-02 1.46402256925018e-04
2.38010416666667e+00 3.17671816150980e-02 1.47387247997411e-04
2.44531250000000e+00 3.15396465553965e-02 1.48323121367261e-04
2.51052083333333e+00 3.13137412337241e-02 1.49211813382786e-04
2.57572916666667e+00 3.10894539778699e-02 1.50055148465735e-04
2.64093750000000e+00 3.08667731982733e-02 1.50854848835746e-04
2.70614583333333e+00 3.06456873875815e-02 1.51612541926171e-04
2.77135416666667e+00 3.04261851225337e-02 1.52329768256233e-04
2.83656250000000e+00 3.02082550608274e-02 1.53007988506898e-04
2.90177083333333e+00 2.99918859406665e-02 1.53648588695633e-04
2.96697916666667e+00 2.97770665824393e-02 1.54252886015474e-04
3.03218750000000e+00 2.95637858858259e-02 1.54822134125207e-04
3.09739583333333e+00 2.93520328293394e-02 1.55357526814184e-04
3.16260416666667e+00 2.91417964718282e-02 1.55860202442862e-04
3.22781250000000e+00 2.89330659497912e-02 1.56331247993675e-04
3.29302083333333e+00 2.87258304769177e-02 1.56771701692657e-04
3.35822916666667e+00 2.85200793454351e-02 1.57182556462164e-04
3.42343750000000e+00 2.83158019236088e-02 1.57564763089604e-04
3.48864583333333e+00 2.81129876552811e-02 1.57919232112721e-04
3.55385416666667e+00 2.79116260610854e-02 1.58246836558075e-04
3.61906250000000e+00 2.77117067361083e-02 1.58548414467648e-04
3.68427083333333e+00 2.75132193494308e-02 1.58824770254725e-04
3.74947916666667e+00 2.73161536452236e-02 1.59076676915077e-04
3.81468750000000e+00 2.71204994405555e-02 1.59304878076716e-04
3.87989583333333e+00 2.69262466249368e-02 1.59510088969071e-04
3.94510416666667e+00 2.67333851613107e-02 1.59692998237539e-04
4.01031250000000e+00 2.65419050839918e-02 1.59854269632661e-04
4.07552083333333e+00 2.63517964982141e-02 1.59994542692993e-04
4.14072916666667e+00 2.61630495810290e-02 1.60114434256252e-04
4.20593750000000e+00 2.59756545793622e-02 1.60214539871258e-04
4.27114583333333e+00 2.57896018095662e-02 1.60295434266469e-04
4.33635416666667e+00 2.56048816582355e-02 1.60357672625327e-04
4.40156250000000e+00 2.54214845803709e-02 1.60401791781898e-04
4.46677083333333e+00 2.52394010989369e-02 1.60428310527356e-04
4.53197916666667e+00 2.50586218056032e-02 1.60437730699501e-04
4.59718750000000e+00 2.48791373590063e-02 1.60430538207276e-04
4.66239583333333e+00 2.47009384843129e-02 1.60407203213792e-04
4.72760416666667e+00 2.45240159738949e-02 1.60368181077443e-04
4.79281250000000e+00 2.43483606856798e-02 1.60313913239290e-04
4.85802083333333e+00 2.41739635427211e-02 1.60244827311431e-04
4.92322916666667e+00 2.40008155338125e-02 1.60161337898217e-04
4.98843750000000e+00 2.38289077119211e-02 1.60063847372441e-04
5.05364583333333e+00 2.36582311937637e-02 1.59952745890826e-04
5.11885416666667e+00 2.34887771603670e-02 1.59828412117205e-04
5.18406250000000e+00 2.33205368555764e-02 1.59691213907558e-04
5.24927083333333e+00 2.31535015856392e-02 1.59541508269253e-04
5.31447916666667e+00 2.29876627197151e-02 1.59379642003234e-04
5.37968750000000e+00 2.28230116884557e-02 1.59205952313557e-04
5.44489583333333e+00 2.26595399835940e-02 1.59020766723162e-04
5.51010416666667e+00 2.24972391584103e-02 1.58824403648510e-04
5.57531250000000e+00 2.23361008263769e-02 1.58617172945992e-04
5.64052083333333e+00 2.21761166607544e-02 1.58399375794164e-04
5.70572916666667e+00 2.20172783950166e-02 1.58171305211488e-04
5.77093750000000e+00 2.18595778215561e-02 1.57933246549483e-04
5.83614583333333e+00 2.17030067912874e-02 1.57685477349161e-04
5.90135416666667e+00 2.15475572140347e-02 1.57428267810488e-04
5.96656250000000e+00 2.13932210572934e-02 1.57161881240186e-04
6.03177083333333e+00 2.12399903458411e-02 1.56886573888519e-04
6.09697916666667e+00 2.10878571620908e-02 1.56602595377370e-04
6.16218750000000e+00 2.09368136449053e-02 1.56310189109163e-04
6.22739583333333e+00 2.07868519892153e-02 1.56009592088816e-04
6.29260416666667e+00 2.06379644463410e-02 1.55701035316131e-04
6.35781250000000e+00 2.04901433228567e-02 1.55384744161117e-04
6.42302083333333e+00 2.03433809802154e-02 1.55060938174928e-04
6.48822916666667e+00 2.01976698350420e-02 1.54729831451262e-04
6.55343750000000e+00 2.00530023580440e-02 1.54391632972439e-04
6.61864583333333e+00 1.99093710736436e-02 1.54046546412376e-04
6.68385416666667e+00 1.97667685602440e-02 1.53694770470889e-04
6.74906250000000e+00 1.96251874491847e-02 1.53336499194123e-04
6.81427083333333e+00 1.94846204243794e-02 1.52971921772058e-04
6.87947916666667e+00 1.93450602225591e-02 1.52601222848928e-04
6.94468750000000e+00 1.92064996322679e-02 1.52224582821044e-04
7.00989583333333e+00 1.90689314935082e-02 1.51842177630831e-04
7.07510416666667e+00 1.89323486979613e-02 1.51454179056038e-04
7.14031250000000e+00 1.87967441880222e-02 1.51060754987536e-04
7.20552083333333e+00 1.86621109564515e-02 1.50662069221434e-04
7.27072916666667e+00 1.85284420465755e-02 1.50258281729470e-04
7.33593750000000e+00 1.83957305513577e-02 1.49849548918941e-04
7.40114583333333e+00 1.82639696130574e-02 1.49436023424104e-04
7.46635416666667e+00 1.81331524234114e-02 1.49017854359757e-04
7.53156250000000e+00 1.80032722227393e-02 1.48595187565121e-04
7.59677083333333e+00 1.78743222996095e-02 1.48168165395629e-04
7.66197916666667e+00 1.77462959910029e-02 1.47736926961306e-04
7.72718750000000e+00 1.76191866814519e-02 1.47301608356228e-04
7.79239583333333e+00 1.74929878027121e-02 1.46862342451521e-04
7.85760416666667e+00 1.73676928339104e-02 1.46419259120001e-04
7.92281250000000e+00 1.72432953007150e-02 1.45972485452565e-04
7.98802083333333e+00 1.71197887750138e-02 1.45522145553053e-04
8.05322916666667e+00 1.69971668750475e-02 1.45068360750436e-04
8.11843750000000e+00 1.68754232646090e-02 1.44611249803310e-04
8.18364583333333e+00 1.67545516527285e-02 1.44150928697166e-04
8.24885416666667e+00 1.66345457937929e-02 1.43687510845191e-04
8.31406250000000e+00 1.65153994867731e-02 1.43221107281936e-04
8.37927083333333e+00 1.63971065749158e-02 1.42751826463395e-04
8.44447916666667e+00 1.62796609458493e-02 1.42279774457396e-04
8.50968750000000e+00 1.61630565308389e-02 1.41805055127351e-04
8.57489583333333e+00 1.60472873044837e-02 1.41327769935428e-04
8.64010416666667e+00 1.59323472848116e-02 1.40848018123432e-04
8.70531250000000e+00 1.58182305325596e-02 1.40365896887413e-04
8.77052083333333e+00 1.57049311508769e-02 1.39881501184203e-04
8.83572916666667e+00 1.55924432854091e-02 1.39394923903517e-04
8.90093750000000e+00 1.54807611236026e-02 1.38906256034137e-04
8.96614583333333e+00 1.53698788944142e-02 1.38415586474010e-04
9.03135416666667e+00 1.52597908683845e-02 1.37923002194214e-04
9.09656250000000e+00 1.51504913569664e-02 1.37428588397360e-04
9.16177083333333e+00 1.50419747122399e-02 1.36932428331403e-04
9.22697916666667e+00 1.49342353269764e-02 1.36434603446046e-04
9.29218750000000e+00 1.48272676339895e-02 1.35935193543943e-04
9.35739583333333e+00 1.47210661058555e-02 1.35434276598305e-04
9.42260416666667e+00 1.46156252549692e-02 1.34931928902291e-04
9.48781250000000e+00 1.45109396329158e-02 1.34428225213495e-04
9.55302083333333e+00 1.44070038301970e-02 1.33923238575426e-04
9.61822916666667e+00 1.43038124762792e-02 1.33417040460364e-04
9.68343750000000e+00 1.42013602389850e-02 1.32909700907570e-04
9.74864583333333e+00 1.40996418242258e-02 1.32401288348704e-04
9.81385416666667e+00 1.39986519760417e-02 1.31891869744541e-04
9.87906250000000e+00 1.38983854760134e-02 1.31381510717345e-04
9.94427083333333e+00 1.37988371429993e-02 1.30870275380208e-04
1.00094791666667e+01 1.37000018331695e-02 1.30358226372946e-04
1.00746875000000e+01 1.36018744397250e-02 1.29845425465137e-04
1.01398958333333e+01 1.35044498911915e-02 1.29331932532308e-04
1.02051041666667e+01 1.34077231543480e-02 1.28817806061118e-04
1.02703125000000e+01 1.33116892310490e-02 1.28303104222011e-04
1.03355208333333e+01 1.32163431580339e-02 1.27787883002709e-04
1.04007291666667e+01 1.31216800094436e-02 1.27272197181580e-04
1.04659375000000e+01 1.30276948937643e-02 1.26756101269272e-04
1.05311458333333e+01 1.29343829536398e-02 1.26239647698220e-04
1.05963541666667e+01 1.28417393682831e-02 1.25722887765110e-04
1.06615625000000e+01 1.27497593505375e-02 1.25205872542884e-04
1.07267708333333e+01 1.26584381466905e-02 1.24688651124380e-04
1.07919791666667e+01 1.25677710387868e-02 1.24171271535064e-04
1.08571875000000e+01 1.24777533418002e-02 1.23653781616568e-04
1.09223958333333e+01 1.23883804034501e-02 1.23136227322618e-04
1.09876041666667e+01 1.22996476064197e-02 1.22618653603184e-04
1.10528125000000e+01 1.22115503656346e-02 1.22101105260642e-04
1.11180208333333e+01 1.21240841280811e-02 1.21583625296203e-04
1.11832291666667e+01 1.20372443749349e-02 1.21066255766597e-04
1.12484375000000e+01 1.19510266189409e-02 1.20549038613884e-04
1.13136458333333e+01 1.18654264042337e-02 1.20032014060673e-04
1.13788541666667e+01 1.17804393083812e-02 1.19515221440350e-04
1.14440625000000e+01 1.16960609398604e-02 1.18998700001538e-04
1.15092708333333e+01 1.16122869378811e-02 1.18482487350480e-04
1.15744791666667e+01 1.15291129743474e-02 1.17966620255811e-04
1.16396875000000e+01 1.14465347514264e-02 1.17451135428576e-04
1.17048958333333e+01 1.13645480013739e-02 1.16936068010189e-04
1.17701041666667e+01 1.12831484884185e-02 1.16421452352694e-04
1.18353125000000e+01 1.12023320064182e-02 1.15907322775207e-04
1.19005208333333e+01 1.11220943786891e-02 1.15393712096007e-04
1.19657291666667e+01 1.10424314598154e-02 1.14880652389133e-04
1.20309375000000e+01 1.09633391333900e-02 1.14368175718100e-04
1.20961458333333e+01 1.08848133118461e-02 1.13856312710633e-04
1.21613541666667e+01 1.08068499381961e-02 1.13345093292488e-04
1.22265625000000e+01 1.07294449838533e-02 1.12834547399270e-04
1.22917708333333e+01 1.06525944484663e-02 1.12324703592373e-04
1.23569791666667e+01 1.05762943615898e-02 1.11815589770844e-04
1.24221875000000e+01 1.05005407805842e-02 1.11307233862057e-04
1.24873958333333e+01 1.04253297904518e-02 1.10799662477555e-04
1.25526041666667e+01 1.03506575054441e-02 1.10292901603690e-04
1.26178125000000e+01 1.02765200670347e-02 1.09786977271919e-04
1.26830208333333e+01 1.02029136437585e-02 1.09281914253234e-04
1.27482291666667e+01 1.01298344327570e-02 1.08777736728333e-04
1.28134375000000e+01 1.00572786578228e-02 1.08274468938221e-04
1.28786458333333e+01 9.98524256924071e-03 1.07772133915986e-04
1.29438541666667e+01 9.91372244527452e-03 1.07270754137228e-04
1.30090625000000e+01 9.84271459027921e-03 1.06770352151617e-04
1.30742708333333e+01 9.77221533454520e-03 1.06270949350827e-04
1.31394791666667e+01 9.70222103572827e-03 1.05772566599895e-04
1.32046875000000e+01 9.63272807702720e-03 1.05275224850376e-04
1.32698958333333e+01 9.56373286703061e-03 1.04778943943308e-04
1.33351041666667e+01 9.49523184109294e-03 1.04283743222111e-04
1.34003125000000e+01 9.42722145957469e-03 1.03789642127973e-04
1.34655208333333e+01 9.35969820769187e-03 1.03296659036715e-04
1.35307291666667e+01 9.29265859684032e-03 1.02804811853882e-04
1.35959375000000e+01 9.22609916289610e-03 1.02314118592940e-04
1.36611458333333e+01 9.16001646606742e-03 1.01824596244978e-04
1.37263541666667e+01 9.09440709216963e-03 1.01336261356561e-04
1.37915625000000e+01 9.02926765098325e-03 1.00849130591326e-04
1.38567708333333e+01 8.96459477610847e-03 1.00363219631463e-04
1.39219791666667e+01 8.90038512619280e-03 9.98785437389373e-05
1.39871875000000e+01 8.83663538334454e-03 9.93951183010074e-05
1.40523958333333e+01 8.77334225298976e-03 9.89129577625064e-05
1.41176041666667e+01 8.71050246505466e-03 9.84320761709712e-05
1.41828125000000e+01 8.64811277243222e-03 9.79524877065903e-05
1.42480208333333e+01 8.58616995084176e-03 9.74742056443446e-05
1.43132291666667e+01 8.52467079996779e-03 9.69972428835505e-05
1.43784375000000e+01 8.46361214197785e-03 9.65216124627674e-05
1.44436458333333e+01 8.40299082138454e-03 9.60473265508571e-05
1.45088541666667e+01 8.34280370614275e-03 9.55743969614562e-05
1.45740625000000e+01 8.28304768621665e-03 9.51028356533117e-05
1.46392708333333e+01 8.22371967344421e-03 9.46326537493773e-05
1.47044791666667e+01 8.16481660259446e-03 9.41638620366964e-05
1.47696875000000e+01 8.10633542998183e-03 9.36964714526227e-05
1.48348958333333e+01 8.04827313333306e-03 9.32304921311155e-05
1.49001041666667e+01 7.99062671280614e-03 9.27659338884702e-05
1.49653125000000e+01 7.93339318965023e-03 9.23028066958927e-05
1.50305208333333e+01 7.87656960607489e-03 9.18411197521500e-05
1.50957291666667e+01 7.82015302623234e-03 9.13808819556211e-05
1.51609375000000e+01 7.76414053492111e-03 9.09221023636365e-05
1.52261458333333e+01 7.70852923745765e-03 9.04647892906690e-05
1.52913541666667e+01 7.65331626062339e-03 9.00089507671470e-05
1.53565625000000e+01 7.59849875141043e-03 8.95545949859872e-05
1.54217708333333e+01 7.54407387689560e-03 8.91017294255521e-05
1.54869791666667e+01 7.49003882515356e-03 8.86503612956311e-05
1.55521875000000e+01 7.43639080404317e-03 8.82004979715563e-05
1.56173958333333e+01 7.38312704108378e-03 8.77521461411869e-05
1.56826041666667e+01 7.33024478433589e-03 8.73053122384672e-05
1.57478125000000e+01 7.27774130122655e-03 8.68600028655076e-05
1.58130208333333e+01 7.22561387842795e-03 8.64162239628740e-05
1.58782291666667e+01 7.17385982270686e-03 8.59739812310985e-05
1.59434375000000e+01 7.12247645978768e-03 8.55332805410945e-05
1.60086458333333e+01 7.07146113423327e-03 8.50941271270640e-05
1.60738541666667e+01 7.02081121026443e-03 8.46565259963365e-05
1.61390625000000e+01 6.97052407065916e-03 8.42204823284721e-05
1.62042708333333e+01 6.92059711663576e-03 8.37860006901124e-05
1.62694791666667e+01 6.87102776864350e-03 8.33530854335011e-05
1.63346875000000e+01 6.82181346529678e-03 8.29217410846132e-05
1.63998958333333e+01 6.77295166326049e-03 8.24919715793134e-05
1.64651041666667e+01 6.72443983801294e-03 8.20637806508962e-05
1.65303125000000e+01 6.67627548281372e-03 8.16371722075913e-05
1.65955208333333e+01 6.62845610859122e-03 8.12121495893810e-05
1.66607291666667e+01 6.58097924467894e-03 8.07887159448895e-05
1.67259375000000e+01 6.53384243781586e-03 8.03668745985871e-05
1.67911458333333e+01 6.48704325203605e-03 7.99466283276636e-05
1.68563541666667e+01 6.44057926937940e-03 7.95279797286074e-05
1.69215625000000e+01 6.39444808892332e-03 7.91109315743914e-05
1.69867708333333e+01 6.34864732667444e-03 7.86954861108153e-05
1.70519791666667e+01 6.30317461625476e-03 7.82816454130879e-05
1.71171875000000e+01 6.25802760796351e-03 7.78694117333128e-05
1.71823958333333e+01 6.21320396867097e-03 7.74587868157224e-05
1.72476041666667e+01 6.16870138248089e-03 7.70497722435457e-05
1.73128125000000e+01 6.12451754982156e-03 7.66423697770782e-05
1.73780208333333e+01 6.08065018734163e-03 7.62365806872864e-05
1.74432291666667e+01 6.03709702854975e-03 7.58324060932432e-05
1.75084375000000e+01 5.99385582293379e-03 7.54298472910516e-05
1.75736458333333e+01 5.95092433585867e-03 7.50289051052767e-05
1.76388541666667e+01 5.90830034918408e-03 7.46295802172433e-05
1.77040625000000e+01 5.86598166041081e-03 7.42318734851058e-05
1.77692708333333e+01 5.82396608258060e-03 7.38357853125654e-05
1.78344791666667e+01 5.78225144487274e-03 7.34413159682927e-05
1.78996875000000e+01 5.74083559177666e-03 7.30484658973932e-05
1.79648958333333e+01 5.69971638299364e-03 7.26572351069433e-05
1.80301041666667e+01 5.65889169401318e-03 7.22676234768052e-05
1.80953125000000e+01 5.61835941531084e-03 7.18796310627223e-05
1.81605208333333e+01 5.57811745225193e-03 7.14932574981888e-05
1.82257291666667e+01 5.53816372564824e-03 7.11085022969021e-05
1.82909375000000e+01 5.49849617098042e-03 7.07253651477478e-05
1.83561458333333e+01 5.45911273830346e-03 7.03438453325225e-05
1.84213541666667e+01 5.42001139278466e-03 6.99639420202778e-05
1.84865625000000e+01 5.38119011394960e-03 6.95856545544364e-05
1.85517708333333e+01 5.34264689558944e-03 6.92089818859123e-05
1.86169791666667e+01 5.30437974628081e-03 6.88339228595801e-05
1.86821875000000e+01 5.26638668865450e-03 6.84604764937222e-05
1.87473958333333e+01 5.22866575930472e-03 6.80886414281323e-05
1.88126041666667e+01 5.19121500929138e-03 6.77184162029475e-05
1.88778125000000e+01 5.15403250343093e-03 6.73497995306532e-05
1.89430208333333e+01 5.11711632020730e-03 6.69827897587331e-05
1.90082291666667e+01 5.08046455225747e-03 6.66173851410666e-05
1.90734375000000e+01 5.04407530568352e-03 6.62535841027265e-05
1.91386458333333e+01 5.00794669996537e-03 6.58913847167554e-05
1.92038541666667e+01 4.97207686843009e-03 6.55307849683485e-05
1.92690625000000e+01 4.93646395758462e-03 6.51717830126453e-05
1.93342708333333e+01 4.90110612703017e-03 6.48143766652371e-05
1.93994791666667e+01 4.86600154991590e-03 6.44585636593470e-05
1.94646875000000e+01 4.83114841229159e-03 6.41043418968009e-05
1.95298958333333e+01 4.79654491302369e-03 6.37517089519003e-05
1.95951041666667e+01 4.76218926423399e-03 6.34006623217839e-05
1.96603125000000e+01 4.72807969067148e-03 6.30511996707784e-05
1.97255208333333e+01 4.69421442963009e-03 6.27033183472526e-05
1.97907291666667e+01 4.66059173137285e-03 6.23570156273698e-05
1.98559375000000e+01 4.62720985852233e-03 6.20122889529965e-05
1.99211458333333e+01 4.59406708598009e-03 6.16691354611741e-05
1.99863541666667e+01 4.56116170133672e-03 6.13275522214523e-05
2.00515625000000e+01 4.52849200428039e-03 6.09875364675443e-05
2.01167708333333e+01 4.49605630651787e-03 6.06490851390627e-05
2.01819791666667e+01 4.46385293217106e-03 6.03121951126032e-05
2.02471875000000e+01 4.43188021720294e-03 5.99768634273270e-05
2.03123958333333e+01 4.40013650934021e-03 5.96430868386256e-05
2.03776041666667e+01 4.36862016845676e-03 5.93108620431274e-05
2.04428125000000e+01 4.33732956601654e-03 5.89801858983853e-05
2.05080208333333e+01 4.30626308499762e-03 5.86510549881370e-05
2.05732291666667e+01 4.27541912026323e-03 5.83234658413974e-05
