Energy (eV)          EEDF (eV^-(3/2))     First Anisotropy
2.28947368421053e-02 5.40469550582687e-02 2.68408843153458e-05
6.86842105263158e-02 5.37208784424058e-02 4.43372804888477e-05
1.14473684210526e-01 5.33967691151415e-02 5.85709173511217e-05
1.60263157894737e-01 5.30746152077057e-02 6.94091239481838e-05
2.06052631578947e-01 5.27544049216960e-02 7.84688772493725e-05
2.51842105263158e-01 5.24361265325744e-02 8.63607829109326e-05
2.97631578947368e-01 5.21197683833302e-02 9.34004611043573e-05
3.43421052631579e-01 5.18053188888157e-02 9.97782880813539e-05
3.89210526315789e-01 5.14927665346518e-02 1.05620382545629e-04
4.35000000000000e-01 5.11820998741370e-02 1.11015782617066e-04
4.80789473684211e-01 5.08733075305208e-02 1.16030325081597e-04
5.26578947368421e-01 5.05663781956862e-02 1.20714440507268e-04
5.72368421052632e-01 5.02613006303214e-02 1.25107850927491e-04
6.18157894736842e-01 4.99580636617296e-02 1.29242559521522e-04
6.63947368421053e-01 4.96566561852190e-02 1.33144838190309e-04
7.09736842105263e-01 4.93570671635481e-02 1.36836597526359e-04
7.55526315789474e-01 4.90592856251499e-02 1.40336359010458e-04
8.01315789473684e-01 4.87633006651063e-02 1.43659962894451e-04
8.47105263157895e-01 4.84691014446599e-02 1.46821095417319e-04
8.92894736842105e-01 4.81766771897084e-02 1.49831688329014e-04
9.38684210526316e-01 4.78860171915167e-02 1.52702226981717e-04
9.84473684210526e-01 4.75971108062670e-02 1.55441991789456e-04
1.03026315789474e+00 4.73099474540170e-02 1.58059249389074e-04
1.07605263157895e+00 4.70245166194479e-02 1.60561406661241e-04
1.12184210526316e+00 4.67408078473167e-02 1.62955134216108e-04
1.16763157894737e+00 4.64588107506314e-02 1.65246469233635e-04
1.21342105263158e+00 4.61785150000620e-02 1.67440899515781e-04
1.25921052631579e+00 4.58999103334382e-02 1.69543433293218e-04
1.30500000000000e+00 4.56229865479842e-02 1.71558659513544e-04
1.35078947368421e+00 4.53477335004821e-02 1.73490795567245e-04
1.39657894736842e+00 4.50741411131167e-02 1.75343730653497e-04
1.44236842105263e+00 4.48021993666886e-02 1.77121062908842e-04
1.48815789473684e+00 4.45318983006762e-02 1.78826128657726e-04
1.53394736842105e+00 4.42632280183561e-02 1.80462030575647e-04
1.57973684210526e+00 4.39961786791019e-02 1.82031660791486e-04
1.62552631578947e+00 4.37307405051710e-02 1.83537720970859e-04
1.67131578947368e+00 4.34669037760036e-02 1.84982741357094e-04
1.71710526315789e+00 4.32046588281722e-02 1.86369094785502e-04
1.76289473684211e+00 4.29439960596928e-02 1.87699011441750e-04
1.80868421052632e+00 4.26849059248883e-02 1.88974591960956e-04
1.85447368421053e+00 4.24273789343130e-02 1.90197816768376e-04
1.90026315789474e+00 4.21714056586004e-02 1.91370556654593e-04
1.94605263157895e+00 4.19169767238199e-02 1.92494582253294e-04
1.99184210526316e+00 4.16640828113502e-02 1.93571570371557e-04
2.03763157894737e+00 4.14127146613581e-02 1.94603112031575e-04
2.08342105263158e+00 4.11628630673646e-02 1.95590718605271e-04
2.12921052631579e+00 4.09145188808948e-02 1.96535827308057e-04
2.17500000000000e+00 4.06676730074068e-02 1.97439807351441e-04
2.22078947368421e+00 4.04223164061370e-02 1.98303963285885e-04
2.26657894736842e+00 4.01784400931157e-02 1.99129540014824e-04
2.31236842105263e+00 3.99360351374220e-02 1.99917727379387e-04
2.35815789473684e+00 3.96950926610128e-02 2.00669662436116e-04
2.40394736842105e+00 3.94556038414738e-02 2.01386433617709e-04
2.44973684210526e+00 3.92175599075897e-02 2.02069083555653e-04
2.49552631578947e+00 3.89809521430530e-02 2.02718611630573e-04
2.54131578947368e+00 3.87457718831283e-02 2.03335977357740e-04
2.58710526315789e+00 3.85120105144595e-02 2.03922101518110e-04
2.63289473684211e+00 3.82796594774954e-02 2.04477868953688e-04
2.67868421052632e+00 3.80487102633849e-02 2.05004131160099e-04
2.72447368421053e+00 3.78191544137833e-02 2.05501706986051e-04
2.77026315789474e+00 3.75909835230803e-02 2.05971384952436e-04
2.81605263157895e+00 3.73641892355094e-02 2.06413925412175e-04
2.86184210526316e+00 3.71387632449397e-02 2.06830060934473e-04
2.90763157894737e+00 3.69146972969387e-02 2.07220498429958e-04
2.95342105263158e+00 3.66919831853154e-02 2.07585920282549e-04
2.99921052631579e+00 3.64706127549221e-02 2.07926985371226e-04
3.04500000000000e+00 3.62505778990310e-02 2.08244330907387e-04
3.09078947368421e+00 3.60318705591236e-02 2.08538572452947e-04
3.13657894736842e+00 3.58144827267320e-02 2.08810305438740e-04
3.18236842105263e+00 3.55984064409751e-02 2.09060106591792e-04
3.22815789473684e+00 3.53836337883455e-02 2.09288533812927e-04
3.27394736842105e+00 3.51701569044194e-02 2.09496127656083e-04
3.31973684210526e+00 3.49579679709007e-02 2.09683411950593e-04
3.36552631578947e+00 3.47470592179619e-02 2.09850894356727e-04
3.41131578947368e+00 3.45374229219926e-02 2.09999067685489e-04
3.45710526315789e+00 3.43290514053816e-02 2.10128409606555e-04
3.50289473684211e+00 3.41219370380586e-02 2.10239383730385e-04
3.54868421052632e+00 3.39160722353656e-02 2.10332440632587e-04
3.59447368421053e+00 3.37114494578425e-02 2.10408017498882e-04
3.64026315789474e+00 3.35080612126635e-02 2.10466539093564e-04
3.68605263157895e+00 3.33059000516254e-02 2.10508418678167e-04
3.73184210526316e+00 3.31049585709301e-02 2.10534057610269e-04
3.77763157894737e+00 3.29052294125296e-02 2.10543846351872e-04
3.82342105263158e+00 3.27067052617021e-02 2.10538164755489e-04
3.86921052631579e+00 3.25093788489087e-02 2.10517382310714e-04
3.91500000000000e+00 3.23132429479348e-02 2.10481859071551e-04
3.96078947368421e+00 3.21182903756756e-02 2.10431945196937e-04
4.00657894736842e+00 3.19245139933564e-02 2.10367981701416e-04
4.05236842105263e+00 3.17319067047674e-02 2.10290301170549e-04
4.09815789473684e+00 3.15404614560507e-02 2.10199227283703e-04
4.14394736842105e+00 3.13501712368443e-02 2.10095075626728e-04
4.18973684210526e+00 3.11610290781547e-02 2.09978153853551e-04
4.23552631578947e+00 3.09730280539476e-02 2.09848761818106e-04
4.28131578947368e+00 3.07861612795119e-02 2.09707192333081e-04
4.32710526315790e+00 3.06004219112468e-02 2.09553730669721e-04
4.37289473684211e+00 3.04158031477068e-02 2.09388655165375e-04
4.41868421052632e+00 3.02322982280408e-02 2.09212237804636e-04
4.46447368421053e+00 3.00499004317838e-02 2.09024743715763e-04
4.51026315789474e+00 2.98686030798380e-02 2.08826431735920e-04
4.55605263157895e+00 2.96883995329856e-02 2.08617554952475e-04
4.60184210526316e+00 2.95092831916799e-02 2.08398360199253e-04
4.64763157894737e+00 2.93312474969710e-02 2.08169088693091e-04
4.69342105263158e+00 2.91542859287099e-02 2.07929976102175e-04
4.73921052631579e+00 2.89783920068462e-02 2.07681252592477e-04
4.78500000000000e+00 2.88035592900393e-02 2.07423143430864e-04
4.83078947368421e+00 2.86297813754537e-02 2.07155868480933e-04
4.87657894736842e+00 2.84570518996078e-02 2.06879642680141e-04
4.92236842105263e+00 2.82853645370452e-02 2.06594676498045e-04
4.96815789473684e+00 2.81147130001324e-02 2.06301175437728e-04
5.01394736842105e+00 2.79450910398600e-02 2.05999340585616e-04
5.05973684210526e+00 2.77764924442390e-02 2.05689368641332e-04
5.10552631578947e+00 2.76089110394312e-02 2.05371451929142e-04
5.15131578947368e+00 2.74423406885063e-02 2.05045778922730e-04
5.19710526315789e+00 2.72767752912429e-02 2.04712533754031e-04
5.24289473684211e+00 2.71122087848648e-02 2.04371896624836e-04
5.28868421052632e+00 2.69486351428490e-02 2.04024044203007e-04
5.33447368421053e+00 2.67860483747299e-02 2.03669149139769e-04
5.38026315789474e+00 2.66244425267959e-02 2.03307380460268e-04
5.42605263157895e+00 2.64638116809454e-02 2.02938903939753e-04
5.47184210526316e+00 2.63041499544935e-02 2.02563881629949e-04
5.51763157894737e+00 2.61454515008310e-02 2.02182472319359e-04
5.56342105263158e+00 2.59877105080452e-02 2.01794831532662e-04
5.60921052631579e+00 2.58309211998586e-02 2.01401111515067e-04
5.65500000000000e+00 2.56750778345544e-02 2.01001461674900e-04
5.70078947368421e+00 2.55201747047873e-02 2.00596028122235e-04
5.74657894736842e+00 2.53662061381918e-02 2.00184954013108e-04
5.79236842105263e+00 2.52131664963482e-02 1.99768379881668e-04
5.83815789473684e+00 2.50610501745972e-02 1.99346443188782e-04
5.88394736842105e+00 2.49098516026155e-02 1.98919278733330e-04
5.92973684210526e+00 2.47595652431704e-02 1.98487018638446e-04
5.97552631578947e+00 2.46101855929471e-02 1.98049792324356e-04
6.02131578947368e+00 2.44617071815752e-02 1.97607726905425e-04
6.06710526315789e+00 2.43141245714469e-02 1.97160946752477e-04
6.11289473684211e+00 2.41674323582494e-02 1.96709573799605e-04
6.15868421052632e+00 2.40216251700279e-02 1.96253727840801e-04
6.20447368421053e+00 2.38766976670066e-02 1.95793526102504e-04
6.25026315789474e+00 2.37326445420938e-02 1.95329083537762e-04
6.29605263157895e+00 2.35894605199802e-02 1.94860513110723e-04
6.34184210526316e+00 2.34471403569611e-02 1.94387925379412e-04
6.38763157894737e+00 2.33056788414176e-02 1.93911428851880e-04
6.43342105263158e+00 2.31650707927291e-02 1.93431129962188e-04
6.47921052631579e+00 2.30253110619704e-02 1.92947133034981e-04
6.52500000000000e+00 2.28863945310588e-02 1.92459540630761e-04
6.57078947368421e+00 2.27483161125813e-02 1.91968453142675e-04
6.61657894736842e+00 2.26110707502406e-02 1.91473969061896e-04
6.66236842105263e+00 2.24746534180314e-02 1.90976185234580e-04
6.70815789473684e+00 2.23390591200715e-02 1.90475196468629e-04
6.75394736842105e+00 2.22042828910248e-02 1.89971095857741e-04
6.79973684210526e+00 2.20703197951112e-02 1.89463974753069e-04
6.84552631578947e+00 2.19371649267257e-02 1.88953922724451e-04
6.89131578947368e+00 2.18048134096598e-02 1.88441027875229e-04
6.93710526315789e+00 2.16732603969357e-02 1.87925376462939e-04
6.98289473684211e+00 2.15425010711993e-02 1.87407053140209e-04
7.02868421052632e+00 2.14125306439683e-02 1.86886141188300e-04
7.07447368421053e+00 2.12833443554691e-02 1.86362722147309e-04
7.12026315789474e+00 2.11549374750109e-02 1.85836876048503e-04
7.16605263157895e+00 2.10273053002596e-02 1.85308681639616e-04
7.21184210526316e+00 2.09004431570767e-02 1.84778216024422e-04
7.25763157894737e+00 2.07743463998758e-02 1.84245554948750e-04
7.30342105263158e+00 2.06490104107501e-02 1.83710772769334e-04
7.34921052631579e+00 2.05244305999983e-02 1.83173942413496e-04
7.39500000000000e+00 2.04006024054355e-02 1.82635135657689e-04
7.44078947368421e+00 2.02775212922376e-02 1.82094422780252e-04
7.48657894736842e+00 2.01551827532715e-02 1.81551872773797e-04
7.53236842105263e+00 2.00335823084293e-02 1.81007553551335e-04
7.57815789473684e+00 1.99127155044743e-02 1.80461531607849e-04
7.62394736842105e+00 1.97925779153565e-02 1.79913872283245e-04
7.66973684210526e+00 1.96731651414131e-02 1.79364639730262e-04
7.71552631578947e+00 1.95544728098382e-02 1.78813896873947e-04
7.76131578947368e+00 1.94364965740501e-02 1.78261705668105e-04
7.80710526315789e+00 1.93192321135419e-02 1.77708126769441e-04
7.85289473684211e+00 1.92026751341745e-02 1.77153219732494e-04
7.89868421052632e+00 1.90868213675639e-02 1.76597043198869e-04
7.94447368421053e+00 1.89716665709347e-02 1.76039654579755e-04
7.99026315789474e+00 1.88572065273994e-02 1.75481110244592e-04
8.03605263157895e+00 1.87434370453651e-02 1.74921465704315e-04
8.08184210526316e+00 1.86303539583894e-02 1.74360775301967e-04
8.12763157894737e+00 1.85179531254466e-02 1.73799092447474e-04
8.17342105263158e+00 1.84062304302174e-02 1.73236469585642e-04
8.21921052631579e+00 1.82951817814918e-02 1.72672958156641e-04
8.26500000000000e+00 1.81848031126043e-02 1.72108608825376e-04
8.31078947368421e+00 1.80750903812936e-02 1.71543471183620e-04
8.35657894736842e+00 1.79660395699506e-02 1.70977593923894e-04
8.40236842105263e+00 1.78576466850718e-02 1.70411025008538e-04
8.44815789473684e+00 1.77499077571212e-02 1.69843811379453e-04
8.49394736842105e+00 1.76428188407668e-02 1.69275999175337e-04
8.53973684210526e+00 1.75363760142268e-02 1.68707633700185e-04
8.58552631578947e+00 1.74305753796307e-02 1.68138759384762e-04
8.63131578947368e+00 1.73254130624987e-02 1.67569419998974e-04
8.67710526315789e+00 1.72208852116065e-02 1.66999658372579e-04
8.72289473684211e+00 1.71169879992069e-02 1.66429516555861e-04
8.76868421052631e+00 1.70137176205242e-02 1.65859035975907e-04
8.81447368421053e+00 1.69110702936223e-02 1.65288257164409e-04
8.86026315789474e+00 1.68090422596157e-02 1.64717219913536e-04
8.90605263157895e+00 1.67076297821791e-02 1.64145963427621e-04
8.95184210526316e+00 1.66068291474179e-02 1.63574526057845e-04
8.99763157894737e+00 1.65066366640692e-02 1.63002945497687e-04
9.04342105263158e+00 1.64070486629174e-02 1.62431258752652e-04
9.08921052631579e+00 1.63080614971048e-02 1.61859502103653e-04
9.13500000000000e+00 1.62096715416647e-02 1.61287711298336e-04
9.18078947368421e+00 1.61118751933947e-02 1.60715921295785e-04
9.22657894736842e+00 1.60146688710448e-02 1.60144166410933e-04
9.27236842105263e+00 1.59180490148638e-02 1.59572480455214e-04
9.31815789473684e+00 1.58220120864750e-02 1.59000896487709e-04
9.36394736842105e+00 1.57265545690557e-02 1.58429446996778e-04
9.40973684210526e+00 1.56316729667966e-02 1.57858163870758e-04
9.45552631578947e+00 1.55373638051816e-02 1.57287078362785e-04
9.50131578947368e+00 1.54436236305554e-02 1.56716221268729e-04
9.54710526315789e+00 1.53504490100022e-02 1.56145622687687e-04
9.59289473684210e+00 1.52578365315132e-02 1.55575312156063e-04
9.63868421052632e+00 1.51657828035664e-02 1.55005318778214e-04
9.68447368421053e+00 1.50742844550079e-02 1.54435670992931e-04
9.73026315789474e+00 1.49833381352118e-02 1.53866396703793e-04
9.77605263157895e+00 1.48929405136719e-02 1.53297523406161e-04
9.82184210526316e+00 1.48030882798848e-02 1.52729077959494e-04
9.86763157894737e+00 1.47137781435032e-02 1.52161086751651e-04
9.91342105263158e+00 1.46250068338498e-02 1.51593575671219e-04
9.95921052631579e+00 1.45367711001594e-02 1.51026570074525e-04
1.00050000000000e+01 1.44490677111892e-02 1.50460094799762e-04
1.00507894736842e+01 1.43618934554492e-02 1.49894174500168e-04
1.00965789473684e+01 1.42752451400506e-02 1.49328833248062e-04
1.01423684210526e+01 1.41891195918889e-02 1.48764094318691e-04
1.01881578947368e+01 1.41035136570037e-02 1.48199980401715e-04
1.02339473684211e+01 1.40184242012927e-02 1.47636514458158e-04
1.02797368421053e+01 1.39338481078972e-02 1.47073719009886e-04
1.03255263157895e+01 1.38497822795980e-02 1.46511615418720e-04
1.03713157894737e+01 1.37662236378628e-02 1.45950224640581e-04
1.04171052631579e+01 1.36831691235284e-02 1.45389567907906e-04
1.04628947368421e+01 1.36006156942907e-02 1.44829666041525e-04
1.05086842105263e+01 1.35185603270011e-02 1.44270538416083e-04
1.05544736842105e+01 1.34370000175212e-02 1.43712205037646e-04
1.06002631578947e+01 1.33559317782914e-02 1.43154685520131e-04
1.06460526315789e+01 1.32753526405526e-02 1.42597998405903e-04
1.06918421052632e+01 1.31952596534560e-02 1.42042161875591e-04
1.07376315789474e+01 1.31156498846955e-02 1.41487194390685e-04
1.07834210526316e+01 1.30365204181724e-02 1.40933114044880e-04
1.08292105263158e+01 1.29578683561261e-02 1.40379937905971e-04
1.08750000000000e+01 1.28796908182786e-02 1.39827682702980e-04
1.09207894736842e+01 1.28019849424386e-02 1.39276365448297e-04
1.09665789473684e+01 1.27247478822590e-02 1.38726002809239e-04
1.10123684210526e+01 1.26479768092797e-02 1.38176610470551e-04
1.10581578947368e+01 1.25716689121054e-02 1.37628203799580e-04
1.11039473684211e+01 1.24958213969840e-02 1.37080798448768e-04
1.11497368421053e+01 1.24204314856507e-02 1.36534409746744e-04
1.11955263157895e+01 1.23454964172889e-02 1.35989052080648e-04
1.12413157894737e+01 1.22710134477387e-02 1.35444739540222e-04
1.12871052631579e+01 1.21969798500506e-02 1.34901486501300e-04
1.13328947368421e+01 1.21233929124139e-02 1.34359307035764e-04
1.13786842105263e+01 1.20502499400372e-02 1.33818214024822e-04
1.14244736842105e+01 1.19775482550220e-02 1.33278220937404e-04
1.14702631578947e+01 1.19052851943535e-02 1.32739340952559e-04
1.15160526315789e+01 1.18334581117220e-02 1.32201586376645e-04
1.15618421052632e+01 1.17620643767832e-02 1.31664969250492e-04
1.16076315789474e+01 1.16911013756717e-02 1.31129501899598e-04
1.16534210526316e+01 1.16205665090690e-02 1.30595196377285e-04
1.16992105263158e+01 1.15504571939527e-02 1.30062063899852e-04
1.17450000000000e+01 1.14807708628840e-02 1.29530115434682e-04
1.17907894736842e+01 1.14115049644998e-02 1.28999362233340e-04
1.18365789473684e+01 1.13426569616544e-02 1.28469815291796e-04
1.18823684210526e+01 1.12742243330988e-02 1.27941484802929e-04
1.19281578947368e+01 1.12062045727954e-02 1.27414380726294e-04
1.19739473684211e+01 1.11385951903891e-02 1.26888513304673e-04
1.20197368421053e+01 1.10713937094195e-02 1.26363892540778e-04
1.20655263157895e+01 1.10045976689340e-02 1.25840527666571e-04
1.21113157894737e+01 1.09382046228276e-02 1.25318427695306e-04
1.21571052631579e+01 1.08722121402948e-02 1.24797601922061e-04
1.22028947368421e+01 1.08066178041086e-02 1.24278059416450e-04
1.22486842105263e+01 1.07414192121705e-02 1.23759808260508e-04
1.22944736842105e+01 1.06766139774001e-02 1.23242857075671e-04
1.23402631578947e+01 1.06121997260645e-02 1.22727214268285e-04
1.23860526315789e+01 1.05481740992813e-02 1.22212887528308e-04
1.24318421052632e+01 1.04845347523991e-02 1.21699884350349e-04
1.24776315789474e+01 1.04212793554176e-02 1.21188212506266e-04
1.25234210526316e+01 1.03584055913801e-02 1.20677879565886e-04
1.25692105263158e+01 1.02959111578173e-02 1.20168892410935e-04
1.26150000000000e+01 1.02337937661510e-02 1.19661257740054e-04
1.26607894736842e+01 1.01720511420965e-02 1.19154982526919e-04
1.27065789473684e+01 1.01106810241151e-02 1.18650073555455e-04
1.27523684210526e+01 1.00496811648013e-02 1.18146536948511e-04
1.27981578947368e+01 9.98904933030927e-03 1.17644378657352e-04
1.28439473684211e+01 9.92878330073783e-03 1.17143604905798e-04
1.28897368421053e+01 9.86888086864022e-03 1.16644221739472e-04
1.29355263157895e+01 9.80933984035843e-03 1.16146234568723e-04
1.29813157894737e+01 9.75015803546962e-03 1.15649648643115e-04
1.30271052631579e+01 9.69133328715601e-03 1.15154469482079e-04
1.30728947368421e+01 9.63286344076896e-03 1.14660702437717e-04
1.31186842105263e+01 9.57474635511231e-03 1.14168352038172e-04
1.31644736842105e+01 9.51697990234563e-03 1.13677423302234e-04
1.32102631578947e+01 9.45956196658896e-03 1.13187921089108e-04
1.32560526315789e+01 9.40249044516813e-03 1.12699849666220e-04
1.33018421052632e+01 9.34576324809446e-03 1.12213213157609e-04
1.33476315789474e+01 9.28937829840970e-03 1.11728015950915e-04
1.33934210526316e+01 9.23333353084161e-03 1.11244262283953e-04
1.34392105263158e+01 9.17762689300200e-03 1.10761955825519e-04
1.34850000000000e+01 9.12225634488500e-03 1.10281100110143e-04
1.35307894736842e+01 9.06721985919795e-03 1.09801698932801e-04
1.35765789473684e+01 9.01251542006578e-03 1.09323755947883e-04
1.36223684210526e+01 8.95814102418364e-03 1.08847274262491e-04
1.36681578947368e+01 8.90409468033315e-03 1.08372256858055e-04
1.37139473684211e+01 8.85037440969974e-03 1.07898706973201e-04
1.37597368421053e+01 8.79697824462385e-03 1.07426627714611e-04
1.38055263157895e+01 8.74390422971018e-03 1.06956021662506e-04
1.38513157894737e+01 8.69115042136101e-03 1.06486891279539e-04
1.38971052631579e+01 8.63871488808079e-03 1.06019239282148e-04
1.39428947368421e+01 8.58659570927213e-03 1.05553068263027e-04
1.39886842105263e+01 8.53479097630351e-03 1.05088380124176e-04
1.40344736842105e+01 8.48329879242420e-03 1.04625177211207e-04
1.40802631578947e+01 8.43211727159366e-03 1.04163461751812e-04
1.41260526315789e+01 8.38124453951826e-03 1.03703235482432e-04
1.41718421052632e+01 8.33067873321204e-03 1.03244500034982e-04
1.42176315789474e+01 8.28041800128115e-03 1.02787257288130e-04
1.42634210526316e+01 8.23046050279485e-03 1.02331509010007e-04
1.43092105263158e+01 8.18080440828368e-03 1.01877256495931e-04
1.43550000000000e+01 8.13144789931568e-03 1.01424500943563e-04
1.44007894736842e+01 8.08238916876931e-03 1.00973243793734e-04
1.44465789473684e+01 8.03362641974460e-03 1.00523486383704e-04
