Energy (eV)          EEDF (eV^-(3/2))     First Anisotropy
2.68032786885246e-02 3.86153395463540e-02 1.85586552447224e-05
8.04098360655738e-02 3.83973443597005e-02 3.06621931781763e-05
1.34016393442623e-01 3.81805798209146e-02 4.05215123891221e-05
1.87622950819672e-01 3.79650389840565e-02 4.80385222471050e-05
2.41229508196721e-01 3.77507149392198e-02 5.43300333495936e-05
2.94836065573771e-01 3.75376008184794e-02 5.98175415618047e-05
3.48442622950820e-01 3.73256897912071e-02 6.47188014373848e-05
4.02049180327869e-01 3.71149750649373e-02 6.91650906449596e-05
4.55655737704918e-01 3.69054498868020e-02 7.32433322456416e-05
5.09262295081967e-01 3.66971075413594e-02 7.70148616593289e-05
5.62868852459016e-01 3.64899413507628e-02 8.05250086454363e-05
6.16475409836066e-01 3.62839446756595e-02 8.38084779566152e-05
6.70081967213115e-01 3.60791109134309e-02 8.68925911626208e-05
7.23688524590164e-01 3.58754334994234e-02 8.97993494983527e-05
7.77295081967213e-01 3.56729059056750e-02 9.25468052245901e-05
8.30901639344262e-01 3.54715216408422e-02 9.51500060804307e-05
8.84508196721312e-01 3.52712742507488e-02 9.76216658887909e-05
9.38114754098361e-01 3.50721573173759e-02 9.99726527774282e-05
9.91721311475410e-01 3.48741644587472e-02 1.02212352222014e-04
1.04532786885246e+00 3.46772893293295e-02 1.04348942637890e-04
1.09893442622951e+00 3.44815256186358e-02 1.06389607413923e-04
1.15254098360656e+00 3.42868670541485e-02 1.08340701735895e-04
1.20614754098361e+00 3.40933073952505e-02 1.10207884062956e-04
1.25975409836066e+00 3.39008404383291e-02 1.11996221289912e-04
1.31336065573770e+00 3.37094600147706e-02 1.13710274983591e-04
1.36696721311475e+00 3.35191599922233e-02 1.15354171979817e-04
1.42057377049180e+00 3.33299342700714e-02 1.16931661953443e-04
1.47418032786885e+00 3.31417767835912e-02 1.18446165278729e-04
1.52778688524590e+00 3.29546815022876e-02 1.19900814002155e-04
1.58139344262295e+00 3.27686424309180e-02 1.21298486438794e-04
1.63500000000000e+00 3.25836536056551e-02 1.22641835890167e-04
1.68860655737705e+00 3.23997090975601e-02 1.23933315137623e-04
1.74221311475410e+00 3.22168030111640e-02 1.25175198255314e-04
1.79581967213115e+00 3.20349294853152e-02 1.26369599445872e-04
1.84942622950820e+00 3.18540826898630e-02 1.27518488751144e-04
1.90303278688525e+00 3.16742568286162e-02 1.28623705704224e-04
1.95663934426230e+00 3.14954461381085e-02 1.29686971984410e-04
2.01024590163934e+00 3.13176448883117e-02 1.30709902530055e-04
2.06385245901639e+00 3.11408473797253e-02 1.31694014744220e-04
2.11745901639344e+00 3.09650479459356e-02 1.32640736606180e-04
2.17106557377049e+00 3.07902409525233e-02 1.33551414528565e-04
2.22467213114754e+00 3.06164207976714e-02 1.34427320346601e-04
2.27827868852459e+00 3.04435819095812e-02 1.35269657001432e-04
2.33188524590164e+00 3.02717187487120e-02 1.36079563458526e-04
2.38549180327869e+00 3.01008258075240e-02 1.36858120436145e-04
2.43909836065574e+00 2.99308976081105e-02 1.37606354322406e-04
2.49270491803279e+00 2.97619287042232e-02 1.38325240823328e-04
2.54631147540984e+00 2.95939136803563e-02 1.39015708834911e-04
2.59991803278689e+00 2.94268471522277e-02 1.39678643943479e-04
2.65352459016393e+00 2.92607237646435e-02 1.40314891108822e-04
2.70713114754098e+00 2.90955381932985e-02 1.40925257082164e-04
2.76073770491803e+00 2.89312851439440e-02 1.41510513149117e-04
2.81434426229508e+00 2.87679593528064e-02 1.42071397625270e-04
2.86795081967213e+00 2.86055555846468e-02 1.42608617669574e-04
2.92155737704918e+00 2.84440686343734e-02 1.43122850925206e-04
2.97516393442623e+00 2.82834933262795e-02 1.43614747533264e-04
3.02877049180328e+00 2.81238245144096e-02 1.44084931973836e-04
3.08237704918033e+00 2.79650570807863e-02 1.44534004315029e-04
3.13598360655738e+00 2.78071859368621e-02 1.44962541345685e-04
3.18959016393443e+00 2.76502060228181e-02 1.45371098100625e-04
3.24319672131148e+00 2.74941123078852e-02 1.45760209260282e-04
3.29680327868852e+00 2.73388997887157e-02 1.46130390022264e-04
3.35040983606557e+00 2.71845634906974e-02 1.46482136784931e-04
3.40401639344262e+00 2.70310984677563e-02 1.46815928764113e-04
3.45762295081967e+00 2.68784998008289e-02 1.47132228549669e-04
3.51122950819672e+00 2.67267625990799e-02 1.47431482713978e-04
3.56483606557377e+00 2.65758819992821e-02 1.47714122809790e-04
3.61844262295082e+00 2.64258531660814e-02 1.47980566289866e-04
3.67204918032787e+00 2.62766712905815e-02 1.48231216980208e-04
3.72565573770492e+00 2.61283315914556e-02 1.48466465507194e-04
3.77926229508197e+00 2.59808293143678e-02 1.48686690106925e-04
3.83286885245902e+00 2.58341597322077e-02 1.48892257372110e-04
3.88647540983607e+00 2.56883181437766e-02 1.49083522584133e-04
3.94008196721312e+00 2.55432998748040e-02 1.49260830010788e-04
3.99368852459016e+00 2.53991002774072e-02 1.49424513575930e-04
4.04729508196721e+00 2.52557147302988e-02 1.49574897477923e-04
4.10090163934426e+00 2.51131386375633e-02 1.49712296419700e-04
4.15450819672131e+00 2.49713674295897e-02 1.49837015812627e-04
4.20811475409836e+00 2.48303965625649e-02 1.49949352340495e-04
4.26172131147541e+00 2.46902215186576e-02 1.50049594480570e-04
4.31532786885246e+00 2.45508378048756e-02 1.50138022658863e-04
4.36893442622951e+00 2.44122409539242e-02 1.50214909300768e-04
4.42254098360656e+00 2.42744265240413e-02 1.50280519651231e-04
4.47614754098361e+00 2.41373900979120e-02 1.50335111798685e-04
4.52975409836066e+00 2.40011272834742e-02 1.50378936771794e-04
4.58336065573770e+00 2.38656337134592e-02 1.50412238971092e-04
4.63696721311475e+00 2.37309050455448e-02 1.50435256567770e-04
4.69057377049180e+00 2.35969369613371e-02 1.50448221572828e-04
4.74418032786885e+00 2.34637251671148e-02 1.50451359892441e-04
4.79778688524590e+00 2.33312653933954e-02 1.50444891705909e-04
4.85139344262295e+00 2.31995533950720e-02 1.50429031814775e-04
4.90500000000000e+00 2.30685849504548e-02 1.50403989678284e-04
4.95860655737705e+00 2.29383558619618e-02 1.50369969437617e-04
5.01221311475410e+00 2.28088619557072e-02 1.50327170250664e-04
5.06581967213115e+00 2.26800990816236e-02 1.50275786600959e-04
5.11942622950820e+00 2.25520631125592e-02 1.50216008307663e-04
5.17303278688525e+00 2.24247499449184e-02 1.50148020526292e-04
5.22663934426230e+00 2.22981554982717e-02 1.50072004048115e-04
5.28024590163934e+00 2.21722757154645e-02 1.49988135576323e-04
5.33385245901639e+00 2.20471065617650e-02 1.49896587716622e-04
5.38745901639344e+00 2.19226440254594e-02 1.49797528960085e-04
5.44106557377049e+00 2.17988841174823e-02 1.49691123953286e-04
5.49467213114754e+00 2.16758228715123e-02 1.49577533747355e-04
5.54827868852459e+00 2.15534563431671e-02 1.49456915773736e-04
5.60188524590164e+00 2.14317806105579e-02 1.49329423748161e-04
5.65549180327869e+00 2.13107917741513e-02 1.49195208178290e-04
5.70909836065574e+00 2.11904859559971e-02 1.49054416262502e-04
5.76270491803279e+00 2.10708593002537e-02 1.48907191852132e-04
5.81631147540984e+00 2.09519079728465e-02 1.48753675680227e-04
5.86991803278689e+00 2.08336281615475e-02 1.48594005572239e-04
5.92352459016394e+00 2.07160160752442e-02 1.48428316404957e-04
5.97713114754098e+00 2.05990679444299e-02 1.48256740060320e-04
6.03073770491803e+00 2.04827800208774e-02 1.48079405635804e-04
6.08434426229508e+00 2.03671485777104e-02 1.47896439638050e-04
6.13795081967213e+00 2.02521699087090e-02 1.47707965934846e-04
6.19155737704918e+00 2.01378403287682e-02 1.47514105702645e-04
6.24516393442623e+00 2.00241561735863e-02 1.47314977621112e-04
6.29877049180328e+00 1.99111137997279e-02 1.47110698052014e-04
6.35237704918033e+00 1.97987095839645e-02 1.46901380986037e-04
6.40598360655738e+00 1.96869399237027e-02 1.46687137985658e-04
6.45959016393443e+00 1.95758012366875e-02 1.46468078365862e-04
6.51319672131148e+00 1.94652899610565e-02 1.46244309360257e-04
6.56680327868852e+00 1.93554025547137e-02 1.46015936064089e-04
6.62040983606557e+00 1.92461354957302e-02 1.45783061319704e-04
6.67401639344262e+00 1.91374852822228e-02 1.45545786101611e-04
6.72762295081967e+00 1.90294484317503e-02 1.45304209400945e-04
6.78122950819672e+00 1.89220214816954e-02 1.45058428163729e-04
6.83483606557377e+00 1.88152009889877e-02 1.44808537450678e-04
6.88844262295082e+00 1.87089835301487e-02 1.44554630583970e-04
6.94204918032787e+00 1.86033657007164e-02 1.44296799086673e-04
6.99565573770492e+00 1.84983441156038e-02 1.44035132619263e-04
7.04926229508197e+00 1.83939154088334e-02 1.43769719129631e-04
7.10286885245902e+00 1.82900762335761e-02 1.43500644990848e-04
7.15647540983607e+00 1.81868232616029e-02 1.43227994939196e-04
7.21008196721311e+00 1.80841531836209e-02 1.42951852009550e-04
7.26368852459016e+00 1.79820627090195e-02 1.42672297676689e-04
7.31729508196721e+00 1.78805485659031e-02 1.42389411984958e-04
7.37090163934426e+00 1.77796075005683e-02 1.42103273485500e-04
7.42450819672131e+00 1.76792362778195e-02 1.41813959171078e-04
7.47811475409836e+00 1.75794316807252e-02 1.41521544609467e-04
7.53172131147541e+00 1.74801905106461e-02 1.41226104065896e-04
7.58532786885246e+00 1.73815095867351e-02 1.40927710439908e-04
7.63893442622951e+00 1.72833857462351e-02 1.40626435154836e-04
7.69254098360656e+00 1.71858158443703e-02 1.40322348465107e-04
7.74614754098361e+00 1.70887967538638e-02 1.40015519345897e-04
7.79975409836066e+00 1.69923253652209e-02 1.39706015428422e-04
7.85336065573771e+00 1.68963985865006e-02 1.39393903120794e-04
7.90696721311475e+00 1.68010133433377e-02 1.39079247718887e-04
7.96057377049180e+00 1.67061665784804e-02 1.38762113343878e-04
8.01418032786885e+00 1.66118552520578e-02 1.38442562877862e-04
8.06778688524590e+00 1.65180763413597e-02 1.38120658078732e-04
8.12139344262295e+00 1.64248268408549e-02 1.37796459685399e-04
8.17500000000000e+00 1.63321037617487e-02 1.37470027355852e-04
8.22860655737705e+00 1.62399041322350e-02 1.37141419603367e-04
8.28221311475410e+00 1.61482249972842e-02 1.36810693905790e-04
8.33581967213115e+00 1.60570634186582e-02 1.36477906805729e-04
8.38942622950820e+00 1.59664164744864e-02 1.36143113849181e-04
8.44303278688525e+00 1.58762812595035e-02 1.35806369522560e-04
8.49663934426230e+00 1.57866548848450e-02 1.35467727356891e-04
8.55024590163934e+00 1.56975344780593e-02 1.35127240023229e-04
8.60385245901639e+00 1.56089171827015e-02 1.34784959272186e-04
8.65745901639344e+00 1.55208001585568e-02 1.34440935871808e-04
8.71106557377049e+00 1.54331805814447e-02 1.34095219707032e-04
8.76467213114754e+00 1.53460556432272e-02 1.33747859870813e-04
8.81827868852459e+00 1.52594225514196e-02 1.33398904604497e-04
8.87188524590164e+00 1.51732785294017e-02 1.33048401199975e-04
8.92549180327869e+00 1.50876208163238e-02 1.32696396242242e-04
8.97909836065574e+00 1.50024466667301e-02 1.32342935512128e-04
9.03270491803279e+00 1.49177533507600e-02 1.31988063926396e-04
9.08631147540984e+00 1.48335381539636e-02 1.31631825629381e-04
9.13991803278689e+00 1.47497983773067e-02 1.31274264076903e-04
9.19352459016394e+00 1.46665313368082e-02 1.30915421978812e-04
9.24713114754098e+00 1.45837343637310e-02 1.30555341240233e-04
9.30073770491803e+00 1.45014048044036e-02 1.30194063049312e-04
9.35434426229508e+00 1.44195400202232e-02 1.29831627957593e-04
9.40795081967213e+00 1.43381373873067e-02 1.29468075823700e-04
9.46155737704918e+00 1.42571942966719e-02 1.29103445755721e-04
9.51516393442623e+00 1.41767081540650e-02 1.28737776195389e-04
9.56877049180328e+00 1.40966763799614e-02 1.28371104995104e-04
9.62237704918033e+00 1.40170964092306e-02 1.28003469362756e-04
9.67598360655738e+00 1.39379656913072e-02 1.27634905805388e-04
9.72959016393443e+00 1.38592816900246e-02 1.27265450209913e-04
9.78319672131148e+00 1.37810418836137e-02 1.26895137917058e-04
9.83680327868852e+00 1.37032437643810e-02 1.26524003667368e-04
9.89040983606557e+00 1.36258848388698e-02 1.26152081514788e-04
9.94401639344262e+00 1.35489626277775e-02 1.25779405029658e-04
9.99762295081967e+00 1.34724746656426e-02 1.25406007120927e-04
1.00512295081967e+01 1.33964185012253e-02 1.25031920381531e-04
1.01048360655738e+01 1.33207916963722e-02 1.24657176459251e-04
1.01584426229508e+01 1.32455918279633e-02 1.24281806759084e-04
1.02120491803279e+01 1.31708164850771e-02 1.23905842375766e-04
1.02656557377049e+01 1.30964632711440e-02 1.23529312969196e-04
1.03192622950820e+01 1.30225298038421e-02 1.23152248590785e-04
1.03728688524590e+01 1.29490137128591e-02 1.22774678497175e-04
1.04264754098361e+01 1.28759126426861e-02 1.22396631430897e-04
1.04800819672131e+01 1.28032242497065e-02 1.22018135664367e-04
1.05336885245902e+01 1.27309462049227e-02 1.21639218972845e-04
1.05872950819672e+01 1.26590761911127e-02 1.21259908958034e-04
1.06409016393443e+01 1.25876119048232e-02 1.20880231896664e-04
1.06945081967213e+01 1.25165510562707e-02 1.20500214463330e-04
1.07481147540984e+01 1.24458913672638e-02 1.20119882610132e-04
1.08017213114754e+01 1.23756305737906e-02 1.19739261831206e-04
1.08553278688525e+01 1.23057664233175e-02 1.19358377203310e-04
1.09089344262295e+01 1.22362966773147e-02 1.18977253360033e-04
1.09625409836066e+01 1.21672191086168e-02 1.18595914796409e-04
1.10161475409836e+01 1.20985315032688e-02 1.18214384781279e-04
1.10697540983607e+01 1.20302316604325e-02 1.17832686983696e-04
1.11233606557377e+01 1.19623173904555e-02 1.17450844414164e-04
1.11769672131148e+01 1.18947865172708e-02 1.17068879674191e-04
1.12305737704918e+01 1.18276368758860e-02 1.16686814993849e-04
1.12841803278689e+01 1.17608663147267e-02 1.16304672207162e-04
1.13377868852459e+01 1.16944726931823e-02 1.15922473039165e-04
1.13913934426230e+01 1.16284538833192e-02 1.15540238077929e-04
1.14450000000000e+01 1.15628077697907e-02 1.15157988310891e-04
1.14986065573770e+01 1.14975322480410e-02 1.14775744123826e-04
1.15522131147541e+01 1.14326252265331e-02 1.14393525536385e-04
1.16058196721311e+01 1.13680846244123e-02 1.14011352478167e-04
1.16594262295082e+01 1.13039083731348e-02 1.13629243799133e-04
1.17130327868852e+01 1.12400944163799e-02 1.13247218747641e-04
1.17666393442623e+01 1.11766407083413e-02 1.12865296006665e-04
1.18202459016393e+01 1.11135452158440e-02 1.12483493920596e-04
1.18738524590164e+01 1.10508059161209e-02 1.12101830528261e-04
1.19274590163934e+01 1.09884207988822e-02 1.11720323540126e-04
1.19810655737705e+01 1.09263878641403e-02 1.11338990598852e-04
1.20346721311475e+01 1.08647051237223e-02 1.10957848343109e-04
1.20882786885246e+01 1.08033706011877e-02 1.10576913805081e-04
1.21418852459016e+01 1.07423823302345e-02 1.10196203498619e-04
1.21954918032787e+01 1.06817383566688e-02 1.09815733633502e-04
1.22490983606557e+01 1.06214367363322e-02 1.09435520146184e-04
1.23027049180328e+01 1.05614755370274e-02 1.09055578678088e-04
1.23563114754098e+01 1.05018528364899e-02 1.08675924821731e-04
1.24099180327869e+01 1.04425667237954e-02 1.08296573234614e-04
1.24635245901639e+01 1.03836152992810e-02 1.07917538961275e-04
1.25171311475410e+01 1.03249966730587e-02 1.07538836570232e-04
1.25707377049180e+01 1.02667089668484e-02 1.07160480356465e-04
1.26243442622951e+01 1.02087503120447e-02 1.06782484370125e-04
1.26779508196721e+01 1.01511188515099e-02 1.06404862395894e-04
1.27315573770492e+01 1.00938127376815e-02 1.06027628185567e-04
1.27851639344262e+01 1.00368301338821e-02 1.05650794619027e-04
1.28387704918033e+01 9.98016921424500e-03 1.05274374955534e-04
1.28923770491803e+01 9.92382816232551e-03 1.04898382016431e-04
1.29459836065574e+01 9.86780517280939e-03 1.04522828376670e-04
1.29995901639344e+01 9.81209844970716e-03 1.04147726391645e-04
1.30531967213115e+01 9.75670620802584e-03 1.03773088177547e-04
1.31068032786885e+01 9.70162667200082e-03 1.03398925831312e-04
1.31604098360656e+01 9.64685807631716e-03 1.03025250635820e-04
1.32140163934426e+01 9.59239866603829e-03 1.02652074244770e-04
1.32676229508197e+01 9.53824669530795e-03 1.02279407908409e-04
1.33212295081967e+01 9.48440042894386e-03 1.01907262654771e-04
1.33748360655738e+01 9.43085814074993e-03 1.01535649314786e-04
1.34284426229508e+01 9.37761811507591e-03 1.01164578503644e-04
1.34820491803279e+01 9.32467864516434e-03 1.00794060828802e-04
1.35356557377049e+01 9.27203803428998e-03 1.00424106136862e-04
1.35892622950820e+01 9.21969459569152e-03 1.00054724636076e-04
1.36428688524590e+01 9.16764665135750e-03 9.96859261624403e-05
1.36964754098361e+01 9.11589253351373e-03 9.93177203513512e-05
1.37500819672131e+01 9.06443058304467e-03 9.89501166611356e-05
1.38036885245902e+01 9.01325915094959e-03 9.85831243553415e-05
1.38572950819672e+01 8.96237659679597e-03 9.82167526995799e-05
1.39109016393443e+01 8.91178128978323e-03 9.78510102476226e-05
1.39645081967213e+01 8.86147160867751e-03 9.74859059052174e-05
1.40181147540984e+01 8.81144594067504e-03 9.71214482342310e-05
1.40717213114754e+01 8.76170268279164e-03 9.67576456153133e-05
1.41253278688525e+01 8.71224024038499e-03 9.63945062699105e-05
1.41789344262295e+01 8.66305702851523e-03 9.60320382434739e-05
1.42325409836066e+01 8.61415147049683e-03 9.56702495918446e-05
1.42861475409836e+01 8.56552199889246e-03 9.53091477042668e-05
1.43397540983607e+01 8.51716705545060e-03 9.49487403119957e-05
1.43933606557377e+01 8.46908509004067e-03 9.45890348282166e-05
1.44469672131148e+01 8.42127456195203e-03 9.42300385022886e-05
1.45005737704918e+01 8.37373393850966e-03 9.38717584404121e-05
1.45541803278689e+01 8.32646169634640e-03 9.35142015896594e-05
1.46077868852459e+01 8.27945632004604e-03 9.31573749145303e-05
1.46613934426230e+01 8.23271630307258e-03 9.28012847547542e-05
1.47150000000000e+01 8.18624014771050e-03 9.24459377818921e-05
1.47686065573770e+01 8.14002636406655e-03 9.20913403730574e-05
1.48222131147541e+01 8.09407347128481e-03 9.17374987571712e-05
1.48758196721311e+01 8.04837999624911e-03 9.13844191852425e-05
1.49294262295082e+01 8.00294447447019e-03 9.10321073108777e-05
1.49830327868852e+01 7.95776545002794e-03 9.06805691127679e-05
1.50366393442623e+01 7.91284147461651e-03 9.03298102905121e-05
1.50902459016393e+01 7.86817110870508e-03 8.99798364057652e-05
1.51438524590164e+01 7.82375292029649e-03 8.96306529007901e-05
1.51974590163934e+01 7.77958548606468e-03 8.92822650837463e-05
1.52510655737705e+01 7.73566739013749e-03 8.89346782901508e-05
1.53046721311475e+01 7.69199722492701e-03 8.85878972948525e-05
1.53582786885246e+01 7.64857359107436e-03 8.82419271874507e-05
1.54118852459016e+01 7.60539509655352e-03 8.78967727987960e-05
1.54654918032787e+01 7.56246035775829e-03 8.75524388348746e-05
1.55190983606557e+01 7.51976799833747e-03 8.72089298942752e-05
1.55727049180328e+01 7.47731665026020e-03 8.68662504542176e-05
1.56263114754098e+01 7.43510495267357e-03 8.65244050236842e-05
1.56799180327869e+01 7.39313155268013e-03 8.61833975850960e-05
1.57335245901639e+01 7.35139510528526e-03 8.58432324253466e-05
1.57871311475410e+01 7.30989427255541e-03 8.55039135912387e-05
1.58407377049180e+01 7.26862772463674e-03 8.51654450165400e-05
1.58943442622951e+01 7.22759413866132e-03 8.48278305384405e-05
1.59479508196721e+01 7.18679219974565e-03 8.44910738842731e-05
1.60015573770492e+01 7.14622059991772e-03 8.41551788167982e-05
1.60551639344262e+01 7.10587803884565e-03 8.38201486039255e-05
1.61087704918033e+01 7.06576322378732e-03 8.34859868078509e-05
1.61623770491803e+01 7.02587486879942e-03 8.31526967678457e-05
1.62159836065574e+01 6.98621169569248e-03 8.28202817208553e-05
1.62695901639344e+01 6.94677243300328e-03 8.24887448170027e-05
1.63231967213115e+01 6.90755581693118e-03 8.21580891069704e-05
1.63768032786885e+01 6.86856059032997e-03 8.18283176799080e-05
1.64304098360656e+01 6.82978550339091e-03 8.14994331596483e-05
1.64840163934426e+01 6.79122931359470e-03 8.11714384542670e-05
1.65376229508197e+01 6.75289078496769e-03 8.08443362647015e-05
1.65912295081967e+01 6.71476868897793e-03 8.05181291992606e-05
1.66448360655738e+01 6.67686180356910e-03 8.01928197882668e-05
1.66984426229508e+01 6.63916891403917e-03 7.98684104720516e-05
1.67520491803279e+01 6.60168881209241e-03 7.95449037318688e-05
1.68056557377049e+01 6.56442029648027e-03 7.92223016112180e-05
1.68592622950820e+01 6.52736217295529e-03 7.89006064279608e-05
1.69128688524590e+01 6.49051325357156e-03 7.85798203073572e-05
