Energy (eV)          EEDF (eV^-(3/2))     First Anisotropy
7.50000000000000e-01 4.04082361586564e-02 9.90184322895881e-05
2.25000000000000e+00 3.39822695988281e-02 1.51014265293485e-04
3.75000000000000e+00 2.85781998143478e-02 1.68787998006176e-04
5.25000000000000e+00 2.40335184868569e-02 1.69233646302277e-04
6.75000000000000e+00 2.02115603715564e-02 1.61874410856928e-04
8.25000000000000e+00 1.69973935725003e-02 1.50732862336866e-04
9.75000000000000e+00 1.42943633716206e-02 1.37927545753766e-04
1.12500000000000e+01 1.20211856793449e-02 1.24666179350625e-04
1.27500000000000e+01 1.01095027025959e-02 1.11653142474258e-04
1.42500000000000e+01 8.50182732551916e-03 9.92929817013215e-05
1.57500000000000e+01 7.14981438744598e-03 8.78043332785455e-05
1.72500000000000e+01 6.01280687288105e-03 7.72883933748555e-05
1.87500000000000e+01 5.05661329531105e-03 6.77719888671990e-05
2.02500000000000e+01 4.25247950896931e-03 5.92354688232597e-05
2.17500000000000e+01 3.57622402942551e-03 5.16310820995519e-05
2.32500000000000e+01 3.00751086082016e-03 4.48951857728930e-05
2.47500000000000e+01 2.52923796259047e-03 3.89563558111314e-05
2.62500000000000e+01 2.12702296598333e-03 3.37407305951565e-05
2.77500000000000e+01 1.78877067509566e-03 2.91754662655266e-05
2.92500000000000e+01 1.50430934656267e-03 2.51908969727414e-05
3.07500000000000e+01 1.26508481029006e-03 2.17218065861556e-05
3.22500000000000e+01 1.06390323299102e-03 1.87080937412986e-05
3.37500000000000e+01 8.94714789049776e-04 1.60950271464239e-05
3.52500000000000e+01 7.52431733376583e-04 1.38332292865804e-05
3.67500000000000e+01 6.32775405437713e-04 1.18784855106456e-05
3.82500000000000e+01 5.32147563646766e-04 1.01914464216872e-05
3.97500000000000e+01 4.47522180953449e-04 8.73727083643793e-06
4.12500000000000e+01 3.76354447764179e-04 7.48524184704354e-06
4.27500000000000e+01 3.16504245778633e-04 6.40837799506945e-06
4.42500000000000e+01 2.66171791488087e-04 5.48305405873443e-06
4.57500000000000e+01 2.23843514040975e-04 4.68864061523501e-06
4.72500000000000e+01 1.88246539943564e-04 4.00716776861998e-06
4.87500000000000e+01 1.58310415883827e-04 3.42301579693964e-06
5.02500000000000e+01 1.33134918627581e-04 2.92263365695223e-06
5.17500000000000e+01 1.11962983983188e-04 2.49428506261719e-06
5.32500000000000e+01 9.41579407689859e-05 2.12782105862522e-06
5.47500000000000e+01 7.91843651754327e-05 1.81447752067733e-06
5.62500000000000e+01 6.65919797844769e-05 1.54669574110601e-06
5.77500000000000e+01 5.60021130660273e-05 1.31796413662169e-06
5.92500000000000e+01 4.70963121686793e-05 1.12267909694165e-06
6.07500000000000e+01 3.96067665745856e-05 9.56023044264112e-07
6.22500000000000e+01 3.33082546437032e-05 8.13857869011473e-07
6.37500000000000e+01 2.80113708681705e-05 6.92632029077834e-07
6.52500000000000e+01 2.35568301704012e-05 5.89299735291606e-07
6.67500000000000e+01 1.98106779667712e-05 5.01250786096810e-07
6.82500000000000e+01 1.66602619564766e-05 4.26249753538351e-07
6.97500000000000e+01 1.40108445013333e-05 3.62383356532966e-07
7.12500000000000e+01 1.17827537258037e-05 3.08014983633704e-07
7.27500000000000e+01 9.90898766664140e-06 2.61745444633655e-07
7.42500000000000e+01 8.33319942541307e-06 2.22379137741289e-07
7.57500000000000e+01 7.00800273447528e-06 1.88894916556267e-07
7.72500000000000e+01 5.89354698228389e-06 1.60421028896106e-07
7.87500000000000e+01 4.95631884695436e-06 1.36213578116032e-07
8.02500000000000e+01 4.16813450143320e-06 1.15638027512252e-07
8.17500000000000e+01 3.50529208440931e-06 9.81533303638545e-08
8.32500000000000e+01 2.94785895052035e-06 8.32983228422545e-08
8.47500000000000e+01 2.47907226642065e-06 7.06800650900768e-08
8.62500000000000e+01 2.08483492775365e-06 5.99638579120576e-08
8.77500000000000e+01 1.75329163851169e-06 5.08646993622028e-08
8.92500000000000e+01 1.47447240486669e-06 4.31399776437909e-08
9.07500000000000e+01 1.23999272280729e-06 3.65832247044090e-08
9.22500000000000e+01 1.04280144378427e-06 3.10187792010579e-08
9.37500000000000e+01 8.76968736313742e-07 2.62972285765557e-08
9.52500000000000e+01 7.37507767232079e-07 2.22915182281895e-08
9.67500000000000e+01 6.20224740295708e-07 1.88936315196808e-08
9.82500000000000e+01 5.21592782566354e-07 1.60117580048248e-08
9.97500000000000e+01 4.38645886159911e-07 1.35678789755905e-08
1.01250000000000e+02 3.68889716031560e-07 1.14957095656007e-08
1.02750000000000e+02 3.10226601656163e-07 9.73894534820034e-09
1.04250000000000e+02 2.60892456993563e-07 8.24976885625637e-09
1.05750000000000e+02 2.19403731829475e-07 6.98757788390028e-09
1.07250000000000e+02 1.84512799240830e-07 5.91790295280107e-09
1.08750000000000e+02 1.55170437621122e-07 5.01148606264509e-09
1.10250000000000e+02 1.30494279045127e-07 4.24349690613552e-09
1.11750000000000e+02 1.09742275168976e-07 3.59286620734576e-09
1.13250000000000e+02 9.22903827461921e-08 3.04171882030013e-09
1.14750000000000e+02 7.76137977303987e-08 2.57489177276058e-09
1.16250000000000e+02 6.52711736465714e-08 2.17952461926546e-09
1.17750000000000e+02 5.48913496540867e-08 1.84471132999751e-09
1.19250000000000e+02 4.61621891949154e-08 1.56120453327115e-09
1.20750000000000e+02 3.88211935887153e-08 1.32116428823400e-09
1.22250000000000e+02 3.26476083118370e-08 1.11794472422044e-09
1.23750000000000e+02 2.74557845844534e-08 9.45912872808869e-10
1.25250000000000e+02 2.30895966389855e-08 8.00294862677451e-10
1.26750000000000e+02 1.94177467888836e-08 6.77045366975530e-10
1.28250000000000e+02 1.63298171142832e-08 5.72736806257671e-10
1.29750000000000e+02 1.37329490329226e-08 4.84465332590472e-10
1.31250000000000e+02 1.15490509061423e-08 4.09771065531438e-10
1.32750000000000e+02 9.71244970857370e-09 3.46570429665922e-10
1.34250000000000e+02 8.16791614377622e-09 2.93098765996790e-10
1.35750000000000e+02 6.86900381814769e-09 2.47861664023272e-10
1.37250000000000e+02 5.77665252962718e-09 2.09593694920546e-10
1.38750000000000e+02 4.85801367002976e-09 1.77223424902847e-10
1.40250000000000e+02 4.08546241913552e-09 1.49843756795227e-10
1.41750000000000e+02 3.43576702575776e-09 1.26686791467704e-10
1.43250000000000e+02 2.88939019485146e-09 1.07102522866230e-10
1.44750000000000e+02 2.42990157234613e-09 9.05407841181604e-11
1.46250000000000e+02 2.04348366025854e-09 7.65359503319252e-11
1.47750000000000e+02 1.71851630422700e-09 6.46939785828738e-11
1.49250000000000e+02 1.44522725839676e-09 5.46814291652059e-11
1.50750000000000e+02 1.21539831962928e-09 4.62161661844816e-11
1.52250000000000e+02 1.02211819405923e-09 3.90594814055013e-11
1.53750000000000e+02 8.59574664333557e-10 3.30094241812264e-11
1.55250000000000e+02 7.22879807696026e-10 2.78951533118873e-11
1.56750000000000e+02 6.07923008968383e-10 2.35721547058223e-11
1.58250000000000e+02 5.11247348312403e-10 1.99181924886064e-11
1.59750000000000e+02 4.29945646571270e-10 1.68298813754408e-11
1.61250000000000e+02 3.61573042120956e-10 1.42197852282262e-11
1.62750000000000e+02 3.04073470289066e-10 1.20139612260721e-11
1.64250000000000e+02 2.55717834469266e-10 1.01498813794526e-11
1.65750000000000e+02 2.15052009645849e-10 8.57467354783548e-12
1.67250000000000e+02 1.80853114718037e-10 7.24363296210572e-12
1.68750000000000e+02 1.52092738668564e-10 6.11896274736384e-12
1.70250000000000e+02 1.27906014733386e-10 5.16870829324164e-12
1.71750000000000e+02 1.07565612587386e-10 4.36585570134892e-12
1.73250000000000e+02 9.04598664528591e-11 3.68756910019090e-12
1.74750000000000e+02 7.60743814108927e-11 3.11454548191166e-12
1.76250000000000e+02 6.39765647903747e-11 2.63046898860701e-12
1.77750000000000e+02 5.38026174707869e-11 2.22154934870355e-12
1.79250000000000e+02 4.52465939081390e-11 1.87613151235170e-12
1.80750000000000e+02 3.80512019029489e-11 1.58436552366222e-12
1.82250000000000e+02 3.20000654457779e-11 1.33792735182263e-12
1.83750000000000e+02 2.69112179727156e-11 1.12978282920194e-12
1.85250000000000e+02 2.26316303634487e-11 9.53988051944176e-13
1.86750000000000e+02 1.90326091307745e-11 8.05520620706949e-13
1.88250000000000e+02 1.60059264183583e-11 6.80136964464919e-13
1.89750000000000e+02 1.34605654300785e-11 5.74251722690225e-13
1.91250000000000e+02 1.13199834212413e-11 4.84835781096115e-13
1.92750000000000e+02 9.51980994578699e-12 4.09330080730521e-13
1.94250000000000e+02 8.00591114240054e-12 3.45572764142436e-13
1.95750000000000e+02 6.73276184976553e-12 2.91737597990218e-13
1.97250000000000e+02 5.66207659807552e-12 2.46281929298925e-13
1.98750000000000e+02 4.76165830870595e-12 2.07902701480130e-13
2.00250000000000e+02 4.00443008075426e-12 1.75499283719480e-13
2.01750000000000e+02 3.36762094884701e-12 1.48142059779510e-13
2.03250000000000e+02 2.83208112675478e-12 1.25045885047129e-13
2.04750000000000e+02 2.38170614518439e-12 1.05547658338982e-13
2.06250000000000e+02 2.00295256672576e-12 8.90873714258988e-14
2.07750000000000e+02 1.68443071479027e-12 7.51920977188525e-14
2.09250000000000e+02 1.41656216930141e-12 6.34624648403683e-14
2.10750000000000e+02 1.19129172952997e-12 5.35612262287200e-14
2.12250000000000e+02 1.00184518237304e-12 4.52036064693160e-14
2.13750000000000e+02 8.42525591812907e-13 3.81491453952128e-14
2.15250000000000e+02 7.08541983680845e-13 3.21948085655621e-14
2.16750000000000e+02 5.95865274024660e-13 2.71691677174250e-14
2.18250000000000e+02 5.01107108634531e-13 2.29274852083294e-14
2.19750000000000e+02 4.21417970253570e-13 1.93475621833203e-14
2.21250000000000e+02 3.54401489407251e-13 1.63262319377635e-14
2.22750000000000e+02 2.98042382052439e-13 1.37763983204945e-14
2.24250000000000e+02 2.50645847025254e-13 1.16245345509181e-14
2.25750000000000e+02 2.10786600879983e-13 9.80857094805272e-15
2.27250000000000e+02 1.77266017521770e-13 8.27611116107612e-15
2.28750000000000e+02 1.49076083758853e-13 6.98292586410070e-15
2.30250000000000e+02 1.25369086864871e-13 5.89168079853387e-15
2.31750000000000e+02 1.05432122611675e-13 4.97086273926548e-15
2.33250000000000e+02 8.86656571917482e-14 4.19387261611864e-15
2.34750000000000e+02 7.45654983557553e-14 3.53825980018347e-15
2.36250000000000e+02 6.27076336108136e-14 2.98507560165871e-15
2.37750000000000e+02 5.27354795418534e-14 2.51832743647901e-15
2.39250000000000e+02 4.43491588244157e-14 2.12451800036666e-15
2.40750000000000e+02 3.72964824729102e-14 1.79225622305685e-15
2.42250000000000e+02 3.13653661472895e-14 1.51192883164481e-15
2.43750000000000e+02 2.63774524653390e-14 1.27542308889765e-15
2.45250000000000e+02 2.21827475341411e-14 1.07589273949008e-15
2.46750000000000e+02 1.86551104133368e-14 9.07560436317044e-16
2.48250000000000e+02 1.56884598717163e-14 7.65550965678128e-16
2.49750000000000e+02 1.31935843687365e-14 6.45750474104279e-16
2.51250000000000e+02 1.10954593324223e-14 5.44687646162154e-16
2.52750000000000e+02 9.33099106025779e-15 4.59433413062597e-16
2.54250000000000e+02 7.84711939885077e-15 3.87516304345287e-16
2.55750000000000e+02 6.59922214716160e-15 3.26851004543228e-16
2.57250000000000e+02 5.54977320135668e-15 2.75678056415800e-16
2.58750000000000e+02 4.66721408973089e-15 2.32512972948244e-16
2.60250000000000e+02 3.92500496309608e-15 1.96103291031497e-16
2.61750000000000e+02 3.30082650252222e-15 1.65392328316272e-16
2.63250000000000e+02 2.77590874462452e-15 1.39488597731433e-16
2.64750000000000e+02 2.33446664118664e-15 1.17639997103309e-16
2.66250000000000e+02 1.96322537956859e-15 9.92120288843139e-17
2.67750000000000e+02 1.65102118958661e-15 8.36694211438605e-17
2.69250000000000e+02 1.38846563254138e-15 7.05606190266823e-17
2.70750000000000e+02 1.16766327707231e-15 5.95046986590923e-17
2.72250000000000e+02 9.81974271936194e-16 5.01803253606297e-17
2.73750000000000e+02 8.25814675924680e-16 4.23164370051614e-17
2.75250000000000e+02 6.94488540547930e-16 3.56843831676823e-17
2.76750000000000e+02 5.84046695964004e-16 3.00912927228112e-17
2.78250000000000e+02 4.91167993639382e-16 2.53744780374605e-17
2.79750000000000e+02 4.13059434532962e-16 2.13967138443657e-17
2.81250000000000e+02 3.47372179511271e-16 1.80422541571260e-17
2.82750000000000e+02 2.92130916304689e-16 1.52134719189812e-17
2.84250000000000e+02 2.45674458965267e-16 1.28280240812142e-17
2.85750000000000e+02 2.06605793564575e-16 1.08164600016378e-17
2.87250000000000e+02 1.73750067932306e-16 9.12020387705929e-18
2.88750000000000e+02 1.46119262125364e-16 7.68985274568801e-18
2.90250000000000e+02 1.22882477216523e-16 6.48374072827808e-18
2.91750000000000e+02 1.03340948942885e-16 5.46672788388223e-18
2.93250000000000e+02 8.69070348378358e-17 4.60917855985178e-18
2.94750000000000e+02 7.30865429586790e-17 3.88609960390321e-18
2.96250000000000e+02 6.14638708088255e-17 3.27641343716038e-18
2.97750000000000e+02 5.16895075600970e-17 2.76234489483836e-18
2.99250000000000e+02 4.34695237486032e-17 2.53007835940596e-18
