Energy (eV)          EEDF (eV^-(3/2))     First Anisotropy
6.25000000000000e-03 6.13310663140043e-01 1.44334661149053e-07
1.87500000000000e-02 6.13310419317398e-01 4.88032954223323e-07
3.12500000000000e-02 6.13309706914130e-01 1.21092648710657e-06
4.37500000000000e-02 6.13308573595923e-01 2.11238028492007e-06
5.62500000000000e-02 6.13306973763695e-01 3.22778640315384e-06
6.87500000000000e-02 6.13304874052891e-01 4.56465078612057e-06
8.12500000000000e-02 6.13302221062076e-01 6.12563628014769e-06
9.37500000000000e-02 6.13298982796969e-01 7.92891755432897e-06
1.06250000000000e-01 6.13295093197820e-01 9.94815737027219e-06
1.18750000000000e-01 6.13290549941838e-01 1.21715354513543e-05
1.31250000000000e-01 6.13285298951911e-01 1.46233068755214e-05
1.43750000000000e-01 6.13279316801762e-01 1.72681455600158e-05
1.56250000000000e-01 6.13272577754428e-01 2.01103609126074e-05
1.68750000000000e-01 6.13265054288137e-01 2.31541306912576e-05
1.81250000000000e-01 6.13256717422510e-01 2.64033597631483e-05
1.93750000000000e-01 6.13247537078354e-01 2.98562572122696e-05
2.06250000000000e-01 6.13237485723795e-01 3.32964696541604e-05
2.18750000000000e-01 6.13226677886886e-01 3.66909750295026e-05
2.31250000000000e-01 6.13215098779895e-01 4.02046335017821e-05
2.43750000000000e-01 6.13202747006621e-01 4.38128535023234e-05
2.56250000000000e-01 6.13189620637811e-01 4.75136931175985e-05
2.68750000000000e-01 6.13175717239347e-01 5.13055313839202e-05
2.81250000000000e-01 6.13161033895966e-01 5.51869529946858e-05
2.93750000000000e-01 6.13145567273777e-01 5.91549184852769e-05
3.06250000000000e-01 6.13129314601333e-01 6.36409181388065e-05
3.18750000000000e-01 6.13112052228537e-01 6.97087246288881e-05
3.31250000000000e-01 6.13093239061358e-01 7.77958806499371e-05
3.43750000000000e-01 6.13072457688235e-01 8.75392827305865e-05
3.56250000000000e-01 6.13049391944684e-01 9.86259202684659e-05
3.68750000000000e-01 6.13023808778107e-01 1.10785242750773e-04
3.81250000000000e-01 6.12995543505471e-01 1.23782795266707e-04
3.93750000000000e-01 6.12964487801625e-01 1.37414025929797e-04
4.06250000000000e-01 6.12930580270325e-01 1.51743267687244e-04
4.18750000000000e-01 6.12893706565275e-01 1.67813389141623e-04
4.31250000000000e-01 6.12853334846709e-01 1.86314569255753e-04
4.43750000000000e-01 6.12809039183268e-01 2.06842574475453e-04
4.56250000000000e-01 6.12760500759901e-01 2.29007946896447e-04
4.68750000000000e-01 6.12707488794332e-01 2.52478872067396e-04
4.81250000000000e-01 6.12649844525982e-01 2.76973766985005e-04
4.93750000000000e-01 6.12587467772025e-01 3.02254385431669e-04
5.06250000000000e-01 6.12520305829629e-01 3.27972431934509e-04
5.18750000000000e-01 6.12448424056025e-01 3.54181392939110e-04
5.31250000000000e-01 6.12371747325220e-01 3.80996537324521e-04
5.43750000000000e-01 6.12290274111140e-01 4.08133680693047e-04
5.56250000000000e-01 6.12204044803967e-01 4.35395101654691e-04
5.68750000000000e-01 6.12113133747792e-01 4.62612970224239e-04
5.81250000000000e-01 6.12017642414172e-01 4.89646003998535e-04
5.93750000000000e-01 6.11917693560632e-01 5.16376178318598e-04
6.06250000000000e-01 6.11813426355952e-01 5.46424706362027e-04
6.18750000000000e-01 6.11703534669727e-01 5.86369175405486e-04
6.31250000000000e-01 6.11585630750627e-01 6.38066282365491e-04
6.43750000000000e-01 6.11457785938606e-01 6.99517407200207e-04
6.56250000000000e-01 6.11318480953857e-01 7.68933070799313e-04
6.68750000000000e-01 6.11166545186350e-01 8.44753871716825e-04
6.81250000000000e-01 6.11001104576378e-01 9.25621796384457e-04
6.93750000000000e-01 6.10821536888836e-01 1.01035476497683e-03
7.06250000000000e-01 6.10627433435891e-01 1.09635936997470e-03
7.18750000000000e-01 6.10419157749894e-01 1.18807764505635e-03
7.31250000000000e-01 6.10194681896077e-01 1.29805048177982e-03
7.43750000000000e-01 6.09949850547773e-01 1.43030521116362e-03
7.56250000000000e-01 6.09681318774737e-01 1.58100797758388e-03
7.68750000000000e-01 6.09386450604659e-01 1.74673534695832e-03
7.81250000000000e-01 6.09063229468699e-01 1.92443267436897e-03
7.93750000000000e-01 6.08710179206747e-01 2.11137606330764e-03
8.06250000000000e-01 6.08326294534509e-01 2.30405545931026e-03
8.18750000000000e-01 6.07911355084606e-01 2.49625429280487e-03
8.31250000000000e-01 6.07466509961446e-01 2.68173187808610e-03
8.43750000000000e-01 6.06993645694212e-01 2.85831559360030e-03
8.56250000000000e-01 6.06494582176496e-01 3.02617205262417e-03
8.68750000000000e-01 6.05971070904827e-01 3.18549299333921e-03
8.81250000000000e-01 6.05424793194026e-01 3.33649507386681e-03
8.93750000000000e-01 6.04857358456581e-01 3.47941912142890e-03
9.06250000000000e-01 6.04270302646993e-01 3.61697880508095e-03
9.18750000000000e-01 6.03664278804472e-01 3.75431320227035e-03
9.31250000000000e-01 6.03039094383512e-01 3.89401000462230e-03
9.43750000000000e-01 6.02394546115892e-01 4.03580769030743e-03
9.56250000000000e-01 6.01730528517505e-01 4.17913172200803e-03
9.68750000000000e-01 6.01047024376872e-01 4.32345295862352e-03
9.81250000000000e-01 6.00344095660959e-01 4.46828671410066e-03
9.93750000000000e-01 5.99621874894157e-01 4.61319102981531e-03
1.00625000000000e+00 5.98880557177699e-01 4.78529476418681e-03
1.01875000000000e+00 5.98111554993815e-01 5.03003252815544e-03
1.03125000000000e+00 5.97300900576446e-01 5.35982427540550e-03
1.04375000000000e+00 5.96436594244016e-01 5.76414937184621e-03
1.05625000000000e+00 5.95508309198823e-01 6.23357274776455e-03
1.06875000000000e+00 5.94507274587684e-01 6.75919942217887e-03
1.08125000000000e+00 5.93426159777566e-01 7.33268883562739e-03
1.09375000000000e+00 5.92258959924564e-01 7.94626758280786e-03
1.10625000000000e+00 5.91000882983493e-01 8.60159510000251e-03
1.11875000000000e+00 5.89645010411403e-01 9.29515889487127e-03
1.13125000000000e+00 5.88187612935054e-01 1.00180925487277e-02
1.14375000000000e+00 5.86625038946434e-01 1.07677697352057e-02
1.15625000000000e+00 5.84954410009073e-01 1.15394042404251e-02
1.16875000000000e+00 5.83173556749120e-01 1.23285532882031e-02
1.18125000000000e+00 5.81280956816743e-01 1.31311131224197e-02
1.19375000000000e+00 5.79275675107647e-01 1.39433128228613e-02
1.20625000000000e+00 5.77157306384493e-01 1.47758484720244e-02
1.21875000000000e+00 5.74920368119665e-01 1.56199650440660e-02
1.23125000000000e+00 5.72566812005962e-01 1.64624100044610e-02
1.24375000000000e+00 5.70096335098269e-01 1.73103825487599e-02
1.25625000000000e+00 5.67508741390620e-01 1.81629450854300e-02
1.26875000000000e+00 5.64803976162550e-01 1.90189276020999e-02
1.28125000000000e+00 5.61982156845124e-01 1.98769483416038e-02
1.29375000000000e+00 5.59043600598929e-01 2.07354336426082e-02
1.30625000000000e+00 5.55988848800418e-01 2.15751971648391e-02
1.31875000000000e+00 5.52824390604369e-01 2.23968844330300e-02
1.33125000000000e+00 5.49550584178016e-01 2.32349684483740e-02
1.34375000000000e+00 5.46163313956623e-01 2.41035655992070e-02
1.35625000000000e+00 5.42658909761439e-01 2.49995892531391e-02
1.36875000000000e+00 5.39034175204430e-01 2.59197555656385e-02
1.38125000000000e+00 5.35286404532220e-01 2.68606622109480e-02
1.39375000000000e+00 5.31413388488916e-01 2.78188639800536e-02
1.40625000000000e+00 5.27413409856814e-01 2.87899465651823e-02
1.41875000000000e+00 5.23285511233184e-01 2.97712020742459e-02
1.43125000000000e+00 5.19028734102926e-01 3.07634963674882e-02
1.44375000000000e+00 5.14641868213163e-01 3.17661254437932e-02
1.45625000000000e+00 5.10124144665666e-01 3.27759387941503e-02
1.46875000000000e+00 5.05475225253305e-01 3.37898467673745e-02
1.48125000000000e+00 5.00695188270313e-01 3.48048456055409e-02
1.49375000000000e+00 4.95784511439024e-01 3.58180383242107e-02
1.50625000000000e+00 4.90744052529482e-01 3.68613626655394e-02
1.51875000000000e+00 4.85563101618944e-01 3.79318743752483e-02
1.53125000000000e+00 4.80243157096941e-01 3.89853204880418e-02
1.54375000000000e+00 4.74787988787292e-01 4.00149495397486e-02
1.55625000000000e+00 4.69200909501713e-01 4.10235166674203e-02
1.56875000000000e+00 4.63484874442325e-01 4.20131094855702e-02
1.58125000000000e+00 4.57642572151193e-01 4.29852025584152e-02
1.59375000000000e+00 4.51676507247075e-01 4.39407108802157e-02
1.60625000000000e+00 4.45589075223736e-01 4.49439133761330e-02
1.61875000000000e+00 4.39359516037205e-01 4.60288313252893e-02
1.63125000000000e+00 4.32980546272540e-01 4.72031868617854e-02
1.64375000000000e+00 4.26434791954637e-01 4.84975780285566e-02
1.65625000000000e+00 4.19706601755411e-01 4.98993487449148e-02
1.66875000000000e+00 4.12782076053046e-01 5.13956935877470e-02
1.68125000000000e+00 4.05649068413697e-01 5.29738618182602e-02
1.69375000000000e+00 3.98297160079785e-01 5.46213563202236e-02
1.70625000000000e+00 3.90717608331568e-01 5.63971271852700e-02
1.71875000000000e+00 3.82876814129083e-01 5.82267302266078e-02
1.73125000000000e+00 3.74785678794105e-01 5.99209313797005e-02
1.74375000000000e+00 3.66469181018999e-01 6.14324424677499e-02
1.75625000000000e+00 3.57951230802173e-01 6.27694846772118e-02
1.76875000000000e+00 3.49254640493263e-01 6.39404655234163e-02
1.78125000000000e+00 3.40401104278276e-01 6.49539159819500e-02
1.79375000000000e+00 3.31411185393497e-01 6.58184329783265e-02
1.80625000000000e+00 3.22304310407659e-01 6.70634546379840e-02
1.81875000000000e+00 3.12896758462488e-01 6.86329848224893e-02
1.83125000000000e+00 3.03218958810918e-01 6.99622930672180e-02
1.84375000000000e+00 2.93300980466459e-01 7.10580901668896e-02
1.85625000000000e+00 2.83172790120109e-01 7.19268578340608e-02
1.86875000000000e+00 2.72864015224768e-01 7.25765418089222e-02
1.88125000000000e+00 2.62403718992398e-01 7.30164149673727e-02
1.89375000000000e+00 2.51820187311704e-01 7.32569460044032e-02
1.90625000000000e+00 2.41140727522468e-01 7.31684285173939e-02
1.91875000000000e+00 2.30441912010462e-01 7.26359183190536e-02
1.93125000000000e+00 2.19786718163615e-01 7.17119732060829e-02
1.94375000000000e+00 2.09229439489335e-01 7.04408576327436e-02
1.95625000000000e+00 1.98822033528747e-01 6.88456795433021e-02
1.96875000000000e+00 1.88613799440336e-01 6.69509281216439e-02
1.98125000000000e+00 1.78651126602641e-01 6.47819490937204e-02
1.99375000000000e+00 1.68977316954482e-01 6.23644242451526e-02
2.00625000000000e+00 1.59632482916917e-01 5.97582175563504e-02
2.01875000000000e+00 1.50650449636987e-01 5.71099490195634e-02
2.03125000000000e+00 1.42026175013283e-01 5.45097703466531e-02
2.04375000000000e+00 1.33758001756783e-01 5.19499867597274e-02
2.05625000000000e+00 1.25843098909435e-01 4.94372558017222e-02
2.06875000000000e+00 1.18277573541781e-01 4.69773924277028e-02
2.08125000000000e+00 1.11056578814158e-01 4.45754136591110e-02
2.09375000000000e+00 1.04174418133091e-01 4.22355836609102e-02
2.10625000000000e+00 9.76246451700746e-02 3.98757073843056e-02
2.11875000000000e+00 9.14524939383083e-02 3.75348831485535e-02
2.13125000000000e+00 8.56347025585890e-02 3.53418577397165e-02
2.14375000000000e+00 8.01489437406637e-02 3.32895538158329e-02
2.15625000000000e+00 7.49740784592163e-02 3.13703344529104e-02
2.16875000000000e+00 7.00900884836175e-02 2.95769987417885e-02
2.18125000000000e+00 6.54780120033477e-02 2.79027614874688e-02
2.19375000000000e+00 6.11198822245253e-02 2.63412337146720e-02
2.20625000000000e+00 5.69986688119405e-02 2.48465522570864e-02
2.21875000000000e+00 5.31165026796501e-02 2.33821189113112e-02
2.23125000000000e+00 4.94671404008564e-02 2.19600050367385e-02
2.24375000000000e+00 4.60430833490664e-02 2.05846945122750e-02
2.25625000000000e+00 4.28366634108795e-02 1.92570754212326e-02
2.26875000000000e+00 3.98401139883003e-02 1.79776023826991e-02
2.28125000000000e+00 3.70456370899912e-02 1.67463207654550e-02
2.29375000000000e+00 3.44454665642083e-02 1.55628904207089e-02
2.30625000000000e+00 3.20319275987756e-02 1.44352895884830e-02
2.31875000000000e+00 2.97960491288956e-02 1.33846112093998e-02
2.33125000000000e+00 2.77230747069136e-02 1.24187892855542e-02
2.34375000000000e+00 2.58000712901137e-02 1.15290794892649e-02
2.35625000000000e+00 2.40151463903021e-02 1.07094221977552e-02
2.36875000000000e+00 2.23573605338230e-02 9.95426262164350e-03
2.38125000000000e+00 2.08166471740048e-02 9.25850834498634e-03
2.39375000000000e+00 1.93837394082214e-02 8.61749051155604e-03
2.40625000000000e+00 1.80501029075433e-02 8.02087108878513e-03
2.41875000000000e+00 1.68105702652406e-02 7.45914116205270e-03
2.43125000000000e+00 1.56595240207178e-02 6.93073079272230e-03
2.44375000000000e+00 1.45915311277535e-02 6.43409598946005e-03
2.45625000000000e+00 1.36015052909791e-02 5.96722821787567e-03
2.46875000000000e+00 1.26846903937158e-02 5.52821006996271e-03
2.48125000000000e+00 1.18366447959517e-02 5.11521051827900e-03
2.49375000000000e+00 1.10532264945408e-02 4.72648017314779e-03
2.50625000000000e+00 1.03305791376039e-02 4.36253509409558e-03
2.51875000000000e+00 9.66469485751897e-03 4.02712298607995e-03
2.53125000000000e+00 9.05048808557502e-03 3.72113354555544e-03
2.54375000000000e+00 8.48341216920071e-03 3.44167103825379e-03
2.55625000000000e+00 7.95933921443810e-03 3.18633167664618e-03
2.56875000000000e+00 7.47451915390583e-03 2.95294335652981e-03
2.58125000000000e+00 7.02554298822054e-03 2.73954235969104e-03
2.59375000000000e+00 6.60930976019163e-03 2.54435248328023e-03
2.60625000000000e+00 6.22299686899426e-03 2.36446261807083e-03
2.61875000000000e+00 5.86466575176853e-03 2.19774345470177e-03
2.63125000000000e+00 5.53213672509900e-03 2.04401581640308e-03
2.64375000000000e+00 5.22331339083867e-03 1.90253463050199e-03
2.65625000000000e+00 4.93627334631426e-03 1.77230894104065e-03
2.66875000000000e+00 4.66925239592485e-03 1.65243630469143e-03
2.68125000000000e+00 4.42063023618884e-03 1.54209469303809e-03
2.69375000000000e+00 4.18891747195748e-03 1.44053516307016e-03
2.70625000000000e+00 3.97274383550906e-03 1.34488919382152e-03
2.71875000000000e+00 3.77211432174677e-03 1.25419149939917e-03
2.73125000000000e+00 3.58584943709458e-03 1.17000450290221e-03
2.74375000000000e+00 3.41286625071960e-03 1.09181982244123e-03
2.75625000000000e+00 3.25216930177885e-03 1.01917421356079e-03
2.76875000000000e+00 3.10284294979501e-03 9.51643608998005e-04
2.78125000000000e+00 2.96404442274417e-03 8.88839676810251e-04
2.79375000000000e+00 2.83499749651285e-03 8.30406695915177e-04
2.80625000000000e+00 2.71498674581697e-03 7.75389375262694e-04
2.81875000000000e+00 2.60385517962673e-03 7.24348002541092e-04
2.83125000000000e+00 2.50067365338976e-03 6.78456394015932e-04
2.84375000000000e+00 2.40463009096190e-03 6.37174076329496e-04
2.85625000000000e+00 2.31498757730605e-03 6.00114905732809e-04
2.86875000000000e+00 2.23107675565655e-03 5.66930318586346e-04
2.88125000000000e+00 2.15228915092990e-03 5.37304721653275e-04
2.89375000000000e+00 2.07807130594416e-03 5.10951414810150e-04
2.90625000000000e+00 2.00791963074052e-03 4.86836584638673e-04
2.91875000000000e+00 1.94163804668863e-03 4.63662017628540e-04
2.93125000000000e+00 1.87909254167689e-03 4.41034759050026e-04
2.94375000000000e+00 1.82015430420949e-03 4.18933314444976e-04
2.95625000000000e+00 1.76469927956791e-03 3.97337632780571e-04
2.96875000000000e+00 1.71260800823547e-03 3.76228148431975e-04
2.98125000000000e+00 1.66376545692574e-03 3.55585857270618e-04
2.99375000000000e+00 1.61806084318351e-03 3.35392389095577e-04
3.00625000000000e+00 1.57538745477186e-03 3.16806204034385e-04
3.01875000000000e+00 1.53513734658857e-03 3.00081476053941e-04
3.03125000000000e+00 1.49718100789737e-03 2.84215557583905e-04
3.04375000000000e+00 1.46138670960103e-03 2.69198471705587e-04
3.05625000000000e+00 1.42763052668422e-03 2.54983158287468e-04
3.06875000000000e+00 1.39579579863486e-03 2.41525747517748e-04
3.08125000000000e+00 1.36577262943696e-03 2.28785335565623e-04
3.09375000000000e+00 1.33745742416221e-03 2.16723776425567e-04
3.10625000000000e+00 1.31075245940623e-03 2.05112123831680e-04
3.11875000000000e+00 1.28565281767700e-03 1.93974152049721e-04
3.13125000000000e+00 1.26205010451330e-03 1.83545990198990e-04
3.14375000000000e+00 1.23984201469967e-03 1.73791864860731e-04
3.15625000000000e+00 1.21893225973565e-03 1.64677106190110e-04
3.16875000000000e+00 1.19923014723179e-03 1.56169457773638e-04
3.18125000000000e+00 1.18065019624826e-03 1.48238870018203e-04
3.19375000000000e+00 1.16311178564899e-03 1.40857308770699e-04
3.20625000000000e+00 1.14653883279807e-03 1.34146901614700e-04
3.21875000000000e+00 1.13079864733051e-03 1.28049332277201e-04
3.23125000000000e+00 1.11583553988809e-03 1.22350602061081e-04
3.24375000000000e+00 1.10159636598963e-03 1.17034943707835e-04
3.25625000000000e+00 1.08803052903463e-03 1.12086890404450e-04
3.26875000000000e+00 1.07508983272038e-03 1.07491874132157e-04
3.28125000000000e+00 1.06272834517431e-03 1.03236151564744e-04
3.29375000000000e+00 1.05090227396270e-03 9.93067346863585e-05
3.30625000000000e+00 1.03956985120077e-03 9.57603614200369e-05
3.31875000000000e+00 1.02866323402553e-03 9.25572289060037e-05
3.33125000000000e+00 1.01815232220230e-03 8.95934508646236e-05
3.34375000000000e+00 1.00800651834313e-03 8.68687338823121e-05
3.35625000000000e+00 9.98196405834346e-04 8.43756791777882e-05
3.36875000000000e+00 9.88693693888653e-04 8.21072339113518e-05
3.38125000000000e+00 9.79471166603137e-04 8.00566639760677e-05
3.39375000000000e+00 9.70502635778807e-04 7.82175282448781e-05
3.40625000000000e+00 9.61762897270507e-04 7.65593779102331e-05
3.41875000000000e+00 9.53233166482350e-04 7.50099858179094e-05
3.43125000000000e+00 9.44904929776280e-04 7.35039877790114e-05
3.44375000000000e+00 9.36774316389861e-04 7.20205973303351e-05
3.45625000000000e+00 9.28837564918672e-04 7.05591247488093e-05
3.46875000000000e+00 9.21091021060967e-04 6.91188897973574e-05
3.48125000000000e+00 9.13531135227434e-04 6.76992231331547e-05
3.49375000000000e+00 9.06154460027895e-04 6.62994676312626e-05
3.50625000000000e+00 8.98957647648169e-04 6.49589404761542e-05
3.51875000000000e+00 8.91924635946689e-04 6.36877662261182e-05
3.53125000000000e+00 8.85050257878305e-04 6.24548392284239e-05
3.54375000000000e+00 8.78329515617400e-04 6.12590142166593e-05
3.55625000000000e+00 8.71757575398665e-04 6.00991769554655e-05
3.56875000000000e+00 8.65329762447371e-04 5.89742439906868e-05
3.58125000000000e+00 8.59041556000802e-04 5.78831623931143e-05
3.59375000000000e+00 8.52888584418571e-04 5.68249095175439e-05
3.60625000000000e+00 8.46866620378820e-04 5.57755661107977e-05
3.61875000000000e+00 8.40976472597868e-04 5.46910013054121e-05
3.63125000000000e+00 8.35223331702561e-04 5.35521072642122e-05
3.64375000000000e+00 8.29611994254443e-04 5.23610971411857e-05
3.65625000000000e+00 8.24147076935757e-04 5.11191738714370e-05
3.66875000000000e+00 8.18833021712982e-04 4.98275093526202e-05
3.68125000000000e+00 8.13674100772240e-04 4.84872459973358e-05
3.69375000000000e+00 8.08674421233860e-04 4.70994982416008e-05
3.70625000000000e+00 8.03837929655134e-04 4.57103849750998e-05
3.71875000000000e+00 7.99156185572365e-04 4.43661845278010e-05
3.73125000000000e+00 7.94623787640652e-04 4.30771548126347e-05
3.74375000000000e+00 7.90233192857930e-04 4.18531959051184e-05
3.75625000000000e+00 7.85977049547953e-04 4.06930185271729e-05
3.76875000000000e+00 7.81848191017036e-04 3.95953774606360e-05
3.78125000000000e+00 7.77839629554150e-04 3.85590689541493e-05
3.79375000000000e+00 7.73944550759568e-04 3.75829282250239e-05
3.80625000000000e+00 7.70156308187977e-04 3.66660669677841e-05
3.81875000000000e+00 7.66468369378604e-04 3.58078543704177e-05
3.83125000000000e+00 7.62874315109446e-04 3.50074429597630e-05
3.84375000000000e+00 7.59367882304449e-04 3.42637835970865e-05
3.85625000000000e+00 7.55942959697752e-04 3.35758555295185e-05
3.86875000000000e+00 7.52593583798077e-04 3.29426641296250e-05
3.88125000000000e+00 7.49313935100059e-04 3.23632389160321e-05
3.89375000000000e+00 7.46098334531387e-04 3.18366316465279e-05
3.90625000000000e+00 7.42941240125413e-04 3.13701401556683e-05
3.91875000000000e+00 7.39834621416332e-04 3.09588973591805e-05
3.93125000000000e+00 7.36774041154840e-04 3.05897406694253e-05
3.94375000000000e+00 7.33755158357658e-04 3.02620113923001e-05
