Energy (eV)          EEDF (eV^-(3/2))     First Anisotropy
1.78431372549020e-02 9.31484948429216e-02 4.89147823956928e-05
5.35294117647059e-02 9.25189712850781e-02 8.07708038448519e-05
8.92156862745098e-02 9.18937022231737e-02 1.06622892498069e-04
1.24901960784314e-01 9.12726589004918e-02 1.26260666024969e-04
1.60588235294118e-01 9.06558127659046e-02 1.42636945741552e-04
1.96274509803922e-01 9.00431354479050e-02 1.56867957692698e-04
2.31960784313725e-01 8.94345987763849e-02 1.69531252569455e-04
2.67647058823529e-01 8.88301747644319e-02 1.80975538779033e-04
3.03333333333333e-01 8.82298356201640e-02 1.91432047877472e-04
3.39019607843137e-01 8.76335537346167e-02 2.01064182837595e-04
3.74705882352941e-01 8.70413016896576e-02 2.09992883164021e-04
4.10392156862745e-01 8.64530522487444e-02 2.18310876124108e-04
4.46078431372549e-01 8.58687783627123e-02 2.26091268244210e-04
4.81764705882353e-01 8.52884531622345e-02 2.33393015589918e-04
5.17450980392157e-01 8.47120499622710e-02 2.40264561883691e-04
5.53137254901961e-01 8.41395422556634e-02 2.46746346357361e-04
5.88823529411765e-01 8.35709037166646e-02 2.52872584727408e-04
6.24509803921569e-01 8.30061081953466e-02 2.58672566602075e-04
6.60196078431373e-01 8.24451297204608e-02 2.64171621317293e-04
6.95882352941176e-01 8.18879424944589e-02 2.69391850841366e-04
7.31568627450980e-01 8.13345208958464e-02 2.74352695148786e-04
7.67254901960784e-01 8.07848394746820e-02 2.79071374956033e-04
8.02941176470588e-01 8.02388729545346e-02 2.83563242910332e-04
8.38627450980392e-01 7.96965962283692e-02 2.87842065574241e-04
8.74313725490196e-01 7.91579843601853e-02 2.91920252179448e-04
9.10000000000000e-01 7.86230125812215e-02 2.95809042094793e-04
9.45686274509804e-01 7.80916562913334e-02 2.99518659739418e-04
9.81372549019608e-01 7.75638910554662e-02 3.03058443715292e-04
1.01705882352941e+00 7.70396926048162e-02 3.06436955105117e-04
1.05274509803922e+00 7.65190368340239e-02 3.09662069770194e-04
1.08843137254902e+00 7.60018997977327e-02 3.12741054456345e-04
1.12411764705882e+00 7.54882577202652e-02 3.15680635069213e-04
1.15980392156863e+00 7.49780869814531e-02 3.18487055564293e-04
1.19549019607843e+00 7.44713641166785e-02 3.21166123656242e-04
1.23117647058824e+00 7.39680658284819e-02 3.23723256724025e-04
1.26686274509804e+00 7.34681689685457e-02 3.26163518867004e-04
1.30254901960784e+00 7.29716505530422e-02 3.28491653792150e-04
1.33823529411765e+00 7.24784877456718e-02 3.30712113989001e-04
1.37392156862745e+00 7.19886578720350e-02 3.32829086279109e-04
1.40960784313725e+00 7.15021384036282e-02 3.34846514687818e-04
1.44529411764706e+00 7.10189069713304e-02 3.36768120008420e-04
1.48098039215686e+00 7.05389413535267e-02 3.38597420246255e-04
1.51666666666667e+00 7.00622194757382e-02 3.40337743293955e-04
1.55235294117647e+00 6.95887194189870e-02 3.41992243729347e-04
1.58803921568627e+00 6.91184194062842e-02 3.43563915380552e-04
1.62372549019608e+00 6.86512978138000e-02 3.45055603021224e-04
1.65941176470588e+00 6.81873331580128e-02 3.46470013128417e-04
1.69509803921569e+00 6.77265041062753e-02 3.47809723464492e-04
1.73078431372549e+00 6.72687894645710e-02 3.49077191956558e-04
1.76647058823529e+00 6.68141681875216e-02 3.50274764616582e-04
1.80215686274510e+00 6.63626193667073e-02 3.51404682935095e-04
1.83784313725490e+00 6.59141222401572e-02 3.52469090014403e-04
1.87352941176471e+00 6.54686561835782e-02 3.53470038647365e-04
1.90921568627451e+00 6.50262007098048e-02 3.54409494062653e-04
1.94490196078431e+00 6.45867354747842e-02 3.55289340979899e-04
1.98058823529412e+00 6.41502402674036e-02 3.56111387954612e-04
2.01627450980392e+00 6.37166950175916e-02 3.56877371699927e-04
2.05196078431373e+00 6.32860797865639e-02 3.57588961218569e-04
2.08764705882353e+00 6.28583747745451e-02 3.58247761491014e-04
2.12333333333333e+00 6.24335603114063e-02 3.58855317027909e-04
2.15901960784314e+00 6.20116168640312e-02 3.59413115035319e-04
2.19470588235294e+00 6.15925250273233e-02 3.59922588487087e-04
2.23039215686274e+00 6.11762655312356e-02 3.60385118460313e-04
2.26607843137255e+00 6.07628192339613e-02 3.60802038387782e-04
2.30176470588235e+00 6.03521671213107e-02 3.61174634064975e-04
2.33745098039216e+00 5.99442903111817e-02 3.61504147510734e-04
2.37313725490196e+00 5.95391700455688e-02 3.61791778737338e-04
2.40882352941176e+00 5.91367876966827e-02 3.62038687680910e-04
2.44450980392157e+00 5.87371247592486e-02 3.62245996122794e-04
2.48019607843137e+00 5.83401628563671e-02 3.62414789381789e-04
2.51588235294118e+00 5.79458837320867e-02 3.62546118012473e-04
2.55156862745098e+00 5.75542692570207e-02 3.62640998948165e-04
2.58725490196078e+00 5.71653014226825e-02 3.62700418395800e-04
2.62294117647059e+00 5.67789623408490e-02 3.62725331078472e-04
2.65862745098039e+00 5.63952342471401e-02 3.62716662920531e-04
2.69431372549020e+00 5.60140994943372e-02 3.62675311953560e-04
2.73000000000000e+00 5.56355405573288e-02 3.62602149416789e-04
2.76568627450980e+00 5.52595400266517e-02 3.62498020892863e-04
2.80137254901961e+00 5.48860806132421e-02 3.62363747288010e-04
2.83705882352941e+00 5.45151451421872e-02 3.62200125853051e-04
2.87274509803922e+00 5.41467165572930e-02 3.62007931058891e-04
2.90843137254902e+00 5.37807779150361e-02 3.61787915517525e-04
2.94411764705882e+00 5.34173123889563e-02 3.61540810466387e-04
2.97980392156863e+00 5.30563032650124e-02 3.61267327802213e-04
3.01549019607843e+00 5.26977339409536e-02 3.60968158991503e-04
3.05117647058823e+00 5.23415879291137e-02 3.60643976989257e-04
3.08686274509804e+00 5.19878488509125e-02 3.60295436645535e-04
3.12254901960784e+00 5.16365004407638e-02 3.59923175308907e-04
3.15823529411765e+00 5.12875265407438e-02 3.59527813482051e-04
3.19392156862745e+00 5.09409111043561e-02 3.59109955367056e-04
3.22960784313725e+00 5.05966381913596e-02 3.58670189464307e-04
3.26529411764706e+00 5.02546919713973e-02 3.58209088799052e-04
3.30098039215686e+00 4.99150567200038e-02 3.57727212540830e-04
3.33666666666667e+00 4.95777168179909e-02 3.57225104851397e-04
3.37235294117647e+00 4.92426567537497e-02 3.56703296425748e-04
3.40803921568627e+00 4.89098611185151e-02 3.56162304695573e-04
3.44372549019608e+00 4.85793146096154e-02 3.55602634218806e-04
3.47941176470588e+00 4.82510020258725e-02 3.55024777123425e-04
3.51509803921569e+00 4.79249082707381e-02 3.54429213462870e-04
3.55078431372549e+00 4.76010183478238e-02 3.53816411625617e-04
3.58647058823529e+00 4.72793173639291e-02 3.53186828659828e-04
3.62215686274510e+00 4.69597905246956e-02 3.52540910652286e-04
3.65784313725490e+00 4.66424231375321e-02 3.51879092790844e-04
3.69352941176471e+00 4.63272006082393e-02 3.51201800655631e-04
3.72921568627451e+00 4.60141084404243e-02 3.50509449086190e-04
3.76490196078431e+00 4.57031322373432e-02 3.49802443419664e-04
3.80058823529412e+00 4.53942576978958e-02 3.49081179559785e-04
3.83627450980392e+00 4.50874706192617e-02 3.48346044216957e-04
3.87196078431373e+00 4.47827568930020e-02 3.47597415200337e-04
3.90764705882353e+00 4.44801025076084e-02 3.46835661638798e-04
3.94333333333333e+00 4.41794935447071e-02 3.46061144253204e-04
3.97901960784314e+00 4.38809161815251e-02 3.45274215559825e-04
4.01470588235294e+00 4.35843566871934e-02 3.44475220124977e-04
4.05039215686274e+00 4.32898014251317e-02 3.43664494545157e-04
4.08607843137255e+00 4.29972368501642e-02 3.42842368515345e-04
4.12176470588235e+00 4.27066495079620e-02 3.42009163761742e-04
4.15745098039216e+00 4.24180260365348e-02 3.41165195070293e-04
4.19313725490196e+00 4.21313531628059e-02 3.40310770286432e-04
4.22882352941176e+00 4.18466177047726e-02 3.39446190469615e-04
4.26450980392157e+00 4.15638065681681e-02 3.38571750095649e-04
4.30019607843137e+00 4.12829067485533e-02 3.37687737199812e-04
4.33588235294118e+00 4.10039053280620e-02 3.36794433567122e-04
4.37156862745098e+00 4.07267894774270e-02 3.35892114677684e-04
4.40725490196078e+00 4.04515464534285e-02 3.34981050636599e-04
4.44294117647059e+00 4.01781635983630e-02 3.34061505174843e-04
4.47862745098039e+00 3.99066283413001e-02 3.33133736547180e-04
4.51431372549020e+00 3.96369281950551e-02 3.32197997500802e-04
4.55000000000000e+00 3.93690507580310e-02 3.31254535385862e-04
4.58568627450980e+00 3.91029837112645e-02 3.30303592310043e-04
4.62137254901961e+00 3.88387148202113e-02 3.29345405241402e-04
4.65705882352941e+00 3.85762319318629e-02 3.28380206154587e-04
4.69274509803922e+00 3.83155229764776e-02 3.27408222126506e-04
4.72843137254902e+00 3.80565759647661e-02 3.26429675474745e-04
4.76411764705882e+00 3.77993789895693e-02 3.25444783679933e-04
4.79980392156863e+00 3.75439202236418e-02 3.24453760184930e-04
4.83549019607843e+00 3.72901879191526e-02 3.23456813479487e-04
4.87117647058824e+00 3.70381704087146e-02 3.22454147873461e-04
4.90686274509804e+00 3.67878561027570e-02 3.21445963444207e-04
4.94254901960784e+00 3.65392334910560e-02 3.20432456111834e-04
4.97823529411765e+00 3.62922911401690e-02 3.19413817753995e-04
5.01392156862745e+00 3.60470176949188e-02 3.18390236276119e-04
5.04960784313725e+00 3.58034018758876e-02 3.17361895720655e-04
5.08529411764706e+00 3.55614324808564e-02 3.16328976181033e-04
5.12098039215686e+00 3.53210983828238e-02 3.15291654513286e-04
5.15666666666667e+00 3.50823885295315e-02 3.14250103489112e-04
5.19235294117647e+00 3.48452919443392e-02 3.13204492485206e-04
5.22803921568627e+00 3.46097977238777e-02 3.12154987422047e-04
5.26372549019608e+00 3.43758950393665e-02 3.11101750819685e-04
5.29941176470588e+00 3.41435731343195e-02 3.10044941889661e-04
5.33509803921569e+00 3.39128213258244e-02 3.08984716587249e-04
5.37078431372549e+00 3.36836290022995e-02 3.07921227699253e-04
5.40647058823529e+00 3.34559856247357e-02 3.06854624892927e-04
5.44215686274510e+00 3.32298807245036e-02 3.05785054799872e-04
5.47784313725490e+00 3.30053039045592e-02 3.04712660926157e-04
5.51352941176471e+00 3.27822448377020e-02 3.03637584276330e-04
5.54921568627451e+00 3.25606932661321e-02 3.02559962583425e-04
5.58490196078431e+00 3.23406390021718e-02 3.01479930914377e-04
5.62058823529412e+00 3.21220719262070e-02 3.00397621603694e-04
5.65627450980392e+00 3.19049819877927e-02 2.99313164292704e-04
5.69196078431372e+00 3.16893592036393e-02 2.98226686001273e-04
5.72764705882353e+00 3.14751936586858e-02 2.97138311164632e-04
5.76333333333333e+00 3.12624755041305e-02 2.96048161702120e-04
5.79901960784314e+00 3.10511949584731e-02 2.94956357051728e-04
5.83470588235294e+00 3.08413423055876e-02 2.93863014236068e-04
5.87039215686274e+00 3.06329078957354e-02 2.92768247772933e-04
5.90607843137255e+00 3.04258821440284e-02 2.91672170226607e-04
5.94176470588235e+00 3.02202555300138e-02 2.90574891508950e-04
5.97745098039216e+00 3.00160185982721e-02 2.89476519414462e-04
6.01313725490196e+00 2.98131619566033e-02 2.88377159553103e-04
6.04882352941176e+00 2.96116762769571e-02 2.87276915378220e-04
6.08450980392157e+00 2.94115522936579e-02 2.86175888243573e-04
6.12019607843137e+00 2.92127808043094e-02 2.85074177429586e-04
6.15588235294118e+00 2.90153526680561e-02 2.83971880198230e-04
6.19156862745098e+00 2.88192588064627e-02 2.82869091706229e-04
6.22725490196078e+00 2.86244902021235e-02 2.81765905504462e-04
6.26294117647059e+00 2.84310378982701e-02 2.80662412893511e-04
6.29862745098039e+00 2.82388929992827e-02 2.79558703408699e-04
6.33431372549020e+00 2.80480466690514e-02 2.78454864754055e-04
6.37000000000000e+00 2.78584901317853e-02 2.77350982823588e-04
6.40568627450980e+00 2.76702146704077e-02 2.76247141749160e-04
6.44137254901961e+00 2.74832116273426e-02 2.75143423920523e-04
6.47705882352941e+00 2.72974724029425e-02 2.74039910031458e-04
6.51274509803921e+00 2.71129884562541e-02 2.72936679098576e-04
6.54843137254902e+00 2.69297513034774e-02 2.71833808505906e-04
6.58411764705882e+00 2.67477525187105e-02 2.70731373922151e-04
6.61980392156863e+00 2.65669837327122e-02 2.69629449745806e-04
6.65549019607843e+00 2.63874366325367e-02 2.68528108520597e-04
6.69117647058823e+00 2.62091029619579e-02 2.67427421368110e-04
6.72686274509804e+00 2.60319745200151e-02 2.66327457924023e-04
6.76254901960784e+00 2.58560431616983e-02 2.65228286353475e-04
6.79823529411765e+00 2.56813007965235e-02 2.64129973390285e-04
6.83392156862745e+00 2.55077393891990e-02 2.63032584351273e-04
6.86960784313725e+00 2.53353509582287e-02 2.61936183174148e-04
6.90529411764706e+00 2.51641275765613e-02 2.60840832338902e-04
6.94098039215686e+00 2.49940613704644e-02 2.59746593273620e-04
6.97666666666667e+00 2.48251445191797e-02 2.58653525815236e-04
7.01235294117647e+00 2.46573692552866e-02 2.57561688604032e-04
7.04803921568627e+00 2.44907278633813e-02 2.56471139022707e-04
7.08372549019608e+00 2.43252126806751e-02 2.55381933207998e-04
7.11941176470588e+00 2.41608160956996e-02 2.54294126084283e-04
7.15509803921569e+00 2.39975305488887e-02 2.53207771374565e-04
7.19078431372549e+00 2.38353485313091e-02 2.52122921632901e-04
7.22647058823529e+00 2.36742625852268e-02 2.51039628254730e-04
7.26215686274510e+00 2.35142653028623e-02 2.49957941508330e-04
7.29784313725490e+00 2.33553493269421e-02 2.48877910461293e-04
7.33352941176471e+00 2.31975073496920e-02 2.47799583344400e-04
7.36921568627451e+00 2.30407321125157e-02 2.46723007062139e-04
7.40490196078431e+00 2.28850164062971e-02 2.45648227546712e-04
7.44058823529412e+00 2.27303530702212e-02 2.44575289700513e-04
7.47627450980392e+00 2.25767349922834e-02 2.43504237404509e-04
7.51196078431372e+00 2.24241551081330e-02 2.42435113546272e-04
7.54764705882353e+00 2.22726064015686e-02 2.41367960027777e-04
7.58333333333333e+00 2.21220819034041e-02 2.40302817792589e-04
7.61901960784314e+00 2.19725746919511e-02 2.39239726833204e-04
7.65470588235294e+00 2.18240778919061e-02 2.38178726217443e-04
7.69039215686274e+00 2.16765846748203e-02 2.37119854019963e-04
7.72607843137255e+00 2.15300882581971e-02 2.36063147649533e-04
7.76176470588235e+00 2.13845819051924e-02 2.35008643404410e-04
7.79745098039216e+00 2.12400589248660e-02 2.33956376790771e-04
7.83313725490196e+00 2.10965126711266e-02 2.32906382468894e-04
7.86882352941176e+00 2.09539365431654e-02 2.31858694259006e-04
7.90450980392157e+00 2.08123239844212e-02 2.30813345164950e-04
7.94019607843137e+00 2.06716684830025e-02 2.29770367379652e-04
7.97588235294118e+00 2.05319635706721e-02 2.28729792308118e-04
8.01156862745098e+00 2.03932028232583e-02 2.27691650503200e-04
8.04725490196078e+00 2.02553798598283e-02 2.26655971965737e-04
8.08294117647059e+00 2.01184883424063e-02 2.25622785733889e-04
8.11862745098039e+00 1.99825219761881e-02 2.24592120175234e-04
8.15431372549020e+00 1.98474745085774e-02 2.23564002936080e-04
8.19000000000000e+00 1.97133397295651e-02 2.22538460945825e-04
8.22568627450980e+00 1.95801114707841e-02 2.21515520437606e-04
8.26137254901961e+00 1.94477836058787e-02 2.20495206952337e-04
8.29705882352941e+00 1.93163500495761e-02 2.19477545358831e-04
8.33274509803922e+00 1.91858047580468e-02 2.18462559857517e-04
8.36843137254902e+00 1.90561417279933e-02 2.17450274000014e-04
8.40411764705882e+00 1.89273549970007e-02 2.16440710629703e-04
8.43980392156863e+00 1.87994386427930e-02 2.15433892152628e-04
8.47549019607843e+00 1.86723867829706e-02 2.14429840164089e-04
8.51117647058823e+00 1.85461935751877e-02 2.13428575712329e-04
8.54686274509804e+00 1.84208532162870e-02 2.12430119251409e-04
8.58254901960784e+00 1.82963599426230e-02 2.11434490644145e-04
8.61823529411765e+00 1.81727080292132e-02 2.10441709179783e-04
8.65392156862745e+00 1.80498917900526e-02 2.09451793576633e-04
8.68960784313725e+00 1.79279055772800e-02 2.08464761999259e-04
8.72529411764706e+00 1.78067437814850e-02 2.07480632002935e-04
8.76098039215686e+00 1.76864008310258e-02 2.06499420782834e-04
8.79666666666667e+00 1.75668711917806e-02 2.05521144828684e-04
8.83235294117647e+00 1.74481493672999e-02 2.04545820167341e-04
8.86803921568627e+00 1.73302298980125e-02 2.03573462318643e-04
8.90372549019608e+00 1.72131073615100e-02 2.02604086297373e-04
8.93941176470588e+00 1.70967763717674e-02 2.01637706628884e-04
8.97509803921569e+00 1.69812315794200e-02 2.00674337350861e-04
9.01078431372549e+00 1.68664676709981e-02 1.99713992028531e-04
9.04647058823529e+00 1.67524793691969e-02 1.98756683756327e-04
9.08215686274510e+00 1.66392614321247e-02 1.97802425172618e-04
9.11784313725490e+00 1.65268086535658e-02 1.96851228408514e-04
9.15352941176470e+00 1.64151158623635e-02 1.95903105313432e-04
9.18921568627451e+00 1.63041779221902e-02 1.94958067140660e-04
9.22490196078431e+00 1.61939897316714e-02 1.94016124767009e-04
9.26058823529412e+00 1.60845462236711e-02 1.93077288651925e-04
9.29627450980392e+00 1.59758423655342e-02 1.92141568838624e-04
9.33196078431372e+00 1.58678731583842e-02 1.91208974967569e-04
9.36764705882353e+00 1.57606336373595e-02 1.90279516277430e-04
9.40333333333333e+00 1.56541188709237e-02 1.89353201618198e-04
9.43901960784314e+00 1.55483239610956e-02 1.88430039452064e-04
9.47470588235294e+00 1.54432440427715e-02 1.87510037866224e-04
9.51039215686274e+00 1.53388742839496e-02 1.86593204525628e-04
9.54607843137255e+00 1.52352098851723e-02 1.85679546877456e-04
9.58176470588235e+00 1.51322460793117e-02 1.84769071864736e-04
9.61745098039216e+00 1.50299781316718e-02 1.83861786125355e-04
9.65313725490196e+00 1.49284013393429e-02 1.82957695954354e-04
9.68882352941176e+00 1.48275110314088e-02 1.82056807304401e-04
9.72450980392157e+00 1.47273025683129e-02 1.81159125797437e-04
9.76019607843137e+00 1.46277713420596e-02 1.80264656725076e-04
9.79588235294118e+00 1.45289127755919e-02 1.79373405059978e-04
9.83156862745098e+00 1.44307223229875e-02 1.78485375411802e-04
9.86725490196078e+00 1.43331954689450e-02 1.77600572215843e-04
9.90294117647059e+00 1.42363277285820e-02 1.76718999467777e-04
9.93862745098039e+00 1.41401146475212e-02 1.75840660907346e-04
9.97431372549019e+00 1.40445518012961e-02 1.74965559983068e-04
1.00100000000000e+01 1.39496347955333e-02 1.74093699682985e-04
1.00456862745098e+01 1.38553592657404e-02 1.73225083181584e-04
1.00813725490196e+01 1.37617208760847e-02 1.72359713201937e-04
1.01170588235294e+01 1.36687153205994e-02 1.71497591807020e-04
1.01527450980392e+01 1.35763383224185e-02 1.70638720642080e-04
1.01884313725490e+01 1.34845856344762e-02 1.69783101915620e-04
1.02241176470588e+01 1.33934530366107e-02 1.68930737578143e-04
1.02598039215686e+01 1.33029363380839e-02 1.68081628488431e-04
1.02954901960784e+01 1.32130313764802e-02 1.67235775280881e-04
1.03311764705882e+01 1.31237340183743e-02 1.66393179144383e-04
1.03668627450980e+01 1.30350401565494e-02 1.65553841028289e-04
1.04025490196078e+01 1.29469457124127e-02 1.64717760836376e-04
1.04382352941176e+01 1.28594466349360e-02 1.63884938265081e-04
1.04739215686274e+01 1.27725389012943e-02 1.63055373556395e-04
1.05096078431373e+01 1.26862185141926e-02 1.62229066730082e-04
1.05452941176471e+01 1.26004815041824e-02 1.61406016804354e-04
1.05809803921569e+01 1.25153239286421e-02 1.60586222606051e-04
1.06166666666667e+01 1.24307418723880e-02 1.59769683498463e-04
1.06523529411765e+01 1.23467314451048e-02 1.58956398638917e-04
1.06880392156863e+01 1.22632887835674e-02 1.58146366225150e-04
1.07237254901961e+01 1.21804100506600e-02 1.57339584278480e-04
1.07594117647059e+01 1.20980914359601e-02 1.56536051347506e-04
1.07950980392157e+01 1.20163291532687e-02 1.55735765790090e-04
1.08307843137255e+01 1.19351194427416e-02 1.54938725044562e-04
1.08664705882353e+01 1.18544585699454e-02 1.54144926386876e-04
1.09021568627451e+01 1.17743428264161e-02 1.53354367610959e-04
1.09378431372549e+01 1.16947685272840e-02 1.52567046334311e-04
1.09735294117647e+01 1.16157320133195e-02 1.51782958955664e-04
1.10092156862745e+01 1.15372296507321e-02 1.51002102739273e-04
1.10449019607843e+01 1.14592578288666e-02 1.50224474783139e-04
1.10805882352941e+01 1.13818129621840e-02 1.49450071333190e-04
1.11162745098039e+01 1.13048914893768e-02 1.48678888495386e-04
1.11519607843137e+01 1.12284898738870e-02 1.47910922875708e-04
1.11876470588235e+01 1.11526046016903e-02 1.47146170926655e-04
1.12233333333333e+01 1.10772321831979e-02 1.46384628283891e-04
1.12590196078431e+01 1.10023691524039e-02 1.45626290454839e-04
