Energy (eV)          EEDF (eV^-(3/2))     First Anisotropy
3.00000000000000e-01 4.15394441526303e-01 1.32569658998612e-03
9.00000000000000e-01 2.92966917035279e-01 1.87280530476455e-03
1.50000000000000e+00 2.06621961915976e-01 1.75546280280771e-03
2.10000000000000e+00 1.45725106363685e-01 1.47608781070373e-03
2.70000000000000e+00 1.02776134868679e-01 1.18407468325591e-03
3.30000000000000e+00 7.24853401182844e-02 9.24664647469883e-04
3.90000000000000e+00 5.11220288520945e-02 7.09582226163104e-04
4.50000000000000e+00 3.60550399527634e-02 5.37868093498105e-04
5.10000000000000e+00 2.54286837824141e-02 4.03992680025926e-04
5.70000000000000e+00 1.79341906083910e-02 3.01298181521260e-04
6.30000000000000e+00 1.26485191105540e-02 2.23444320492131e-04
6.90000000000000e+00 8.92067220559130e-03 1.64946484131455e-04
7.50000000000000e+00 6.29151854885592e-03 1.21298219729044e-04
8.10000000000000e+00 4.43724472083932e-03 8.89122168696127e-05
8.70000000000000e+00 3.12947352212715e-03 6.49929498092139e-05
9.30000000000000e+00 2.20713644205822e-03 4.73947467496463e-05
9.90000000000000e+00 1.55663604098820e-03 3.44892833679387e-05
1.05000000000000e+01 1.09785499343385e-03 2.50516157402851e-05
1.11000000000000e+01 7.74288629371883e-04 1.81666344513384e-05
1.17000000000000e+01 5.46085671751070e-04 1.31545415290595e-05
1.23000000000000e+01 3.85140049304005e-04 9.51269209205282e-06
1.29000000000000e+01 2.71629279527239e-04 6.87088132430332e-06
1.35000000000000e+01 1.91573080051843e-04 4.95735518238671e-06
1.41000000000000e+01 1.35111520615249e-04 3.57319988020416e-06
1.47000000000000e+01 9.52906483417439e-05 2.57318031424871e-06
1.53000000000000e+01 6.72060207748492e-05 1.85148580301492e-06
1.59000000000000e+01 4.73986619567458e-05 1.33117689607908e-06
1.65000000000000e+01 3.34290459305192e-05 9.56403645512177e-07
1.71000000000000e+01 2.35766383625881e-05 6.86687147764312e-07
1.77000000000000e+01 1.66279910481319e-05 4.92729697946558e-07
1.83000000000000e+01 1.17272904662903e-05 3.53352826179390e-07
1.89000000000000e+01 8.27095355552258e-06 2.53264641664467e-07
1.95000000000000e+01 5.83328884999053e-06 1.81435118468049e-07
2.01000000000000e+01 4.11406720869609e-06 1.29915881139677e-07
2.07000000000000e+01 2.90154481167102e-06 9.29842431510994e-08
2.13000000000000e+01 2.04638423901766e-06 6.65233007581878e-08
2.19000000000000e+01 1.44326168489817e-06 4.75735644380811e-08
2.25000000000000e+01 1.01789500299075e-06 3.40090422950853e-08
2.31000000000000e+01 7.17894923668432e-07 2.43034829974255e-08
2.37000000000000e+01 5.06312654954242e-07 1.73618489908558e-08
2.43000000000000e+01 3.57089172962606e-07 1.23989272356583e-08
2.49000000000000e+01 2.51845724572383e-07 8.85196585706078e-09
2.55000000000000e+01 1.77620252272477e-07 6.31784761233333e-09
2.61000000000000e+01 1.25270953362050e-07 4.50794111606423e-09
2.67000000000000e+01 8.83503516939235e-08 3.21567735932234e-09
2.73000000000000e+01 6.23112097014240e-08 2.29327931992534e-09
2.79000000000000e+01 4.39464787633876e-08 1.63507045005787e-09
2.85000000000000e+01 3.09943107340563e-08 1.16550860098156e-09
2.91000000000000e+01 2.18594828279977e-08 8.30611966958812e-10
2.97000000000000e+01 1.54169258225343e-08 5.91818458498977e-10
3.03000000000000e+01 1.08731575988204e-08 4.21589851225783e-10
3.09000000000000e+01 7.66855581519236e-09 3.00266296418311e-10
3.15000000000000e+01 5.40843336043437e-09 2.13816444644970e-10
3.21000000000000e+01 3.81442766006987e-09 1.52228788203882e-10
3.27000000000000e+01 2.69021681589834e-09 1.08361889125061e-10
3.33000000000000e+01 1.89734008913139e-09 7.71228726587603e-11
3.39000000000000e+01 1.33814471478687e-09 5.48806559951042e-11
3.45000000000000e+01 9.43758732537920e-10 3.90469694084243e-11
3.51000000000000e+01 6.65608536505293e-10 2.77772764032899e-11
3.57000000000000e+01 4.69436423308451e-10 1.97573415109571e-11
3.63000000000000e+01 3.31081323995127e-10 1.40509597070118e-11
3.69000000000000e+01 2.33503063792607e-10 9.99134873721248e-12
3.75000000000000e+01 1.64683649752883e-10 7.10370324088750e-12
3.81000000000000e+01 1.16147103405967e-10 5.04998269747512e-12
3.87000000000000e+01 8.19155371516191e-11 3.58955899574351e-12
3.93000000000000e+01 5.77729020360015e-11 2.55117402709308e-12
3.99000000000000e+01 4.07457281697805e-11 1.81296091249943e-12
4.05000000000000e+01 2.87369044236530e-11 1.28821299366464e-12
4.11000000000000e+01 2.02673927537424e-11 9.15248938323699e-13
4.17000000000000e+01 1.42940660197329e-11 6.50196306751969e-13
4.23000000000000e+01 1.00812337264622e-11 4.61854087927322e-13
4.29000000000000e+01 7.11003246432868e-12 3.28035905131494e-13
4.35000000000000e+01 5.01452133890246e-12 2.32967576894100e-13
4.41000000000000e+01 3.53661173622817e-12 1.65435328536183e-13
4.47000000000000e+01 2.49428045620091e-12 1.17468338515982e-13
4.53000000000000e+01 1.75915126064165e-12 8.34015762392701e-14
4.59000000000000e+01 1.24068372108025e-12 5.92092535461560e-14
4.65000000000000e+01 8.75022023513820e-13 4.20308137188677e-14
4.71000000000000e+01 6.17130319859088e-13 2.98338874384471e-14
4.77000000000000e+01 4.35245995477924e-13 2.11746698673341e-14
4.83000000000000e+01 3.06967702741983e-13 1.50275811878536e-14
4.89000000000000e+01 2.16496352650462e-13 1.06641931010698e-14
4.95000000000000e+01 1.52689257834886e-13 7.56718267385171e-15
5.01000000000000e+01 1.07687770129825e-13 5.36918692612886e-15
5.07000000000000e+01 7.59493889745290e-14 3.80935702650511e-15
5.13000000000000e+01 5.35651325925891e-14 2.70249197957466e-15
5.19000000000000e+01 3.77780976042335e-14 1.91711179054451e-15
5.25000000000000e+01 2.66439116178431e-14 1.35988265558041e-15
5.31000000000000e+01 1.87912592565244e-14 9.64555147495715e-16
5.37000000000000e+01 1.32529873807808e-14 6.84108459649774e-16
5.43000000000000e+01 9.34698798613787e-15 4.85172017296159e-16
5.49000000000000e+01 6.59218800281227e-15 3.44064614877607e-16
5.55000000000000e+01 4.64929908210765e-15 2.43982307342744e-16
5.61000000000000e+01 3.27902995874291e-15 1.73002060001590e-16
5.67000000000000e+01 2.31261471470219e-15 1.22664635136927e-16
5.73000000000000e+01 1.63102712873884e-15 8.69687339646264e-17
5.79000000000000e+01 1.15032109662272e-15 6.16571023825403e-17
5.85000000000000e+01 8.11291610065657e-16 4.37098938047655e-17
5.91000000000000e+01 5.72182913532011e-16 3.09851458900628e-17
5.97000000000000e+01 4.03545756514708e-16 2.57596980932255e-17
