Energy (eV)          EEDF (eV^-(3/2))     First Anisotropy
2.81578947368421e-02 7.27791983486646e-02 4.42024015836830e-05
8.44736842105263e-02 7.21209850432937e-02 7.29057603389790e-05
1.40789473684211e-01 7.14687246031632e-02 9.60190325824760e-05
1.97105263157895e-01 7.08223631924348e-02 1.13442129574751e-04
2.53421052631579e-01 7.01818474569848e-02 1.27860899240604e-04
3.09736842105263e-01 6.95471245314000e-02 1.40294095919776e-04
3.66052631578947e-01 6.89181420235116e-02 1.51270538139877e-04
4.22368421052632e-01 6.82948480189525e-02 1.61110515772639e-04
4.78684210526316e-01 6.76771910694914e-02 1.70027075040372e-04
5.35000000000000e-01 6.70651201951091e-02 1.78171230860695e-04
5.91315789473684e-01 6.64585848742759e-02 1.85655094961965e-04
6.47631578947368e-01 6.58575350446682e-02 1.92564886032131e-04
7.03947368421053e-01 6.52619210946585e-02 1.98968782763175e-04
7.60263157894737e-01 6.46716938631814e-02 2.04921929807439e-04
8.16578947368421e-01 6.40868046320657e-02 2.10469771260310e-04
8.72894736842105e-01 6.35072051253257e-02 2.15650351139458e-04
9.29210526315789e-01 6.29328475021205e-02 2.20495949199401e-04
9.85526315789474e-01 6.23636843556388e-02 2.25034273859365e-04
1.04184210526316e+00 6.17996687070993e-02 2.29289351719261e-04
1.09815789473684e+00 6.12407540021275e-02 2.33282202833217e-04
1.15447368421053e+00 6.06868941079257e-02 2.37031362630196e-04
1.21078947368421e+00 6.01380433089389e-02 2.40553291127805e-04
1.26710526315789e+00 5.95941563030578e-02 2.43862697858222e-04
1.32342105263158e+00 5.90551881978808e-02 2.46972803086849e-04
1.37973684210526e+00 5.85210945070092e-02 2.49895550042059e-04
1.43605263157895e+00 5.79918311463755e-02 2.52641779023548e-04
1.49236842105263e+00 5.74673544306054e-02 2.55221371506997e-04
1.54868421052632e+00 5.69476210694124e-02 2.57643370386774e-04
1.60500000000000e+00 5.64325881640246e-02 2.59916080667216e-04
1.66131578947368e+00 5.59222132067488e-02 2.62047156213602e-04
1.71763157894737e+00 5.54164540679971e-02 2.64043671838751e-04
1.77394736842105e+00 5.49152690024350e-02 2.65912184958858e-04
1.83026315789474e+00 5.44186166422699e-02 2.67658790636166e-04
1.88657894736842e+00 5.39264559938374e-02 2.69289167780022e-04
1.94289473684211e+00 5.34387464342176e-02 2.70808619713485e-04
1.99921052631579e+00 5.29554477078823e-02 2.72222109637159e-04
2.05552631578947e+00 5.24765199233724e-02 2.73534291763883e-04
2.11184210526316e+00 5.20019235500053e-02 2.74749538762057e-04
2.16815789473684e+00 5.15316194146121e-02 2.75871966037033e-04
2.22447368421053e+00 5.10655686983004e-02 2.76905453289181e-04
2.28078947368421e+00 5.06037329332589e-02 2.77853663721328e-04
2.33710526315789e+00 5.01460739995775e-02 2.78720061206859e-04
2.39342105263158e+00 4.96925541221015e-02 2.79507925678518e-04
2.44973684210526e+00 4.92431358673129e-02 2.80220366964282e-04
2.50605263157895e+00 4.87977821402413e-02 2.80860337260728e-04
2.56236842105263e+00 4.83564561814019e-02 2.81430642407375e-04
2.61868421052632e+00 4.79191215637612e-02 2.81933952102663e-04
2.67500000000000e+00 4.74857421897310e-02 2.82372808927092e-04
2.73131578947368e+00 4.70562822897647e-02 2.82749637565043e-04
2.78763157894737e+00 4.66307064146176e-02 2.83066751990343e-04
2.84394736842105e+00 4.62089794372688e-02 2.83326361986087e-04
2.90026315789474e+00 4.57910665483851e-02 2.83530580394981e-04
2.95657894736842e+00 4.53769332534476e-02 2.83681428775508e-04
3.01289473684211e+00 4.49665453699050e-02 2.83780842848989e-04
3.06921052631579e+00 4.45598690243515e-02 2.83830677517182e-04
3.12552631578947e+00 4.41568706497317e-02 2.83832711492049e-04
3.18184210526316e+00 4.37575169825694e-02 2.83788651574624e-04
3.23815789473684e+00 4.33617750602222e-02 2.83700136616181e-04
3.29447368421053e+00 4.29696122181594e-02 2.83568741189736e-04
3.35078947368421e+00 4.25809960872691e-02 2.83395978999409e-04
3.40710526315789e+00 4.21958945911844e-02 2.83183306050866e-04
3.46342105263158e+00 4.18142759436365e-02 2.82932123602236e-04
3.51973684210526e+00 4.14361086458304e-02 2.82643780915389e-04
3.57605263157895e+00 4.10613614838454e-02 2.82319577824150e-04
3.63236842105263e+00 4.06900035260586e-02 2.81960767134507e-04
3.68868421052632e+00 4.03220041205917e-02 2.81568556870536e-04
3.74500000000000e+00 3.99573328927814e-02 2.81144112196171e-04
3.80131578947368e+00 3.95959597436219e-02 2.80688557939427e-04
3.85763157894737e+00 3.92378548444004e-02 2.80202980074893e-04
3.91394736842105e+00 3.88829886371462e-02 2.79688427090326e-04
3.97026315789474e+00 3.85313318312104e-02 2.79145912190500e-04
4.02657894736842e+00 3.81828554008474e-02 2.78576414649587e-04
4.08289473684211e+00 3.78375305828200e-02 2.77980881265169e-04
4.13921052631579e+00 3.74953288740249e-02 2.77360227730181e-04
4.19552631578947e+00 3.71562220291398e-02 2.76715339928469e-04
4.25184210526316e+00 3.68201820582925e-02 2.76047075159335e-04
4.30815789473684e+00 3.64871812247506e-02 2.75356263296111e-04
4.36447368421053e+00 3.61571920426310e-02 2.74643707882571e-04
4.42078947368421e+00 3.58301872746329e-02 2.73910187172138e-04
4.47710526315789e+00 3.55061399297892e-02 2.73156455113692e-04
4.53342105263158e+00 3.51850232612381e-02 2.72383242286586e-04
4.58973684210526e+00 3.48668107640159e-02 2.71591256788788e-04
4.64605263157895e+00 3.45514761728689e-02 2.70781185080952e-04
4.70236842105263e+00 3.42389934600859e-02 2.69953692789230e-04
4.75868421052632e+00 3.39293368333495e-02 2.69109425469244e-04
4.81500000000000e+00 3.36224807336071e-02 2.68249009198323e-04
4.87131578947368e+00 3.33183998335847e-02 2.67373051677929e-04
4.92763157894737e+00 3.30170690338096e-02 2.66482142620382e-04
4.98394736842105e+00 3.27184634624431e-02 2.65576854101599e-04
5.04026315789474e+00 3.24225584725872e-02 2.64657741583114e-04
5.09657894736842e+00 3.21293296402494e-02 2.63725344346377e-04
5.15289473684211e+00 3.18387527623273e-02 2.62780186042639e-04
5.20921052631579e+00 3.15508038546107e-02 2.61822775218856e-04
5.26552631578947e+00 3.12654591498021e-02 2.60853605820888e-04
5.32184210526316e+00 3.09826950955546e-02 2.59873157675247e-04
5.37815789473684e+00 3.07024883525282e-02 2.58881896950639e-04
5.43447368421053e+00 3.04248157924630e-02 2.57880276599994e-04
5.49078947368421e+00 3.01496544962707e-02 2.56868736784514e-04
5.54710526315789e+00 2.98769817521427e-02 2.55847705280604e-04
5.60342105263158e+00 2.96067750536756e-02 2.54817597870154e-04
5.65973684210526e+00 2.93390120980130e-02 2.53778818715372e-04
5.71605263157895e+00 2.90736707840054e-02 2.52731760718802e-04
5.77236842105263e+00 2.88107292103850e-02 2.51676805869377e-04
5.82868421052632e+00 2.85501656739590e-02 2.50614325575085e-04
5.88500000000000e+00 2.82919586678173e-02 2.49544680879900e-04
5.94131578947368e+00 2.80360868799872e-02 2.48468223083034e-04
5.99763157894737e+00 2.77825291903749e-02 2.47385293826557e-04
6.05394736842105e+00 2.75312646703332e-02 2.46296225169042e-04
6.11026315789474e+00 2.72822725804929e-02 2.45201340179936e-04
6.16657894736842e+00 2.70355323690513e-02 2.44100953097252e-04
6.22289473684210e+00 2.67910236700754e-02 2.42995369582968e-04
6.27921052631579e+00 2.65487263018215e-02 2.41884886969386e-04
6.33552631578947e+00 2.63086202650689e-02 2.40769794496778e-04
6.39184210526316e+00 2.60706857414694e-02 2.39650373542698e-04
6.44815789473684e+00 2.58349030919113e-02 2.38526897843458e-04
6.50447368421053e+00 2.56012528548984e-02 2.37399633707815e-04
6.56078947368421e+00 2.53697157449442e-02 2.36268840223499e-04
6.61710526315789e+00 2.51402726509793e-02 2.35134769456896e-04
6.67342105263158e+00 2.49129046347746e-02 2.33997666645900e-04
6.72973684210526e+00 2.46875929293777e-02 2.32857770386429e-04
6.78605263157895e+00 2.44643189375642e-02 2.31715312812806e-04
6.84236842105263e+00 2.42430642303023e-02 2.30570519772257e-04
6.89868421052632e+00 2.40238105452322e-02 2.29423610993816e-04
6.95500000000000e+00 2.38065397851581e-02 2.28274800172026e-04
7.01131578947368e+00 2.35912340168609e-02 2.27124295366215e-04
7.06763157894737e+00 2.33778754686922e-02 2.25972298992253e-04
7.12394736842105e+00 2.31664465300410e-02 2.24819007807117e-04
7.18026315789474e+00 2.29569297495662e-02 2.23664613299998e-04
7.23657894736842e+00 2.27493078337562e-02 2.22509301748732e-04
7.29289473684211e+00 2.25435636455014e-02 2.21353254355006e-04
7.34921052631579e+00 2.23396802026799e-02 2.20196647375448e-04
7.40552631578947e+00 2.21376406767556e-02 2.19039652248785e-04
7.46184210526316e+00 2.19374283913893e-02 2.17882435719150e-04
7.51815789473684e+00 2.17390268210621e-02 2.16725159955824e-04
7.57447368421053e+00 2.15424195897115e-02 2.15567982669343e-04
7.63078947368421e+00 2.13475904693798e-02 2.14411057224212e-04
7.68710526315789e+00 2.11545233788743e-02 2.13254532748500e-04
7.74342105263158e+00 2.09632023824407e-02 2.12098554240112e-04
7.79973684210526e+00 2.07736116884467e-02 2.10943262670042e-04
7.85605263157895e+00 2.05857356480796e-02 2.09788795082751e-04
7.91236842105263e+00 2.03995587540538e-02 2.08635284693645e-04
7.96868421052632e+00 2.02150656393316e-02 2.07482860983793e-04
8.02500000000000e+00 2.00322410758539e-02 2.06331649729569e-04
8.08131578947368e+00 1.98510699735074e-02 2.05181773281029e-04
8.13763157894737e+00 1.96715373782034e-02 2.04033350522456e-04
8.19394736842105e+00 1.94936284713244e-02 2.02886496828608e-04
8.25026315789474e+00 1.93173285682720e-02 2.01741324340773e-04
8.30657894736842e+00 1.91426231172550e-02 2.00597941981892e-04
8.36289473684210e+00 1.89694976980883e-02 1.99456455534545e-04
8.41921052631579e+00 1.87979380210025e-02 1.98316967716853e-04
8.47552631578947e+00 1.86279299254645e-02 1.97179578256372e-04
8.53184210526316e+00 1.84594593790088e-02 1.96044383962033e-04
8.58815789473684e+00 1.82925124760790e-02 1.94911478794169e-04
8.64447368421053e+00 1.81270754368803e-02 1.93780953932654e-04
8.70078947368421e+00 1.79631346062421e-02 1.92652897843333e-04
8.75710526315789e+00 1.78006764524906e-02 1.91527396342774e-04
8.81342105263158e+00 1.76396875663325e-02 1.90404532661289e-04
8.86973684210526e+00 1.74801546597475e-02 1.89284387504313e-04
8.92605263157895e+00 1.73220645648919e-02 1.88167039112252e-04
8.98236842105263e+00 1.71654042330118e-02 1.87052563318818e-04
9.03868421052631e+00 1.70101607333656e-02 1.85941033607874e-04
9.09500000000000e+00 1.68563212521574e-02 1.84832521119453e-04
9.15131578947368e+00 1.67038730916444e-02 1.83727094853022e-04
9.20763157894737e+00 1.65528036685880e-02 1.82624821620190e-04
9.26394736842105e+00 1.64031005137204e-02 1.81525765994548e-04
9.32026315789474e+00 1.62547512705455e-02 1.80429990514849e-04
9.37657894736842e+00 1.61077436943191e-02 1.79337555682482e-04
9.43289473684210e+00 1.59620656510382e-02 1.78248520009160e-04
9.48921052631579e+00 1.58177051164391e-02 1.77162940063431e-04
9.54552631578947e+00 1.56746501750056e-02 1.76080870516068e-04
9.60184210526316e+00 1.55328890189850e-02 1.75002364184362e-04
9.65815789473684e+00 1.53924099474137e-02 1.73927472075368e-04
9.71447368421053e+00 1.52532013651511e-02 1.72856243428046e-04
9.77078947368421e+00 1.51152517819230e-02 1.71788725754438e-04
9.82710526315790e+00 1.49785498113729e-02 1.70724964879932e-04
9.88342105263158e+00 1.48430841701221e-02 1.69665004982449e-04
9.93973684210526e+00 1.47088436768387e-02 1.68608888630780e-04
9.99605263157895e+00 1.45758172513144e-02 1.67556656700168e-04
1.00523684210526e+01 1.44439939139398e-02 1.66508348817006e-04
1.01086842105263e+01 1.43133627834917e-02 1.65464003066485e-04
1.01650000000000e+01 1.41839130776836e-02 1.64423655777753e-04
1.02213157894737e+01 1.40556341117430e-02 1.63387342018277e-04
1.02776315789474e+01 1.39285152975303e-02 1.62355095457857e-04
1.03339473684211e+01 1.38025461426651e-02 1.61326948401468e-04
1.03902631578947e+01 1.36777162496597e-02 1.60302931821178e-04
1.04465789473684e+01 1.35540153150612e-02 1.59283075016090e-04
1.05028947368421e+01 1.34314331297614e-02 1.58267406762772e-04
1.05592105263158e+01 1.33099595746457e-02 1.57255954594989e-04
1.06155263157895e+01 1.31895846232930e-02 1.56248744070290e-04
1.06718421052632e+01 1.30702983399611e-02 1.55245799946729e-04
1.07281578947368e+01 1.29520908787662e-02 1.54247145825405e-04
1.07844736842105e+01 1.28349524828693e-02 1.53252804176916e-04
1.08407894736842e+01 1.27188734836731e-02 1.52262796367783e-04
1.08971052631579e+01 1.26038443000227e-02 1.51277142686899e-04
1.09534210526316e+01 1.24898554374149e-02 1.50295862036827e-04
1.10097368421053e+01 1.23768974882344e-02 1.49318972966065e-04
1.10660526315789e+01 1.22649611278944e-02 1.48346493018719e-04
1.11223684210526e+01 1.21540371171735e-02 1.47378438072291e-04
1.11786842105263e+01 1.20441163004093e-02 1.46414823393788e-04
1.12350000000000e+01 1.19351896047427e-02 1.45455663315785e-04
1.12913157894737e+01 1.18272480393692e-02 1.44500971258379e-04
1.13476315789474e+01 1.17202826947969e-02 1.43550759750540e-04
1.14039473684211e+01 1.16142847421111e-02 1.42605040451497e-04
1.14602631578947e+01 1.15092454322458e-02 1.41663824171525e-04
1.15165789473684e+01 1.14051560952613e-02 1.40727120594767e-04
1.15728947368421e+01 1.13020081405145e-02 1.39794939196680e-04
1.16292105263158e+01 1.11997930532721e-02 1.38867288662494e-04
1.16855263157895e+01 1.10985023967056e-02 1.37944176295129e-04
1.17418421052632e+01 1.09981278102889e-02 1.37025608954006e-04
1.17981578947368e+01 1.08986610091083e-02 1.36111592764561e-04
1.18544736842105e+01 1.08000937831780e-02 1.35202133135545e-04
1.19107894736842e+01 1.07024179967635e-02 1.34297234776361e-04
1.19671052631579e+01 1.06056255877100e-02 1.33396901714485e-04
1.20234210526316e+01 1.05097085667761e-02 1.32501137043834e-04
1.20797368421053e+01 1.04146590177574e-02 1.31609943750306e-04
1.21360526315789e+01 1.03204690944688e-02 1.30723324185994e-04
1.21923684210526e+01 1.02271310224784e-02 1.29841279533883e-04
1.22486842105263e+01 1.01346370976660e-02 1.28963810652746e-04
1.23050000000000e+01 1.00429796855871e-02 1.28090917813745e-04
1.23613157894737e+01 9.95215122084269e-03 1.27222600714927e-04
1.24176315789474e+01 9.86214420645506e-03 1.26358858495321e-04
1.24739473684211e+01 9.77295121324913e-03 1.25499689749106e-04
1.25302631578947e+01 9.68456487923908e-03 1.24645092539375e-04
1.25865789473684e+01 9.59697790902068e-03 1.23795064172155e-04
1.26428947368421e+01 9.51018307385154e-03 1.22949601932049e-04
1.26992105263158e+01 9.42417320899222e-03 1.22108702611461e-04
1.27555263157895e+01 9.33894121519220e-03 1.21272362031324e-04
1.28118421052632e+01 9.25448005740642e-03 1.20440575794114e-04
1.28681578947368e+01 9.17078276421451e-03 1.19613339047496e-04
1.29244736842105e+01 9.08784242724500e-03 1.18790646495792e-04
1.29807894736842e+01 9.00565220060598e-03 1.17972492411503e-04
1.30371052631579e+01 8.92420530031956e-03 1.17158870646934e-04
1.30934210526316e+01 8.84349500376197e-03 1.16349774428974e-04
1.31497368421053e+01 8.76351464971298e-03 1.15545197022476e-04
1.32060526315789e+01 8.68425763597992e-03 1.14745131304095e-04
1.32623684210526e+01 8.60571742069222e-03 1.13949569328446e-04
1.33186842105263e+01 8.52788752114381e-03 1.13158503007244e-04
1.33750000000000e+01 8.45076151325800e-03 1.12371923894835e-04
1.34313157894737e+01 8.37433303105708e-03 1.11589823197864e-04
1.34876315789474e+01 8.29859576613708e-03 1.10812191784668e-04
1.35439473684211e+01 8.22354346714722e-03 1.10039020194749e-04
1.36002631578947e+01 8.14916993927374e-03 1.09270298647972e-04
1.36565789473684e+01 8.07546904372862e-03 1.08506016860123e-04
1.37128947368421e+01 8.00243469777216e-03 1.07746164635355e-04
1.37692105263158e+01 7.93006087261154e-03 1.06990731484131e-04
1.38255263157895e+01 7.85834159451418e-03 1.06239706234273e-04
1.38818421052632e+01 7.78727094377376e-03 1.05493077637540e-04
1.39381578947368e+01 7.71684305422159e-03 1.04750834177019e-04
1.39944736842105e+01 7.64705211274216e-03 1.04012964074760e-04
1.40507894736842e+01 7.57789235879389e-03 1.03279455299489e-04
1.41071052631579e+01 7.50935808393341e-03 1.02550295574404e-04
1.41634210526316e+01 7.44144363134432e-03 1.01825472209587e-04
1.42197368421053e+01 7.37414339584050e-03 1.01104972637211e-04
1.42760526315789e+01 7.30745182198278e-03 1.00388784065285e-04
1.43323684210526e+01 7.24136340505129e-03 9.96768931251657e-05
1.43886842105263e+01 7.17587269011070e-03 9.89692864195983e-05
1.44450000000000e+01 7.11097427155995e-03 9.82659503478138e-05
1.45013157894737e+01 7.04666279268593e-03 9.75668711119646e-05
1.45576315789474e+01 6.98293294522150e-03 9.68720347234152e-05
1.46139473684211e+01 6.91977946890750e-03 9.61814270090797e-05
1.46702631578947e+01 6.85719715105835e-03 9.54950336175687e-05
1.47265789473684e+01 6.79518082613189e-03 9.48128398684842e-05
1.47828947368421e+01 6.73372537571604e-03 9.41348312312250e-05
1.48392105263158e+01 6.67282572685829e-03 9.34609930142021e-05
1.48955263157895e+01 6.61247685290394e-03 9.27913100484762e-05
1.49518421052632e+01 6.55267377265922e-03 9.21257671780721e-05
1.50081578947368e+01 6.49341154998015e-03 9.14643491027746e-05
1.50644736842105e+01 6.43468529336484e-03 9.08070403831987e-05
1.51207894736842e+01 6.37649015555025e-03 9.01538254459421e-05
1.51771052631579e+01 6.31882133311186e-03 8.95046885888011e-05
1.52334210526316e+01 6.26167406606716e-03 8.88596138437240e-05
1.52897368421053e+01 6.20504363785070e-03 8.82185854100326e-05
1.53460526315789e+01 6.14892537381326e-03 8.75815873724590e-05
1.54023684210526e+01 6.09331464195541e-03 8.69486034141350e-05
1.54586842105263e+01 6.03820685216941e-03 8.63196172602497e-05
1.55150000000000e+01 5.98359745586032e-03 8.56946125351817e-05
1.55713157894737e+01 5.92948194557046e-03 8.50735727667748e-05
1.56276315789474e+01 5.87585585460746e-03 8.44564813905013e-05
1.56839473684211e+01 5.82271475667571e-03 8.38433217537001e-05
1.57402631578947e+01 5.77005426551088e-03 8.32340771196537e-05
1.57965789473684e+01 5.71787003451790e-03 8.26287305442521e-05
1.58528947368421e+01 5.66615775673626e-03 8.20272652641414e-05
1.59092105263158e+01 5.61491316350542e-03 8.14296644433842e-05
1.59655263157895e+01 5.56413202509851e-03 8.08359109155684e-05
1.60218421052632e+01 5.51381015004219e-03 8.02459875813414e-05
1.60781578947368e+01 5.46394338477069e-03 7.96598772798810e-05
1.61344736842105e+01 5.41452761328279e-03 7.90775627922223e-05
1.61907894736842e+01 5.36555875680246e-03 7.84990268446706e-05
1.62471052631579e+01 5.31703277344199e-03 7.79242521122595e-05
1.63034210526316e+01 5.26894565786841e-03 7.73532211065214e-05
1.63597368421053e+01 5.22129344126213e-03 7.67859165271291e-05
1.64160526315789e+01 5.17407219011545e-03 7.62223210318265e-05
1.64723684210526e+01 5.12727800678797e-03 7.56624170022488e-05
1.65286842105263e+01 5.08090702888944e-03 7.51061869040791e-05
1.65850000000000e+01 5.03495542896097e-03 7.45536131701503e-05
1.66413157894737e+01 4.98941941415901e-03 7.40046782032492e-05
1.66976315789474e+01 4.94429522594240e-03 7.34593643788356e-05
1.67539473684211e+01 4.89957913976219e-03 7.29176540478207e-05
1.68102631578947e+01 4.85526746475415e-03 7.23795295392428e-05
1.68665789473684e+01 4.81135654343411e-03 7.18449730591949e-05
1.69228947368421e+01 4.76784275165152e-03 7.13139670062751e-05
1.69792105263158e+01 4.72472249751868e-03 7.07864937646696e-05
1.70355263157895e+01 4.68199222189130e-03 7.02625354935439e-05
1.70918421052632e+01 4.63964839781389e-03 6.97420744501600e-05
1.71481578947368e+01 4.59768753022865e-03 6.92250928846177e-05
1.72044736842105e+01 4.55610615568685e-03 6.87115730420111e-05
1.72607894736842e+01 4.51490084206325e-03 6.82014971646249e-05
1.73171052631579e+01 4.47406818827262e-03 6.76948474941906e-05
1.73734210526316e+01 4.43360482398907e-03 6.71916061798641e-05
1.74297368421053e+01 4.39350740959630e-03 6.66917555643072e-05
1.74860526315789e+01 4.35377263522181e-03 6.61952779956350e-05
1.75423684210526e+01 4.31439722115866e-03 6.57021556359947e-05
1.75986842105263e+01 4.27537791736151e-03 6.52123707546210e-05
1.76550000000000e+01 4.23671150317831e-03 6.47259056320401e-05
1.77113157894737e+01 4.19839478708446e-03 6.42427425618650e-05
1.77676315789474e+01 4.16042460641943e-03 6.37628638525251e-05
