Energy (eV)          EEDF (eV^-(3/2))     First Anisotropy
1.69375000000000e-02 5.67850926575043e-01 5.25088976811522e-04
5.08125000000000e-02 5.55722394206283e-01 8.60704931162510e-04
8.46875000000000e-02 5.43852910983344e-01 1.11948673279468e-03
1.18562500000000e-01 5.32236943964653e-01 1.30618644580375e-03
1.52437500000000e-01 5.20869078384899e-01 1.45391070335542e-03
1.86312500000000e-01 5.09744015130892e-01 1.57546424420190e-03
2.20187500000000e-01 4.98856568271375e-01 1.67761648636252e-03
2.54062500000000e-01 4.88201662639614e-01 1.76453955673911e-03
2.87937500000000e-01 4.77774331467615e-01 1.83905522788422e-03
3.21812500000000e-01 4.67569714070867e-01 1.90319568851654e-03
3.55687500000000e-01 4.57583053582551e-01 1.95849250652673e-03
3.89562500000000e-01 4.47809694736125e-01 2.00614036429752e-03
4.23437500000000e-01 4.38245081695282e-01 2.04709661155413e-03
4.57312500000000e-01 4.28884755930253e-01 2.08214519293349e-03
4.91187500000000e-01 4.19724354139474e-01 2.11193953294734e-03
5.25062500000000e-01 4.10759606215633e-01 2.13703235476939e-03
5.58937500000000e-01 4.01986333255171e-01 2.15789704488048e-03
5.92812500000000e-01 3.93400445610290e-01 2.17494335550287e-03
6.26687500000000e-01 3.84997940982573e-01 2.18852920149794e-03
6.60562500000000e-01 3.76774902557313e-01 2.19896969410778e-03
6.94437500000000e-01 3.68727497177701e-01 2.20654417595686e-03
7.28312500000000e-01 3.60851973558007e-01 2.21150178174978e-03
7.62187500000000e-01 3.53144660534915e-01 2.21406589247466e-03
7.96062500000000e-01 3.45601965356228e-01 2.21443774617744e-03
8.29937500000000e-01 3.38220372006101e-01 2.21279939678846e-03
8.63812500000000e-01 3.30996439566064e-01 2.20931616259990e-03
8.97687500000000e-01 3.23926800611036e-01 2.20413867061641e-03
9.31562500000000e-01 3.17008159639612e-01 2.19740457751012e-03
9.65437500000000e-01 3.10237291537865e-01 2.18924002927460e-03
9.99312500000000e-01 3.03611040075965e-01 2.17976090786405e-03
1.03318750000000e+00 2.97126316436909e-01 2.16907390274880e-03
1.06706250000000e+00 2.90780097776672e-01 2.15727743746258e-03
1.10093750000000e+00 2.84569425815114e-01 2.14446247519690e-03
1.13481250000000e+00 2.78491405456980e-01 2.13071322283862e-03
1.16868750000000e+00 2.72543203442360e-01 2.11610774920803e-03
1.20256250000000e+00 2.66722047025965e-01 2.10071853038961e-03
1.23643750000000e+00 2.61025222684617e-01 2.08461293277260e-03
1.27031250000000e+00 2.55450074852347e-01 2.06785364260066e-03
1.30418750000000e+00 2.49994004682503e-01 2.05049904936459e-03
1.33806250000000e+00 2.44654468836306e-01 2.03260358918570e-03
1.37193750000000e+00 2.39428978297271e-01 2.01421805336950e-03
1.40581250000000e+00 2.34315097210962e-01 1.99538986651503e-03
1.43968750000000e+00 2.29310441749515e-01 1.97616333791062e-03
1.47356250000000e+00 2.24412679000429e-01 1.95657988940398e-03
1.50743750000000e+00 2.19619525879074e-01 1.93667826248188e-03
1.54131250000000e+00 2.14928748064440e-01 1.91649470691597e-03
1.57518750000000e+00 2.10338158957610e-01 1.89606315301275e-03
1.60906250000000e+00 2.05845618662479e-01 1.87541536923686e-03
1.64293750000000e+00 2.01449032988247e-01 1.85458110674841e-03
1.67681250000000e+00 1.97146352473214e-01 1.83358823220085e-03
1.71068750000000e+00 1.92935571429426e-01 1.81246284998031e-03
1.74456250000000e+00 1.88814727007728e-01 1.79122941492447e-03
1.77843750000000e+00 1.84781898282783e-01 1.76991083643661e-03
1.81231250000000e+00 1.80835205357637e-01 1.74852857480494e-03
1.84618750000000e+00 1.76972808487409e-01 1.72710273044551e-03
1.88006250000000e+00 1.73192907221693e-01 1.70565212670740e-03
1.91393750000000e+00 1.69493739565286e-01 1.68419438680966e-03
1.94781250000000e+00 1.65873581156830e-01 1.66274600541858e-03
1.98168750000000e+00 1.62330744465011e-01 1.64132241532106e-03
2.01556250000000e+00 1.58863578001913e-01 1.61993804960305e-03
2.04943750000000e+00 1.55470465553181e-01 1.59860639970100e-03
2.08331250000000e+00 1.52149825424629e-01 1.57734006965811e-03
2.11718750000000e+00 1.48900109704929e-01 1.55615082688449e-03
2.15106250000000e+00 1.45719803544060e-01 1.53504964969287e-03
2.18493750000000e+00 1.42607424447159e-01 1.51404677185533e-03
2.21881250000000e+00 1.39561521583462e-01 1.49315172440425e-03
2.25268750000000e+00 1.36580675109999e-01 1.47237337488095e-03
2.28656250000000e+00 1.33663495509737e-01 1.45171996421664e-03
2.32043750000000e+00 1.30808622943858e-01 1.43119914141513e-03
2.35431250000000e+00 1.28014726617875e-01 1.41081799619154e-03
2.38818750000000e+00 1.25280504161279e-01 1.39058308970868e-03
2.42206250000000e+00 1.22604681020446e-01 1.37050048354083e-03
2.45593750000000e+00 1.19986009864505e-01 1.35057576698397e-03
2.48981250000000e+00 1.17423270003894e-01 1.33081408282226e-03
2.52368750000000e+00 1.14915266821339e-01 1.31122015165148e-03
2.55756250000000e+00 1.12460831214985e-01 1.29179829485274e-03
2.59143750000000e+00 1.10058819053420e-01 1.27255245630225e-03
2.62531250000000e+00 1.07708110642344e-01 1.25348622289654e-03
2.65918750000000e+00 1.05407610202618e-01 1.23460284396665e-03
2.69306250000000e+00 1.03156245359475e-01 1.21590524964946e-03
2.72693750000000e+00 1.00952966642629e-01 1.19739606827935e-03
2.76081250000000e+00 9.87967469970706e-02 1.17907764285866e-03
2.79468750000000e+00 9.66865813043034e-02 1.16095204666168e-03
2.82856250000000e+00 9.46214859138111e-02 1.14302109802278e-03
2.86243750000000e+00 9.26004981845300e-02 1.12528637435598e-03
2.89631250000000e+00 9.06226760361152e-02 1.10774922544999e-03
2.93018750000000e+00 8.86870975097915e-02 1.09041078607970e-03
2.96406250000000e+00 8.67928603385838e-02 1.07327198797279e-03
2.99793750000000e+00 8.49390815267263e-02 1.05633357116705e-03
3.03181250000000e+00 8.31248969380559e-02 1.03959609479217e-03
3.06568750000000e+00 8.13494608931961e-02 1.02305994730722e-03
3.09956250000000e+00 7.96119457753449e-02 1.00672535622358e-03
3.13343750000000e+00 7.79115416444826e-02 9.90592397340624e-04
3.16731250000000e+00 7.62474558598195e-02 9.74661003520254e-04
3.20118750000000e+00 7.46189127103073e-02 9.58930973024629e-04
3.23506250000000e+00 7.30251530530430e-02 9.43401977439791e-04
3.26893750000000e+00 7.14654339593953e-02 9.28073569207006e-04
3.30281250000000e+00 6.99390283686900e-02 9.12945188781787e-04
3.33668750000000e+00 6.84452247492909e-02 8.98016171439740e-04
3.37056250000000e+00 6.69833267669213e-02 8.83285753747267e-04
3.40443750000000e+00 6.55526529600686e-02 8.68753079714026e-04
3.43831250000000e+00 6.41525364223215e-02 8.54417206643104e-04
3.47218750000000e+00 6.27823244914936e-02 8.40277110693985e-04
3.50606250000000e+00 6.14413784453849e-02 8.26331692172568e-04
3.53993750000000e+00 6.01290732040431e-02 8.12579780561715e-04
3.57381250000000e+00 5.88447970383834e-02 7.99020139305016e-04
3.60768750000000e+00 5.75879512850316e-02 7.85651470355809e-04
3.64156250000000e+00 5.63579500672585e-02 7.72472418502923e-04
3.67543750000000e+00 5.51542200218741e-02 7.59481575483778e-04
3.70931250000000e+00 5.39762000319554e-02 7.46677483895155e-04
3.74318750000000e+00 5.28233409652824e-02 7.34058640911398e-04
3.77706250000000e+00 5.16951054183611e-02 7.21623501819038e-04
3.81093750000000e+00 5.05909674659137e-02 7.09370483376612e-04
3.84481250000000e+00 4.95104124157193e-02 6.97297967008075e-04
3.87868750000000e+00 4.84529365686906e-02 6.85404301837468e-04
3.91256250000000e+00 4.74180469840760e-02 6.73687807572301e-04
3.94643750000000e+00 4.64052612496755e-02 6.62146777242845e-04
3.98031250000000e+00 4.54141072569649e-02 6.50779479803957e-04
4.01418750000000e+00 4.44441229810238e-02 6.39584162605822e-04
4.04806250000000e+00 4.34948562651626e-02 6.28559053739777e-04
4.08193750000000e+00 4.25658646101509e-02 6.17702364264850e-04
4.11581250000000e+00 4.16567149679469e-02 6.07012290320596e-04
4.14968750000000e+00 4.07669835398327e-02 5.96487015131518e-04
4.18356250000000e+00 3.98962555788614e-02 5.86124710907965e-04
4.21743750000000e+00 3.90441251965232e-02 5.75923540648264e-04
4.25131250000000e+00 3.82101951735413e-02 5.65881659846612e-04
4.28518750000000e+00 3.73940767747085e-02 5.55997218111077e-04
4.31906250000000e+00 3.65953895676790e-02 5.46268360695751e-04
4.35293750000000e+00 3.58137612456306e-02 5.36693229951001e-04
4.38681250000000e+00 3.50488274537142e-02 5.27269966695542e-04
4.42068750000000e+00 3.43002316192103e-02 5.17996711513893e-04
4.45456250000000e+00 3.35676247853136e-02 5.08871605982603e-04
4.48843750000000e+00 3.28506654484667e-02 4.99892793828457e-04
4.52231250000000e+00 3.21490193991694e-02 4.91058422021871e-04
4.55618750000000e+00 3.14623595661869e-02 4.82366641808253e-04
4.59006250000000e+00 3.07903658640862e-02 4.73815609680267e-04
4.62393750000000e+00 3.01327250440290e-02 4.65403488293668e-04
4.65781250000000e+00 2.94891305477509e-02 4.57128447329244e-04
4.69168750000000e+00 2.88592823646601e-02 4.48988664303376e-04
4.72556250000000e+00 2.82428868919874e-02 4.40982325329482e-04
4.75943750000000e+00 2.76396567979243e-02 4.33107625832655e-04
4.79331250000000e+00 2.70493108876833e-02 4.25362771219621e-04
4.82718750000000e+00 2.64715739724196e-02 4.17745977506009e-04
4.86106250000000e+00 2.59061767409521e-02 4.10255471902961e-04
4.89493750000000e+00 2.53528556342244e-02 4.02889493364930e-04
4.92881250000000e+00 2.48113527224473e-02 3.95646293100434e-04
4.96268750000000e+00 2.42814155848652e-02 3.88524135047474e-04
4.99656250000000e+00 2.37627971920904e-02 3.81521296315282e-04
5.03043750000000e+00 2.32552557909507e-02 3.74636067593945e-04
5.06431250000000e+00 2.27585547917970e-02 3.67866753533395e-04
5.09818750000000e+00 2.22724626582166e-02 3.61211673093207e-04
5.13206250000000e+00 2.17967527991035e-02 3.54669159864550e-04
5.16593750000000e+00 2.13312034630332e-02 3.48237562365635e-04
5.19981250000000e+00 2.08755976348933e-02 3.41915244311910e-04
5.23368750000000e+00 2.04297229347226e-02 3.35700584862172e-04
5.26756250000000e+00 1.99933715187103e-02 3.29591978841750e-04
5.30143750000000e+00 1.95663399823098e-02 3.23587836943889e-04
5.33531250000000e+00 1.91484292654224e-02 3.17686585910331e-04
5.36918750000000e+00 1.87394445596054e-02 3.11886668692180e-04
5.40306250000000e+00 1.83391952172625e-02 3.06186544591925e-04
5.43693750000000e+00 1.79474946627739e-02 3.00584689387592e-04
5.47081250000000e+00 1.75641603055240e-02 2.95079595439901e-04
5.50468750000000e+00 1.71890134547873e-02 2.89669771783267e-04
5.53856250000000e+00 1.68218792364321e-02 2.84353744201445e-04
5.57243750000000e+00 1.64625865114030e-02 2.79130055288604e-04
5.60631250000000e+00 1.61109677959446e-02 2.73997264496586e-04
5.64018750000000e+00 1.57668591835296e-02 2.68953948169002e-04
5.67406250000000e+00 1.54301002684536e-02 2.63998699562907e-04
5.70793750000000e+00 1.51005340710624e-02 2.59130128858673e-04
5.74181250000000e+00 1.47780069645762e-02 2.54346863158660e-04
5.77568750000000e+00 1.44623686034766e-02 2.49647546475336e-04
5.80956250000000e+00 1.41534718534236e-02 2.45030839709366e-04
5.84343750000000e+00 1.38511727226686e-02 2.40495420618204e-04
5.87731250000000e+00 1.35553302949333e-02 2.36039983775789e-04
5.91118750000000e+00 1.32658066637216e-02 2.31663240523741e-04
5.94506250000000e+00 1.29824668680348e-02 2.27363918914597e-04
5.97893750000000e+00 1.27051788294598e-02 2.23140763647538e-04
6.01281250000000e+00 1.24338132906006e-02 2.18992535997005e-04
6.04668750000000e+00 1.21682437548256e-02 2.14918013734682e-04
6.08056250000000e+00 1.19083464273010e-02 2.10915991045184e-04
6.11443750000000e+00 1.16540001572844e-02 2.06985278435873e-04
6.14831250000000e+00 1.14050863816504e-02 2.03124702641153e-04
6.18218750000000e+00 1.11614890696223e-02 1.99333106521591e-04
6.21606250000000e+00 1.09230946686851e-02 1.95609348958201e-04
6.24993750000000e+00 1.06897920516527e-02 1.91952304742194e-04
6.28381250000000e+00 1.04614724648663e-02 1.88360864460534e-04
6.31768750000000e+00 1.02380294774990e-02 1.84833934377575e-04
6.35156250000000e+00 1.00193589319436e-02 1.81370436313019e-04
6.38543750000000e+00 9.80535889525880e-03 1.77969307516523e-04
6.41931250000000e+00 9.59592961165437e-03 1.74629500539176e-04
6.45318750000000e+00 9.39097345598943e-03 1.71349983102081e-04
6.48706250000000e+00 9.19039488826488e-03 1.68129737962298e-04
6.52093750000000e+00 8.99410040908760e-03 1.64967762776344e-04
6.55481250000000e+00 8.80199851608577e-03 1.61863069961474e-04
6.58868750000000e+00 8.61399966125522e-03 1.58814686554945e-04
6.62256250000000e+00 8.43001620921679e-03 1.55821654071457e-04
6.65643750000000e+00 8.24996239636516e-03 1.52883028358932e-04
6.69031250000000e+00 8.07375429089034e-03 1.49997879452831e-04
6.72418750000000e+00 7.90130975365296e-03 1.47165291429165e-04
6.75806250000000e+00 7.73254839989523e-03 1.44384362256358e-04
6.79193750000000e+00 7.56739156176974e-03 1.41654203646113e-04
6.82581250000000e+00 7.40576225166851e-03 1.38973940903416e-04
6.85968750000000e+00 7.24758512633538e-03 1.36342712775831e-04
6.89356250000000e+00 7.09278645174485e-03 1.33759671302207e-04
6.92743750000000e+00 6.94129406873107e-03 1.31223981660915e-04
6.96131250000000e+00 6.79303735935096e-03 1.28734822017736e-04
6.99518750000000e+00 6.64794721396578e-03 1.26291383373520e-04
7.02906250000000e+00 6.50595599902574e-03 1.23892869411711e-04
7.06293750000000e+00 6.36699752554277e-03 1.21538496345829e-04
7.09681250000000e+00 6.23100701823657e-03 1.19227492767043e-04
7.13068750000000e+00 6.09792108533977e-03 1.16959099491869e-04
7.16456250000000e+00 5.96767768904792e-03 1.14732569410135e-04
7.19843750000000e+00 5.84021611660066e-03 1.12547167333239e-04
7.23231250000000e+00 5.71547695198058e-03 1.10402169842828e-04
7.26618750000000e+00 5.59340204821651e-03 1.08296865139939e-04
7.30006250000000e+00 5.47393450027842e-03 1.06230552894667e-04
7.33393750000000e+00 5.35701861855122e-03 1.04202544096448e-04
7.36781250000000e+00 5.24259990287512e-03 1.02212160905001e-04
7.40168750000000e+00 5.13062501714047e-03 1.00258736501989e-04
7.43556250000000e+00 5.02104176442524e-03 9.83416149434530e-05
7.46943750000000e+00 4.91379906266346e-03 9.64601510130724e-05
7.50331250000000e+00 4.80884692083342e-03 9.46137100762935e-05
7.53718750000000e+00 4.70613641565441e-03 9.28016679353784e-05
7.57106250000000e+00 4.60561966878126e-03 9.10234106854116e-05
7.60493750000000e+00 4.50724982448584e-03 8.92783345713004e-05
7.63881250000000e+00 4.41098102781541e-03 8.75658458458104e-05
7.67268750000000e+00 4.31676840321737e-03 8.58853606286708e-05
7.70656250000000e+00 4.22456803362059e-03 8.42363047667739e-05
7.74043750000000e+00 4.13433693996351e-03 8.26181136955027e-05
7.77431250000000e+00 4.04603306115960e-03 8.10302323012205e-05
7.80818750000000e+00 3.95961523449053e-03 7.94721147849307e-05
7.84206250000000e+00 3.87504317641834e-03 7.79432245271470e-05
7.87593750000000e+00 3.79227746380727e-03 7.64430339539848e-05
7.90981250000000e+00 3.71127951554672e-03 7.49710244044938e-05
7.94368750000000e+00 3.63201157456676e-03 7.35266859992565e-05
7.97756250000000e+00 3.55443669023771e-03 7.21095175102576e-05
8.01143750000000e+00 3.47851870114568e-03 7.07190262320511e-05
8.04531250000000e+00 3.40422221823594e-03 6.93547278542279e-05
8.07918750000000e+00 3.33151260831640e-03 6.80161463351950e-05
8.11306250000000e+00 3.26035597791339e-03 6.67028137772858e-05
8.14693750000000e+00 3.19071915747227e-03 6.54142703032030e-05
8.18081250000000e+00 3.12256968589552e-03 6.41500639338016e-05
8.21468750000000e+00 3.05587579541098e-03 6.29097504672201e-05
8.24856250000000e+00 2.99060639676342e-03 6.16928933593657e-05
8.28243750000000e+00 2.92673106472230e-03 6.04990636057527e-05
8.31631250000000e+00 2.86422002389911e-03 5.93278396247061e-05
8.35018750000000e+00 2.80304413486758e-03 5.81788071419243e-05
8.38406250000000e+00 2.74317488058044e-03 5.70515590764043e-05
8.41793750000000e+00 2.68458435307619e-03 5.59456954277324e-05
8.45181250000000e+00 2.62724524046989e-03 5.48608231647360e-05
8.48568750000000e+00 2.57113081422173e-03 5.37965561154996e-05
8.51956250000000e+00 2.51621491667757e-03 5.27525148587386e-05
8.55343750000000e+00 2.46247194887561e-03 5.17283266165266e-05
8.58731250000000e+00 2.40987685861345e-03 5.07236251483803e-05
8.62118750000000e+00 2.35840512877005e-03 4.97380506466944e-05
8.65506250000000e+00 2.30803276587713e-03 4.87712496335157e-05
8.68893750000000e+00 2.25873628893461e-03 4.78228748586612e-05
8.72281250000000e+00 2.21049271846503e-03 4.68925851991668e-05
8.75668750000000e+00 2.16327956580167e-03 4.59800455600624e-05
8.79056250000000e+00 2.11707482260547e-03 4.50849267764692e-05
8.82443750000000e+00 2.07185695060595e-03 4.42069055170104e-05
8.85831250000000e+00 2.02760487156108e-03 4.33456641885229e-05
8.89218750000000e+00 1.98429795743178e-03 4.25008908420693e-05
8.92606250000000e+00 1.94191602076615e-03 4.16722790802403e-05
8.95993750000000e+00 1.90043930528910e-03 4.08595279657331e-05
8.99381250000000e+00 1.85984847669303e-03 4.00623419312042e-05
9.02768750000000e+00 1.82012461362515e-03 3.92804306903796e-05
9.06156250000000e+00 1.78124919886735e-03 3.85135091504199e-05
9.09543750000000e+00 1.74320411070437e-03 3.77612973255266e-05
9.12931250000000e+00 1.70597161447645e-03 3.70235202517786e-05
9.16318750000000e+00 1.66953435431231e-03 3.62999079031924e-05
9.19706250000000e+00 1.63387534503875e-03 3.55901951089904e-05
9.23093750000000e+00 1.59897796426303e-03 3.48941214720693e-05
9.26481250000000e+00 1.56482594462438e-03 3.42114312886582e-05
9.29868750000000e+00 1.53140336621099e-03 3.35418734691539e-05
9.33256250000000e+00 1.49869464913893e-03 3.28852014601212e-05
9.36643750000000e+00 1.46668454628969e-03 3.22411731674508e-05
9.40031250000000e+00 1.43535813620268e-03 3.16095508806574e-05
9.43418750000000e+00 1.40470081611967e-03 3.09901011983115e-05
9.46806250000000e+00 1.37469829517771e-03 3.03825949545910e-05
9.50193750000000e+00 1.34533658774745e-03 2.97868071469395e-05
9.53581250000000e+00 1.31660200691380e-03 2.92025168648217e-05
9.56968750000000e+00 1.28848115809576e-03 2.86295072195632e-05
9.60356250000000e+00 1.26096093280261e-03 2.80675652752637e-05
9.63743750000000e+00 1.23402850252331e-03 2.75164819807667e-05
9.67131250000000e+00 1.20767131274662e-03 2.69760521026808e-05
9.70518750000000e+00 1.18187707710876e-03 2.64460741594367e-05
9.73906250000000e+00 1.15663377166615e-03 2.59263503563668e-05
9.77293750000000e+00 1.13192962929051e-03 2.54166865217968e-05
9.80681250000000e+00 1.10775313418358e-03 2.49168920441383e-05
9.84068750000000e+00 1.08409301650907e-03 2.44267798099677e-05
9.87456250000000e+00 1.06093824713925e-03 2.39461661430815e-05
9.90843750000000e+00 1.03827803251372e-03 2.34748707445145e-05
9.94231250000000e+00 1.01610180960803e-03 2.30127166335093e-05
9.97618750000000e+00 9.94399241009721e-04 2.25595300894265e-05
1.00100625000000e+01 9.73160210099579e-04 2.21151405945815e-05
1.00439375000000e+01 9.52374816335763e-04 2.16793807779953e-05
1.00778125000000e+01 9.32033370638703e-04 2.12520863600519e-05
1.01116875000000e+01 9.12126390874539e-04 2.08330960980456e-05
1.01455625000000e+01 8.92644597435044e-04 2.04222517326094e-05
1.01794375000000e+01 8.73578908911948e-04 2.00193979350117e-05
1.02133125000000e+01 8.54920437863650e-04 1.96243822553086e-05
1.02471875000000e+01 8.36660486672355e-04 1.92370550713427e-05
1.02810625000000e+01 8.18790543489691e-04 1.88572695385752e-05
1.03149375000000e+01 8.01302278268922e-04 1.84848815407406e-05
1.03488125000000e+01 7.84187538881913e-04 1.81197496413109e-05
1.03826875000000e+01 7.67438347319026e-04 1.77617350357616e-05
1.04165625000000e+01 7.51046895970183e-04 1.74107015046262e-05
1.04504375000000e+01 7.35005543985361e-04 1.70665153673262e-05
1.04843125000000e+01 7.19306813712821e-04 1.67290454367686e-05
1.05181875000000e+01 7.03943387213410e-04 1.63981629746996e-05
1.05520625000000e+01 6.88908102849321e-04 1.60737416478021e-05
1.05859375000000e+01 6.74193951945699e-04 1.57556574845273e-05
1.06198125000000e+01 6.59794075523564e-04 1.54437888326508e-05
1.06536875000000e+01 6.45701761102503e-04 1.51380163175407e-05
1.06875625000000e+01 6.31910439571662e-04 1.48382228011273e-05
