Energy (eV)          EEDF (eV^-(3/2))     First Anisotropy
4.83870967741935e-02 4.38577127882131e-02 2.94913772993452e-05
1.45161290322581e-01 4.33715836855827e-02 4.85921098468933e-05
2.41935483870968e-01 4.28908429511827e-02 6.38654767378866e-05
3.38709677419355e-01 4.24154308580944e-02 7.52988116040014e-05
4.35483870967742e-01 4.19452883443412e-02 8.46947372051308e-05
5.32258064516129e-01 4.14803569992172e-02 9.27391228939000e-05
6.29032258064516e-01 4.10205790618959e-02 9.97890436013841e-05
7.25806451612903e-01 4.05658974099883e-02 1.06061390226423e-04
8.22580645161290e-01 4.01162555557278e-02 1.11700837735625e-04
9.19354838709677e-01 3.96715976362595e-02 1.16810221058687e-04
1.01612903225806e+00 3.92318684089675e-02 1.21466091432970e-04
1.11290322580645e+00 3.87970132422176e-02 1.25727477005732e-04
1.20967741935484e+00 3.83669781127244e-02 1.29641177214036e-04
1.30645161290323e+00 3.79417095904897e-02 1.33245140581359e-04
1.40322580645161e+00 3.75211548448706e-02 1.36570717112143e-04
1.50000000000000e+00 3.71052616269748e-02 1.39644215216149e-04
1.59677419354839e+00 3.66939782646008e-02 1.42488007877083e-04
1.69354838709677e+00 3.62872536637683e-02 1.45121342201320e-04
1.79032258064516e+00 3.58850372939105e-02 1.47560943594761e-04
1.88709677419355e+00 3.54872791825429e-02 1.49821473499382e-04
1.98387096774194e+00 3.50939299154817e-02 1.51915885074586e-04
2.08064516129032e+00 3.47049406239451e-02 1.53855702400796e-04
2.17741935483871e+00 3.43202629791227e-02 1.55651240932878e-04
2.27419354838710e+00 3.39398491915285e-02 1.57311786603206e-04
2.37096774193548e+00 3.35636519978854e-02 1.58845740742705e-04
2.46774193548387e+00 3.31916246621502e-02 1.60260739048375e-04
2.56451612903226e+00 3.28237209645684e-02 1.61563751026290e-04
2.66129032258065e+00 3.24598951963397e-02 1.62761161503359e-04
2.75806451612903e+00 3.21001021581672e-02 1.63858840587603e-04
2.85483870967742e+00 3.17442971502667e-02 1.64862202982488e-04
2.95161290322581e+00 3.13924359671456e-02 1.65776257295358e-04
3.04838709677419e+00 3.10444748957621e-02 1.66605649587075e-04
3.14516129032258e+00 3.07003707063140e-02 1.67354700957599e-04
3.24193548387097e+00 3.03600806471459e-02 1.68027438963040e-04
3.33870967741935e+00 3.00235624426231e-02 1.68627626137958e-04
3.43548387096774e+00 2.96907742845884e-02 1.69158784971617e-04
3.53225806451613e+00 2.93616748273859e-02 1.69624218776279e-04
3.62903225806452e+00 2.90362231855424e-02 1.70027031164019e-04
3.72580645161290e+00 2.87143789257908e-02 1.70370143311621e-04
3.82258064516129e+00 2.83961020622208e-02 1.70656308300402e-04
3.91935483870968e+00 2.80813530538221e-02 1.70888124996198e-04
4.01612903225806e+00 2.77700927962249e-02 1.71068049965271e-04
4.11290322580645e+00 2.74622826200975e-02 1.71198408135439e-04
4.20967741935484e+00 2.71578842839074e-02 1.71281402938903e-04
4.30645161290323e+00 2.68568599693084e-02 1.71319124448120e-04
4.40322580645161e+00 2.65591722785731e-02 1.71313557631973e-04
4.50000000000000e+00 2.62647842277621e-02 1.71266589850862e-04
4.59677419354839e+00 2.59736592422515e-02 1.71180016820798e-04
4.69354838709677e+00 2.56857611541092e-02 1.71055548884720e-04
4.79032258064516e+00 2.54010541956332e-02 1.70894816743646e-04
4.88709677419355e+00 2.51195029950135e-02 1.70699375905981e-04
4.98387096774194e+00 2.48410725736777e-02 1.70470711550069e-04
5.08064516129032e+00 2.45657283401650e-02 1.70210242994974e-04
5.17741935483871e+00 2.42934360859179e-02 1.69919327069007e-04
5.27419354838710e+00 2.40241619826168e-02 1.69599262026892e-04
5.37096774193548e+00 2.37578725758645e-02 1.69251290787658e-04
5.46774193548387e+00 2.34945347830944e-02 1.68876603906385e-04
5.56451612903226e+00 2.32341158879165e-02 1.68476342733805e-04
5.66129032258065e+00 2.29765835361253e-02 1.68051601585070e-04
5.75806451612903e+00 2.27219057330636e-02 1.67603430426733e-04
5.85483870967742e+00 2.24700508382363e-02 1.67132837379048e-04
5.95161290322581e+00 2.22209875614452e-02 1.66640790404841e-04
6.04838709677419e+00 2.19746849601698e-02 1.66128219518232e-04
6.14516129032258e+00 2.17311124344284e-02 1.65596018848397e-04
6.24193548387097e+00 2.14902397230368e-02 1.65045047964573e-04
6.33870967741935e+00 2.12520369010134e-02 1.64476133713620e-04
6.43548387096774e+00 2.10164743746731e-02 1.63890071942705e-04
6.53225806451613e+00 2.07835228780029e-02 1.63287628544911e-04
6.62903225806452e+00 2.05531534701007e-02 1.62669541004498e-04
6.72580645161290e+00 2.03253375304850e-02 1.62036519850676e-04
6.82258064516129e+00 2.01000467555853e-02 1.61389249486206e-04
6.91935483870968e+00 1.98772531562190e-02 1.60728389556050e-04
7.01612903225806e+00 1.96569290527907e-02 1.60054575960754e-04
7.11290322580645e+00 1.94390470731503e-02 1.59368421796524e-04
7.20967741935484e+00 1.92235801482219e-02 1.58670518537057e-04
7.30645161290323e+00 1.90105015086804e-02 1.57961436595268e-04
7.40322580645161e+00 1.87997846825089e-02 1.57241726345511e-04
7.50000000000000e+00 1.85914034908113e-02 1.56511919091409e-04
7.59677419354839e+00 1.83853320445966e-02 1.55772527512368e-04
7.69354838709677e+00 1.81815447423812e-02 1.55024046551924e-04
7.79032258064516e+00 1.79800162661751e-02 1.54266954260233e-04
7.88709677419355e+00 1.77807215783694e-02 1.53501712148396e-04
7.98387096774194e+00 1.75836359193873e-02 1.52728765965658e-04
8.08064516129032e+00 1.73887348038336e-02 1.51948546438080e-04
8.17741935483871e+00 1.71959940174824e-02 1.51161469548568e-04
8.27419354838710e+00 1.70053896149781e-02 1.50367937265111e-04
8.37096774193548e+00 1.68168979159155e-02 1.49568338016019e-04
8.46774193548387e+00 1.66304955028250e-02 1.48763047130348e-04
8.56451612903226e+00 1.64461592175699e-02 1.47952427488592e-04
8.66129032258064e+00 1.62638661584946e-02 1.47136829706383e-04
8.75806451612903e+00 1.60835936782166e-02 1.46316592696415e-04
8.85483870967742e+00 1.59053193801656e-02 1.45492044204864e-04
8.95161290322581e+00 1.57290211158253e-02 1.44663500952515e-04
9.04838709677419e+00 1.55546769825760e-02 1.43831269137097e-04
9.14516129032258e+00 1.53822653203696e-02 1.42995644913051e-04
9.24193548387097e+00 1.52117647090609e-02 1.42156914497834e-04
9.33870967741935e+00 1.50431539663019e-02 1.41315354622921e-04
9.43548387096774e+00 1.48764121443459e-02 1.40471232965045e-04
9.53225806451613e+00 1.47115185274651e-02 1.39624808223899e-04
9.62903225806452e+00 1.45484526298976e-02 1.38776330528590e-04
9.72580645161290e+00 1.43871941927735e-02 1.37926041827025e-04
9.82258064516129e+00 1.42277231816171e-02 1.37074175940041e-04
9.91935483870968e+00 1.40700197843450e-02 1.36220958962414e-04
1.00161290322581e+01 1.39140644081554e-02 1.35366609384694e-04
1.01129032258065e+01 1.37598376781852e-02 1.34511338622243e-04
1.02096774193548e+01 1.36073204331043e-02 1.33655351087495e-04
1.03064516129032e+01 1.34564937245881e-02 1.32798844107158e-04
1.04032258064516e+01 1.33073388143395e-02 1.31942008544045e-04
1.05000000000000e+01 1.31598371717611e-02 1.31085028866973e-04
1.05967741935484e+01 1.30139704716519e-02 1.30228083349829e-04
1.06935483870968e+01 1.28697205919319e-02 1.29371344263352e-04
1.07903225806452e+01 1.27270696113909e-02 1.28514978060615e-04
1.08870967741935e+01 1.25859998074612e-02 1.27659145555806e-04
1.09838709677419e+01 1.24464936540163e-02 1.26804002096496e-04
1.10806451612903e+01 1.23085338191932e-02 1.25949697730037e-04
1.11774193548387e+01 1.21721031632392e-02 1.25096377364229e-04
1.12741935483871e+01 1.20371847363825e-02 1.24244180655090e-04
1.13709677419355e+01 1.19037617778954e-02 1.23393242965805e-04
1.14677419354839e+01 1.17718177104700e-02 1.22543694968989e-04
1.15645161290323e+01 1.16413361417365e-02 1.21695662233693e-04
1.16612903225806e+01 1.15123008610216e-02 1.20849266195266e-04
1.17580645161290e+01 1.13846958373351e-02 1.20004624005646e-04
1.18548387096774e+01 1.12585052173777e-02 1.19161848659965e-04
1.19516129032258e+01 1.11337133235718e-02 1.18321049119039e-04
1.20483870967742e+01 1.10103046521135e-02 1.17482330428070e-04
1.21451612903226e+01 1.08882638710459e-02 1.16645793831004e-04
1.22419354838710e+01 1.07675758183558e-02 1.15811536881602e-04
1.23387096774194e+01 1.06482255000892e-02 1.14979653551374e-04
1.24354838709677e+01 1.05301980884885e-02 1.14150234333550e-04
1.25322580645161e+01 1.04134789201504e-02 1.13323366343985e-04
1.26290322580645e+01 1.02980534942040e-02 1.12499133418933e-04
1.27258064516129e+01 1.01839074705095e-02 1.11677615996907e-04
1.28225806451613e+01 1.00710266687525e-02 1.10858891854568e-04
1.29193548387097e+01 9.95939706402863e-03 1.10043035763937e-04
1.30161290322581e+01 9.84900478778064e-03 1.09230119138455e-04
1.31129032258065e+01 9.73983612517370e-03 1.08420210780936e-04
1.32096774193548e+01 9.63187751339131e-03 1.07613376741460e-04
1.33064516129032e+01 9.52511553995031e-03 1.06809680396150e-04
1.34032258064516e+01 9.41953694103457e-03 1.06009182523609e-04
1.35000000000000e+01 9.31512859984712e-03 1.05211941379151e-04
1.35967741935484e+01 9.21187754498032e-03 1.04418012766722e-04
1.36935483870968e+01 9.10977094880458e-03 1.03627450108655e-04
1.37903225806452e+01 9.00879612587496e-03 1.02840304513647e-04
1.38870967741935e+01 8.90894053135490e-03 1.02056624842699e-04
1.39838709677419e+01 8.81019175945766e-03 1.01276457773016e-04
1.40806451612903e+01 8.71253754190511e-03 1.00499847860140e-04
1.41774193548387e+01 8.61596574640348e-03 9.97268375982937e-05
1.42741935483871e+01 8.52046437513617e-03 9.89574673107598e-05
1.43709677419355e+01 8.42602156392721e-03 9.81917757158266e-05
1.44677419354839e+01 8.33262557878649e-03 9.74297996409649e-05
1.45645161290323e+01 8.24026481645160e-03 9.66715737286451e-05
1.46612903225806e+01 8.14892780227340e-03 9.59171310134914e-05
1.47580645161290e+01 8.05860318879034e-03 9.51665027966782e-05
1.48548387096774e+01 7.96927975431878e-03 9.44197186953379e-05
1.49516129032258e+01 7.88094640155876e-03 9.36768066905956e-05
1.50483870967742e+01 7.79359215621535e-03 9.29377931743827e-05
1.51451612903226e+01 7.70720616563486e-03 9.22027029946658e-05
1.52419354838710e+01 7.62177769745728e-03 9.14715594996178e-05
1.53387096774194e+01 7.53729613828254e-03 9.07443845807933e-05
1.54354838709677e+01 7.45375099235193e-03 9.00211987148244e-05
1.55322580645161e+01 7.37113188024414e-03 8.93020210040696e-05
1.56290322580645e+01 7.28942853758573e-03 8.85868692161751e-05
1.57258064516129e+01 7.20863081377597e-03 8.78757596869600e-05
1.58225806451613e+01 7.12872867122800e-03 8.71687077680189e-05
1.59193548387097e+01 7.04971218260096e-03 8.64657275882818e-05
1.60161290322581e+01 6.97157153110169e-03 8.57668318090395e-05
1.61129032258065e+01 6.89429700874862e-03 8.50720320813869e-05
1.62096774193548e+01 6.81787901516566e-03 8.43813389376581e-05
1.63064516129032e+01 6.74230805638951e-03 8.36947618241298e-05
1.64032258064516e+01 6.66757474369014e-03 8.30123091328681e-05
1.65000000000000e+01 6.59366979240435e-03 8.23339882327351e-05
1.65967741935484e+01 6.52058402078218e-03 8.16598054995255e-05
1.66935483870968e+01 6.44830834884628e-03 8.09897663452861e-05
1.67903225806452e+01 6.37683379726399e-03 8.03238752469869e-05
1.68870967741935e+01 6.30615148623165e-03 7.96621357743999e-05
1.69838709677419e+01 6.23625263437138e-03 7.90045506171820e-05
1.70806451612903e+01 6.16712855764010e-03 7.83511216112937e-05
1.71774193548387e+01 6.09877066825068e-03 7.77018497647159e-05
1.72741935483871e+01 6.03117047360499e-03 7.70567351742068e-05
1.73709677419355e+01 5.96431957562162e-03 7.64157773772267e-05
1.74677419354839e+01 5.89820966853367e-03 7.57789751562248e-05
1.75645161290323e+01 5.83283253902634e-03 7.51463263378308e-05
1.76612903225806e+01 5.76818006482309e-03 7.45178281530942e-05
1.77580645161290e+01 5.70424421367657e-03 7.38934771459502e-05
1.78548387096774e+01 5.64101704237071e-03 7.32732691946130e-05
1.79516129032258e+01 5.57849069573386e-03 7.26571995324128e-05
1.80483870967742e+01 5.51665740566293e-03 7.20452627681500e-05
1.81451612903226e+01 5.45550949015807e-03 7.14374529057787e-05
1.82419354838710e+01 5.39503935236868e-03 7.08337633636697e-05
1.83387096774194e+01 5.33523947964941e-03 7.02341869934923e-05
1.84354838709677e+01 5.27610244262679e-03 6.96387160984559e-05
1.85322580645161e+01 5.21762089427624e-03 6.90473424511224e-05
1.86290322580645e+01 5.15978756900930e-03 6.84600573107753e-05
1.87258064516129e+01 5.10259528177096e-03 6.78768513523586e-05
1.88225806451613e+01 5.04603692744575e-03 6.72977149490316e-05
1.89193548387097e+01 4.99010547907080e-03 6.67226380099532e-05
1.90161290322581e+01 4.93479398787520e-03 6.61516098139866e-05
1.91129032258065e+01 4.88009558210983e-03 6.55846192992677e-05
1.92096774193548e+01 4.82600346619360e-03 6.50216549858622e-05
1.93064516129032e+01 4.77251091986923e-03 6.44627049902460e-05
1.94032258064516e+01 4.71961129736831e-03 6.39077570394162e-05
1.95000000000000e+01 4.66729802658565e-03 6.33567984846403e-05
1.95967741935484e+01 4.61556460826276e-03 6.28098163148351e-05
1.96935483870968e+01 4.56440461518039e-03 6.22667971695780e-05
1.97903225806452e+01 4.51381169136018e-03 6.17277273518554e-05
1.98870967741935e+01 4.46377955127486e-03 6.11925928404750e-05
1.99838709677419e+01 4.41430197906742e-03 6.06613793021086e-05
2.00806451612903e+01 4.36537282777884e-03 6.01340721030541e-05
2.01774193548387e+01 4.31698601858440e-03 5.96106563206931e-05
2.02741935483871e+01 4.26913554003849e-03 5.90911166838875e-05
2.03709677419355e+01 4.22181544755869e-03 5.85754377978588e-05
2.04677419354839e+01 4.17501986198828e-03 5.80636040114106e-05
2.05645161290323e+01 4.12874296957100e-03 5.75555992809043e-05
2.06612903225806e+01 4.08297902099163e-03 5.70514074009418e-05
2.07580645161290e+01 4.03772233066166e-03 5.65510119400146e-05
2.08548387096774e+01 3.99296727601297e-03 5.60543962500482e-05
2.09516129032258e+01 3.94870829679929e-03 5.55615434757031e-05
2.10483870967742e+01 3.90493989440539e-03 5.50724365634501e-05
2.11451612903226e+01 3.86165663116387e-03 5.45870582703373e-05
2.12419354838710e+01 3.81885312967979e-03 5.41053911725829e-05
2.13387096774194e+01 3.77652407216250e-03 5.36274176740001e-05
2.14354838709677e+01 3.73466419976497e-03 5.31531200141174e-05
2.15322580645161e+01 3.69326831193043e-03 5.26824802761111e-05
2.16290322580645e+01 3.65233126574631e-03 5.22154803945372e-05
2.17258064516129e+01 3.61184797530525e-03 5.17521021050370e-05
2.18225806451613e+01 3.57181341125560e-03 5.12923271265218e-05
2.19193548387097e+01 3.53222259962480e-03 5.08361370511726e-05
2.20161290322581e+01 3.49307062175807e-03 5.03835132318019e-05
2.21129032258065e+01 3.45435261352015e-03 4.99344369688781e-05
2.22096774193548e+01 3.41606376469095e-03 4.94888894565384e-05
2.23064516129032e+01 3.37819931836800e-03 4.90468517889972e-05
2.24032258064516e+01 3.34075457037541e-03 4.86083049667829e-05
2.25000000000000e+01 3.30372486867948e-03 4.81732299028226e-05
2.25967741935484e+01 3.26710561281069e-03 4.77416074283416e-05
2.26935483870968e+01 3.23089225329219e-03 4.73134182985945e-05
2.27903225806452e+01 3.19508029107461e-03 4.68886431984815e-05
2.28870967741935e+01 3.15966527697709e-03 4.64672627480049e-05
2.29838709677419e+01 3.12464281113453e-03 4.60492575075597e-05
2.30806451612903e+01 3.09000854245092e-03 4.56346079830819e-05
2.31774193548387e+01 3.05575816805884e-03 4.52232946310637e-05
2.32741935483871e+01 3.02188743278482e-03 4.48152978166768e-05
2.33709677419355e+01 2.98839212876317e-03 4.44105979598933e-05
2.34677419354839e+01 2.95526809448219e-03 4.40091754453991e-05
2.35645161290323e+01 2.92251121470187e-03 4.36110105303793e-05
2.36612903225806e+01 2.89011741979651e-03 4.32160834946200e-05
2.37580645161290e+01 2.85808268524907e-03 4.28243745957786e-05
2.38548387096774e+01 2.82640303115119e-03 4.24358640735005e-05
2.39516129032258e+01 2.79507452170873e-03 4.20505321534149e-05
2.40483870967742e+01 2.76409326475281e-03 4.16683590510498e-05
2.41451612903226e+01 2.73345541125619e-03 4.12893249755767e-05
2.42419354838710e+01 2.70315715485521e-03 4.09134101334776e-05
2.43387096774194e+01 2.67319473137679e-03 4.05405947321503e-05
2.44354838709677e+01 2.64356441837085e-03 4.01708589833529e-05
2.45322580645161e+01 2.61426253464780e-03 3.98041831065672e-05
2.46290322580645e+01 2.58528543982119e-03 3.94405473322658e-05
2.47258064516129e+01 2.55662953385547e-03 3.90799318667055e-05
2.48225806451613e+01 2.52829125673215e-03 3.87223170110334e-05
2.49193548387097e+01 2.50026708766428e-03 3.83676830865612e-05
2.50161290322581e+01 2.47255354500526e-03 3.80160103583007e-05
2.51129032258065e+01 2.44514718569985e-03 3.76672791573780e-05
2.52096774193548e+01 2.41804460485643e-03 3.73214698435709e-05
2.53064516129032e+01 2.39124243532399e-03 3.69785628079483e-05
2.54032258064516e+01 2.36473734727381e-03 3.66385384754333e-05
2.55000000000000e+01 2.33852604778574e-03 3.63013773072885e-05
2.55967741935484e+01 2.31260528043913e-03 3.59670598035149e-05
2.56935483870968e+01 2.28697182490823e-03 3.56355665051737e-05
2.57903225806452e+01 2.26162249656214e-03 3.53068779966497e-05
2.58870967741935e+01 2.23655414606918e-03 3.49809749078455e-05
2.59838709677419e+01 2.21176365900554e-03 3.46578379162920e-05
2.60806451612903e+01 2.18724795546845e-03 3.43374477491892e-05
2.61774193548387e+01 2.16300398969348e-03 3.40197851853888e-05
2.62741935483871e+01 2.13902874967615e-03 3.37048310261597e-05
2.63709677419355e+01 2.11531925688707e-03 3.33925661912286e-05
2.64677419354839e+01 2.09187256563162e-03 3.30829716574857e-05
2.65645161290323e+01 2.06868576295657e-03 3.27760283962884e-05
2.66612903225806e+01 2.04575596819654e-03 3.24717174722242e-05
2.67580645161290e+01 2.02308033261612e-03 3.21700200120987e-05
2.68548387096774e+01 2.00065603905593e-03 3.18709172064917e-05
2.69516129032258e+01 1.97848030158264e-03 3.15743903112581e-05
2.70483870967742e+01 1.95655036514285e-03 3.12804206489839e-05
2.71451612903226e+01 1.93486350522078e-03 3.09889896103618e-05
2.72419354838710e+01 1.91341702749986e-03 3.07000786555373e-05
2.73387096774194e+01 1.89220826752792e-03 3.04136693154213e-05
2.74354838709677e+01 1.87123459038623e-03 3.01297431929249e-05
2.75322580645161e+01 1.85049339036207e-03 2.98482819641605e-05
2.76290322580645e+01 1.82998209062507e-03 2.95692673795930e-05
2.77258064516129e+01 1.80969814290703e-03 2.92926812394909e-05
2.78225806451613e+01 1.78963902725698e-03 2.90185054725544e-05
2.79193548387097e+01 1.76980225151142e-03 2.87467220849922e-05
2.80161290322581e+01 1.75018535120318e-03 2.84773131084460e-05
2.81129032258065e+01 1.73078588918187e-03 2.82102606808779e-05
2.82096774193548e+01 1.71160145531099e-03 2.79455470206025e-05
2.83064516129032e+01 1.69262966616858e-03 2.76831544271458e-05
2.84032258064516e+01 1.67386816475107e-03 2.74230652820671e-05
2.85000000000000e+01 1.65531462018047e-03 2.71652620497451e-05
2.85967741935484e+01 1.63696672741477e-03 2.69097272781226e-05
2.86935483870968e+01 1.61882220696157e-03 2.66564435994080e-05
2.87903225806452e+01 1.60087880459491e-03 2.64053937307635e-05
2.88870967741935e+01 1.58313429107521e-03 2.61565604749549e-05
2.89838709677419e+01 1.56558646187227e-03 2.59099267209553e-05
2.90806451612903e+01 1.54823313689142e-03 2.56654754445269e-05
2.91774193548387e+01 1.53107216020268e-03 2.54231897087705e-05
2.92741935483871e+01 1.51410139977288e-03 2.51830526437533e-05
2.93709677419355e+01 1.49731874725757e-03 2.49450475101620e-05
2.94677419354839e+01 1.48072211756737e-03 2.47091576574634e-05
2.95645161290323e+01 1.46430944878205e-03 2.44753664811322e-05
2.96612903225806e+01 1.44807870183622e-03 2.42436574881641e-05
2.97580645161290e+01 1.43202786026594e-03 2.40140142755769e-05
2.98548387096774e+01 1.41615492995823e-03 2.37864205307642e-05
2.99516129032258e+01 1.40045793890332e-03 2.35608600318242e-05
3.00483870967742e+01 1.38493493694966e-03 2.33373166478681e-05
3.01451612903226e+01 1.36958399556160e-03 2.31157743392866e-05
3.02419354838710e+01 1.35440320757986e-03 2.28962171580058e-05
3.03387096774194e+01 1.33939068698454e-03 2.26786292477344e-05
3.04354838709677e+01 1.32454456866084e-03 2.24629948441664e-05
3.05322580645161e+01 1.30986300816731e-03 2.22492982751702e-05
