Energy (eV)          EEDF (eV^-(3/2))     First Anisotropy
3.75000000000000e-01 4.22076563992424e-02 7.61624725890914e-05
1.12500000000000e+00 3.87126461625300e-02 1.20965522222490e-04
1.87500000000000e+00 3.55070406830778e-02 1.47456637025811e-04
2.62500000000000e+00 3.25668757639725e-02 1.61245872663457e-04
3.37500000000000e+00 2.98701715666069e-02 1.68212872937516e-04
4.12500000000000e+00 2.73967682956425e-02 1.70831559687405e-04
4.87500000000000e+00 2.51281754901009e-02 1.70486619960817e-04
5.62500000000000e+00 2.30474337939245e-02 1.68061050621225e-04
6.37500000000000e+00 2.11389881726426e-02 1.64160439975090e-04
7.12500000000000e+00 1.93885716283485e-02 1.59219128110156e-04
7.87500000000000e+00 1.77830985436711e-02 1.53557760866559e-04
8.62500000000000e+00 1.63105668574129e-02 1.47417564883685e-04
9.37500000000000e+00 1.49599683405464e-02 1.40982210792797e-04
1.01250000000000e+01 1.37212063018175e-02 1.34392504727540e-04
1.08750000000000e+01 1.25850201077471e-02 1.27756668312993e-04
1.16250000000000e+01 1.15429159527629e-02 1.21157765652516e-04
1.23750000000000e+01 1.05871033619190e-02 1.14659208316597e-04
1.31250000000000e+01 9.71043695151632e-03 1.08308921038375e-04
1.38750000000000e+01 8.90636301224159e-03 1.02142547431735e-04
1.46250000000000e+01 8.16887051549606e-03 9.61859510588425e-05
1.53750000000000e+01 7.49244617665160e-03 9.04571887408348e-05
1.61250000000000e+01 6.87203323929934e-03 8.49680817689169e-05
1.68750000000000e+01 6.30299367237363e-03 7.97254762447666e-05
1.76250000000000e+01 5.78107349754794e-03 7.47322600606938e-05
1.83750000000000e+01 5.30237098770010e-03 6.99881873230778e-05
1.91250000000000e+01 4.86330749870743e-03 6.54905490188624e-05
1.98750000000000e+01 4.46060071651887e-03 6.12347199455995e-05
2.06250000000000e+01 4.09124011950651e-03 5.72146054010655e-05
2.13750000000000e+01 3.75246447266018e-03 5.34230062093675e-05
2.21250000000000e+01 3.44174118537812e-03 4.98519169032173e-05
2.28750000000000e+01 3.15674737853827e-03 4.64927689783735e-05
2.36250000000000e+01 2.89535251931310e-03 4.33366288683398e-05
2.43750000000000e+01 2.65560249391084e-03 4.03743584990215e-05
2.51250000000000e+01 2.43570499917522e-03 3.75967448605336e-05
2.58750000000000e+01 2.23401614383569e-03 3.49946038930307e-05
2.66250000000000e+01 2.04902815924280e-03 3.25588630628388e-05
2.73750000000000e+01 1.87935812771761e-03 3.02806262572609e-05
2.81250000000000e+01 1.72373764425153e-03 2.81512240153200e-05
2.88750000000000e+01 1.58100333427045e-03 2.61622516098191e-05
2.96250000000000e+01 1.45008815657653e-03 2.43055970820215e-05
3.03750000000000e+01 1.33001342645102e-03 2.25734609872102e-05
3.11250000000000e+01 1.21988149928499e-03 2.09583693241642e-05
3.18750000000000e+01 1.11886906004297e-03 1.94531808836615e-05
3.26250000000000e+01 1.02622096839341e-03 1.80510900520966e-05
3.33750000000000e+01 9.41244613493794e-04 1.67456259393892e-05
3.41250000000000e+01 8.63304736228550e-04 1.55306485600936e-05
3.48750000000000e+01 7.91818680192171e-04 1.44003426785257e-05
3.56250000000000e+01 7.26252035915262e-04 1.33492098291420e-05
3.63750000000000e+01 6.66114645770992e-04 1.23720589393404e-05
3.71250000000000e+01 6.10956939695774e-04 1.14639959108138e-05
3.78750000000000e+01 5.60366574331042e-04 1.06204124555182e-05
3.86250000000000e+01 5.13965350461308e-04 9.83697443151038e-06
3.93750000000000e+01 4.71406385704155e-04 9.10960988092270e-06
4.01250000000000e+01 4.32371521315976e-04 8.43449693599101e-06
4.08750000000000e+01 3.96568943727493e-04 7.80805172831604e-06
4.16250000000000e+01 3.63731003028316e-04 7.22691641057905e-06
4.23750000000000e+01 3.33612212092173e-04 6.68794737802935e-06
4.31250000000000e+01 3.05987411384804e-04 6.18820375860885e-06
4.38750000000000e+01 2.80650085735186e-04 5.72493622506388e-06
4.46250000000000e+01 2.57410820486711e-04 5.29557616938102e-06
4.53750000000000e+01 2.36095885486967e-04 4.89772526899861e-06
4.61250000000000e+01 2.16545936330414e-04 4.52914546517483e-06
4.68750000000000e+01 1.98614823144829e-04 4.18774936636572e-06
4.76250000000000e+01 1.82168498016331e-04 3.87159108325229e-06
4.83750000000000e+01 1.67084012885219e-04 3.57885749695828e-06
4.91250000000000e+01 1.53248600421162e-04 3.30785995785070e-06
4.98750000000000e+01 1.40558831006642e-04 3.05702640897003e-06
5.06250000000000e+01 1.28919839526478e-04 2.82489392547314e-06
5.13750000000000e+01 1.18244616183152e-04 2.61010165938308e-06
5.21250000000000e+01 1.08453356036247e-04 2.41138417733689e-06
5.28750000000000e+01 9.94728624033619e-05 2.22756517782705e-06
5.36250000000000e+01 9.12359996624824e-05 2.05755157357846e-06
5.43750000000000e+01 8.36811913651251e-05 1.90032792413470e-06
5.51250000000000e+01 7.67519599082798e-05 1.75495120339543e-06
5.58750000000000e+01 7.03965043238769e-05 1.62054588671076e-06
5.66250000000000e+01 6.45673130294489e-05 1.49629934216260e-06
5.73750000000000e+01 5.92208086450229e-05 1.38145751081744e-06
5.81250000000000e+01 5.43170222209935e-05 1.27532086099421e-06
5.88750000000000e+01 4.98192944415976e-05 1.17724060193304e-06
5.96250000000000e+01 4.56940015702724e-05 1.08661514265770e-06
6.03750000000000e+01 4.19103040881423e-05 1.00288678228096e-06
6.11250000000000e+01 3.84399161465274e-05 9.25538618494027e-07
6.18750000000000e+01 3.52568941099647e-05 8.54091661499470e-07
6.26250000000000e+01 3.23374426089521e-05 7.88102141180202e-07
6.33750000000000e+01 2.96597366525182e-05 7.27158995839865e-07
6.41250000000000e+01 2.72037584707828e-05 6.70881531394247e-07
6.48750000000000e+01 2.49511478677898e-05 6.18917240435125e-07
6.56250000000000e+01 2.28850649658924e-05 5.70939771122691e-07
6.63750000000000e+01 2.09900643156065e-05 5.26647036386898e-07
6.71250000000000e+01 1.92519794298132e-05 4.85759454429514e-07
6.78750000000000e+01 1.76578168791209e-05 4.48018312014900e-07
6.86250000000000e+01 1.61956591566747e-05 4.13184242517233e-07
6.93750000000000e+01 1.48545755862567e-05 3.81035811153960e-07
7.01250000000000e+01 1.36245406076525e-05 3.51368200278831e-07
7.08750000000000e+01 1.24963588284079e-05 3.23991988032460e-07
7.16250000000000e+01 1.14615962816845e-05 2.98732014053971e-07
7.23750000000000e+01 1.05125173763164e-05 2.75426326343565e-07
7.31250000000000e+01 9.64202706772643e-06 2.53925203733303e-07
7.38750000000000e+01 8.84361781738576e-06 2.34090248771988e-07
7.46250000000000e+01 8.11132094430271e-06 2.15793546160458e-07
7.53750000000000e+01 7.43966200485728e-06 1.98916882186028e-07
7.61250000000000e+01 6.82361986741422e-06 1.83351020900141e-07
7.68750000000000e+01 6.25858917576771e-06 1.68995033061748e-07
7.76250000000000e+01 5.74034592080524e-06 1.55755674131417e-07
7.83750000000000e+01 5.26501586301409e-06 1.43546807848245e-07
7.91250000000000e+01 4.82904556976621e-06 1.32288872153914e-07
7.98750000000000e+01 4.42917585086414e-06 1.21908384446479e-07
8.06250000000000e+01 4.06241739376004e-06 1.12337483351278e-07
8.13750000000000e+01 3.72602841630329e-06 1.03513504388423e-07
8.21250000000000e+01 3.41749416995522e-06 9.53785870963430e-08
8.28750000000000e+01 3.13450814024260e-06 8.78793113393355e-08
8.36250000000000e+01 2.87495480390998e-06 8.09663606848025e-08
8.43750000000000e+01 2.63689381386816e-06 7.45942108833201e-08
8.51250000000000e+01 2.41854549370992e-06 6.87208416224835e-08
8.58750000000000e+01 2.21827753335425e-06 6.33074698541985e-08
8.66250000000000e+01 2.03459278635939e-06 5.83183031152504e-08
8.73750000000000e+01 1.86611807768086e-06 5.37203113730952e-08
8.81250000000000e+01 1.71159393820449e-06 4.94830160333665e-08
8.88750000000000e+01 1.56986518931272e-06 4.55782948430556e-08
8.96250000000000e+01 1.43987230709707e-06 4.19802015141245e-08
9.03750000000000e+01 1.32064350165806e-06 3.86647989768865e-08
9.11250000000000e+01 1.21128745227967e-06 3.56100052512200e-08
9.18750000000000e+01 1.11098664416861e-06 3.27954509969569e-08
9.26250000000000e+01 1.01899125694572e-06 3.02023478729477e-08
9.33750000000000e+01 9.34613559201550e-07 2.78133668976996e-08
9.41250000000000e+01 8.57222767211555e-07 2.56125260634148e-08
9.48750000000000e+01 7.86240329375929e-07 2.35850865100243e-08
9.56250000000000e+01 7.21135601132033e-07 2.17174566167018e-08
9.63750000000000e+01 6.61421878006223e-07 1.99971034156047e-08
9.71250000000000e+01 6.06652757149318e-07 1.84124707764770e-08
9.78750000000000e+01 5.56418800155575e-07 1.69529038514920e-08
9.86250000000000e+01 5.10344472217351e-07 1.56085793075243e-08
9.93750000000000e+01 4.68085334733450e-07 1.43704409081232e-08
1.00125000000000e+02 4.29325470383877e-07 1.32301400400078e-08
1.00875000000000e+02 3.93775121421606e-07 1.21799808090845e-08
1.01625000000000e+02 3.61168523525884e-07 1.12128693589758e-08
1.02375000000000e+02 3.31261919023586e-07 1.03222670909930e-08
1.03125000000000e+02 3.03831734626024e-07 9.50214748853184e-09
1.03875000000000e+02 2.78672910058477e-07 8.74695627115391e-09
1.04625000000000e+02 2.55597365087777e-07 8.05157462425854e-09
1.05375000000000e+02 2.34432593487846e-07 7.41128526937631e-09
1.06125000000000e+02 2.15020373432113e-07 6.82174115782444e-09
1.06875000000000e+02 1.97215584672027e-07 6.27893658686516e-09
1.07625000000000e+02 1.80885123659267e-07 5.77918055269271e-09
1.08375000000000e+02 1.65906908501380e-07 5.31907216862973e-09
1.09125000000000e+02 1.52168966312202e-07 4.89547798992385e-09
1.09875000000000e+02 1.39568596134328e-07 4.50551109857383e-09
1.10625000000000e+02 1.28011601175903e-07 4.14651181275416e-09
1.11375000000000e+02 1.17411584622137e-07 3.81602989571280e-09
1.12125000000000e+02 1.07689303757231e-07 3.51180814854945e-09
1.12875000000000e+02 9.87720775683202e-08 3.23176728009864e-09
1.13625000000000e+02 9.05932434028499e-08 2.97399195529601e-09
1.14375000000000e+02 8.30916586174991e-08 2.73671793094521e-09
1.15125000000000e+02 7.62112434931303e-08 2.51832019477392e-09
1.15875000000000e+02 6.99005619987227e-08 2.31730203011091e-09
1.16625000000000e+02 6.41124372702003e-08 2.13228493447321e-09
1.17375000000000e+02 5.88035989295834e-08 1.96199932585682e-09
1.18125000000000e+02 5.39343596079216e-08 1.80527597561225e-09
1.18875000000000e+02 4.94683182537858e-08 1.66103811148735e-09
1.19625000000000e+02 4.53720880093367e-08 1.52829413876277e-09
1.20375000000000e+02 4.16150466196504e-08 1.40613093141871e-09
1.21125000000000e+02 3.81691075094295e-08 1.29370764897803e-09
1.21875000000000e+02 3.50085098157372e-08 1.19025003809481e-09
1.22625000000000e+02 3.21096258070952e-08 1.09504518111951e-09
1.23375000000000e+02 2.94507842492684e-08 1.00743665679236e-09
1.24125000000000e+02 2.70121083972676e-08 9.26820080913275e-10
1.24875000000000e+02 2.47753674024439e-08 8.52638997326493e-10
1.25625000000000e+02 2.27238400238380e-08 7.84381091857057e-10
1.26375000000000e+02 2.08421896249275e-08 7.21574703958697e-10
1.27125000000000e+02 1.91163495212843e-08 6.63785612791682e-10
1.27875000000000e+02 1.75334178220335e-08 6.10614076257731e-10
1.28625000000000e+02 1.60815609789786e-08 5.61692103188059e-10
1.29375000000000e+02 1.47499253223530e-08 5.16680940421181e-10
1.30125000000000e+02 1.35285559218647e-08 4.75268757928555e-10
1.30875000000000e+02 1.24083221664626e-08 4.37168516457972e-10
1.31625000000000e+02 1.13808495064790e-08 4.02116003375012e-10
1.32375000000000e+02 1.04384568478728e-08 3.69868023499601e-10
1.33125000000000e+02 9.57409913055016e-09 3.40200732765064e-10
1.33875000000000e+02 8.78131466149431e-09 3.12908103477521e-10
1.34625000000000e+02 8.05417680898233e-09 2.87800510830294e-10
1.35375000000000e+02 7.38724969676806e-09 2.64703431136723e-10
1.36125000000000e+02 6.77554756701387e-09 2.43456242990789e-10
1.36875000000000e+02 6.21449750817987e-09 2.23911123252921e-10
1.37625000000000e+02 5.69990526923487e-09 2.05932030392869e-10
1.38375000000000e+02 5.22792390462586e-09 1.89393768306662e-10
1.39125000000000e+02 4.79502501560474e-09 1.74181124264255e-10
1.39875000000000e+02 4.39797237292051e-09 1.60188075141986e-10
1.40625000000000e+02 4.03379772368772e-09 1.47317056552721e-10
1.41375000000000e+02 3.69977860157020e-09 1.35478289909535e-10
1.42125000000000e+02 3.39341797439529e-09 1.24589162848697e-10
1.42875000000000e+02 3.11242557704992e-09 1.14573658797232e-10
1.43625000000000e+02 2.85470079010846e-09 1.05361831801726e-10
1.44375000000000e+02 2.61831693619808e-09 9.68893230405106e-11
1.45125000000000e+02 2.40150687670536e-09 8.90969157229481e-11
1.45875000000000e+02 2.20264980114953e-09 8.19301253390716e-11
1.46625000000000e+02 2.02025911046321e-09 7.53388224620403e-11
1.47375000000000e+02 1.85297130359968e-09 6.92768855263318e-11
1.48125000000000e+02 1.69953578438591e-09 6.37018812077656e-11
1.48875000000000e+02 1.55880551242054e-09 5.85747702186877e-11
1.49625000000000e+02 1.42972842812523e-09 5.38596365041819e-11
1.50375000000000e+02 1.31133958784588e-09 4.95234379841679e-11
1.51125000000000e+02 1.20275395020766e-09 4.55357771327382e-11
1.51875000000000e+02 1.10315975979683e-09 4.18686898210726e-11
1.52625000000000e+02 1.01181247870762e-09 3.84964509746324e-11
1.53375000000000e+02 9.28029220588144e-10 3.53953957099207e-11
1.54125000000000e+02 8.51183645575802e-10 3.25437547216578e-11
1.54875000000000e+02 7.80701277958195e-10 2.99215027884679e-11
1.55625000000000e+02 7.16055211555731e-10 2.75102193547632e-11
1.56375000000000e+02 6.56762170720538e-10 2.52929602290387e-11
1.57125000000000e+02 6.02378897504864e-10 2.32541395148079e-11
1.57875000000000e+02 5.52498837990439e-10 2.13794209604346e-11
1.58625000000000e+02 5.06749103006750e-10 1.96556179786103e-11
1.59375000000000e+02 4.64787680517421e-10 1.80706016456335e-11
1.60125000000000e+02 4.26300878835272e-10 1.66132160453584e-11
1.60875000000000e+02 3.91000981552294e-10 1.52732003730717e-11
1.61625000000000e+02 3.58624096653418e-10 1.40411172609611e-11
1.62375000000000e+02 3.28928183734697e-10 1.29082868295806e-11
1.63125000000000e+02 3.01691244577933e-10 1.18667260090692e-11
1.63875000000000e+02 2.76709663554990e-10 1.09090927101279e-11
1.64625000000000e+02 2.53796685455142e-10 1.00286344581293e-11
1.65375000000000e+02 2.32781019356108e-10 9.21914113446777e-12
1.66125000000000e+02 2.13505558101728e-10 8.47490149755332e-12
1.66875000000000e+02 1.95826203813443e-10 7.79066318190791e-12
1.67625000000000e+02 1.79610790655449e-10 7.16159589781086e-12
1.68375000000000e+02 1.64738096800408e-10 6.58325757602812e-12
1.69125000000000e+02 1.51096938209471e-10 6.05156322249407e-12
1.69875000000000e+02 1.38585337451951e-10 5.56275626653675e-12
1.70625000000000e+02 1.27109761350990e-10 5.11338220347252e-12
1.71375000000000e+02 1.16584421756071e-10 4.70026434826334e-12
1.72125000000000e+02 1.06930634215148e-10 4.32048153153679e-12
1.72875000000000e+02 9.80762297520103e-11 3.97134758271506e-12
1.73625000000000e+02 8.99550153514988e-11 3.65039245737728e-12
1.74375000000000e+02 8.25062791193044e-11 3.35534487737351e-12
1.75125000000000e+02 7.56743364170762e-11 3.08411636269624e-12
1.75875000000000e+02 6.94081135798662e-11 2.83478654376915e-12
1.76625000000000e+02 6.36607661039036e-11 2.60558965169843e-12
1.77375000000000e+02 5.83893284503777e-11 2.39490209221059e-12
1.78125000000000e+02 5.35543928472615e-11 2.20123101652766e-12
1.78875000000000e+02 4.91198146879914e-11 2.02320380935919e-12
1.79625000000000e+02 4.50524423246447e-11 1.85955842056631e-12
1.80375000000000e+02 4.13218692356275e-11 1.70913447292125e-12
1.81125000000000e+02 3.79002067151476e-11 1.57086508378674e-12
1.81875000000000e+02 3.47618753851639e-11 1.44376934350912e-12
1.82625000000000e+02 3.18834139712148e-11 1.32694539789315e-12
1.83375000000000e+02 2.92433039125877e-11 1.21956408633561e-12
1.84125000000000e+02 2.68218084956662e-11 1.12086309106766e-12
1.84875000000000e+02 2.46008253078586e-11 1.03014155652035e-12
1.85625000000000e+02 2.25637509090994e-11 9.46755141107488e-13
1.86375000000000e+02 2.06953567092421e-11 8.70111466737650e-13
1.87125000000000e+02 1.89816751234410e-11 7.99665934144378e-13
1.87875000000000e+02 1.74098951544505e-11 7.34917874678523e-13
1.88625000000000e+02 1.59682666212450e-11 6.75407011557832e-13
1.89375000000000e+02 1.46460123179998e-11 6.20710205731960e-13
1.90125000000000e+02 1.34332474467587e-11 5.70438463511372e-13
1.90875000000000e+02 1.23209057214895e-11 5.24234184939823e-13
1.91625000000000e+02 1.13006715911022e-11 4.81768633574780e-13
1.92375000000000e+02 1.03649180747490e-11 4.42739609890221e-13
1.93125000000000e+02 9.50664974467951e-12 4.06869311942237e-13
1.93875000000000e+02 8.71945043040809e-12 3.73902368249839e-13
1.94625000000000e+02 7.99743525324408e-12 3.43604029050229e-13
1.95375000000000e+02 7.33520663260859e-12 3.15758503198228e-13
1.96125000000000e+02 6.72781393525374e-12 2.90167429000937e-13
1.96875000000000e+02 6.17071646573337e-12 2.66648468218356e-13
1.97625000000000e+02 5.65974952145237e-12 2.45034013325129e-13
1.98375000000000e+02 5.19109325853190e-12 2.25169998923666e-13
1.99125000000000e+02 4.76124413574052e-12 2.06914808930402e-13
1.99875000000000e+02 4.36698872301414e-12 1.90138271829733e-13
2.00625000000000e+02 4.00537967876470e-12 1.74720736909075e-13
2.01375000000000e+02 3.67371371639084e-12 1.60552224957784e-13
2.02125000000000e+02 3.36951139527442e-12 1.47531647436312e-13
2.02875000000000e+02 3.09049858518596e-12 1.35566088603595e-13
2.03625000000000e+02 2.83458946553245e-12 1.24570145533699e-13
2.04375000000000e+02 2.59987093235445e-12 1.14465321360201e-13
2.05125000000000e+02 2.38458829650379e-12 1.05179467461566e-13
2.05875000000000e+02 2.18713216608539e-12 9.66462706454650e-14
2.06625000000000e+02 2.00602641510020e-12 8.88047817070084e-14
2.07375000000000e+02 1.83991714834605e-12 8.15989820274539e-14
2.08125000000000e+02 1.68756258008136e-12 7.49773851480922e-14
2.08875000000000e+02 1.54782375078730e-12 6.88926705006574e-14
2.09625000000000e+02 1.41965601262963e-12 6.33013467024144e-14
2.10375000000000e+02 1.30210121996792e-12 5.81634420326780e-14
2.11125000000000e+02 1.19428056653063e-12 5.34422198993510e-14
2.11875000000000e+02 1.09538801570885e-12 4.91039172804867e-14
2.12625000000000e+02 1.00468427485528e-12 4.51175042881195e-14
2.13375000000000e+02 9.21491268542197e-13 4.14544631508080e-14
2.14125000000000e+02 8.45187069462023e-13 3.80885850485335e-14
2.14875000000000e+02 7.75201249075200e-13 3.49957833597680e-14
2.15625000000000e+02 7.11010613248329e-13 3.21539219965444e-14
2.16375000000000e+02 6.52135291003283e-13 2.95426576100574e-14
2.17125000000000e+02 5.98135147137955e-13 2.71432945474219e-14
2.17875000000000e+02 5.48606491900378e-13 2.49386515304361e-14
2.18625000000000e+02 5.03179063118696e-13 2.29129391101450e-14
2.19375000000000e+02 4.61513258226235e-13 2.10516470272781e-14
2.20125000000000e+02 4.23297595489087e-13 1.93414406787722e-14
2.20875000000000e+02 3.88246385457052e-13 1.77700659550804e-14
2.21625000000000e+02 3.56097595230380e-13 1.63262617722648e-14
2.22375000000000e+02 3.26610889576167e-13 1.49996796773958e-14
2.23125000000000e+02 2.99565834250359e-13 1.37808099559076e-14
2.23875000000000e+02 2.74760248093889e-13 1.26609137156570e-14
2.24625000000000e+02 2.52008691583710e-13 1.16319604648097e-14
2.25375000000000e+02 2.31141080539540e-13 1.06865707396423e-14
2.26125000000000e+02 2.12001414622794e-13 9.81796337417667e-15
2.26875000000000e+02 1.94446611122325e-13 9.01990703649776e-15
2.27625000000000e+02 1.78345435308673e-13 8.28667568688956e-15
2.28375000000000e+02 1.63577519360471e-13 7.61300764076635e-15
2.29125000000000e+02 1.50032462528767e-13 6.99406794497189e-15
2.29875000000000e+02 1.37609005812357e-13 6.42541379955273e-15
2.30625000000000e+02 1.26214274974221e-13 5.90296277874588e-15
2.31375000000000e+02 1.15763086240085e-13 5.42296362481163e-15
2.32125000000000e+02 1.06177309488697e-13 4.98196940662759e-15
2.32875000000000e+02 9.73852841732106e-14 4.57681285176990e-15
2.33625000000000e+02 8.93212836072717e-14 4.20458367626188e-15
2.34375000000000e+02 8.19250236109634e-14 3.86260775037718e-15
2.35125000000000e+02 7.51412118433832e-14 3.54842795194431e-15
2.35875000000000e+02 6.89191344527926e-14 3.25978657060621e-15
2.36625000000000e+02 6.32122769542525e-14 2.99460913752477e-15
