Energy (eV)          EEDF (eV^-(3/2))     First Anisotropy
4.74242424242424e-02 4.10814463419955e-02 2.67663775423128e-05
1.42272727272727e-01 4.06541430232013e-02 4.41173465124554e-05
2.37121212121212e-01 4.02312842430153e-02 5.80242545455582e-05
3.31969696969697e-01 3.98128237736217e-02 6.84591207657290e-05
4.26818181818182e-01 3.93987158676056e-02 7.70547478953687e-05
5.21666666666667e-01 3.89889152509130e-02 8.44317415522301e-05
6.16515151515151e-01 3.85833771218904e-02 9.09128783279528e-05
7.11363636363636e-01 3.81820571448532e-02 9.66940269244592e-05
8.06212121212121e-01 3.77849114452596e-02 1.01905716367333e-04
9.01060606060606e-01 3.73918966049271e-02 1.06640640766801e-04
9.95909090909091e-01 3.70029696576854e-02 1.10967739880368e-04
1.09075757575758e+00 3.66180880844402e-02 1.14940126031692e-04
1.18560606060606e+00 3.62372098050151e-02 1.18599871480893e-04
1.28045454545455e+00 3.58602931829698e-02 1.21981063567861e-04
1.37530303030303e+00 3.54872970086337e-02 1.25111839920599e-04
1.47015151515152e+00 3.51181805067672e-02 1.28015794169168e-04
1.56500000000000e+00 3.47529033208926e-02 1.30712976361397e-04
1.65984848484848e+00 3.43914255192639e-02 1.33220622967891e-04
1.75469696969697e+00 3.40337075808484e-02 1.35553701595467e-04
1.84954545454545e+00 3.36797104000154e-02 1.37725324973313e-04
1.94439393939394e+00 3.33293952738253e-02 1.39747071123509e-04
2.03924242424242e+00 3.29827239057202e-02 1.41629234430123e-04
2.13409090909091e+00 3.26396583938785e-02 1.43381025355616e-04
2.22893939393939e+00 3.23001612341110e-02 1.45010730990587e-04
2.32378787878788e+00 3.19641953091021e-02 1.46525845707172e-04
2.41863636363636e+00 3.16317238906626e-02 1.47933178329376e-04
2.51348484848485e+00 3.13027106297230e-02 1.49238941007389e-04
2.60833333333333e+00 3.09771195580572e-02 1.50448823344186e-04
2.70318181818182e+00 3.06549150789240e-02 1.51568054853980e-04
2.79803030303030e+00 3.03360619683506e-02 1.52601457790727e-04
2.89287878787879e+00 3.00205253663396e-02 1.53553492273546e-04
2.98772727272727e+00 2.97082707777836e-02 1.54428294910828e-04
3.08257575757576e+00 2.93992640641699e-02 1.55229712187516e-04
3.17742424242424e+00 2.90934714441841e-02 1.55961329215806e-04
3.27227272727273e+00 2.87908594867895e-02 1.56626495430166e-04
3.36712121212121e+00 2.84913951078272e-02 1.57228345876904e-04
3.46196969696970e+00 2.81950455690501e-02 1.57769821058758e-04
3.55681818181818e+00 2.79017784710074e-02 1.58253683920090e-04
3.65166666666667e+00 2.76115617529113e-02 1.58682534946076e-04
3.74651515151515e+00 2.73243636858442e-02 1.59058825637937e-04
3.84136363636364e+00 2.70401528724628e-02 1.59384870475932e-04
3.93621212121212e+00 2.67588982405017e-02 1.59662857674228e-04
4.03106060606061e+00 2.64805690423368e-02 1.59894858780918e-04
4.12590909090909e+00 2.62051348487619e-02 1.60082837367005e-04
4.22075757575758e+00 2.59325655484299e-02 1.60228656819330e-04
4.31560606060606e+00 2.56628313418828e-02 1.60334087438403e-04
4.41045454545455e+00 2.53959027408864e-02 1.60400812830712e-04
4.50530303030303e+00 2.51317505626952e-02 1.60430435765192e-04
4.60015151515152e+00 2.48703459292959e-02 1.60424483466693e-04
4.69500000000000e+00 2.46116602618903e-02 1.60384412492576e-04
4.78984848484849e+00 2.43556652800601e-02 1.60311613154434e-04
4.88469696969697e+00 2.41023329964538e-02 1.60207413613030e-04
4.97954545454545e+00 2.38516357158834e-02 1.60073083601290e-04
5.07439393939394e+00 2.36035460302023e-02 1.59909837889485e-04
5.16924242424242e+00 2.33580368173433e-02 1.59718839442984e-04
5.26409090909091e+00 2.31150812363769e-02 1.59501202375459e-04
5.35893939393939e+00 2.28746527264979e-02 1.59257994645380e-04
5.45378787878788e+00 2.26367250022540e-02 1.58990240589546e-04
5.54863636363636e+00 2.24012720524884e-02 1.58698923240114e-04
5.64348484848485e+00 2.21682681357290e-02 1.58384986511395e-04
5.73833333333333e+00 2.19376877790942e-02 1.58049337202454e-04
5.83318181818182e+00 2.17095057738338e-02 1.57692846895359e-04
5.92803030303030e+00 2.14836971742028e-02 1.57316353695364e-04
6.02287878787879e+00 2.12602372931472e-02 1.56920663887446e-04
6.11772727272727e+00 2.10391017011512e-02 1.56506553456107e-04
6.21257575757576e+00 2.08202662220596e-02 1.56074769538103e-04
6.30742424242424e+00 2.06037069319035e-02 1.55626031696155e-04
6.40227272727273e+00 2.03894001551875e-02 1.55161033439012e-04
6.49712121212121e+00 2.01773224623554e-02 1.54680443038820e-04
6.59196969696970e+00 1.99674506682046e-02 1.54184904891981e-04
6.68681818181818e+00 1.97597618280520e-02 1.53675040521717e-04
6.78166666666667e+00 1.95542332364936e-02 1.53151449558371e-04
6.87651515151515e+00 1.93508424236844e-02 1.52614710688838e-04
6.97136363636364e+00 1.91495671540908e-02 1.52065382529068e-04
7.06621212121212e+00 1.89503854228788e-02 1.51504004472327e-04
7.16106060606061e+00 1.87532754546617e-02 1.50931097468536e-04
7.25590909090909e+00 1.85582156999926e-02 1.50347164784800e-04
7.35075757575758e+00 1.83651848341099e-02 1.49752692703775e-04
7.44560606060606e+00 1.81741617535296e-02 1.49148151207823e-04
7.54045454545455e+00 1.79851255747898e-02 1.48533994606775e-04
7.63530303030303e+00 1.77980556311399e-02 1.47910662155269e-04
7.73015151515152e+00 1.76129314712860e-02 1.47278578618730e-04
7.82500000000000e+00 1.74297328561723e-02 1.46638154832015e-04
7.91984848484848e+00 1.72484397577295e-02 1.45989788211151e-04
8.01469696969697e+00 1.70690323557455e-02 1.45333863260254e-04
8.10954545454545e+00 1.68914910366177e-02 1.44670752035404e-04
8.20439393939394e+00 1.67157963903094e-02 1.44000814605892e-04
8.29924242424242e+00 1.65419292091079e-02 1.43324399475713e-04
8.39409090909091e+00 1.63698704846630e-02 1.42641844004264e-04
8.48893939393939e+00 1.61996014067526e-02 1.41953474790283e-04
8.58378787878788e+00 1.60311033604002e-02 1.41259608056471e-04
8.67863636363636e+00 1.58643579246482e-02 1.40560549999968e-04
8.77348484848485e+00 1.56993468697532e-02 1.39856597144747e-04
8.86833333333333e+00 1.55360521559670e-02 1.39148036662273e-04
8.96318181818182e+00 1.53744559308063e-02 1.38435146695055e-04
9.05803030303030e+00 1.52145405278436e-02 1.37718196650555e-04
9.15287878787879e+00 1.50562884640484e-02 1.36997447498875e-04
9.24772727272727e+00 1.48996824385884e-02 1.36273152042690e-04
9.34257575757576e+00 1.47447053302402e-02 1.35545555191641e-04
9.43742424242424e+00 1.45913401962010e-02 1.34814894175976e-04
9.53227272727273e+00 1.44395702697253e-02 1.34081398939101e-04
9.62712121212121e+00 1.42893789583118e-02 1.33345292158911e-04
9.72196969696970e+00 1.41407498423558e-02 1.32606789615044e-04
9.81681818181818e+00 1.39936666727332e-02 1.31866100377378e-04
9.91166666666667e+00 1.38481133696331e-02 1.31123427009294e-04
1.00065151515152e+01 1.37040740202022e-02 1.30378965808394e-04
1.01013636363636e+01 1.35615328772506e-02 1.29632906930225e-04
1.01962121212121e+01 1.34204743572424e-02 1.28885434612905e-04
1.02910606060606e+01 1.32808830388764e-02 1.28136727022430e-04
1.03859090909091e+01 1.31427436625791e-02 1.27386957406464e-04
1.04807575757576e+01 1.30060411248230e-02 1.26636293616121e-04
1.05756060606061e+01 1.28707604805267e-02 1.25884897643724e-04
1.06704545454545e+01 1.27368869400579e-02 1.25132926720663e-04
1.07653030303030e+01 1.26044058676146e-02 1.24380533151168e-04
1.08601515151515e+01 1.24733027796285e-02 1.23627864457670e-04
1.09550000000000e+01 1.23435633431804e-02 1.22875063249646e-04
1.10498484848485e+01 1.22151733755917e-02 1.22122268183598e-04
1.11446969696970e+01 1.20881188393657e-02 1.21369613541732e-04
1.12395454545455e+01 1.19623858441935e-02 1.20617228796087e-04
1.13343939393939e+01 1.18379606442437e-02 1.19865239579797e-04
1.14292424242424e+01 1.17148296366591e-02 1.19113767519800e-04
1.15240909090909e+01 1.15929793600723e-02 1.18362930351719e-04
1.16189393939394e+01 1.14723964931322e-02 1.17612841785216e-04
1.17137878787879e+01 1.13530678540643e-02 1.16863612355555e-04
1.18086363636364e+01 1.12349803961531e-02 1.16115349028666e-04
1.19034848484848e+01 1.11181212094196e-02 1.15368154793716e-04
1.19983333333333e+01 1.10024775181656e-02 1.14622129526479e-04
1.20931818181818e+01 1.08880366795776e-02 1.13877369825983e-04
1.21880303030303e+01 1.07747861823452e-02 1.13133968880887e-04
1.22828787878788e+01 1.06627136462019e-02 1.12392017240230e-04
1.23777272727273e+01 1.05518068178197e-02 1.11651602442255e-04
1.24725757575758e+01 1.04420535722457e-02 1.10912808632038e-04
1.25674242424242e+01 1.03334419106435e-02 1.10175717344518e-04
1.26622727272727e+01 1.02259599589791e-02 1.09440407346274e-04
1.27571212121212e+01 1.01195959667261e-02 1.08706954711523e-04
1.28519696969697e+01 1.00143383055795e-02 1.07975432692231e-04
1.29468181818182e+01 9.91017546898676e-03 1.07245912407013e-04
1.30416666666667e+01 9.80709606846195e-03 1.06518462496755e-04
1.31365151515152e+01 9.70508883479007e-03 1.05793148770372e-04
1.32313636363636e+01 9.60414261597075e-03 1.05070034905866e-04
1.33262121212121e+01 9.50424637599937e-03 1.04349182299958e-04
1.34210606060606e+01 9.40538919366151e-03 1.03630649942423e-04
1.35159090909091e+01 9.30756026205886e-03 1.02914495043503e-04
1.36107575757576e+01 9.21074888524690e-03 1.02200772712017e-04
1.37056060606061e+01 9.11494447926566e-03 1.01489535624684e-04
1.38004545454545e+01 9.02013657024276e-03 1.00780834665019e-04
1.38953030303030e+01 8.92631479324747e-03 1.00074718780315e-04
1.39901515151515e+01 8.83346889115913e-03 9.93712350335165e-05
1.40850000000000e+01 8.74158871354529e-03 9.86704284838268e-05
1.41798484848485e+01 8.65066421619050e-03 9.79723427506429e-05
1.42746969696970e+01 8.56068545806549e-03 9.72770197163765e-05
1.43695454545455e+01 8.47164260218999e-03 9.65844992213736e-05
1.44643939393939e+01 8.38352591390156e-03 9.58948196390713e-05
1.45592424242424e+01 8.29632575979093e-03 9.52080177415790e-05
1.46540909090909e+01 8.21003260665016e-03 9.45241287425612e-05
1.47489393939394e+01 8.12463702042965e-03 9.38431861843996e-05
1.48437878787879e+01 8.04012966577402e-03 9.31652224464560e-05
1.49386363636364e+01 7.95650130328506e-03 9.24902684710673e-05
1.50334848484848e+01 7.87374279024297e-03 9.18183534825331e-05
1.51283333333333e+01 7.79184507902422e-03 9.11495055058205e-05
1.52231818181818e+01 7.71079921611307e-03 9.04837512410202e-05
1.53180303030303e+01 7.63059634112283e-03 8.98211159564682e-05
1.54128787878788e+01 7.55122768633953e-03 8.91616239541818e-05
1.55077272727273e+01 7.47268457421238e-03 8.85052983147605e-05
1.56025757575758e+01 7.39495841796942e-03 8.78521606358666e-05
1.56974242424242e+01 7.31804072015280e-03 8.72022315076557e-05
1.57922727272727e+01 7.24192307168918e-03 8.65555303945088e-05
1.58871212121212e+01 7.16659715097168e-03 8.59120756652669e-05
1.59819696969697e+01 7.09205472294948e-03 8.52718844932725e-05
1.60768181818182e+01 7.01828763868445e-03 8.46349732771905e-05
1.61716666666667e+01 6.94528783307783e-03 8.40013574062496e-05
1.62665151515152e+01 6.87304732538271e-03 8.33710510196790e-05
1.63613636363636e+01 6.80155821786263e-03 8.27440674369005e-05
1.64562121212121e+01 6.73081269492822e-03 8.21204190476346e-05
1.65510606060606e+01 6.66080302228325e-03 8.15001172175707e-05
1.66459090909091e+01 6.59152154649282e-03 8.08831726748930e-05
1.67407575757576e+01 6.52296069289386e-03 8.02695952918753e-05
1.68356060606061e+01 6.45511296603042e-03 7.96593938612201e-05
1.69304545454545e+01 6.38797094840951e-03 7.90525764912076e-05
1.70253030303030e+01 6.32152729968979e-03 7.84491505026828e-05
1.71201515151515e+01 6.25577475587978e-03 7.78491224506756e-05
1.72150000000000e+01 6.19070612854352e-03 7.72524980366224e-05
1.73098484848485e+01 6.12631430438483e-03 7.66592824587819e-05
1.74046969696970e+01 6.06259224334960e-03 7.60694802114026e-05
1.74995454545455e+01 5.99953297898563e-03 7.54830948790943e-05
1.75943939393939e+01 5.93712961730121e-03 7.49001294954004e-05
1.76892424242424e+01 5.87537533601131e-03 7.43205864472302e-05
1.77840909090909e+01 5.81426338379231e-03 7.37444674931033e-05
1.78789393939394e+01 5.75378707954358e-03 7.31717736814896e-05
1.79737878787879e+01 5.69393981198856e-03 7.26025056689904e-05
1.80686363636364e+01 5.63471503794914e-03 7.20366635356728e-05
1.81634848484848e+01 5.57610628264156e-03 7.14742465960640e-05
1.82583333333333e+01 5.51810713862845e-03 7.09152537248118e-05
1.83531818181818e+01 5.46071126511858e-03 7.03596832682600e-05
1.84480303030303e+01 5.40391238727377e-03 6.98075329678682e-05
1.85428787878788e+01 5.34770429582428e-03 6.92588002532489e-05
1.86377272727273e+01 5.29208084547779e-03 6.87134820704720e-05
1.87325757575758e+01 5.23703595516735e-03 6.81715747063592e-05
1.88274242424242e+01 5.18256360707740e-03 6.76330740885672e-05
1.89222727272727e+01 5.12865784598555e-03 6.70979757028238e-05
1.90171212121212e+01 5.07531277861218e-03 6.65662746061182e-05
1.91119696969697e+01 5.02252257297583e-03 6.60379653557320e-05
1.92068181818182e+01 4.97028145802628e-03 6.55130422757558e-05
1.93016666666667e+01 4.91858372219489e-03 6.49914992992463e-05
1.93965151515152e+01 4.86742371359572e-03 6.44733298067417e-05
1.94913636363636e+01 4.81679583913003e-03 6.39585268993023e-05
1.95862121212121e+01 4.76669456387489e-03 6.34470833220194e-05
1.96810606060606e+01 4.71711441047830e-03 6.29389913974665e-05
1.97759090909091e+01 4.66804995880694e-03 6.24342432716034e-05
1.98707575757576e+01 4.61949584460731e-03 6.19328307669940e-05
1.99656060606061e+01 4.57144675967174e-03 6.14347452326691e-05
2.00604545454545e+01 4.52389745100515e-03 6.09399777960405e-05
2.01553030303030e+01 4.47684272025061e-03 6.04485192914508e-05
2.02501515151515e+01 4.43027742312132e-03 5.99603602697461e-05
2.03450000000000e+01 4.38419646883815e-03 5.94754909366795e-05
2.04398484848485e+01 4.33859481979495e-03 5.89939013769363e-05
2.05346969696970e+01 4.29346749033659e-03 5.85155814191710e-05
2.06295454545455e+01 4.24880954689063e-03 5.80405204979801e-05
2.07243939393939e+01 4.20461610720047e-03 5.75687078835350e-05
2.08192424242424e+01 4.16088233979153e-03 5.71001326155173e-05
2.09140909090909e+01 4.11760346344332e-03 5.66347835112574e-05
2.10089393939394e+01 4.07477474666658e-03 5.61726491086775e-05
2.11037878787879e+01 4.03239150738586e-03 5.57137178705843e-05
2.11986363636364e+01 3.99044911182320e-03 5.52579780605548e-05
2.12934848484848e+01 3.94894297460092e-03 5.48054176160369e-05
2.13883333333333e+01 3.90786855803542e-03 5.43560243577663e-05
2.14831818181818e+01 3.86722137164125e-03 5.39097859287815e-05
2.15780303030303e+01 3.82699697164019e-03 5.34666897410676e-05
2.16728787878788e+01 3.78719096065807e-03 5.30267231643434e-05
2.17677272727273e+01 3.74779898669158e-03 5.25898734106195e-05
2.18625757575758e+01 3.70881674318939e-03 5.21561274161678e-05
2.19574242424242e+01 3.67023996839419e-03 5.17254720351248e-05
2.20522727272727e+01 3.63206444487659e-03 5.12978939824953e-05
2.21471212121212e+01 3.59428599907440e-03 5.08733798400475e-05
2.22419696969697e+01 3.55690050083617e-03 5.04519160069860e-05
2.23368181818182e+01 3.51990386313444e-03 5.00334888722838e-05
2.24316666666667e+01 3.48329204112063e-03 4.96180847084932e-05
2.25265151515152e+01 3.44706103218517e-03 4.92056895632010e-05
2.26213636363636e+01 3.41120687535102e-03 4.87962894358072e-05
2.27162121212121e+01 3.37572565084069e-03 4.83898702249152e-05
2.28110606060606e+01 3.34061347964781e-03 4.79864176821730e-05
2.29059090909091e+01 3.30586652326381e-03 4.75859175717266e-05
2.30007575757576e+01 3.27148098280216e-03 4.71883555714124e-05
2.30956060606061e+01 3.23745309904283e-03 4.67937171717757e-05
2.31904545454545e+01 3.20377915186683e-03 4.64019878396139e-05
2.32853030303030e+01 3.17045545984936e-03 4.60131529688759e-05
2.33801515151515e+01 3.13747837985757e-03 4.56271978849009e-05
2.34750000000000e+01 3.10484430665217e-03 4.52441078017573e-05
2.35698484848485e+01 3.07254967262956e-03 4.48638679679523e-05
2.36646969696970e+01 3.04059094701973e-03 4.44864635755214e-05
2.37595454545455e+01 3.00896463591563e-03 4.41118796671159e-05
2.38543939393939e+01 2.97766728175159e-03 4.37401012855224e-05
2.39492424242424e+01 2.94669546292527e-03 4.33711134283072e-05
2.40440909090909e+01 2.91604579342376e-03 4.30049010513880e-05
2.41389393939394e+01 2.88571492245334e-03 4.26414490295714e-05
2.42337878787879e+01 2.85569953419629e-03 4.22807422898081e-05
2.43286363636364e+01 2.82599634707588e-03 4.19227657275217e-05
2.44234848484848e+01 2.79660211377315e-03 4.15675041211159e-05
2.45183333333333e+01 2.76751362074561e-03 4.12149422687113e-05
2.46131818181818e+01 2.73872768787605e-03 4.08650649462800e-05
2.47080303030303e+01 2.71024116812484e-03 4.05178568707687e-05
2.48028787878788e+01 2.68205094729888e-03 4.01733028235247e-05
2.48977272727273e+01 2.65415394336943e-03 3.98313875724041e-05
2.49925757575758e+01 2.62654710647956e-03 3.94920957921902e-05
2.50874242424242e+01 2.59922741849506e-03 3.91554121912836e-05
2.51822727272727e+01 2.57219189267432e-03 3.88213214725904e-05
2.52771212121212e+01 2.54543757334201e-03 3.84898083360465e-05
2.53719696969697e+01 2.51896153556590e-03 3.81608574445444e-05
2.54668181818182e+01 2.49276088493932e-03 3.78344535368757e-05
2.55616666666667e+01 2.46683275695544e-03 3.75105813560260e-05
2.56565151515152e+01 2.44117431700587e-03 3.71892255759216e-05
2.57513636363636e+01 2.41578275996602e-03 3.68703709173869e-05
2.58462121212121e+01 2.39065530988840e-03 3.65540021120439e-05
2.59410606060606e+01 2.36578921969921e-03 3.62401038704410e-05
2.60359090909091e+01 2.34118177099191e-03 3.59286609867651e-05
2.61307575757576e+01 2.31683027344600e-03 3.56196582720646e-05
2.62256060606061e+01 2.29273206481918e-03 3.53130804860400e-05
2.63204545454545e+01 2.26888451056011e-03 3.50089124445345e-05
2.64153030303030e+01 2.24528500352031e-03 3.47071389858334e-05
2.65101515151515e+01 2.22193096366928e-03 3.44077449724034e-05
2.66050000000000e+01 2.19881983781235e-03 3.41107152614482e-05
2.66998484848485e+01 2.17594909939674e-03 3.38160348007982e-05
2.67946969696970e+01 2.15331624797784e-03 3.35236885674156e-05
2.68895454545455e+01 2.13091880920535e-03 3.32336615045832e-05
2.69843939393939e+01 2.10875433446560e-03 3.29459386203818e-05
2.70792424242424e+01 2.08682040061382e-03 3.26605049565538e-05
2.71740909090909e+01 2.06511460970929e-03 3.23773455899339e-05
2.72689393939394e+01 2.04363458875316e-03 3.20964456052210e-05
2.73637878787879e+01 2.02237798950626e-03 3.18177901828400e-05
2.74586363636364e+01 2.00134248799882e-03 3.15413645422993e-05
2.75534848484848e+01 1.98052578451177e-03 3.12671538843439e-05
2.76483333333333e+01 1.95992560324628e-03 3.09951434811863e-05
2.77431818181818e+01 1.93953969207490e-03 3.07253186477657e-05
2.78380303030303e+01 1.91936582229543e-03 3.04576647162981e-05
2.79328787878788e+01 1.89940178845827e-03 3.01921671178022e-05
2.80277272727273e+01 1.87964540791049e-03 2.99288113293247e-05
2.81225757575758e+01 1.86009452077372e-03 2.96675828200386e-05
2.82174242424242e+01 1.84074698963527e-03 2.94084671349878e-05
2.83122727272727e+01 1.82160069931442e-03 2.91514498682317e-05
2.84071212121212e+01 1.80265355663126e-03 2.88965166637688e-05
2.85019696969697e+01 1.78390349017783e-03 2.86436531920207e-05
2.85968181818182e+01 1.76534845015614e-03 2.83928452245701e-05
2.86916666666667e+01 1.74698640795906e-03 2.81440785855328e-05
2.87865151515152e+01 1.72881535614510e-03 2.78973391019019e-05
2.88813636363636e+01 1.71083330815286e-03 2.76526126803296e-05
2.89762121212121e+01 1.69303829808394e-03 2.74098852823279e-05
2.90710606060606e+01 1.67542838048795e-03 2.71691429022728e-05
2.91659090909091e+01 1.65800163020924e-03 2.69303716367918e-05
2.92607575757576e+01 1.64075614199689e-03 2.66935576394437e-05
2.93556060606061e+01 1.62369003047735e-03 2.64586870744470e-05
2.94504545454545e+01 1.60680142988754e-03 2.62257461879579e-05
2.95453030303030e+01 1.59008849387081e-03 2.59947212849098e-05
2.96401515151515e+01 1.57354939527519e-03 2.57655987295718e-05
2.97350000000000e+01 1.55718232595358e-03 2.55383649252185e-05
2.98298484848485e+01 1.54098549662008e-03 2.53130063777790e-05
2.99246969696970e+01 1.52495713649114e-03 2.50895096540647e-05
