Energy (eV)          EEDF (eV^-(3/2))     First Anisotropy
2.76666666666667e-02 5.80364514837061e-02 3.24248815478318e-05
8.30000000000000e-02 5.75928660694165e-02 5.35179933327759e-05
1.38333333333333e-01 5.71526710741342e-02 7.05844056965453e-05
1.93666666666667e-01 5.67158405886028e-02 8.35101502484511e-05
2.49000000000000e-01 5.62823488954880e-02 9.42575414420648e-05
3.04333333333333e-01 5.58521704739569e-02 1.03569339533074e-04
3.59666666666667e-01 5.54252800017033e-02 1.11830334080492e-04
4.15000000000000e-01 5.50016523479242e-02 1.19273130246942e-04
4.70333333333333e-01 5.45812625731753e-02 1.26052154095166e-04
5.25666666666667e-01 5.41640859306535e-02 1.32276661926836e-04
5.81000000000000e-01 5.37500978615626e-02 1.38027612949772e-04
6.36333333333333e-01 5.33392739942312e-02 1.43367152951638e-04
6.91666666666667e-01 5.29315901446764e-02 1.48344334841877e-04
7.47000000000000e-01 5.25270223129851e-02 1.52998762585669e-04
8.02333333333333e-01 5.21255466822113e-02 1.57363015435704e-04
8.57666666666667e-01 5.17271396185190e-02 1.61464320121654e-04
9.13000000000000e-01 5.13317776681324e-02 1.65325738993328e-04
9.68333333333333e-01 5.09394375561513e-02 1.68967035516991e-04
1.02366666666667e+00 5.05500961864275e-02 1.72405319179719e-04
1.07900000000000e+00 5.01637306399371e-02 1.75655535732982e-04
1.13433333333333e+00 4.97803181682749e-02 1.78730843708992e-04
1.18966666666667e+00 4.93998362039904e-02 1.81642911043598e-04
1.24500000000000e+00 4.90222623483698e-02 1.84402151269011e-04
1.30033333333333e+00 4.86475743711043e-02 1.87017909890706e-04
1.35566666666667e+00 4.82757502177950e-02 1.89498618763401e-04
1.41100000000000e+00 4.79067679994529e-02 1.91851922683110e-04
1.46633333333333e+00 4.75406059919604e-02 1.94084781111926e-04
1.52166666666667e+00 4.71772426424146e-02 1.96203555839279e-04
1.57700000000000e+00 4.68166565599375e-02 1.98214084650469e-04
1.63233333333333e+00 4.64588265150063e-02 2.00121740878721e-04
1.68766666666667e+00 4.61037314448822e-02 2.01931486749147e-04
1.74300000000000e+00 4.57513504454551e-02 2.03647919080075e-04
1.79833333333333e+00 4.54016627704869e-02 2.05275306060430e-04
1.85366666666667e+00 4.50546478363058e-02 2.06817621559954e-04
1.90900000000000e+00 4.47102852144874e-02 2.08278574984898e-04
1.96433333333333e+00 4.43685546310407e-02 2.09661634951081e-04
2.01966666666667e+00 4.40294359705012e-02 2.10970052381474e-04
2.07500000000000e+00 4.36929092693016e-02 2.12206880864882e-04
2.13033333333333e+00 4.33589547149222e-02 2.13374992393682e-04
2.18566666666667e+00 4.30275526494821e-02 2.14477093521538e-04
2.24100000000000e+00 4.26986835636912e-02 2.15515739759516e-04
2.29633333333333e+00 4.23723280959767e-02 2.16493346302938e-04
2.35166666666667e+00 4.20484670356529e-02 2.17412199712382e-04
2.40700000000000e+00 4.17270813173676e-02 2.18274468417136e-04
2.46233333333333e+00 4.14081520202155e-02 2.19082210165525e-04
2.51766666666667e+00 4.10916603705487e-02 2.19837380714615e-04
2.57300000000000e+00 4.07775877368500e-02 2.20541841705950e-04
2.62833333333333e+00 4.04659156288397e-02 2.21197365909672e-04
2.68366666666667e+00 4.01566256999775e-02 2.21805643853819e-04
2.73900000000000e+00 3.98496997427082e-02 2.22368289873988e-04
2.79433333333333e+00 3.95451196875671e-02 2.22886845834601e-04
2.84966666666667e+00 3.92428676054149e-02 2.23362786300739e-04
2.90500000000000e+00 3.89429257030101e-02 2.23797523286154e-04
2.96033333333333e+00 3.86452763221181e-02 2.24192408900928e-04
3.01566666666667e+00 3.83499019415120e-02 2.24548739467798e-04
3.07100000000000e+00 3.80567851728361e-02 2.24867759321155e-04
3.12633333333333e+00 3.77659087597202e-02 2.25150662684045e-04
3.18166666666667e+00 3.74772555795761e-02 2.25398597003886e-04
3.23700000000000e+00 3.71908086397200e-02 2.25612666045468e-04
3.29233333333333e+00 3.69065510764952e-02 2.25793931206211e-04
3.34766666666667e+00 3.66244661568880e-02 2.25943414263562e-04
3.40300000000000e+00 3.63445372748825e-02 2.26062099933115e-04
3.45833333333333e+00 3.60667479505940e-02 2.26150936769071e-04
3.51366666666667e+00 3.57910818317239e-02 2.26210839460615e-04
3.56900000000000e+00 3.55175226901258e-02 2.26242690977973e-04
3.62433333333333e+00 3.52460544209491e-02 2.26247343163286e-04
3.67966666666667e+00 3.49766610439522e-02 2.26225618675761e-04
3.73500000000000e+00 3.47093267002593e-02 2.26178312815421e-04
3.79033333333333e+00 3.44440356515163e-02 2.26106193880896e-04
3.84566666666667e+00 3.41807722810765e-02 2.26010004837077e-04
3.90100000000000e+00 3.39195210909318e-02 2.25890464883305e-04
3.95633333333333e+00 3.36602667008816e-02 2.25748269634380e-04
4.01166666666667e+00 3.34029938496039e-02 2.25584092566071e-04
4.06700000000000e+00 3.31476873917467e-02 2.25398586378018e-04
4.12233333333333e+00 3.28943322971101e-02 2.25192383040047e-04
4.17766666666667e+00 3.26429136516146e-02 2.24966095057591e-04
4.23300000000000e+00 3.23934166545394e-02 2.24720316667699e-04
4.28833333333333e+00 3.21458266177185e-02 2.24455623782402e-04
4.34366666666667e+00 3.19001289664161e-02 2.24172575106544e-04
4.39900000000000e+00 3.16563092367006e-02 2.23871713196581e-04
4.45433333333333e+00 3.14143530746543e-02 2.23553564325091e-04
4.50966666666667e+00 3.11742462371661e-02 2.23218639476402e-04
4.56500000000000e+00 3.09359745894295e-02 2.22867435291418e-04
4.62033333333333e+00 3.06995241041678e-02 2.22500433871871e-04
4.67566666666667e+00 3.04648808623500e-02 2.22118103673651e-04
4.73100000000000e+00 3.02320310508058e-02 2.21720900356030e-04
4.78633333333333e+00 3.00009609614649e-02 2.21309266540111e-04
4.84166666666667e+00 2.97716569920040e-02 2.20883632615724e-04
4.89700000000000e+00 2.95441056435701e-02 2.20444417509762e-04
4.95233333333333e+00 2.93182935200339e-02 2.19992028409994e-04
5.00766666666667e+00 2.90942073285749e-02 2.19526861498362e-04
5.06300000000000e+00 2.88718338775050e-02 2.19049302650257e-04
5.11833333333333e+00 2.86511600755368e-02 2.18559727132524e-04
5.17366666666667e+00 2.84321729323110e-02 2.18058500273532e-04
5.22900000000000e+00 2.82148595563148e-02 2.17545978103029e-04
5.28433333333333e+00 2.79992071541648e-02 2.17022507031248e-04
5.33966666666667e+00 2.77852030310816e-02 2.16488424464269e-04
5.39500000000000e+00 2.75728345888977e-02 2.15944059392373e-04
5.45033333333333e+00 2.73620893253532e-02 2.15389732055757e-04
5.50566666666667e+00 2.71529548345245e-02 2.14825754512207e-04
5.56100000000000e+00 2.69454188049136e-02 2.14252431180413e-04
5.61633333333333e+00 2.67394690187592e-02 2.13670058496744e-04
5.67166666666667e+00 2.65350933524213e-02 2.13078925441045e-04
5.72700000000000e+00 2.63322797745484e-02 2.12479314040384e-04
5.78233333333333e+00 2.61310163454031e-02 2.11871499020287e-04
5.83766666666667e+00 2.59312912172065e-02 2.11255748293589e-04
5.89300000000000e+00 2.57330926323792e-02 2.10632323429235e-04
5.94833333333333e+00 2.55364089228804e-02 2.10001479300716e-04
6.00366666666667e+00 2.53412285105157e-02 2.09363464542079e-04
6.05900000000000e+00 2.51475399052482e-02 2.08718521985615e-04
6.11433333333333e+00 2.49553317045504e-02 2.08066888309772e-04
6.16966666666667e+00 2.47645925936794e-02 2.07408794465824e-04
6.22500000000000e+00 2.45753113440522e-02 2.06744466087710e-04
6.28033333333333e+00 2.43874768126127e-02 2.06074123141164e-04
6.33566666666667e+00 2.42010779420748e-02 2.05397980324042e-04
6.39100000000000e+00 2.40161037593607e-02 2.04716247451153e-04
6.44633333333333e+00 2.38325433749805e-02 2.04029129106001e-04
6.50166666666667e+00 2.36503859832472e-02 2.03336825017347e-04
6.55700000000000e+00 2.34696208607740e-02 2.02639530421436e-04
6.61233333333333e+00 2.32902373658669e-02 2.01937435717456e-04
6.66766666666667e+00 2.31122249387136e-02 2.01230726822567e-04
6.72300000000000e+00 2.29355730999367e-02 2.00519585513627e-04
6.77833333333333e+00 2.27602714499987e-02 1.99804189087236e-04
6.83366666666667e+00 2.25863096693678e-02 1.99084710695154e-04
6.88900000000000e+00 2.24136775171234e-02 1.98361319667373e-04
6.94433333333333e+00 2.22423648303742e-02 1.97634181177425e-04
6.99966666666667e+00 2.20723615244016e-02 1.96903456559866e-04
7.05500000000000e+00 2.19036575913158e-02 1.96169303616273e-04
7.11033333333333e+00 2.17362430994862e-02 1.95431876286349e-04
7.16566666666667e+00 2.15701081936649e-02 1.94691324949004e-04
7.22100000000000e+00 2.14052430936903e-02 1.93947796712637e-04
7.27633333333333e+00 2.12416380939298e-02 1.93201435092477e-04
7.33166666666667e+00 2.10792835633851e-02 1.92452380296497e-04
7.38700000000000e+00 2.09181699444405e-02 1.91700769501240e-04
7.44233333333333e+00 2.07582877523190e-02 1.90946736535706e-04
7.49766666666667e+00 2.05996275751689e-02 1.90190412153298e-04
7.55300000000000e+00 2.04421800728570e-02 1.89431924294282e-04
7.60833333333333e+00 2.02859359764356e-02 1.88671397776382e-04
7.66366666666667e+00 2.01308860882136e-02 1.87908954553793e-04
7.71900000000000e+00 1.99770212805914e-02 1.87144713967257e-04
7.77433333333333e+00 1.98243324955389e-02 1.86378792441567e-04
7.82966666666667e+00 1.96728107446530e-02 1.85611303732510e-04
7.88500000000000e+00 1.95224471080313e-02 1.84842359165446e-04
7.94033333333333e+00 1.93732327337620e-02 1.84072067339776e-04
7.99566666666667e+00 1.92251588379675e-02 1.83300534364708e-04
8.05100000000000e+00 1.90782167037166e-02 1.82527864087099e-04
8.10633333333333e+00 1.89323976805254e-02 1.81754157802913e-04
8.16166666666667e+00 1.87876931843884e-02 1.80979514482548e-04
8.21700000000000e+00 1.86440946967267e-02 1.80204030988656e-04
8.27233333333333e+00 1.85015937639006e-02 1.79427801794593e-04
8.32766666666667e+00 1.83601819972287e-02 1.78650919199960e-04
8.38300000000000e+00 1.82198510719714e-02 1.77873473539099e-04
8.43833333333333e+00 1.80805927268535e-02 1.77095552906461e-04
8.49366666666667e+00 1.79423987640734e-02 1.76317243362983e-04
8.54900000000000e+00 1.78052610483200e-02 1.75538629135822e-04
8.60433333333333e+00 1.76691715063052e-02 1.74759792350589e-04
8.65966666666667e+00 1.75341221267641e-02 1.73980813229160e-04
8.71500000000000e+00 1.74001049595034e-02 1.73201770281083e-04
8.77033333333333e+00 1.72671121149444e-02 1.72422740042701e-04
8.82566666666667e+00 1.71351357641145e-02 1.71643797266845e-04
8.88100000000000e+00 1.70041681377259e-02 1.70865015106442e-04
8.93633333333333e+00 1.68742015257288e-02 1.70086464860409e-04
8.99166666666667e+00 1.67452282772951e-02 1.69308216155674e-04
9.04700000000000e+00 1.66172407999259e-02 1.68530337123449e-04
9.10233333333333e+00 1.64902315590152e-02 1.67752894151763e-04
9.15766666666667e+00 1.63641930778256e-02 1.66975952060259e-04
9.21300000000000e+00 1.62391179366245e-02 1.66199574269547e-04
9.26833333333333e+00 1.61149987722572e-02 1.65423822560246e-04
9.32366666666667e+00 1.59918282781159e-02 1.64648757240966e-04
9.37900000000000e+00 1.58695992033031e-02 1.63874437311090e-04
9.43433333333333e+00 1.57483043522138e-02 1.63100920226206e-04
9.48966666666667e+00 1.56279365844986e-02 1.62328262059642e-04
9.54500000000000e+00 1.55084888142531e-02 1.61556517659005e-04
9.60033333333333e+00 1.53899540096097e-02 1.60785740417907e-04
9.65566666666667e+00 1.52723251926942e-02 1.60015982431345e-04
9.71100000000000e+00 1.51555954388410e-02 1.59247294646367e-04
9.76633333333333e+00 1.50397578761936e-02 1.58479726639909e-04
9.82166666666667e+00 1.49248056856564e-02 1.57713326768358e-04
9.87700000000000e+00 1.48107321001334e-02 1.56948142312626e-04
9.93233333333333e+00 1.46975304041383e-02 1.56184219261977e-04
9.98766666666667e+00 1.45851939337409e-02 1.55421602344587e-04
1.00430000000000e+01 1.44737160761597e-02 1.54660335735253e-04
1.00983333333333e+01 1.43630902677289e-02 1.53900461823101e-04
1.01536666666667e+01 1.42533099971454e-02 1.53142021802059e-04
1.02090000000000e+01 1.41443688017643e-02 1.52385056941045e-04
1.02643333333333e+01 1.40362602672925e-02 1.51629606346725e-04
1.03196666666667e+01 1.39289780305731e-02 1.50875708113778e-04
1.03750000000000e+01 1.38225157760182e-02 1.50123400439597e-04
1.04303333333333e+01 1.37168672353075e-02 1.49372719454956e-04
1.04856666666667e+01 1.36120261900602e-02 1.48623700338234e-04
1.05410000000000e+01 1.35079864683989e-02 1.47876378395507e-04
1.05963333333333e+01 1.34047419446538e-02 1.47130786956843e-04
1.06516666666667e+01 1.33022865419266e-02 1.46386958455791e-04
1.07070000000000e+01 1.32006142287806e-02 1.45644925476072e-04
1.07623333333333e+01 1.30997190189493e-02 1.44904718711284e-04
1.08176666666667e+01 1.29995949737987e-02 1.44166368010944e-04
1.08730000000000e+01 1.29002361991366e-02 1.43429903394953e-04
1.09283333333333e+01 1.28016368449274e-02 1.42695353074585e-04
1.09836666666667e+01 1.27037911076555e-02 1.41962744466248e-04
1.10390000000000e+01 1.26066932272506e-02 1.41232105174852e-04
1.10943333333333e+01 1.25103374868071e-02 1.40503461074058e-04
1.11496666666667e+01 1.24147182148543e-02 1.39776837288915e-04
1.12050000000000e+01 1.23198297823915e-02 1.39052259149217e-04
1.12603333333333e+01 1.22256666026132e-02 1.38329750327024e-04
1.13156666666667e+01 1.21322231330895e-02 1.37609333789232e-04
1.13710000000000e+01 1.20394938729071e-02 1.36891032721989e-04
1.14263333333333e+01 1.19474733623992e-02 1.36174868723634e-04
1.14816666666667e+01 1.18561561852413e-02 1.35460862728222e-04
1.15370000000000e+01 1.17655369656926e-02 1.34749035901964e-04
1.15923333333333e+01 1.16756103683318e-02 1.34039407889743e-04
1.16476666666667e+01 1.15863711000705e-02 1.33331997710663e-04
1.17030000000000e+01 1.14978139074924e-02 1.32626824627468e-04
1.17583333333333e+01 1.14099335765936e-02 1.31923906444862e-04
1.18136666666667e+01 1.13227249347185e-02 1.31223260377995e-04
1.18690000000000e+01 1.12361828479916e-02 1.30524903895810e-04
1.19243333333333e+01 1.11503022210632e-02 1.29828853069494e-04
1.19796666666667e+01 1.10650779989704e-02 1.29135123414817e-04
1.20350000000000e+01 1.09805051646585e-02 1.28443730710298e-04
1.20903333333333e+01 1.08965787387314e-02 1.27754689394130e-04
1.21456666666667e+01 1.08132937812414e-02 1.27068013381282e-04
1.22010000000000e+01 1.07306453892964e-02 1.26383716857281e-04
1.22563333333333e+01 1.06486286968150e-02 1.25701812722104e-04
1.23116666666667e+01 1.05672388762478e-02 1.25022313382863e-04
1.23670000000000e+01 1.04864711362677e-02 1.24345231524016e-04
1.24223333333333e+01 1.04063207215288e-02 1.23670578596731e-04
1.24776666666667e+01 1.03267829143234e-02 1.22998365587952e-04
1.25330000000000e+01 1.02478530323502e-02 1.22328603767826e-04
1.25883333333333e+01 1.01695264284791e-02 1.21661303223061e-04
1.26436666666667e+01 1.00917984923446e-02 1.20996473603194e-04
1.26990000000000e+01 1.00146646481906e-02 1.20334124845969e-04
1.27543333333333e+01 9.93812035463977e-03 1.19674265753292e-04
1.28096666666667e+01 9.86216110622681e-03 1.19016904715434e-04
1.28650000000000e+01 9.78678243131649e-03 1.18362050415096e-04
1.29203333333333e+01 9.71197989187744e-03 1.17709710444586e-04
1.29756666666667e+01 9.63774908495785e-03 1.17059892008718e-04
1.30310000000000e+01 9.56408564067409e-03 1.16412602608233e-04
1.30863333333333e+01 9.49098522198876e-03 1.15767848696934e-04
1.31416666666667e+01 9.41844352613133e-03 1.15125636363920e-04
1.31970000000000e+01 9.34645628265434e-03 1.14485971997045e-04
1.32523333333333e+01 9.27501925321593e-03 1.13848860978761e-04
1.33076666666667e+01 9.20412823294759e-03 1.13214308348382e-04
1.33630000000000e+01 9.13377904857536e-03 1.12582319446193e-04
1.34183333333333e+01 9.06396755820681e-03 1.11952898646792e-04
1.34736666666667e+01 8.99468965264801e-03 1.11326050002033e-04
1.35290000000000e+01 8.92594125358733e-03 1.10701777866401e-04
1.35843333333333e+01 8.85771831338678e-03 1.10080085666698e-04
1.36396666666667e+01 8.79001681635023e-03 1.09460976526250e-04
1.36950000000000e+01 8.72283277696757e-03 1.08844453872195e-04
1.37503333333333e+01 8.65616223971015e-03 1.08230520240338e-04
1.38056666666667e+01 8.59000128025246e-03 1.07619177881243e-04
1.38610000000000e+01 8.52434600377418e-03 1.07010429350002e-04
1.39163333333333e+01 8.45919254475982e-03 1.06404276345160e-04
1.39716666666667e+01 8.39453706817561e-03 1.05800720297294e-04
1.40270000000000e+01 8.33037576782740e-03 1.05199762941785e-04
1.40823333333333e+01 8.26670486616436e-03 1.04601405190792e-04
1.41376666666667e+01 8.20352061541292e-03 1.04005647704847e-04
1.41930000000000e+01 8.14081929598839e-03 1.03412491449166e-04
1.42483333333333e+01 8.07859721630275e-03 1.02821936597679e-04
1.43036666666667e+01 8.01685071385727e-03 1.02233983088153e-04
1.43590000000000e+01 7.95557615370593e-03 1.01648631162562e-04
1.44143333333333e+01 7.89476992826721e-03 1.01065880302186e-04
1.44696666666667e+01 7.83442845837705e-03 1.00485729766788e-04
1.45250000000000e+01 7.77454819180217e-03 9.99081791195468e-05
1.45803333333333e+01 7.71512560305576e-03 9.93332271922666e-05
1.46356666666667e+01 7.65615719441236e-03 9.87608726091039e-05
1.46910000000000e+01 7.59763949446935e-03 9.81911142965433e-05
1.47463333333333e+01 7.53956905796633e-03 9.76239504777897e-05
1.48016666666667e+01 7.48194246676357e-03 9.70593791815434e-05
1.48570000000000e+01 7.42475632844975e-03 9.64973987374692e-05
1.49123333333333e+01 7.36800727616521e-03 9.59380067989087e-05
1.49676666666667e+01 7.31169196954514e-03 9.53812008371494e-05
1.50230000000000e+01 7.25580709337212e-03 9.48269786228282e-05
1.50783333333333e+01 7.20034935740300e-03 9.42753372761110e-05
1.51336666666667e+01 7.14531549727836e-03 9.37262737468996e-05
1.51890000000000e+01 7.09070227321813e-03 9.31797852826209e-05
1.52443333333333e+01 7.03650646985210e-03 9.26358685050238e-05
1.52996666666667e+01 6.98272489709692e-03 9.20945198767758e-05
1.53550000000000e+01 6.92935438889328e-03 9.15557361560287e-05
1.54103333333333e+01 6.87639180304003e-03 9.10195134990518e-05
1.54656666666667e+01 6.82383402203992e-03 9.04858479136275e-05
1.55210000000000e+01 6.77167795187693e-03 8.99547357008006e-05
1.55763333333333e+01 6.71992052185381e-03 8.94261725825747e-05
1.56316666666667e+01 6.66855868540790e-03 8.89001541425062e-05
1.56870000000000e+01 6.61758941892712e-03 8.83766762550309e-05
1.57423333333333e+01 6.56700972159093e-03 8.78557342374661e-05
1.57976666666667e+01 6.51681661615730e-03 8.73373232781931e-05
1.58530000000000e+01 6.46700714781604e-03 8.68214388539331e-05
1.59083333333333e+01 6.41757838403316e-03 8.63080759053514e-05
1.59636666666667e+01 6.36852741531001e-03 8.57972292531894e-05
1.60190000000000e+01 6.31985135407273e-03 8.52888940038548e-05
1.60743333333333e+01 6.27154733451986e-03 8.47830647479260e-05
1.61296666666667e+01 6.22361251335482e-03 8.42797359646061e-05
1.61850000000000e+01 6.17604406871010e-03 8.37789024159641e-05
1.62403333333333e+01 6.12883919999815e-03 8.32805583676619e-05
1.62956666666667e+01 6.08199512861817e-03 8.27846979820868e-05
1.63510000000000e+01 6.03550909691386e-03 8.22913157015942e-05
1.64063333333333e+01 5.98937836802753e-03 8.18004054907910e-05
1.64616666666667e+01 5.94360022658213e-03 8.13119612186896e-05
1.65170000000000e+01 5.89817197767148e-03 8.08259770312739e-05
1.65723333333333e+01 5.85309094671744e-03 8.03424466147038e-05
1.66276666666667e+01 5.80835448012819e-03 7.98613635668192e-05
1.66830000000000e+01 5.76395994431980e-03 7.93827217593576e-05
1.67383333333333e+01 5.71990472557640e-03 7.89065146214674e-05
1.67936666666667e+01 5.67618623068562e-03 7.84327355008688e-05
1.68490000000000e+01 5.63280188599035e-03 7.79613780160176e-05
1.69043333333333e+01 5.58974913725201e-03 7.74924353593438e-05
1.69596666666667e+01 5.54702545026383e-03 7.70259006483847e-05
1.70150000000000e+01 5.50462830993195e-03 7.65617672681924e-05
1.70703333333333e+01 5.46255522014153e-03 7.61000281937276e-05
1.71256666666667e+01 5.42080370434887e-03 7.56406763312348e-05
1.71810000000000e+01 5.37937130469074e-03 7.51837048511970e-05
1.72363333333333e+01 5.33825558185335e-03 7.47291065293232e-05
1.72916666666667e+01 5.29745411564406e-03 7.42768740784717e-05
1.73470000000000e+01 5.25696450412797e-03 7.38270004724075e-05
1.74023333333333e+01 5.21678436349979e-03 7.33794783048458e-05
1.74576666666667e+01 5.17691132863572e-03 7.29343001122086e-05
