Energy (eV)          EEDF (eV^-(3/2))     First Anisotropy
4.87234042553192e-04 2.32501217308752e+01 1.14248862074448e-02
1.46170212765957e-03 2.30800410490419e+01 1.88601346280447e-02
2.43617021276596e-03 2.29112045515987e+01 2.48826846214617e-02
3.41063829787234e-03 2.27436031367055e+01 2.94490468724156e-02
4.38510638297872e-03 2.25772277700156e+01 3.32499954831001e-02
5.35957446808511e-03 2.24120694822089e+01 3.65468705137430e-02
6.33404255319149e-03 2.22481193703492e+01 3.94749978705354e-02
7.30851063829787e-03 2.20853685960549e+01 4.21161452664926e-02
8.28297872340426e-03 2.19238083860685e+01 4.45245741464313e-02
9.25744680851064e-03 2.17634300309208e+01 4.67386575783248e-02
1.02319148936170e-02 2.16042248851919e+01 4.87868176081794e-02
1.12063829787234e-02 2.14461843668601e+01 5.06908621912566e-02
1.21808510638298e-02 2.12892999558004e+01 5.24679973625593e-02
1.31553191489362e-02 2.11335631948169e+01 5.41321087808372e-02
1.41297872340426e-02 2.09789656885656e+01 5.56946144203095e-02
1.51042553191489e-02 2.08254991031179e+01 5.71650524049908e-02
1.60787234042553e-02 2.06731551655123e+01 5.85514985794391e-02
1.70531914893617e-02 2.05219256640393e+01 5.98608709746025e-02
1.80276595744681e-02 2.03718024455474e+01 6.10991563074026e-02
1.90021276595745e-02 2.02227774173026e+01 6.22715818702414e-02
1.99765957446809e-02 2.00748425457691e+01 6.33827484330984e-02
2.09510638297872e-02 1.99279898561720e+01 6.44367341453286e-02
2.19255319148936e-02 1.97822114320779e+01 6.54371770367214e-02
2.29000000000000e-02 1.96374994149638e+01 6.63873412259678e-02
2.38744680851064e-02 1.94938460042885e+01 6.72901708254352e-02
2.48489361702128e-02 1.93512434555623e+01 6.81483339206976e-02
2.58234042553191e-02 1.92096840814637e+01 6.89642589231281e-02
2.67978723404255e-02 1.90691602509049e+01 6.97401650780023e-02
2.77723404255319e-02 1.89296643886183e+01 7.04780879270286e-02
2.87468085106383e-02 1.87911889747542e+01 7.11799008778292e-02
2.97212765957447e-02 1.86537265444720e+01 7.18473335231733e-02
3.06957446808511e-02 1.85172696879026e+01 7.24819874630807e-02
3.16702127659574e-02 1.83818110486404e+01 7.30853497538468e-02
3.26446808510638e-02 1.82473433244706e+01 7.36588045356582e-02
3.36191489361702e-02 1.81138592665946e+01 7.42036433158214e-02
3.45936170212766e-02 1.79813516792400e+01 7.47210738130082e-02
3.55680851063830e-02 1.78498134192747e+01 7.52122277150439e-02
3.65425531914894e-02 1.77192373961108e+01 7.56781676327486e-02
3.75170212765957e-02 1.75896165704400e+01 7.61198930955052e-02
3.84914893617021e-02 1.74609439547472e+01 7.65383458625748e-02
3.94659574468085e-02 1.73332126126327e+01 7.69344148038346e-02
4.04404255319149e-02 1.72064156584374e+01 7.73089401367670e-02
4.14148936170213e-02 1.70805462568726e+01 7.76627172497411e-02
4.23893617021277e-02 1.69555976226522e+01 7.79965001080092e-02
4.33638297872340e-02 1.68315630203586e+01 7.83110044285440e-02
4.43382978723404e-02 1.67084357633742e+01 7.86069104144594e-02
4.53127659574468e-02 1.65862092142344e+01 7.88848652249437e-02
4.62872340425532e-02 1.64648767840292e+01 7.91454853517231e-02
4.72617021276596e-02 1.63444319320470e+01 7.93893586735227e-02
4.82361702127660e-02 1.62248681654242e+01 7.96170463543918e-02
4.92106382978723e-02 1.61061790387942e+01 7.98290845529871e-02
5.01851063829787e-02 1.59883581541303e+01 8.00259860818729e-02
5.11595744680851e-02 1.58713991598236e+01 8.02082418115554e-02
5.21340425531915e-02 1.57552957509233e+01 8.03763219560117e-02
5.31085106382979e-02 1.56400416686014e+01 8.05306773759245e-02
5.40829787234043e-02 1.55256306998138e+01 8.06717406850590e-02
5.50574468085106e-02 1.54120566769674e+01 8.07999272949622e-02
5.60319148936170e-02 1.52993134775863e+01 8.09156363591615e-02
5.70063829787234e-02 1.51873950241417e+01 8.10192517328261e-02
5.79808510638298e-02 1.50762952832410e+01 8.11111427577587e-02
5.89553191489362e-02 1.49660082657905e+01 8.11916649881429e-02
5.99297872340426e-02 1.48565280265075e+01 8.12611609733009e-02
6.09042553191489e-02 1.47478486636011e+01 8.13199609016381e-02
6.18787234042553e-02 1.46399643184535e+01 8.13683832023916e-02
6.28531914893617e-02 1.45328691754419e+01 8.14067351850967e-02
6.38276595744681e-02 1.44265574612080e+01 8.14353135415015e-02
6.48021276595745e-02 1.43210234447678e+01 8.14544048124343e-02
6.57765957446809e-02 1.42162614370606e+01 8.14642859235956e-02
6.67510638297872e-02 1.41122657906424e+01 8.14652246103323e-02
6.77255319148936e-02 1.40090308993821e+01 8.14574798356173e-02
6.87000000000000e-02 1.39065511981588e+01 8.14413021651394e-02
6.96744680851064e-02 1.38048211626800e+01 8.14169341903062e-02
7.06489361702128e-02 1.37038353088265e+01 8.13846108399324e-02
7.16234042553192e-02 1.36035881927171e+01 8.13445596716258e-02
7.25978723404255e-02 1.35040744102937e+01 8.12970012357770e-02
7.35723404255319e-02 1.34052885970305e+01 8.12421493487968e-02
7.45468085106383e-02 1.33072254276444e+01 8.11802113688025e-02
7.55212765957447e-02 1.32098796158085e+01 8.11113884402723e-02
7.64957446808511e-02 1.31132459139686e+01 8.10358757893453e-02
7.74702127659574e-02 1.30173191127516e+01 8.09538629248126e-02
7.84446808510638e-02 1.29220940409966e+01 8.08655338266334e-02
7.94191489361702e-02 1.28275655653704e+01 8.07710672058105e-02
8.03936170212766e-02 1.27337285900920e+01 8.06706366870415e-02
8.13680851063830e-02 1.26405780566571e+01 8.05644109833896e-02
8.23425531914894e-02 1.25481089436564e+01 8.04525541211498e-02
8.33170212765958e-02 1.24563162662308e+01 8.03352255811001e-02
8.42914893617021e-02 1.23651950760787e+01 8.02125804312259e-02
8.52659574468085e-02 1.22747404610969e+01 8.00847695278804e-02
8.62404255319149e-02 1.21849475451149e+01 7.99519396483890e-02
8.72148936170213e-02 1.20958114876332e+01 7.98142336322158e-02
8.81893617021277e-02 1.20073274835615e+01 7.96717905022111e-02
8.91638297872340e-02 1.19194907630397e+01 7.95247456340912e-02
9.01382978723404e-02 1.18322965909401e+01 7.93732308519334e-02
9.11127659574468e-02 1.17457402668545e+01 7.92173745179107e-02
9.20872340425532e-02 1.16598171247592e+01 7.90573016865203e-02
9.30617021276596e-02 1.15745225327637e+01 7.88931341979854e-02
9.40361702127660e-02 1.14898518928612e+01 7.87249907812047e-02
9.50106382978723e-02 1.14058006406802e+01 7.85529871400376e-02
9.59851063829787e-02 1.13223642453093e+01 7.83772360851820e-02
9.69595744680851e-02 1.12395382088402e+01 7.81978475997302e-02
9.79340425531915e-02 1.11573180663393e+01 7.80149289006831e-02
9.89085106382979e-02 1.10756993855350e+01 7.78285845607258e-02
9.98829787234043e-02 1.09946777665791e+01 7.76389165988571e-02
1.00857446808511e-01 1.09142488416798e+01 7.74460244750235e-02
1.01831914893617e-01 1.08344082753217e+01 7.72500052351302e-02
1.02806382978723e-01 1.07551517635074e+01 7.70509536300788e-02
1.03780851063830e-01 1.06764750337241e+01 7.68489620876473e-02
1.04755319148936e-01 1.05983738447132e+01 7.66441208146813e-02
1.05729787234043e-01 1.05208439862429e+01 7.64365178605432e-02
1.06704255319149e-01 1.04438812788802e+01 7.62262391783211e-02
1.07678723404255e-01 1.03674815737657e+01 7.60133686835099e-02
1.08653191489362e-01 1.02916407523903e+01 7.57979884149760e-02
1.09627659574468e-01 1.02163547258195e+01 7.55801782743067e-02
1.10602127659574e-01 1.01416194361464e+01 7.53600162900091e-02
1.11576595744681e-01 1.00674308545860e+01 7.51375788827368e-02
1.12551063829787e-01 9.99378498182473e+00 7.49129405907598e-02
1.13525531914894e-01 9.92067784780531e+00 7.46861742260470e-02
1.14500000000000e-01 9.84810551151240e+00 7.44573509200855e-02
1.15474468085106e-01 9.77606406075997e+00 7.42265401680341e-02
1.16448936170213e-01 9.70454961198074e+00 7.39938098713425e-02
1.17423404255319e-01 9.63355831001705e+00 7.37592263791762e-02
1.18397872340426e-01 9.56308632791275e+00 7.35228545284140e-02
1.19372340425532e-01 9.49312986670691e+00 7.32847576822399e-02
1.20346808510638e-01 9.42368515522901e+00 7.30449978582526e-02
1.21321276595745e-01 9.35474844943826e+00 7.28036354904752e-02
1.22295744680851e-01 9.28631603360480e+00 7.25607296481913e-02
1.23270212765957e-01 9.21838421871531e+00 7.23163382565186e-02
1.24244680851064e-01 9.15094934274262e+00 7.20705178477881e-02
1.25219148936170e-01 9.08400777044825e+00 7.18233236879500e-02
1.26193617021277e-01 9.01755589318649e+00 7.15748098075167e-02
1.27168085106383e-01 8.95159012870950e+00 7.13250290313837e-02
1.28142553191489e-01 8.88610692097482e+00 7.10740330078423e-02
1.29117021276596e-01 8.82110273995344e+00 7.08218722368691e-02
1.30091489361702e-01 8.75657408143951e+00 7.05685960974176e-02
1.31065957446809e-01 8.69251746686134e+00 7.03142528739412e-02
1.32040425531915e-01 8.62892944309396e+00 7.00588898614280e-02
1.33014893617021e-01 8.56580658189108e+00 6.98025531507763e-02
1.33989361702128e-01 8.50314548085452e+00 6.95452878135814e-02
1.34963829787234e-01 8.44094276208769e+00 6.92871380889809e-02
1.35938297872340e-01 8.37919507240423e+00 6.90281471604934e-02
1.36912765957447e-01 8.31789908314722e+00 6.87683572609096e-02
1.37887234042553e-01 8.25705149000978e+00 6.85078096940121e-02
1.38861702127660e-01 8.19664901285659e+00 6.82465448554741e-02
1.39836170212766e-01 8.13668839554771e+00 6.79846022533340e-02
1.40810638297872e-01 8.07716640576274e+00 6.77220205280339e-02
1.41785106382979e-01 8.01807983482659e+00 6.74588374717040e-02
1.42759574468085e-01 7.95942549753644e+00 6.71950901174275e-02
1.43734042553191e-01 7.90120023166404e+00 6.69308145448776e-02
1.44708510638298e-01 7.84340089877066e+00 6.66660460405515e-02
1.45682978723404e-01 7.78602438304507e+00 6.64008192601691e-02
1.46657446808511e-01 7.72906759146903e+00 6.61351680271405e-02
1.47631914893617e-01 7.67252745365055e+00 6.58691254223866e-02
1.48606382978723e-01 7.61640092165840e+00 6.56027238003996e-02
1.49580851063830e-01 7.56068496985767e+00 6.53359948048969e-02
1.50555319148936e-01 7.50537659474670e+00 6.50689693839844e-02
1.51529787234043e-01 7.45047281479541e+00 6.48016778050373e-02
1.52504255319149e-01 7.39597067028440e+00 6.45341496692466e-02
1.53478723404255e-01 7.34186722314542e+00 6.42664139256980e-02
1.54453191489362e-01 7.28815955680296e+00 6.39984989470952e-02
1.55427659574468e-01 7.23484477574104e+00 6.37304323560106e-02
1.56402127659574e-01 7.18192000618109e+00 6.34622411632321e-02
1.57376595744681e-01 7.12938239508697e+00 6.31939519082283e-02
1.58351063829787e-01 7.07722911029325e+00 6.29255904793332e-02
1.59325531914894e-01 7.02545734035256e+00 6.26571821904448e-02
1.60300000000000e-01 6.97406429438399e+00 6.23887517929141e-02
1.61274468085106e-01 6.92304720192260e+00 6.21203234871121e-02
1.62248936170213e-01 6.87240331277012e+00 6.18519209336872e-02
1.63223404255319e-01 6.82212989684679e+00 6.15835672646534e-02
1.64197872340426e-01 6.77222424404415e+00 6.13152850941978e-02
1.65172340425532e-01 6.72268366407887e+00 6.10470965291822e-02
1.66146808510638e-01 6.67350548634776e+00 6.07790232341314e-02
1.67121276595745e-01 6.62468705954886e+00 6.05110862760802e-02
1.68095744680851e-01 6.57622575224831e+00 6.02433062448771e-02
1.69070212765957e-01 6.52811895202364e+00 5.99757033755593e-02
1.70044680851064e-01 6.48036406556295e+00 5.97082973879916e-02
1.71019148936170e-01 6.43295851852511e+00 5.94411075529875e-02
1.71993617021277e-01 6.38589975540095e+00 5.91741527012947e-02
1.72968085106383e-01 6.33918523937543e+00 5.89074512322978e-02
1.73942553191489e-01 6.29281245219105e+00 5.86410211225588e-02
1.74917021276596e-01 6.24677889401208e+00 5.83748799342389e-02
1.75891489361702e-01 6.20108208328976e+00 5.81090448232827e-02
1.76865957446809e-01 6.15571955662849e+00 5.78435325474054e-02
1.77840425531915e-01 6.11068886865307e+00 5.75783595223252e-02
1.78814893617021e-01 6.06598759167587e+00 5.73135416832447e-02
1.79789361702128e-01 6.02161331617312e+00 5.70490945900783e-02
1.80763829787234e-01 5.97756365004361e+00 5.67850335346251e-02
1.81738297872340e-01 5.93383621868499e+00 5.65213733975318e-02
1.82712765957447e-01 5.89042866486575e+00 5.62581287057154e-02
1.83687234042553e-01 5.84733864859816e+00 5.59953136392655e-02
1.84661702127660e-01 5.80456384701198e+00 5.57329420380996e-02
1.85636170212766e-01 5.76210195422953e+00 5.54710274085540e-02
1.86610638297872e-01 5.71995068124119e+00 5.52095829298933e-02
1.87585106382979e-01 5.67810775578209e+00 5.49486214605735e-02
1.88559574468085e-01 5.63657092220957e+00 5.46881555878144e-02
1.89534042553192e-01 5.59533794120659e+00 5.44281975026484e-02
1.90508510638298e-01 5.55440659018957e+00 5.41687590934010e-02
1.91482978723404e-01 5.51377466265640e+00 5.39098520410128e-02
1.92457446808511e-01 5.47343996824611e+00 5.36514876900865e-02
1.93431914893617e-01 5.43340033262082e+00 5.33936770996253e-02
1.94406382978723e-01 5.39365359734848e+00 5.31364310484995e-02
1.95380851063830e-01 5.35419761978653e+00 5.28797600407920e-02
1.96355319148936e-01 5.31503027296635e+00 5.26236743109943e-02
1.97329787234043e-01 5.27614944547873e+00 5.23681838291494e-02
1.98304255319149e-01 5.23755304135998e+00 5.21132983059181e-02
1.99278723404255e-01 5.19923897997893e+00 5.18590271974793e-02
2.00253191489362e-01 5.16120519592479e+00 5.16053797489018e-02
2.01227659574468e-01 5.12344963874491e+00 5.13523648825053e-02
2.02202127659574e-01 5.08597027328990e+00 5.10999912802668e-02
2.03176595744681e-01 5.04876507914519e+00 5.08482674679089e-02
2.04151063829787e-01 5.01183205067611e+00 5.05972016997566e-02
2.05125531914894e-01 4.97516919691971e+00 5.03468020032316e-02
2.06100000000000e-01 4.93877454147745e+00 5.00970761831469e-02
2.07074468085106e-01 4.90264612240864e+00 4.98480318259059e-02
2.08048936170213e-01 4.86678199212471e+00 4.95996763035973e-02
2.09023404255319e-01 4.83118021728424e+00 4.93520167780638e-02
2.09997872340426e-01 4.79583887868871e+00 4.91050602048718e-02
2.10972340425532e-01 4.76075607117906e+00 4.88588133371855e-02
2.11946808510638e-01 4.72592990353295e+00 4.86132827638920e-02
2.12921276595745e-01 4.69135849823232e+00 4.83684748097791e-02
2.13895744680851e-01 4.65703999175630e+00 4.81243956083823e-02
2.14870212765957e-01 4.62297253408400e+00 4.78810511763978e-02
2.15844680851064e-01 4.58915428872792e+00 4.76384473107720e-02
2.16819148936170e-01 4.55558343263496e+00 4.73965896278729e-02
2.17793617021277e-01 4.52225815608812e+00 4.71554835669055e-02
2.18768085106383e-01 4.48917666260890e+00 4.69151343932207e-02
2.19742553191489e-01 4.45633716886057e+00 4.66755472015834e-02
2.20717021276596e-01 4.42373790455197e+00 4.64367269194148e-02
2.21691489361702e-01 4.39137711234210e+00 4.61986783099364e-02
2.22665957446809e-01 4.35925304774536e+00 4.59614059752596e-02
2.23640425531915e-01 4.32736397903753e+00 4.57249143899997e-02
2.24614893617021e-01 4.29570818704913e+00 4.54892078119606e-02
2.25589361702128e-01 4.26428396541478e+00 4.52542903467010e-02
2.26563829787234e-01 4.23308962013693e+00 4.50201660135352e-02
2.27538297872340e-01 4.20212346961008e+00 4.47868386534865e-02
2.28512765957447e-01 4.17138384453010e+00 4.45543119638662e-02
2.29487234042553e-01 4.14086908780428e+00 4.43225895010129e-02
2.30461702127660e-01 4.11057755446191e+00 4.40916746829361e-02
2.31436170212766e-01 4.08050761156573e+00 4.38615707919207e-02
2.32410638297872e-01 4.05065763812383e+00 4.36322809771419e-02
2.33385106382979e-01 4.02102602500232e+00 4.34038082571716e-02
2.34359574468085e-01 3.99161117483852e+00 4.31761555500177e-02
2.35334042553192e-01 3.96241150185512e+00 4.29493255923660e-02
2.36308510638298e-01 3.93342543207589e+00 4.27233209975278e-02
2.37282978723404e-01 3.90465140293769e+00 4.24981443147016e-02
2.38257446808511e-01 3.87608786330794e+00 4.22737979457525e-02
2.39231914893617e-01 3.84773327340099e+00 4.20502841761720e-02
2.40206382978723e-01 3.81958610469515e+00 4.18276051773020e-02
2.41180851063830e-01 3.79164483985022e+00 4.16057630085196e-02
2.42155319148936e-01 3.76390797262576e+00 4.13847596193657e-02
2.43129787234043e-01 3.73637400779988e+00 4.11645968516622e-02
2.44104255319149e-01 3.70904146108864e+00 4.09452764415960e-02
2.45078723404255e-01 3.68190885906602e+00 4.07268000217460e-02
2.46053191489362e-01 3.65497473908451e+00 4.05091691477084e-02
2.47027659574468e-01 3.62823764910924e+00 4.02923852257201e-02
2.48002127659574e-01 3.60169614790239e+00 4.00764495642186e-02
2.48976595744681e-01 3.57534880468110e+00 3.98613634266091e-02
2.49951063829787e-01 3.54919419912910e+00 3.96471279566995e-02
2.50925531914894e-01 3.52323092132010e+00 3.94337442061596e-02
2.51900000000000e-01 3.49745757164177e+00 3.92212131363288e-02
2.52874468085106e-01 3.47187276072031e+00 3.90095356199716e-02
2.53848936170213e-01 3.44647510934555e+00 3.87987124429989e-02
2.54823404255319e-01 3.42126324839662e+00 3.85887443061847e-02
2.55797872340426e-01 3.39623581876814e+00 3.83796318268528e-02
2.56772340425532e-01 3.37139147129692e+00 3.81713755405101e-02
2.57746808510638e-01 3.34672886668927e+00 3.79639759244947e-02
2.58721276595745e-01 3.32224667537274e+00 3.77574333330723e-02
2.59695744680851e-01 3.29794357765400e+00 3.75517480433840e-02
2.60670212765957e-01 3.27381826341670e+00 3.73469203024921e-02
2.61644680851064e-01 3.24986943212835e+00 3.71429502605254e-02
2.62619148936170e-01 3.22609579277015e+00 3.69398379950886e-02
2.63593617021277e-01 3.20249606376749e+00 3.67375835127249e-02
2.64568085106383e-01 3.17906897292077e+00 3.65361867503355e-02
2.65542553191489e-01 3.15581325733687e+00 3.63356475765807e-02
2.66517021276596e-01 3.13272766336109e+00 3.61359657932805e-02
2.67491489361702e-01 3.10981094650952e+00 3.59371411367658e-02
2.68465957446809e-01 3.08706187140201e+00 3.57391732792113e-02
2.69440425531915e-01 3.06447921169550e+00 3.55420618496825e-02
2.70414893617021e-01 3.04206174995138e+00 3.53458063758781e-02
2.71389361702128e-01 3.01980827777086e+00 3.51504063251381e-02
2.72363829787234e-01 2.99771759552755e+00 3.49558611464570e-02
2.73338297872340e-01 2.97578851237063e+00 3.47621702104843e-02
2.74312765957447e-01 2.95401984616067e+00 3.45693328312591e-02
2.75287234042553e-01 2.93241042340591e+00 3.43773482674041e-02
2.76261702127660e-01 2.91095907919895e+00 3.41862157232733e-02
2.77236170212766e-01 2.88966465715401e+00 3.39959343500937e-02
2.78210638297872e-01 2.86852600934460e+00 3.38065032471032e-02
2.79185106382979e-01 2.84754199624160e+00 3.36179214626521e-02
2.80159574468085e-01 2.82671148665184e+00 3.34301880131408e-02
2.81134042553192e-01 2.80603335759801e+00 3.32433018302040e-02
2.82108510638298e-01 2.78550649443657e+00 3.30572617977223e-02
2.83082978723404e-01 2.76512979061811e+00 3.28720667897426e-02
2.84057446808511e-01 2.74490214768789e+00 3.26877156160882e-02
2.85031914893617e-01 2.72482247522668e+00 3.25042070419396e-02
2.86006382978723e-01 2.70488969079195e+00 3.23215397888169e-02
2.86980851063830e-01 2.68510271985951e+00 3.21397125355407e-02
2.87955319148936e-01 2.66546049576558e+00 3.19587239191685e-02
2.88929787234043e-01 2.64596195964932e+00 3.17785725359313e-02
2.89904255319149e-01 2.62660606039575e+00 3.15992569421585e-02
2.90878723404255e-01 2.60739175457905e+00 3.14207756551691e-02
2.91853191489362e-01 2.58831800640636e+00 3.12431271701703e-02
2.92827659574468e-01 2.56938378760992e+00 3.10663099128012e-02
2.93802127659574e-01 2.55058807754854e+00 3.08903222722312e-02
2.94776595744681e-01 2.53192986299474e+00 3.07151626350993e-02
2.95751063829787e-01 2.51340813813305e+00 3.05408293366474e-02
2.96725531914894e-01 2.49502190450581e+00 3.03673206781927e-02
2.97700000000000e-01 2.47677017095936e+00 3.01946349279293e-02
2.98674468085106e-01 2.45865195359055e+00 3.00227703217110e-02
2.99648936170213e-01 2.44066627569375e+00 2.98517250638159e-02
3.00623404255319e-01 2.42281216770819e+00 2.96814973277083e-02
3.01597872340426e-01 2.40508866716571e+00 2.95120852567914e-02
3.02572340425532e-01 2.38749481863883e+00 2.93434869651348e-02
3.03546808510638e-01 2.37002967368930e+00 2.91757005525693e-02
3.04521276595745e-01 2.35269229077118e+00 2.90087240620115e-02
3.05495744680851e-01 2.33548173531818e+00 2.88425555091068e-02
3.06470212765957e-01 2.31839707955434e+00 2.86771929126288e-02
3.07444680851064e-01 2.30143740249065e+00 2.85126342505388e-02
