Energy (eV)          EEDF (eV^-(3/2))     First Anisotropy
6.75000000000000e-02 1.09789981004100e-01 1.17566463490943e-04
2.02500000000000e-01 1.06668751538704e-01 1.92021636190720e-04
3.37500000000000e-01 1.03636255792796e-01 2.47950945482597e-04
4.72500000000000e-01 1.00689971147295e-01 2.87212232818259e-04
6.07500000000000e-01 9.78274466988996e-02 3.17385028774599e-04
7.42500000000000e-01 9.50463012212631e-02 3.41435125206710e-04
8.77500000000000e-01 9.23442211841428e-02 3.60946865156927e-04
1.01250000000000e+00 8.97189588288597e-02 3.76905895232720e-04
1.14750000000000e+00 8.71683302984734e-02 3.89984410038158e-04
1.28250000000000e+00 8.46902138211130e-02 4.00670033676923e-04
1.41750000000000e+00 8.22825479449555e-02 4.09332543779233e-04
1.55250000000000e+00 7.99433298233810e-02 4.16261858747678e-04
1.68750000000000e+00 7.76706135488807e-02 4.21691245765401e-04
1.82250000000000e+00 7.54625085343291e-02 4.25812297002921e-04
1.95750000000000e+00 7.33171779402759e-02 4.28785026619289e-04
2.09250000000000e+00 7.12328371469486e-02 4.30744927366628e-04
2.22750000000000e+00 6.92077522696942e-02 4.31808052916899e-04
2.36250000000000e+00 6.72402387166259e-02 4.32074773066338e-04
2.49750000000000e+00 6.53286597872747e-02 4.31632610132580e-04
2.63250000000000e+00 6.34714253110795e-02 4.30558422817538e-04
2.76750000000000e+00 6.16669903245847e-02 4.28920116215473e-04
2.90250000000000e+00 5.99138537862424e-02 4.26778000903421e-04
3.03750000000000e+00 5.82105573277530e-02 4.24185887586834e-04
3.17250000000000e+00 5.65556840409036e-02 4.21191979331337e-04
3.30750000000000e+00 5.49478572988950e-02 4.17839606668620e-04
3.44250000000000e+00 5.33857396111779e-02 4.14167839169806e-04
3.57750000000000e+00 5.18680315108448e-02 4.10211998766029e-04
3.71250000000000e+00 5.03934704736524e-02 4.06004094091035e-04
3.84750000000000e+00 4.89608298677752e-02 4.01573190719645e-04
3.98250000000000e+00 4.75689179334167e-02 3.96945728907035e-04
4.11750000000000e+00 4.62165767914292e-02 3.92145797975994e-04
4.25250000000000e+00 4.49026814801178e-02 3.87195374630391e-04
4.38750000000000e+00 4.36261390194270e-02 3.82114531036709e-04
4.52250000000000e+00 4.23858875017319e-02 3.76921617401159e-04
4.65750000000000e+00 4.11808952084769e-02 3.71633422897070e-04
4.79250000000000e+00 4.00101597519284e-02 3.66265318108231e-04
4.92750000000000e+00 3.88727072413256e-02 3.60831381605281e-04
5.06250000000000e+00 3.77675914727378e-02 3.55344512832329e-04
5.19750000000000e+00 3.66938931419528e-02 3.49816533125873e-04
5.33250000000000e+00 3.56507190797424e-02 3.44258276399217e-04
5.46750000000000e+00 3.46372015088686e-02 3.38679670789540e-04
5.60250000000000e+00 3.36524973222121e-02 3.33089812370311e-04
5.73750000000000e+00 3.26957873814237e-02 3.27497031871080e-04
5.87250000000000e+00 3.17662758355133e-02 3.21908955212887e-04
6.00750000000000e+00 3.08631894588121e-02 3.16332558555751e-04
6.14250000000000e+00 2.99857770077548e-02 3.10774218460832e-04
6.27750000000000e+00 2.91333085959484e-02 3.05239757690588e-04
6.41250000000000e+00 2.83050750870075e-02 2.99734487103122e-04
6.54750000000000e+00 2.75003875046500e-02 2.94263244039795e-04
6.68250000000000e+00 2.67185764595640e-02 2.88830427556366e-04
6.81750000000000e+00 2.59589915925678e-02 2.83440030806002e-04
6.95250000000000e+00 2.52210010336009e-02 2.78095670846550e-04
7.08750000000000e+00 2.45039908760946e-02 2.72800616113281e-04
7.22250000000000e+00 2.38073646662865e-02 2.67557811771362e-04
7.35750000000000e+00 2.31305429070533e-02 2.62369903138880e-04
7.49250000000000e+00 2.24729625758484e-02 2.57239257350776e-04
7.62750000000000e+00 2.18340766563452e-02 2.52167983416167e-04
7.76250000000000e+00 2.12133536833945e-02 2.47157950805833e-04
7.89750000000000e+00 2.06102773009184e-02 2.42210806692902e-04
8.03250000000000e+00 2.00243458323739e-02 2.37327991957499e-04
8.16750000000000e+00 1.94550718634263e-02 2.32510756055467e-04
8.30250000000000e+00 1.89019818364877e-02 2.27760170841680e-04
8.43750000000000e+00 1.83646156567827e-02 2.23077143430000e-04
8.57250000000000e+00 1.78425263096124e-02 2.18462428164389e-04
8.70750000000000e+00 1.73352794885001e-02 2.13916637768991e-04
8.84250000000000e+00 1.68424532339075e-02 2.09440253738904e-04
8.97750000000000e+00 1.63636375822231e-02 2.05033636028042e-04
9.11250000000000e+00 1.58984342247285e-02 2.00697032085610e-04
9.24750000000000e+00 1.54464561762605e-02 1.96430585288349e-04
9.38250000000000e+00 1.50073274532927e-02 1.92234342811809e-04
9.51750000000000e+00 1.45806827611689e-02 1.88108262980334e-04
9.65250000000000e+00 1.41661671902283e-02 1.84052222132250e-04
9.78750000000000e+00 1.37634359205696e-02 1.80066021033834e-04
9.92250000000000e+00 1.33721539352079e-02 1.76149390873013e-04
1.00575000000000e+01 1.29919957413873e-02 1.72301998861340e-04
1.01925000000000e+01 1.26226450998151e-02 1.68523453470615e-04
1.03275000000000e+01 1.22637947615947e-02 1.64813309328526e-04
1.04625000000000e+01 1.19151462126366e-02 1.61171071795870e-04
1.05975000000000e+01 1.15764094253357e-02 1.57596201246252e-04
1.07325000000000e+01 1.12473026173086e-02 1.54088117067660e-04
1.08675000000000e+01 1.09275520169889e-02 1.50646201403896e-04
1.10025000000000e+01 1.06168916358874e-02 1.47269802652570e-04
1.11375000000000e+01 1.03150630473260e-02 1.43958238735198e-04
1.12725000000000e+01 1.00218151714627e-02 1.40710800153880e-04
1.14075000000000e+01 9.73690406642698e-03 1.37526752847993e-04
1.15425000000000e+01 9.46009272539449e-03 1.34405340863471e-04
1.16775000000000e+01 9.19115087942957e-03 1.31345788846353e-04
1.18125000000000e+01 8.92985480593333e-03 1.28347304371532e-04
1.19475000000000e+01 8.67598714253722e-03 1.25409080116905e-04
1.20825000000000e+01 8.42933670628745e-03 1.22530295892433e-04
1.22175000000000e+01 8.18969831796982e-03 1.19710120533033e-04
1.23525000000000e+01 7.95687263142891e-03 1.16947713663642e-04
1.24875000000000e+01 7.73066596773947e-03 1.14242227344226e-04
1.26225000000000e+01 7.51089015409221e-03 1.11592807602072e-04
1.27575000000000e+01 7.29736236725996e-03 1.08998595858178e-04
1.28925000000000e+01 7.08990498151388e-03 1.06458730254181e-04
1.30275000000000e+01 6.88834542086331e-03 1.03972346885815e-04
1.31625000000000e+01 6.69251601549628e-03 1.01538580948573e-04
1.32975000000000e+01 6.50225386230134e-03 9.91565678008355e-05
1.34325000000000e+01 6.31740068935457e-03 9.68254439494725e-05
1.35675000000000e+01 6.13780272425913e-03 9.45443479625828e-05
1.37025000000000e+01 5.96331056622778e-03 9.23124213137510e-05
1.38375000000000e+01 5.79377906180201e-03 9.01288091619660e-05
1.39725000000000e+01 5.62906718410433e-03 8.79926610710710e-05
1.41075000000000e+01 5.46903791552331e-03 8.59031316724032e-05
1.42425000000000e+01 5.31355813373379e-03 8.38593812740519e-05
1.43775000000000e+01 5.16249850095744e-03 8.18605764199725e-05
1.45125000000000e+01 5.01573335637154e-03 7.99058904019997e-05
1.46475000000000e+01 4.87314061157641e-03 7.79945037276162e-05
1.47825000000000e+01 4.73460164903476e-03 7.61256045461859e-05
1.49175000000000e+01 4.60000122339815e-03 7.42983890361875e-05
1.50525000000000e+01 4.46922736563874e-03 7.25120617558426e-05
1.51875000000000e+01 4.34217128990649e-03 7.07658359593944e-05
1.53225000000000e+01 4.21872730303430e-03 6.90589338811646e-05
1.54575000000000e+01 4.09879271661582e-03 6.73905869893941e-05
1.55925000000000e+01 3.98226776158287e-03 6.57600362117521e-05
1.57275000000000e+01 3.86905550521125e-03 6.41665321342940e-05
1.58625000000000e+01 3.75906177048612e-03 6.26093351755557e-05
1.59975000000000e+01 3.65219505775963e-03 6.10877157373617e-05
1.61325000000000e+01 3.54836646863585e-03 5.96009543338385e-05
1.62675000000000e+01 3.44748963201953e-03 5.81483417000474e-05
1.64025000000000e+01 3.34948063226720e-03 5.67291788815588e-05
1.65375000000000e+01 3.25425793938095e-03 5.53427773062242e-05
1.66725000000000e+01 3.16174234118669e-03 5.39884588393316e-05
1.68075000000000e+01 3.07185687744048e-03 5.26655558232470e-05
1.69425000000000e+01 2.98452677580827e-03 5.13734111026031e-05
1.70775000000000e+01 2.89967938966554e-03 5.01113780360264e-05
1.72125000000000e+01 2.81724413766535e-03 4.88788204953271e-05
1.73475000000000e+01 2.73715244502437e-03 4.76751128530470e-05
1.74825000000000e+01 2.65933768647806e-03 4.64996399591879e-05
1.76175000000000e+01 2.58373513085770e-03 4.53517971079035e-05
1.77525000000000e+01 2.51028188724287e-03 4.42309899949006e-05
1.78875000000000e+01 2.43891685264495e-03 4.31366346662398e-05
1.80225000000000e+01 2.36958066117776e-03 4.20681574591939e-05
1.81575000000000e+01 2.30221563467340e-03 4.10249949357844e-05
1.82925000000000e+01 2.23676573470189e-03 4.00065938095770e-05
1.84275000000000e+01 2.17317651595491e-03 3.90124108662827e-05
1.85625000000000e+01 2.11139508095485e-03 3.80419128786883e-05
1.86975000000000e+01 2.05137003605134e-03 3.70945765163958e-05
1.88325000000000e+01 1.99305144866881e-03 3.61698882508345e-05
1.89675000000000e+01 1.93639080576949e-03 3.52673442559759e-05
1.91025000000000e+01 1.88134097349721e-03 3.43864503051505e-05
1.92375000000000e+01 1.82785615796855e-03 3.35267216643601e-05
1.93725000000000e+01 1.77589186717859e-03 3.26876829824349e-05
1.95075000000000e+01 1.72540487398972e-03 3.18688681783754e-05
1.96425000000000e+01 1.67635318017260e-03 3.10698203261977e-05
1.97775000000000e+01 1.62869598146940e-03 3.02900915375762e-05
1.99125000000000e+01 1.58239363365032e-03 2.95292428425647e-05
2.00475000000000e+01 1.53740761953498e-03 2.87868440686587e-05
2.01825000000000e+01 1.49370051695147e-03 2.80624737184427e-05
2.03175000000000e+01 1.45123596760627e-03 2.73557188460529e-05
2.04525000000000e+01 1.40997864683911e-03 2.66661749326722e-05
2.05875000000000e+01 1.36989423423773e-03 2.59934457612568e-05
2.07225000000000e+01 1.33094938508803e-03 2.53371432906847e-05
2.08575000000000e+01 1.29311170263587e-03 2.46968875295005e-05
2.09925000000000e+01 1.25634971113740e-03 2.40723064094247e-05
2.11275000000000e+01 1.22063282967557e-03 2.34630356587767e-05
2.12625000000000e+01 1.18593134672106e-03 2.28687186759566e-05
2.13975000000000e+01 1.15221639541634e-03 2.22890064031185e-05
2.15325000000000e+01 1.11945992956242e-03 2.17235572001600e-05
2.16675000000000e+01 1.08763470028828e-03 2.11720367191421e-05
2.18025000000000e+01 1.05671423338357e-03 2.06341177792468e-05
2.19375000000000e+01 1.02667280727570e-03 2.01094802423699e-05
2.20725000000000e+01 9.97485431633014e-04 1.95978108894410e-05
2.22075000000000e+01 9.69127826576313e-04 1.90988032975575e-05
2.23425000000000e+01 9.41576402481309e-04 1.86121577180070e-05
2.24775000000000e+01 9.14808240355311e-04 1.81375809552513e-05
2.26125000000000e+01 8.88801072771780e-04 1.76747862469368e-05
2.27475000000000e+01 8.63533265346894e-04 1.72234931449922e-05
2.28825000000000e+01 8.38983798742715e-04 1.67834273978696e-05
2.30175000000000e+01 8.15132251181999e-04 1.63543208339754e-05
2.31525000000000e+01 7.91958781460085e-04 1.59359112463393e-05
2.32875000000000e+01 7.69444112439743e-04 1.55279422785622e-05
2.34225000000000e+01 7.47569515015250e-04 1.51301633120777e-05
2.35575000000000e+01 7.26316792532352e-04 1.47423293547609e-05
2.36925000000000e+01 7.05668265651150e-04 1.43642009309152e-05
2.38275000000000e+01 6.85606757639329e-04 1.39955439726612e-05
2.39625000000000e+01 6.66115580083472e-04 1.36361297127514e-05
2.40975000000000e+01 6.47178519006603e-04 1.32857345788281e-05
2.42325000000000e+01 6.28779821380390e-04 1.29441400891440e-05
2.43675000000000e+01 6.10904182020790e-04 1.26111327497580e-05
2.45025000000000e+01 5.93536730856246e-04 1.22865039532169e-05
2.46375000000000e+01 5.76663020557830e-04 1.19700498787337e-05
2.47725000000000e+01 5.60269014521060e-04 1.16615713938687e-05
2.49075000000000e+01 5.44341075189372e-04 1.13608739577173e-05
2.50425000000000e+01 5.28865952709550e-04 1.10677675256098e-05
2.51775000000000e+01 5.13830773909675e-04 1.07820664553218e-05
2.53125000000000e+01 4.99223031590418e-04 1.05035894147960e-05
2.54475000000000e+01 4.85030574120766e-04 1.02321592913731e-05
2.55825000000000e+01 4.71241595329545e-04 9.96760310252758e-06
2.57175000000000e+01 4.57844624684303e-04 9.70975190810482e-06
2.58525000000000e+01 4.44828517749414e-04 9.45844072405173e-06
2.59875000000000e+01 4.32182446915434e-04 9.21350843763431e-06
2.61225000000000e+01 4.19895892392025e-04 8.97479772413394e-06
2.62575000000000e+01 4.07958633456935e-04 8.74215496501223e-06
2.63925000000000e+01 3.96360739953767e-04 8.51543016753464e-06
2.65275000000000e+01 3.85092564031449e-04 8.29447688584128e-06
2.66625000000000e+01 3.74144732118559e-04 8.07915214345309e-06
2.67975000000000e+01 3.63508137125796e-04 7.86931635720085e-06
2.69325000000000e+01 3.53173930870138e-04 7.66483326256239e-06
2.70675000000000e+01 3.43133516714374e-04 7.46556984039577e-06
2.72025000000000e+01 3.33378542415880e-04 7.27139624505302e-06
2.73375000000000e+01 3.23900893178707e-04 7.08218573385911e-06
2.74725000000000e+01 3.14692684903188e-04 6.89781459794112e-06
2.76075000000000e+01 3.05746257627446e-04 6.71816209439141e-06
2.77425000000000e+01 2.97054169155368e-04 6.54311037974918e-06
2.78775000000000e+01 2.88609188865718e-04 6.37254444478333e-06
2.80125000000000e+01 2.80404291697256e-04 6.20635205055932e-06
2.81475000000000e+01 2.72432652304852e-04 6.04442366577429e-06
2.82825000000000e+01 2.64687639381744e-04 5.88665240534224e-06
2.84175000000000e+01 2.57162810143196e-04 5.73293397021177e-06
2.85525000000000e+01 2.49851904966994e-04 5.58316658839892e-06
2.86875000000000e+01 2.42748842186299e-04 5.43725095721789e-06
2.88225000000000e+01 2.35847713030537e-04 5.29509018669133e-06
2.89575000000000e+01 2.29142776710117e-04 5.15658974412221e-06
2.90925000000000e+01 2.22628455640883e-04 5.02165739980973e-06
2.92275000000000e+01 2.16299330804331e-04 4.89020317389128e-06
2.93625000000000e+01 2.10150137239733e-04 4.76213928429241e-06
2.94975000000000e+01 2.04175759664414e-04 4.63738009576669e-06
2.96325000000000e+01 1.98371228218540e-04 4.51584207000801e-06
2.97675000000000e+01 1.92731714330879e-04 4.39744371681732e-06
2.99025000000000e+01 1.87252526702095e-04 4.28210554630583e-06
3.00375000000000e+01 1.81929107402232e-04 4.16975002211731e-06
3.01725000000000e+01 1.76757028079144e-04 4.06030151565156e-06
3.03075000000000e+01 1.71731986274716e-04 3.95368626127195e-06
3.04425000000000e+01 1.66849801845808e-04 3.84983231247942e-06
3.05775000000000e+01 1.62106413486956e-04 3.74866949903558e-06
3.07125000000000e+01 1.57497875351923e-04 3.65012938501822e-06
3.08475000000000e+01 1.53020353771295e-04 3.55414522779190e-06
3.09825000000000e+01 1.48670124063399e-04 3.46065193787697e-06
3.11175000000000e+01 1.44443567435882e-04 3.36958603970017e-06
3.12525000000000e+01 1.40337167975369e-04 3.28088563321080e-06
3.13875000000000e+01 1.36347509722710e-04 3.19449035634586e-06
3.15225000000000e+01 1.32471273831374e-04 3.11034134832786e-06
3.16575000000000e+01 1.28705235806620e-04 3.02838121377968e-06
3.17925000000000e+01 1.25046262823167e-04 2.94855398764058e-06
3.19275000000000e+01 1.21491311119110e-04 2.87080510086783e-06
3.20625000000000e+01 1.18037423463933e-04 2.79508134690877e-06
3.21975000000000e+01 1.14681726698496e-04 2.72133084892794e-06
3.23325000000000e+01 1.11421429344968e-04 2.64950302777413e-06
3.24675000000000e+01 1.08253819284694e-04 2.57954857067321e-06
3.26025000000000e+01 1.05176261502092e-04 2.51141940063167e-06
3.27375000000000e+01 1.02186195892678e-04 2.44506864653663e-06
3.28725000000000e+01 9.92811351334180e-05 2.38045061393837e-06
3.30075000000000e+01 9.64586626136087e-05 2.31752075650146e-06
3.31425000000000e+01 9.37164304245971e-05 2.25623564811053e-06
3.32775000000000e+01 9.10521574066408e-05 2.19655295561738e-06
3.34125000000000e+01 8.84636272512973e-05 2.13843141221613e-06
3.35475000000000e+01 8.59486866577607e-05 2.08183079143339e-06
3.36825000000000e+01 8.35052435416115e-05 2.02671188172040e-06
3.38175000000000e+01 8.11312652944909e-05 1.97303646163481e-06
3.39525000000000e+01 7.88247770932498e-05 1.92076727559933e-06
3.40875000000000e+01 7.65838602571681e-05 1.86986801022522e-06
3.42225000000000e+01 7.44066506518761e-05 1.82030327118856e-06
3.43575000000000e+01 7.22913371386518e-05 1.77203856064748e-06
3.44925000000000e+01 7.02361600678024e-05 1.72504025518872e-06
3.46275000000000e+01 6.82394098148778e-05 1.67927558429223e-06
3.47625000000000e+01 6.62994253584988e-05 1.63471260930236e-06
3.48975000000000e+01 6.44145928986156e-05 1.59132020289504e-06
3.50325000000000e+01 6.25833445140487e-05 1.54906802902974e-06
3.51675000000000e+01 6.08041568581936e-05 1.50792652337585e-06
3.53025000000000e+01 5.90755498918067e-05 1.46786687420310e-06
3.54375000000000e+01 5.73960856518162e-05 1.42886100372561e-06
3.55725000000000e+01 5.57643670551345e-05 1.39088154988979e-06
3.57075000000000e+01 5.41790367364777e-05 1.35390184859605e-06
3.58425000000000e+01 5.26387759192243e-05 1.31789591634488e-06
3.59775000000000e+01 5.11423033183747e-05 1.28283843329769e-06
3.61125000000000e+01 4.96883740746983e-05 1.24870472674321e-06
3.62475000000000e+01 4.82757787191822e-05 1.21547075496032e-06
3.63825000000000e+01 4.69033421669190e-05 1.18311309146854e-06
3.65175000000000e+01 4.55699227395984e-05 1.15160890965713e-06
3.66525000000000e+01 4.42744112157878e-05 1.12093596778468e-06
3.67875000000000e+01 4.30157299082125e-05 1.09107259434033e-06
3.69225000000000e+01 4.17928317672685e-05 1.06199767375877e-06
3.70575000000000e+01 4.06046995100214e-05 1.03369063248077e-06
3.71925000000000e+01 3.94503447739667e-05 1.00613142535139e-06
3.73275000000000e+01 3.83288072948486e-05 9.79300522348235e-07
3.74625000000000e+01 3.72391541078519e-05 9.53178895631951e-07
3.75975000000000e+01 3.61804787715042e-05 9.27748006911813e-07
3.77325000000000e+01 3.51519006136409e-05 9.02989795118970e-07
3.78675000000000e+01 3.41525639988073e-05 8.78886664380301e-07
3.80025000000000e+01 3.31816376164878e-05 8.55421472285901e-07
3.81375000000000e+01 3.22383137895699e-05 8.32577518443445e-07
3.82725000000000e+01 3.13218078024681e-05 8.10338533312669e-07
3.84075000000000e+01 3.04313572483481e-05 7.88688667313452e-07
3.85425000000000e+01 2.95662213949099e-05 7.67612480201179e-07
3.86775000000000e+01 2.87256805682001e-05 7.47094930703098e-07
3.88125000000000e+01 2.79090355539423e-05 7.27121366409511e-07
3.89475000000000e+01 2.71156070158870e-05 7.07677513913861e-07
3.90825000000000e+01 2.63447349306974e-05 6.88749469195861e-07
3.92175000000000e+01 2.55957780389009e-05 6.70323688241880e-07
3.93525000000000e+01 2.48681133114494e-05 6.52386977897068e-07
3.94875000000000e+01 2.41611354314449e-05 6.34926486943668e-07
3.96225000000000e+01 2.34742562905990e-05 6.17929697400153e-07
3.97575000000000e+01 2.28069045000082e-05 6.01384416036000e-07
3.98925000000000e+01 2.21585249148365e-05 5.85278766096934e-07
4.00275000000000e+01 2.15285781725114e-05 5.69601179235619e-07
4.01625000000000e+01 2.09165402440487e-05 5.54340387642929e-07
4.02975000000000e+01 2.03219019981324e-05 5.39485416374963e-07
4.04325000000000e+01 1.97441687775875e-05 5.25025575871163e-07
4.05675000000000e+01 1.91828599878932e-05 5.10950454658909e-07
4.07025000000000e+01 1.86375086973946e-05 4.97249912240177e-07
4.08375000000000e+01 1.81076612488797e-05 4.83914072155783e-07
4.09725000000000e+01 1.75928768821992e-05 4.70933315223010e-07
4.11075000000000e+01 1.70927273676145e-05 4.58298272942463e-07
4.12425000000000e+01 1.66067966495697e-05 4.45999821069990e-07
4.13775000000000e+01 1.61346805005906e-05 4.34029073349703e-07
4.15125000000000e+01 1.56759861850228e-05 4.22377375404201e-07
4.16475000000000e+01 1.52303321323301e-05 4.11036298778216e-07
4.17825000000000e+01 1.47973476196802e-05 3.99997635131899e-07
4.19175000000000e+01 1.43766724635543e-05 3.89253390580139e-07
4.20525000000000e+01 1.39679567201238e-05 3.78795780174367e-07
4.21875000000000e+01 1.35708603941455e-05 3.68617222523338e-07
4.23225000000000e+01 1.31850531561323e-05 3.58710334549545e-07
4.24575000000000e+01 1.28102140675643e-05 3.49067926377901e-07
4.25925000000000e+01 1.24460313139124e-05 3.39682996353497e-07
