Energy (eV)          EEDF (eV^-(3/2))     First Anisotropy
1.06309523809524e-04 2.70339558058962e+02 0.00000000000000e+00
3.18928571428571e-04 2.68125262894013e+02 0.00000000000000e+00
5.31547619047619e-04 2.65929104560749e+02 0.00000000000000e+00
7.44166666666667e-04 2.63750934504191e+02 0.00000000000000e+00
9.56785714285714e-04 2.61590605386111e+02 0.00000000000000e+00
1.16940476190476e-03 2.59447971075090e+02 0.00000000000000e+00
1.38202380952381e-03 2.57322886636640e+02 0.00000000000000e+00
1.59464285714286e-03 2.55215208323400e+02 0.00000000000000e+00
1.80726190476190e-03 2.53124793565416e+02 0.00000000000000e+00
2.01988095238095e-03 2.51051500960492e+02 0.00000000000000e+00
2.23250000000000e-03 2.48995190264630e+02 0.00000000000000e+00
2.44511904761905e-03 2.46955722382539e+02 0.00000000000000e+00
2.65773809523809e-03 2.44932959358231e+02 0.00000000000000e+00
2.87035714285714e-03 2.42926764365687e+02 0.00000000000000e+00
3.08297619047619e-03 2.40937001699598e+02 0.00000000000000e+00
3.29559523809524e-03 2.38963536766193e+02 0.00000000000000e+00
3.50821428571429e-03 2.37006236074129e+02 0.00000000000000e+00
3.72083333333333e-03 2.35064967225462e+02 0.00000000000000e+00
3.93345238095238e-03 2.33139598906693e+02 0.00000000000000e+00
4.14607142857143e-03 2.31230000879886e+02 0.00000000000000e+00
4.35869047619048e-03 2.29336043973853e+02 0.00000000000000e+00
4.57130952380952e-03 2.27457600075424e+02 0.00000000000000e+00
4.78392857142857e-03 2.25594542120776e+02 0.00000000000000e+00
4.99654761904762e-03 2.23746744086840e+02 0.00000000000000e+00
5.20916666666667e-03 2.21914080982774e+02 0.00000000000000e+00
5.42178571428571e-03 2.20096428841512e+02 0.00000000000000e+00
5.63440476190476e-03 2.18293664711376e+02 0.00000000000000e+00
5.84702380952381e-03 2.16505666647760e+02 0.00000000000000e+00
6.05964285714286e-03 2.14732313704878e+02 0.00000000000000e+00
6.27226190476190e-03 2.12973485927591e+02 0.00000000000000e+00
6.48488095238095e-03 2.11229064343282e+02 0.00000000000000e+00
6.69750000000000e-03 2.09498930953820e+02 0.00000000000000e+00
6.91011904761905e-03 2.07782968727566e+02 0.00000000000000e+00
7.12273809523810e-03 2.06081061591467e+02 0.00000000000000e+00
7.33535714285714e-03 2.04393094423200e+02 0.00000000000000e+00
7.54797619047619e-03 2.02718953043382e+02 0.00000000000000e+00
7.76059523809524e-03 2.01058524207853e+02 0.00000000000000e+00
7.97321428571428e-03 1.99411695600012e+02 0.00000000000000e+00
8.18583333333333e-03 1.97778355823217e+02 0.00000000000000e+00
8.39845238095238e-03 1.96158394393256e+02 0.00000000000000e+00
8.61107142857143e-03 1.94551701730869e+02 0.00000000000000e+00
8.82369047619048e-03 1.92958169154337e+02 0.00000000000000e+00
9.03630952380952e-03 1.91377688872130e+02 0.00000000000000e+00
9.24892857142857e-03 1.89810153975617e+02 0.00000000000000e+00
9.46154761904762e-03 1.88255458431832e+02 0.00000000000000e+00
9.67416666666667e-03 1.86713497076305e+02 0.00000000000000e+00
9.88678571428571e-03 1.85184165605944e+02 0.00000000000000e+00
1.00994047619048e-02 1.83667360571983e+02 0.00000000000000e+00
1.03120238095238e-02 1.82162979372984e+02 0.00000000000000e+00
1.05246428571429e-02 1.80670920247896e+02 0.00000000000000e+00
1.07372619047619e-02 1.79191082269171e+02 0.00000000000000e+00
1.09498809523810e-02 1.77723365335936e+02 0.00000000000000e+00
1.11625000000000e-02 1.76267670167227e+02 0.00000000000000e+00
1.13751190476190e-02 1.74823898295268e+02 0.00000000000000e+00
1.15877380952381e-02 1.73391952058810e+02 0.00000000000000e+00
1.18003571428571e-02 1.71971734596532e+02 0.00000000000000e+00
1.20129761904762e-02 1.70563149840478e+02 0.00000000000000e+00
1.22255952380952e-02 1.69166102509570e+02 0.00000000000000e+00
1.24382142857143e-02 1.67780498103155e+02 0.00000000000000e+00
1.26508333333333e-02 1.66406242894613e+02 0.00000000000000e+00
1.28634523809524e-02 1.65043243925025e+02 0.00000000000000e+00
1.30760714285714e-02 1.63691408996873e+02 0.00000000000000e+00
1.32886904761905e-02 1.62350646667815e+02 0.00000000000000e+00
1.35013095238095e-02 1.61020866244490e+02 0.00000000000000e+00
1.37139285714286e-02 1.59701977776390e+02 0.00000000000000e+00
1.39265476190476e-02 1.58393892049772e+02 0.00000000000000e+00
1.41391666666667e-02 1.57096520581625e+02 0.00000000000000e+00
1.43517857142857e-02 1.55809775613684e+02 0.00000000000000e+00
1.45644047619048e-02 1.54533570106491e+02 0.00000000000000e+00
1.47770238095238e-02 1.53267817733514e+02 0.00000000000000e+00
1.49896428571429e-02 1.52012432875302e+02 0.00000000000000e+00
1.52022619047619e-02 1.50767330613694e+02 0.00000000000000e+00
1.54148809523810e-02 1.49532426726078e+02 0.00000000000000e+00
1.56275000000000e-02 1.48307637679691e+02 0.00000000000000e+00
1.58401190476190e-02 1.47092880625969e+02 0.00000000000000e+00
1.60527380952381e-02 1.45888073394945e+02 0.00000000000000e+00
1.62653571428571e-02 1.44693134489686e+02 0.00000000000000e+00
1.64779761904762e-02 1.43507983080788e+02 0.00000000000000e+00
1.66905952380952e-02 1.42332539000900e+02 0.00000000000000e+00
1.69032142857143e-02 1.41166722739307e+02 0.00000000000000e+00
1.71158333333333e-02 1.40010455436548e+02 0.00000000000000e+00
1.73284523809524e-02 1.38863658879087e+02 0.00000000000000e+00
1.75410714285714e-02 1.37726255494014e+02 0.00000000000000e+00
1.77536904761905e-02 1.36598168343807e+02 0.00000000000000e+00
1.79663095238095e-02 1.35479321121121e+02 0.00000000000000e+00
1.81789285714286e-02 1.34369638143628e+02 0.00000000000000e+00
1.83915476190476e-02 1.33269044348900e+02 0.00000000000000e+00
1.86041666666667e-02 1.32177465289329e+02 0.00000000000000e+00
1.88167857142857e-02 1.31094827127092e+02 0.00000000000000e+00
1.90294047619048e-02 1.30021056629156e+02 0.00000000000000e+00
1.92420238095238e-02 1.28956081162324e+02 0.00000000000000e+00
1.94546428571429e-02 1.27899828688324e+02 0.00000000000000e+00
1.96672619047619e-02 1.26852227758933e+02 0.00000000000000e+00
1.98798809523810e-02 1.25813207511147e+02 0.00000000000000e+00
2.00925000000000e-02 1.24782697662385e+02 0.00000000000000e+00
2.03051190476190e-02 1.23760628505737e+02 0.00000000000000e+00
2.05177380952381e-02 1.22746930905246e+02 0.00000000000000e+00
2.07303571428571e-02 1.21741536291235e+02 0.00000000000000e+00
2.09429761904762e-02 1.20744376655666e+02 0.00000000000000e+00
2.11555952380952e-02 1.19755384547542e+02 0.00000000000000e+00
2.13682142857143e-02 1.18774493068342e+02 0.00000000000000e+00
2.15808333333333e-02 1.17801635867497e+02 0.00000000000000e+00
2.17934523809524e-02 1.16836747137902e+02 0.00000000000000e+00
2.20060714285714e-02 1.15879761611464e+02 0.00000000000000e+00
2.22186904761905e-02 1.14930614554688e+02 0.00000000000000e+00
2.24313095238095e-02 1.13989241764296e+02 0.00000000000000e+00
2.26439285714286e-02 1.13055579562889e+02 0.00000000000000e+00
2.28565476190476e-02 1.12129564794632e+02 0.00000000000000e+00
2.30691666666667e-02 1.11211134820991e+02 0.00000000000000e+00
2.32817857142857e-02 1.10300227516487e+02 0.00000000000000e+00
2.34944047619048e-02 1.09396781264500e+02 0.00000000000000e+00
2.37070238095238e-02 1.08500734953098e+02 0.00000000000000e+00
2.39196428571429e-02 1.07612027970907e+02 0.00000000000000e+00
2.41322619047619e-02 1.06730600203004e+02 0.00000000000000e+00
2.43448809523810e-02 1.05856392026858e+02 0.00000000000000e+00
2.45575000000000e-02 1.04989344308291e+02 0.00000000000000e+00
2.47701190476190e-02 1.04129398397484e+02 0.00000000000000e+00
2.49827380952381e-02 1.03276496125004e+02 0.00000000000000e+00
2.51953571428571e-02 1.02430579797873e+02 0.00000000000000e+00
2.54079761904762e-02 1.01591592195663e+02 0.00000000000000e+00
2.56205952380952e-02 1.00759476566628e+02 0.00000000000000e+00
2.58332142857143e-02 9.99341766238632e+01 0.00000000000000e+00
2.60458333333333e-02 9.91156365414981e+01 0.00000000000000e+00
2.62584523809524e-02 9.83038009509201e+01 0.00000000000000e+00
2.64710714285714e-02 9.74986149370299e+01 0.00000000000000e+00
2.66836904761905e-02 9.67000240345259e+01 0.00000000000000e+00
2.68963095238095e-02 9.59079742242207e+01 0.00000000000000e+00
2.71089285714286e-02 9.51224119293869e+01 0.00000000000000e+00
2.73215476190476e-02 9.43432840121328e+01 0.00000000000000e+00
2.75341666666667e-02 9.35705377698082e+01 0.00000000000000e+00
2.77467857142857e-02 9.28041209314394e+01 0.00000000000000e+00
2.79594047619048e-02 9.20439816541933e+01 0.00000000000000e+00
2.81720238095238e-02 9.12900685198707e+01 0.00000000000000e+00
2.83846428571429e-02 9.05423305314283e+01 0.00000000000000e+00
2.85972619047619e-02 8.98007171095288e+01 0.00000000000000e+00
2.88098809523810e-02 8.90651780891199e+01 0.00000000000000e+00
2.90225000000000e-02 8.83356637160408e+01 0.00000000000000e+00
2.92351190476190e-02 8.76121246436566e+01 0.00000000000000e+00
2.94477380952381e-02 8.68945119295205e+01 0.00000000000000e+00
2.96603571428571e-02 8.61827770320631e+01 0.00000000000000e+00
2.98729761904762e-02 8.54768718073091e+01 0.00000000000000e+00
3.00855952380952e-02 8.47767485056200e+01 0.00000000000000e+00
3.02982142857143e-02 8.40823597684653e+01 0.00000000000000e+00
3.05108333333333e-02 8.33936586252180e+01 0.00000000000000e+00
3.07234523809524e-02 8.27105984899778e+01 0.00000000000000e+00
3.09360714285714e-02 8.20331331584198e+01 0.00000000000000e+00
3.11486904761905e-02 8.13612168046693e+01 0.00000000000000e+00
3.13613095238095e-02 8.06948039782017e+01 0.00000000000000e+00
3.15739285714286e-02 8.00338496007682e+01 0.00000000000000e+00
3.17865476190476e-02 7.93783089633466e+01 0.00000000000000e+00
3.19991666666667e-02 7.87281377231169e+01 0.00000000000000e+00
3.22117857142857e-02 7.80832919004623e+01 0.00000000000000e+00
3.24244047619048e-02 7.74437278759933e+01 0.00000000000000e+00
3.26370238095238e-02 7.68094023875984e+01 0.00000000000000e+00
3.28496428571429e-02 7.61802725275166e+01 0.00000000000000e+00
3.30622619047619e-02 7.55562957394357e+01 0.00000000000000e+00
3.32748809523810e-02 7.49374298156132e+01 0.00000000000000e+00
3.34875000000000e-02 7.43236328940217e+01 0.00000000000000e+00
3.37001190476190e-02 7.37148634555169e+01 0.00000000000000e+00
3.39127380952381e-02 7.31110803210292e+01 0.00000000000000e+00
3.41253571428571e-02 7.25122426487779e+01 0.00000000000000e+00
3.43379761904762e-02 7.19183099315093e+01 0.00000000000000e+00
3.45505952380952e-02 7.13292419937559e+01 0.00000000000000e+00
3.47632142857143e-02 7.07449989891193e+01 0.00000000000000e+00
3.49758333333333e-02 7.01655413975745e+01 0.00000000000000e+00
3.51884523809524e-02 6.95908300227970e+01 0.00000000000000e+00
3.54010714285714e-02 6.90208259895110e+01 0.00000000000000e+00
3.56136904761905e-02 6.84554907408602e+01 0.00000000000000e+00
3.58263095238095e-02 6.78947860357996e+01 0.00000000000000e+00
3.60389285714286e-02 6.73386739465082e+01 0.00000000000000e+00
3.62515476190476e-02 6.67871168558245e+01 0.00000000000000e+00
3.64641666666667e-02 6.62400774547010e+01 0.00000000000000e+00
3.66767857142857e-02 6.56975187396808e+01 0.00000000000000e+00
3.68894047619048e-02 6.51594040103949e+01 0.00000000000000e+00
3.71020238095238e-02 6.46256968670792e+01 0.00000000000000e+00
3.73146428571429e-02 6.40963612081126e+01 0.00000000000000e+00
3.75272619047619e-02 6.35713612275748e+01 0.00000000000000e+00
3.77398809523809e-02 6.30506614128243e+01 0.00000000000000e+00
3.79525000000000e-02 6.25342265420966e+01 0.00000000000000e+00
3.81651190476190e-02 6.20220216821210e+01 0.00000000000000e+00
3.83777380952381e-02 6.15140121857580e+01 0.00000000000000e+00
3.85903571428571e-02 6.10101636896559e+01 0.00000000000000e+00
3.88029761904762e-02 6.05104421119257e+01 0.00000000000000e+00
3.90155952380952e-02 6.00148136498364e+01 0.00000000000000e+00
3.92282142857143e-02 5.95232447775280e+01 0.00000000000000e+00
3.94408333333333e-02 5.90357022437438e+01 0.00000000000000e+00
3.96534523809524e-02 5.85521530695813e+01 0.00000000000000e+00
3.98660714285714e-02 5.80725645462614e+01 0.00000000000000e+00
4.00786904761905e-02 5.75969042329157e+01 0.00000000000000e+00
4.02913095238095e-02 5.71251399543924e+01 0.00000000000000e+00
4.05039285714286e-02 5.66572397990794e+01 0.00000000000000e+00
4.07165476190476e-02 5.61931721167461e+01 0.00000000000000e+00
4.09291666666667e-02 5.57329055164026e+01 0.00000000000000e+00
4.11417857142857e-02 5.52764088641758e+01 0.00000000000000e+00
4.13544047619048e-02 5.48236512812037e+01 0.00000000000000e+00
4.15670238095238e-02 5.43746021415468e+01 0.00000000000000e+00
4.17796428571429e-02 5.39292310701162e+01 0.00000000000000e+00
4.19922619047619e-02 5.34875079406190e+01 0.00000000000000e+00
4.22048809523810e-02 5.30494028735206e+01 0.00000000000000e+00
4.24175000000000e-02 5.26148862340236e+01 0.00000000000000e+00
4.26301190476190e-02 5.21839286300627e+01 0.00000000000000e+00
4.28427380952381e-02 5.17565009103172e+01 0.00000000000000e+00
4.30553571428571e-02 5.13325741622386e+01 0.00000000000000e+00
4.32679761904762e-02 5.09121197100954e+01 0.00000000000000e+00
4.34805952380952e-02 5.04951091130328e+01 0.00000000000000e+00
4.36932142857143e-02 5.00815141631491e+01 0.00000000000000e+00
4.39058333333333e-02 4.96713068835878e+01 0.00000000000000e+00
4.41184523809524e-02 4.92644595266450e+01 0.00000000000000e+00
4.43310714285714e-02 4.88609445718925e+01 0.00000000000000e+00
4.45436904761905e-02 4.84607347243161e+01 0.00000000000000e+00
4.47563095238095e-02 4.80638029124694e+01 0.00000000000000e+00
4.49689285714286e-02 4.76701222866428e+01 0.00000000000000e+00
4.51815476190476e-02 4.72796662170468e+01 0.00000000000000e+00
4.53941666666667e-02 4.68924082920113e+01 0.00000000000000e+00
4.56067857142857e-02 4.65083223161983e+01 0.00000000000000e+00
4.58194047619048e-02 4.61273823088308e+01 0.00000000000000e+00
4.60320238095238e-02 4.57495625019346e+01 0.00000000000000e+00
4.62446428571429e-02 4.53748373385958e+01 0.00000000000000e+00
4.64572619047619e-02 4.50031814712319e+01 0.00000000000000e+00
4.66698809523809e-02 4.46345697598771e+01 0.00000000000000e+00
4.68825000000000e-02 4.42689772704819e+01 0.00000000000000e+00
4.70951190476190e-02 4.39063792732263e+01 0.00000000000000e+00
4.73077380952381e-02 4.35467512408473e+01 0.00000000000000e+00
4.75203571428571e-02 4.31900688469794e+01 0.00000000000000e+00
4.77329761904762e-02 4.28363079645096e+01 0.00000000000000e+00
4.79455952380952e-02 4.24854446639447e+01 0.00000000000000e+00
4.81582142857143e-02 4.21374552117933e+01 0.00000000000000e+00
4.83708333333333e-02 4.17923160689599e+01 0.00000000000000e+00
4.85834523809524e-02 4.14500038891531e+01 0.00000000000000e+00
4.87960714285714e-02 4.11104955173059e+01 0.00000000000000e+00
4.90086904761905e-02 4.07737679880097e+01 0.00000000000000e+00
4.92213095238095e-02 4.04397985239608e+01 0.00000000000000e+00
4.94339285714286e-02 4.01085645344197e+01 0.00000000000000e+00
4.96465476190476e-02 3.97800436136828e+01 0.00000000000000e+00
4.98591666666667e-02 3.94542135395673e+01 0.00000000000000e+00
5.00717857142857e-02 3.91310522719073e+01 0.00000000000000e+00
5.02844047619048e-02 3.88105379510635e+01 0.00000000000000e+00
5.04970238095238e-02 3.84926488964444e+01 0.00000000000000e+00
5.07096428571429e-02 3.81773636050397e+01 0.00000000000000e+00
5.09222619047619e-02 3.78646607499658e+01 0.00000000000000e+00
5.11348809523810e-02 3.75545191790230e+01 0.00000000000000e+00
5.13475000000000e-02 3.72469179132650e+01 0.00000000000000e+00
5.15601190476190e-02 3.69418361455799e+01 0.00000000000000e+00
5.17727380952381e-02 3.66392532392822e+01 0.00000000000000e+00
5.19853571428571e-02 3.63391487267173e+01 0.00000000000000e+00
5.21979761904762e-02 3.60415023078771e+01 0.00000000000000e+00
5.24105952380952e-02 3.57462938490263e+01 0.00000000000000e+00
5.26232142857143e-02 3.54535033813412e+01 0.00000000000000e+00
5.28358333333333e-02 3.51631110995584e+01 0.00000000000000e+00
5.30484523809524e-02 3.48750973606353e+01 0.00000000000000e+00
5.32610714285714e-02 3.45894426824214e+01 0.00000000000000e+00
5.34736904761905e-02 3.43061277423405e+01 0.00000000000000e+00
5.36863095238095e-02 3.40251333760834e+01 0.00000000000000e+00
5.38989285714286e-02 3.37464405763122e+01 0.00000000000000e+00
5.41115476190476e-02 3.34700304913737e+01 0.00000000000000e+00
5.43241666666667e-02 3.31958844240249e+01 0.00000000000000e+00
5.45367857142857e-02 3.29239838301681e+01 0.00000000000000e+00
5.47494047619048e-02 3.26543103175963e+01 0.00000000000000e+00
5.49620238095238e-02 3.23868456447493e+01 0.00000000000000e+00
5.51746428571429e-02 3.21215717194798e+01 0.00000000000000e+00
5.53872619047619e-02 3.18584705978293e+01 0.00000000000000e+00
5.55998809523809e-02 3.15975244828148e+01 0.00000000000000e+00
5.58125000000000e-02 3.13387157232246e+01 0.00000000000000e+00
5.60251190476190e-02 3.10820268124244e+01 0.00000000000000e+00
5.62377380952381e-02 3.08274403871730e+01 0.00000000000000e+00
5.64503571428571e-02 3.05749392264480e+01 0.00000000000000e+00
5.66629761904762e-02 3.03245062502810e+01 0.00000000000000e+00
5.68755952380952e-02 3.00761245186017e+01 0.00000000000000e+00
5.70882142857143e-02 2.98297772300926e+01 0.00000000000000e+00
5.73008333333333e-02 2.95854477210524e+01 0.00000000000000e+00
5.75134523809524e-02 2.93431194642685e+01 0.00000000000000e+00
5.77260714285714e-02 2.91027760678995e+01 0.00000000000000e+00
5.79386904761905e-02 2.88644012743659e+01 0.00000000000000e+00
5.81513095238095e-02 2.86279789592508e+01 0.00000000000000e+00
5.83639285714286e-02 2.83934931302091e+01 0.00000000000000e+00
5.85765476190476e-02 2.81609279258856e+01 0.00000000000000e+00
5.87891666666667e-02 2.79302676148422e+01 0.00000000000000e+00
5.90017857142857e-02 2.77014965944937e+01 0.00000000000000e+00
5.92144047619048e-02 2.74745993900524e+01 0.00000000000000e+00
5.94270238095238e-02 2.72495606534816e+01 0.00000000000000e+00
5.96396428571429e-02 2.70263651624570e+01 0.00000000000000e+00
5.98522619047619e-02 2.68049978193370e+01 0.00000000000000e+00
6.00648809523810e-02 2.65854436501421e+01 0.00000000000000e+00
6.02775000000000e-02 2.63676878035412e+01 0.00000000000000e+00
6.04901190476190e-02 2.61517155498475e+01 0.00000000000000e+00
6.07027380952381e-02 2.59375122800219e+01 0.00000000000000e+00
6.09153571428571e-02 2.57250635046851e+01 0.00000000000000e+00
6.11279761904762e-02 2.55143548531372e+01 0.00000000000000e+00
6.13405952380952e-02 2.53053720723856e+01 0.00000000000000e+00
6.15532142857143e-02 2.50981010261812e+01 0.00000000000000e+00
6.17658333333333e-02 2.48925276940618e+01 0.00000000000000e+00
6.19784523809524e-02 2.46886381704041e+01 0.00000000000000e+00
6.21910714285714e-02 2.44864186634826e+01 0.00000000000000e+00
6.24036904761905e-02 2.42858554945372e+01 0.00000000000000e+00
6.26163095238095e-02 2.40869350968476e+01 0.00000000000000e+00
6.28289285714286e-02 2.38896440148156e+01 0.00000000000000e+00
6.30415476190476e-02 2.36939689030552e+01 0.00000000000000e+00
6.32541666666667e-02 2.34998965254896e+01 0.00000000000000e+00
6.34667857142857e-02 2.33074137544558e+01 0.00000000000000e+00
6.36794047619048e-02 2.31165075698169e+01 0.00000000000000e+00
6.38920238095238e-02 2.29271650580813e+01 0.00000000000000e+00
6.41046428571429e-02 2.27393734115291e+01 0.00000000000000e+00
6.43172619047619e-02 2.25531199273456e+01 0.00000000000000e+00
6.45298809523809e-02 2.23683920067624e+01 0.00000000000000e+00
6.47425000000000e-02 2.21851771542050e+01 0.00000000000000e+00
6.49551190476190e-02 2.20034629764474e+01 0.00000000000000e+00
6.51677380952381e-02 2.18232371817741e+01 0.00000000000000e+00
6.53803571428571e-02 2.16444875791484e+01 0.00000000000000e+00
6.55929761904762e-02 2.14672020773879e+01 0.00000000000000e+00
6.58055952380952e-02 2.12913686843465e+01 0.00000000000000e+00
6.60182142857143e-02 2.11169755061034e+01 0.00000000000000e+00
6.62308333333333e-02 2.09440107461582e+01 0.00000000000000e+00
6.64434523809524e-02 2.07724627046334e+01 0.00000000000000e+00
6.66560714285714e-02 2.06023197774828e+01 0.00000000000000e+00
6.68686904761905e-02 2.04335704557062e+01 0.00000000000000e+00
6.70813095238095e-02 2.02662033245717e+01 0.00000000000000e+00
