Energy (eV)          EEDF (eV^-(3/2))     First Anisotropy
8.26851851851852e-05 2.70590155344545e+02 0.00000000000000e+00
2.48055555555556e-04 2.68864759049251e+02 0.00000000000000e+00
4.13425925925926e-04 2.67150364604772e+02 0.00000000000000e+00
5.78796296296296e-04 2.65446901858287e+02 0.00000000000000e+00
7.44166666666667e-04 2.63754301104627e+02 0.00000000000000e+00
9.09537037037037e-04 2.62072493083145e+02 0.00000000000000e+00
1.07490740740741e-03 2.60401408974841e+02 0.00000000000000e+00
1.24027777777778e-03 2.58740980399544e+02 0.00000000000000e+00
1.40564814814815e-03 2.57091139413103e+02 0.00000000000000e+00
1.57101851851852e-03 2.55451818504609e+02 0.00000000000000e+00
1.73638888888889e-03 2.53822950593633e+02 0.00000000000000e+00
1.90175925925926e-03 2.52204469027479e+02 0.00000000000000e+00
2.06712962962963e-03 2.50596307578455e+02 0.00000000000000e+00
2.23250000000000e-03 2.48998400441168e+02 0.00000000000000e+00
2.39787037037037e-03 2.47410682229825e+02 0.00000000000000e+00
2.56324074074074e-03 2.45833087975562e+02 0.00000000000000e+00
2.72861111111111e-03 2.44265553123783e+02 0.00000000000000e+00
2.89398148148148e-03 2.42708013531520e+02 0.00000000000000e+00
3.05935185185185e-03 2.41160405464805e+02 0.00000000000000e+00
3.22472222222222e-03 2.39622665596069e+02 0.00000000000000e+00
3.39009259259259e-03 2.38094731001542e+02 0.00000000000000e+00
3.55546296296296e-03 2.36576539158685e+02 0.00000000000000e+00
3.72083333333333e-03 2.35068027943627e+02 0.00000000000000e+00
3.88620370370370e-03 2.33569135628627e+02 0.00000000000000e+00
4.05157407407407e-03 2.32079800879544e+02 0.00000000000000e+00
4.21694444444445e-03 2.30599962753329e+02 0.00000000000000e+00
4.38231481481482e-03 2.29129560695535e+02 0.00000000000000e+00
4.54768518518519e-03 2.27668534537830e+02 0.00000000000000e+00
4.71305555555556e-03 2.26216824495546e+02 0.00000000000000e+00
4.87842592592593e-03 2.24774371165224e+02 0.00000000000000e+00
5.04379629629630e-03 2.23341115522185e+02 0.00000000000000e+00
5.20916666666667e-03 2.21916998918121e+02 0.00000000000000e+00
5.37453703703704e-03 2.20501963078685e+02 0.00000000000000e+00
5.53990740740741e-03 2.19095950101115e+02 0.00000000000000e+00
5.70527777777778e-03 2.17698902451860e+02 0.00000000000000e+00
5.87064814814815e-03 2.16310762964228e+02 0.00000000000000e+00
6.03601851851852e-03 2.14931474836044e+02 0.00000000000000e+00
6.20138888888889e-03 2.13560981627330e+02 0.00000000000000e+00
6.36675925925926e-03 2.12199227257990e+02 0.00000000000000e+00
6.53212962962963e-03 2.10846156005520e+02 0.00000000000000e+00
6.69750000000000e-03 2.09501712502727e+02 0.00000000000000e+00
6.86287037037037e-03 2.08165841735460e+02 0.00000000000000e+00
7.02824074074074e-03 2.06838489040364e+02 0.00000000000000e+00
7.19361111111111e-03 2.05519600102637e+02 0.00000000000000e+00
7.35898148148148e-03 2.04209120953815e+02 0.00000000000000e+00
7.52435185185185e-03 2.02906997969556e+02 0.00000000000000e+00
7.68972222222222e-03 2.01613177867452e+02 0.00000000000000e+00
7.85509259259259e-03 2.00327607704844e+02 0.00000000000000e+00
8.02046296296296e-03 1.99050234876659e+02 0.00000000000000e+00
8.18583333333333e-03 1.97781007113254e+02 0.00000000000000e+00
8.35120370370370e-03 1.96519872478283e+02 0.00000000000000e+00
8.51657407407407e-03 1.95266779366563e+02 0.00000000000000e+00
8.68194444444445e-03 1.94021676501972e+02 0.00000000000000e+00
8.84731481481481e-03 1.92784512935342e+02 0.00000000000000e+00
9.01268518518519e-03 1.91555238042381e+02 0.00000000000000e+00
9.17805555555556e-03 1.90333801521598e+02 0.00000000000000e+00
9.34342592592593e-03 1.89120153392245e+02 0.00000000000000e+00
9.50879629629630e-03 1.87914243992272e+02 0.00000000000000e+00
9.67416666666667e-03 1.86716023976295e+02 0.00000000000000e+00
9.83953703703704e-03 1.85525444313579e+02 0.00000000000000e+00
1.00049074074074e-02 1.84342456286027e+02 0.00000000000000e+00
1.01702777777778e-02 1.83167011486189e+02 0.00000000000000e+00
1.03356481481481e-02 1.81999061815283e+02 0.00000000000000e+00
1.05010185185185e-02 1.80838559481224e+02 0.00000000000000e+00
1.06663888888889e-02 1.79685456996670e+02 0.00000000000000e+00
1.08317592592593e-02 1.78539707177076e+02 0.00000000000000e+00
1.09971296296296e-02 1.77401263138768e+02 0.00000000000000e+00
1.11625000000000e-02 1.76270078297022e+02 0.00000000000000e+00
1.13278703703704e-02 1.75146106364155e+02 0.00000000000000e+00
1.14932407407407e-02 1.74029301347637e+02 0.00000000000000e+00
1.16586111111111e-02 1.72919617548204e+02 0.00000000000000e+00
1.18239814814815e-02 1.71817009557988e+02 0.00000000000000e+00
1.19893518518519e-02 1.70721432258665e+02 0.00000000000000e+00
1.21547222222222e-02 1.69632840819600e+02 0.00000000000000e+00
1.23200925925926e-02 1.68551190696019e+02 0.00000000000000e+00
1.24854629629630e-02 1.67476437627184e+02 0.00000000000000e+00
1.26508333333333e-02 1.66408537634582e+02 0.00000000000000e+00
1.28162037037037e-02 1.65347447020125e+02 0.00000000000000e+00
1.29815740740741e-02 1.64293122364362e+02 0.00000000000000e+00
1.31469444444444e-02 1.63245520524705e+02 0.00000000000000e+00
1.33123148148148e-02 1.62204598633658e+02 0.00000000000000e+00
1.34776851851852e-02 1.61170314097068e+02 0.00000000000000e+00
1.36430555555556e-02 1.60142624592381e+02 0.00000000000000e+00
1.38084259259259e-02 1.59121488066906e+02 0.00000000000000e+00
1.39737962962963e-02 1.58106862736101e+02 0.00000000000000e+00
1.41391666666667e-02 1.57098707081859e+02 0.00000000000000e+00
1.43045370370370e-02 1.56096979850808e+02 0.00000000000000e+00
1.44699074074074e-02 1.55101640052627e+02 0.00000000000000e+00
1.46352777777778e-02 1.54112646958366e+02 0.00000000000000e+00
1.48006481481481e-02 1.53129960098779e+02 0.00000000000000e+00
1.49660185185185e-02 1.52153539262669e+02 0.00000000000000e+00
1.51313888888889e-02 1.51183344495243e+02 0.00000000000000e+00
1.52967592592593e-02 1.50219336096477e+02 0.00000000000000e+00
1.54621296296296e-02 1.49261474619490e+02 0.00000000000000e+00
1.56275000000000e-02 1.48309720868931e+02 0.00000000000000e+00
1.57928703703704e-02 1.47364035899375e+02 0.00000000000000e+00
1.59582407407407e-02 1.46424381013731e+02 0.00000000000000e+00
1.61236111111111e-02 1.45490717761653e+02 0.00000000000000e+00
1.62889814814815e-02 1.44563007937975e+02 0.00000000000000e+00
1.64543518518519e-02 1.43641213581141e+02 0.00000000000000e+00
1.66197222222222e-02 1.42725296971653e+02 0.00000000000000e+00
1.67850925925926e-02 1.41815220630529e+02 0.00000000000000e+00
1.69504629629630e-02 1.40910947317770e+02 0.00000000000000e+00
1.71158333333333e-02 1.40012440030834e+02 0.00000000000000e+00
1.72812037037037e-02 1.39119662003121e+02 0.00000000000000e+00
1.74465740740741e-02 1.38232576702473e+02 0.00000000000000e+00
1.76119444444444e-02 1.37351147829675e+02 0.00000000000000e+00
1.77773148148148e-02 1.36475339316972e+02 0.00000000000000e+00
1.79426851851852e-02 1.35605115326589e+02 0.00000000000000e+00
1.81080555555556e-02 1.34740440249272e+02 0.00000000000000e+00
1.82734259259259e-02 1.33881278702824e+02 0.00000000000000e+00
1.84387962962963e-02 1.33027595530660e+02 0.00000000000000e+00
1.86041666666667e-02 1.32179355800369e+02 0.00000000000000e+00
1.87695370370370e-02 1.31336524802282e+02 0.00000000000000e+00
1.89349074074074e-02 1.30499068048055e+02 0.00000000000000e+00
1.91002777777778e-02 1.29666951269256e+02 0.00000000000000e+00
1.92656481481481e-02 1.28840140415962e+02 0.00000000000000e+00
1.94310185185185e-02 1.28018601655367e+02 0.00000000000000e+00
1.95963888888889e-02 1.27202301370398e+02 0.00000000000000e+00
1.97617592592593e-02 1.26391206158337e+02 0.00000000000000e+00
1.99271296296296e-02 1.25585282829458e+02 0.00000000000000e+00
2.00925000000000e-02 1.24784498405663e+02 0.00000000000000e+00
2.02578703703704e-02 1.23988820119139e+02 0.00000000000000e+00
2.04232407407407e-02 1.23198215411015e+02 0.00000000000000e+00
2.05886111111111e-02 1.22412651930026e+02 0.00000000000000e+00
2.07539814814815e-02 1.21632097531195e+02 0.00000000000000e+00
2.09193518518519e-02 1.20856520274513e+02 0.00000000000000e+00
2.10847222222222e-02 1.20085888423636e+02 0.00000000000000e+00
2.12500925925926e-02 1.19320170444581e+02 0.00000000000000e+00
2.14154629629630e-02 1.18559335004442e+02 0.00000000000000e+00
2.15808333333333e-02 1.17803350970103e+02 0.00000000000000e+00
2.17462037037037e-02 1.17052187406966e+02 0.00000000000000e+00
2.19115740740741e-02 1.16305813577686e+02 0.00000000000000e+00
2.20769444444444e-02 1.15564198940912e+02 0.00000000000000e+00
2.22423148148148e-02 1.14827313150036e+02 0.00000000000000e+00
2.24076851851852e-02 1.14095126051953e+02 0.00000000000000e+00
2.25730555555556e-02 1.13367607685829e+02 0.00000000000000e+00
2.27384259259259e-02 1.12644728281871e+02 0.00000000000000e+00
2.29037962962963e-02 1.11926458260111e+02 0.00000000000000e+00
2.30691666666667e-02 1.11212768229194e+02 0.00000000000000e+00
2.32345370370370e-02 1.10503628985180e+02 0.00000000000000e+00
2.33999074074074e-02 1.09799011510342e+02 0.00000000000000e+00
2.35652777777778e-02 1.09098886971984e+02 0.00000000000000e+00
2.37306481481482e-02 1.08403226721259e+02 0.00000000000000e+00
2.38960185185185e-02 1.07712002291997e+02 0.00000000000000e+00
2.40613888888889e-02 1.07025185399541e+02 0.00000000000000e+00
2.42267592592593e-02 1.06342747939587e+02 0.00000000000000e+00
2.43921296296296e-02 1.05664661987038e+02 0.00000000000000e+00
2.45575000000000e-02 1.04990899794858e+02 0.00000000000000e+00
2.47228703703704e-02 1.04321433792938e+02 0.00000000000000e+00
2.48882407407407e-02 1.03656236586966e+02 0.00000000000000e+00
2.50536111111111e-02 1.02995280957310e+02 0.00000000000000e+00
2.52189814814815e-02 1.02338539857902e+02 0.00000000000000e+00
2.53843518518519e-02 1.01685986415128e+02 0.00000000000000e+00
2.55497222222222e-02 1.01037593926734e+02 0.00000000000000e+00
2.57150925925926e-02 1.00393335860731e+02 0.00000000000000e+00
2.58804629629630e-02 9.97531858543063e+01 0.00000000000000e+00
2.60458333333333e-02 9.91171177127511e+01 0.00000000000000e+00
2.62112037037037e-02 9.84851054083827e+01 0.00000000000000e+00
2.63765740740741e-02 9.78571230794827e+01 0.00000000000000e+00
2.65419444444444e-02 9.72331450292375e+01 0.00000000000000e+00
2.67073148148148e-02 9.66131457246874e+01 0.00000000000000e+00
2.68726851851852e-02 9.59970997956816e+01 0.00000000000000e+00
2.70380555555556e-02 9.53849820338397e+01 0.00000000000000e+00
2.72034259259259e-02 9.47767673915207e+01 0.00000000000000e+00
2.73687962962963e-02 9.41724309807981e+01 0.00000000000000e+00
2.75341666666667e-02 9.35719480724408e+01 0.00000000000000e+00
2.76995370370370e-02 9.29752940949019e+01 0.00000000000000e+00
2.78649074074074e-02 9.23824446333130e+01 0.00000000000000e+00
2.80302777777778e-02 9.17933754284850e+01 0.00000000000000e+00
2.81956481481482e-02 9.12080623759158e+01 0.00000000000000e+00
2.83610185185185e-02 9.06264815248035e+01 0.00000000000000e+00
2.85263888888889e-02 9.00486090770666e+01 0.00000000000000e+00
2.86917592592593e-02 8.94744213863702e+01 0.00000000000000e+00
2.88571296296296e-02 8.89038949571583e+01 0.00000000000000e+00
2.90225000000000e-02 8.83370064436925e+01 0.00000000000000e+00
2.91878703703704e-02 8.77737326490964e+01 0.00000000000000e+00
2.93532407407407e-02 8.72140505244068e+01 0.00000000000000e+00
2.95186111111111e-02 8.66579371676305e+01 0.00000000000000e+00
2.96839814814815e-02 8.61053698228066e+01 0.00000000000000e+00
2.98493518518519e-02 8.55563258790761e+01 0.00000000000000e+00
3.00147222222222e-02 8.50107828697561e+01 0.00000000000000e+00
3.01800925925926e-02 8.44687184714209e+01 0.00000000000000e+00
3.03454629629630e-02 8.39301105029881e+01 0.00000000000000e+00
3.05108333333333e-02 8.33949369248114e+01 0.00000000000000e+00
3.06762037037037e-02 8.28631758377784e+01 0.00000000000000e+00
3.08415740740741e-02 8.23348054824145e+01 0.00000000000000e+00
3.10069444444444e-02 8.18098042379930e+01 0.00000000000000e+00
3.11723148148148e-02 8.12881506216496e+01 0.00000000000000e+00
3.13376851851852e-02 8.07698232875041e+01 0.00000000000000e+00
3.15030555555556e-02 8.02548010257863e+01 0.00000000000000e+00
3.16684259259259e-02 7.97430627619685e+01 0.00000000000000e+00
3.18337962962963e-02 7.92345875559031e+01 0.00000000000000e+00
3.19991666666667e-02 7.87293546009657e+01 0.00000000000000e+00
3.21645370370370e-02 7.82273432232034e+01 0.00000000000000e+00
3.23299074074074e-02 7.77285328804894e+01 0.00000000000000e+00
3.24952777777778e-02 7.72329031616819e+01 0.00000000000000e+00
3.26606481481482e-02 7.67404337857891e+01 0.00000000000000e+00
3.28260185185185e-02 7.62511046011395e+01 0.00000000000000e+00
3.29913888888889e-02 7.57648955845570e+01 0.00000000000000e+00
3.31567592592593e-02 7.52817868405416e+01 0.00000000000000e+00
3.33221296296296e-02 7.48017586004554e+01 0.00000000000000e+00
3.34875000000000e-02 7.43247912217136e+01 0.00000000000000e+00
3.36528703703704e-02 7.38508651869808e+01 0.00000000000000e+00
3.38182407407407e-02 7.33799611033724e+01 0.00000000000000e+00
3.39836111111111e-02 7.29120597016608e+01 0.00000000000000e+00
3.41489814814815e-02 7.24471418354871e+01 0.00000000000000e+00
3.43143518518519e-02 7.19851884805776e+01 0.00000000000000e+00
3.44797222222222e-02 7.15261807339656e+01 0.00000000000000e+00
3.46450925925926e-02 7.10700998132174e+01 0.00000000000000e+00
3.48104629629630e-02 7.06169270556638e+01 0.00000000000000e+00
3.49758333333333e-02 7.01666439176371e+01 0.00000000000000e+00
3.51412037037037e-02 6.97192319737113e+01 0.00000000000000e+00
3.53065740740741e-02 6.92746729159490e+01 0.00000000000000e+00
3.54719444444444e-02 6.88329485531516e+01 0.00000000000000e+00
3.56373148148148e-02 6.83940408101154e+01 0.00000000000000e+00
3.58026851851852e-02 6.79579317268919e+01 0.00000000000000e+00
3.59680555555556e-02 6.75246034580524e+01 0.00000000000000e+00
3.61334259259259e-02 6.70940382719584e+01 0.00000000000000e+00
3.62987962962963e-02 6.66662185500357e+01 0.00000000000000e+00
3.64641666666667e-02 6.62411267860536e+01 0.00000000000000e+00
3.66295370370370e-02 6.58187455854083e+01 0.00000000000000e+00
3.67949074074074e-02 6.53990576644113e+01 0.00000000000000e+00
3.69602777777778e-02 6.49820458495824e+01 0.00000000000000e+00
3.71256481481482e-02 6.45676930769463e+01 0.00000000000000e+00
3.72910185185185e-02 6.41559823913352e+01 0.00000000000000e+00
3.74563888888889e-02 6.37468969456942e+01 0.00000000000000e+00
3.76217592592593e-02 6.33404200003925e+01 0.00000000000000e+00
3.77871296296296e-02 6.29365349225382e+01 0.00000000000000e+00
3.79525000000000e-02 6.25352251852975e+01 0.00000000000000e+00
3.81178703703704e-02 6.21364743672188e+01 0.00000000000000e+00
3.82832407407407e-02 6.17402661515605e+01 0.00000000000000e+00
3.84486111111111e-02 6.13465843256235e+01 0.00000000000000e+00
3.86139814814815e-02 6.09554127800874e+01 0.00000000000000e+00
3.87793518518519e-02 6.05667355083519e+01 0.00000000000000e+00
3.89447222222222e-02 6.01805366058814e+01 0.00000000000000e+00
3.91100925925926e-02 5.97968002695540e+01 0.00000000000000e+00
3.92754629629630e-02 5.94155107970156e+01 0.00000000000000e+00
3.94408333333333e-02 5.90366525860366e+01 0.00000000000000e+00
3.96062037037037e-02 5.86602101338738e+01 0.00000000000000e+00
3.97715740740741e-02 5.82861680366360e+01 0.00000000000000e+00
3.99369444444444e-02 5.79145109886536e+01 0.00000000000000e+00
4.01023148148148e-02 5.75452237818526e+01 0.00000000000000e+00
4.02676851851852e-02 5.71782913051318e+01 0.00000000000000e+00
4.04330555555556e-02 5.68136985437449e+01 0.00000000000000e+00
4.05984259259259e-02 5.64514305786858e+01 0.00000000000000e+00
4.07637962962963e-02 5.60914725860782e+01 0.00000000000000e+00
4.09291666666667e-02 5.57338098365693e+01 0.00000000000000e+00
4.10945370370370e-02 5.53784276947266e+01 0.00000000000000e+00
4.12599074074074e-02 5.50253116184392e+01 0.00000000000000e+00
4.14252777777778e-02 5.46744471583230e+01 0.00000000000000e+00
4.15906481481482e-02 5.43258199571292e+01 0.00000000000000e+00
4.17560185185185e-02 5.39794157491567e+01 0.00000000000000e+00
4.19213888888889e-02 5.36352203596685e+01 0.00000000000000e+00
4.20867592592593e-02 5.32932197043119e+01 0.00000000000000e+00
4.22521296296296e-02 5.29533997885417e+01 0.00000000000000e+00
4.24175000000000e-02 5.26157467070479e+01 0.00000000000000e+00
4.25828703703704e-02 5.22802466431865e+01 0.00000000000000e+00
4.27482407407407e-02 5.19468858684143e+01 0.00000000000000e+00
4.29136111111111e-02 5.16156507417271e+01 0.00000000000000e+00
4.30789814814815e-02 5.12865277091012e+01 0.00000000000000e+00
4.32443518518519e-02 5.09595033029393e+01 0.00000000000000e+00
4.34097222222222e-02 5.06345641415192e+01 0.00000000000000e+00
4.35750925925926e-02 5.03116969284459e+01 0.00000000000000e+00
4.37404629629630e-02 4.99908884521079e+01 0.00000000000000e+00
4.39058333333333e-02 4.96721255851366e+01 0.00000000000000e+00
4.40712037037037e-02 4.93553952838690e+01 0.00000000000000e+00
4.42365740740741e-02 4.90406845878137e+01 0.00000000000000e+00
4.44019444444444e-02 4.87279806191210e+01 0.00000000000000e+00
4.45673148148148e-02 4.84172705820560e+01 0.00000000000000e+00
4.47326851851852e-02 4.81085417624743e+01 0.00000000000000e+00
4.48980555555556e-02 4.78017815273026e+01 0.00000000000000e+00
4.50634259259259e-02 4.74969773240211e+01 0.00000000000000e+00
4.52287962962963e-02 4.71941166801504e+01 0.00000000000000e+00
4.53941666666667e-02 4.68931872027407e+01 0.00000000000000e+00
4.55595370370370e-02 4.65941765778648e+01 0.00000000000000e+00
4.57249074074074e-02 4.62970725701144e+01 0.00000000000000e+00
4.58902777777778e-02 4.60018630220992e+01 0.00000000000000e+00
4.60556481481482e-02 4.57085358539495e+01 0.00000000000000e+00
4.62210185185185e-02 4.54170790628220e+01 0.00000000000000e+00
4.63863888888889e-02 4.51274807224086e+01 0.00000000000000e+00
4.65517592592593e-02 4.48397289824481e+01 0.00000000000000e+00
4.67171296296296e-02 4.45538120682418e+01 0.00000000000000e+00
4.68825000000000e-02 4.42697182801713e+01 0.00000000000000e+00
4.70478703703704e-02 4.39874359932199e+01 0.00000000000000e+00
4.72132407407407e-02 4.37069536564967e+01 0.00000000000000e+00
4.73786111111111e-02 4.34282597927645e+01 0.00000000000000e+00
4.75439814814815e-02 4.31513429979695e+01 0.00000000000000e+00
4.77093518518519e-02 4.28761919407750e+01 0.00000000000000e+00
4.78747222222222e-02 4.26027953620976e+01 0.00000000000000e+00
4.80400925925926e-02 4.23311420746466e+01 0.00000000000000e+00
4.82054629629630e-02 4.20612209624662e+01 0.00000000000000e+00
4.83708333333333e-02 4.17930209804805e+01 0.00000000000000e+00
4.85362037037037e-02 4.15265311540416e+01 0.00000000000000e+00
4.87015740740741e-02 4.12617405784808e+01 0.00000000000000e+00
4.88669444444444e-02 4.09986384186618e+01 0.00000000000000e+00
4.90323148148148e-02 4.07372139085379e+01 0.00000000000000e+00
4.91976851851852e-02 4.04774563507113e+01 0.00000000000000e+00
4.93630555555556e-02 4.02193551159950e+01 0.00000000000000e+00
4.95284259259259e-02 3.99628996429783e+01 0.00000000000000e+00
4.96937962962963e-02 3.97080794375947e+01 0.00000000000000e+00
4.98591666666667e-02 3.94548840726919e+01 0.00000000000000e+00
5.00245370370370e-02 3.92033031876056e+01 0.00000000000000e+00
5.01899074074074e-02 3.89533264877357e+01 0.00000000000000e+00
5.03552777777778e-02 3.87049437441245e+01 0.00000000000000e+00
5.05206481481482e-02 3.84581447930386e+01 0.00000000000000e+00
5.06860185185185e-02 3.82129195355526e+01 0.00000000000000e+00
5.08513888888889e-02 3.79692579371363e+01 0.00000000000000e+00
5.10167592592593e-02 3.77271500272437e+01 0.00000000000000e+00
5.11821296296296e-02 3.74865858989054e+01 0.00000000000000e+00
5.13475000000000e-02 3.72475557083229e+01 0.00000000000000e+00
5.15128703703704e-02 3.70100496744657e+01 0.00000000000000e+00
5.16782407407407e-02 3.67740580786716e+01 0.00000000000000e+00
5.18436111111111e-02 3.65395712642483e+01 0.00000000000000e+00
5.20089814814815e-02 3.63065796360789e+01 0.00000000000000e+00
5.21743518518519e-02 3.60750736602289e+01 0.00000000000000e+00
