Energy (eV)          EEDF (eV^-(3/2))     First Anisotropy
1.88679245283019e-03 6.14991609659992e-01 5.34805694751490e-08
5.66037735849057e-03 6.14991561515717e-01 1.67564125299888e-07
9.43396226415094e-03 6.14991435212268e-01 4.14987044991916e-07
1.32075471698113e-02 6.14991226414416e-01 7.32657081815612e-07
1.69811320754717e-02 6.14990934545448e-01 1.08503259089084e-06
2.07547169811321e-02 6.14990571625821e-01 1.44295797540587e-06
2.45283018867925e-02 6.14990145855130e-01 1.81094896722895e-06
2.83018867924528e-02 6.14989659910849e-01 2.19595506053493e-06
3.20754716981132e-02 6.14989115254803e-01 2.58804345891621e-06
3.58490566037736e-02 6.14988517462928e-01 2.99084598987925e-06
3.96226415094340e-02 6.14987864796097e-01 3.42133091713903e-06
4.33962264150943e-02 6.14987155028385e-01 3.88377905554587e-06
4.71698113207547e-02 6.14986384936778e-01 4.37935611872821e-06
5.09433962264151e-02 6.14985552194648e-01 4.89117963590171e-06
5.47169811320755e-02 6.14984659947208e-01 5.41255595473480e-06
5.84905660377358e-02 6.14983707853274e-01 5.95749196707214e-06
6.22641509433962e-02 6.14982693856172e-01 6.53144885688083e-06
6.60377358490566e-02 6.14981615838955e-01 7.13576489153409e-06
6.98113207547170e-02 6.14980471479576e-01 7.75828454203008e-06
7.35849056603774e-02 6.14979262607527e-01 8.38092358859608e-06
7.73584905660377e-02 6.14977992272392e-01 9.01450475612020e-06
8.11320754716981e-02 6.14976658626142e-01 9.67515327167385e-06
8.49056603773585e-02 6.14975259835168e-01 1.03634192334714e-05
8.86792452830189e-02 6.14973794013087e-01 1.10796021815906e-05
9.24528301886793e-02 6.14972259352927e-01 1.18236279584352e-05
9.62264150943396e-02 6.14970654088411e-01 1.25958014803925e-05
1.00000000000000e-01 6.14968976420142e-01 1.33780412667212e-05
1.03773584905660e-01 6.14967229460185e-01 1.41484191736990e-05
1.07547169811321e-01 6.14965416970018e-01 1.49202773293320e-05
1.11320754716981e-01 6.14963538212264e-01 1.57105781735662e-05
1.15094339622642e-01 6.14961592434439e-01 1.65194325579651e-05
1.18867924528302e-01 6.14959578870397e-01 1.73469489933474e-05
1.22641509433962e-01 6.14957496741512e-01 1.81932341935790e-05
1.26415094339623e-01 6.14955345257676e-01 1.90583935168813e-05
1.30188679245283e-01 6.14953123618123e-01 1.99425313367165e-05
1.33962264150943e-01 6.14950831012126e-01 2.08457513462404e-05
1.37735849056604e-01 6.14948466619576e-01 2.17681568031894e-05
1.41509433962264e-01 6.14946029611472e-01 2.27098507377333e-05
1.45283018867925e-01 6.14943519150338e-01 2.36709361256310e-05
1.49056603773585e-01 6.14940934390564e-01 2.46515160183391e-05
1.52830188679245e-01 6.14938274478706e-01 2.56516936619336e-05
1.56603773584906e-01 6.14935538553729e-01 2.66715725871029e-05
1.60377358490566e-01 6.14932725747219e-01 2.77112566801524e-05
1.64150943396226e-01 6.14929835183558e-01 2.87708502446771e-05
1.67924528301887e-01 6.14926865980076e-01 2.98504580347716e-05
1.71698113207547e-01 6.14923817247171e-01 3.09501841154895e-05
1.75471698113208e-01 6.14920688088660e-01 3.20701225580971e-05
1.79245283018868e-01 6.14917477603704e-01 3.32103293291622e-05
1.83018867924528e-01 6.14914184892560e-01 3.43707382361354e-05
1.86792452830189e-01 6.14910809074525e-01 3.55510062547677e-05
1.90566037735849e-01 6.14907349322426e-01 3.67504278736092e-05
1.94339622641509e-01 6.14903804894552e-01 3.79681751219228e-05
1.98113207547170e-01 6.14900175120726e-01 3.92036517823216e-05
2.01886792452830e-01 6.14896459366979e-01 4.03766343030730e-05
2.05660377358491e-01 6.14892672843479e-01 4.14831686333067e-05
2.09433962264151e-01 6.14888815360531e-01 4.25997543413301e-05
2.13207547169811e-01 6.14884886825227e-01 4.37257741463984e-05
2.16981132075472e-01 6.14880887143730e-01 4.48611402557459e-05
2.20754716981132e-01 6.14876816221103e-01 4.60057692530947e-05
2.24528301886792e-01 6.14872673961158e-01 4.71595818790974e-05
2.28301886792453e-01 6.14868460266320e-01 4.83225028229899e-05
2.32075471698113e-01 6.14864175037498e-01 4.94944605358015e-05
2.35849056603774e-01 6.14859818173979e-01 5.06753870683062e-05
2.39622641509434e-01 6.14855389573326e-01 5.18652179085848e-05
2.43396226415094e-01 6.14850889131281e-01 5.30638918230823e-05
2.47169811320755e-01 6.14846316741688e-01 5.42713507098395e-05
2.50943396226415e-01 6.14841672296415e-01 5.54875394730329e-05
2.54716981132075e-01 6.14836955685287e-01 5.67124058985805e-05
2.58490566037736e-01 6.14832166796023e-01 5.79459005227808e-05
2.62264150943396e-01 6.14827305514184e-01 5.91879765258071e-05
2.66037735849057e-01 6.14822371723119e-01 6.04385896241017e-05
2.69811320754717e-01 6.14817365303921e-01 6.16976977800028e-05
2.73584905660377e-01 6.14812286135418e-01 6.29652594411849e-05
2.77358490566038e-01 6.14807134094407e-01 6.42412274516547e-05
2.81132075471698e-01 6.14801909056619e-01 6.55255307641365e-05
2.84905660377358e-01 6.14796610899869e-01 6.68180348459287e-05
2.88679245283019e-01 6.14791239511257e-01 6.81185016160737e-05
2.92452830188679e-01 6.14785794796385e-01 6.94266164605912e-05
2.96226415094340e-01 6.14780276681755e-01 7.07420907492891e-05
3.00000000000000e-01 6.14774685107419e-01 7.20637890630315e-05
3.03773584905660e-01 6.14769020597225e-01 7.34464842478173e-05
3.07547169811321e-01 6.14763275031565e-01 7.50005780078190e-05
3.11320754716981e-01 6.14757431599679e-01 7.67744470329213e-05
3.15094339622641e-01 6.14751474705347e-01 7.87558970299233e-05
3.18867924528302e-01 6.14745389894317e-01 8.09332840656323e-05
3.22641509433962e-01 6.14739163786410e-01 8.32954866776715e-05
3.26415094339623e-01 6.14732784011963e-01 8.58318796177436e-05
3.30188679245283e-01 6.14726239152305e-01 8.85323091306802e-05
3.33962264150943e-01 6.14719518683971e-01 9.13870696511251e-05
3.37735849056604e-01 6.14712612926400e-01 9.43868818001890e-05
3.41509433962264e-01 6.14705512992879e-01 9.75228715953313e-05
3.45283018867925e-01 6.14698210744504e-01 1.00786550810801e-04
3.49056603773585e-01 6.14690698746955e-01 1.04169798415296e-04
3.52830188679245e-01 6.14682970229908e-01 1.07664842970818e-04
3.56603773584906e-01 6.14675019048888e-01 1.11264245993473e-04
3.60377358490566e-01 6.14666839649423e-01 1.14960886192688e-04
3.64150943396226e-01 6.14658427033333e-01 1.18747944519608e-04
3.67924528301887e-01 6.14649776727026e-01 1.22618889991679e-04
3.71698113207547e-01 6.14640884751667e-01 1.26567466044360e-04
3.75471698113208e-01 6.14631747595126e-01 1.30587676284578e-04
3.79245283018868e-01 6.14622362185768e-01 1.34673767678542e-04
3.83018867924528e-01 6.14612725868246e-01 1.38820205217761e-04
3.86792452830189e-01 6.14602836382229e-01 1.43021636513007e-04
3.90566037735849e-01 6.14592691844390e-01 1.47272868550619e-04
3.94339622641509e-01 6.14582290731403e-01 1.51568899669779e-04
3.98113207547170e-01 6.14571631858304e-01 1.55904970512613e-04
4.01886792452830e-01 6.14560714355305e-01 1.60210091822314e-04
4.05660377358491e-01 6.14549548910174e-01 1.64607605449180e-04
4.09433962264151e-01 6.14538117762999e-01 1.69282746671121e-04
4.13207547169811e-01 6.14526404312786e-01 1.74220830505819e-04
4.16981132075472e-01 6.14514393180834e-01 1.79406897899427e-04
4.20754716981132e-01 6.14502070142409e-01 1.84826669205986e-04
4.24528301886792e-01 6.14489422062056e-01 1.90466515546341e-04
4.28301886792453e-01 6.14476436832334e-01 1.96313431542031e-04
4.32075471698113e-01 6.14463103315795e-01 2.02355009307147e-04
4.35849056603774e-01 6.14449411289995e-01 2.08579413656483e-04
4.39622641509434e-01 6.14435351395399e-01 2.14975358427770e-04
4.43396226415094e-01 6.14420915085986e-01 2.21532083878254e-04
4.47169811320755e-01 6.14406094582432e-01 2.28239335080488e-04
4.50943396226415e-01 6.14390882827717e-01 2.35087341296787e-04
4.54716981132075e-01 6.14375273445014e-01 2.42066796269969e-04
4.58490566037736e-01 6.14359260697756e-01 2.49168839380631e-04
4.62264150943396e-01 6.14342839451744e-01 2.56385037637196e-04
4.66037735849057e-01 6.14326005139197e-01 2.63707368454295e-04
4.69811320754717e-01 6.14308753724637e-01 2.71128203132655e-04
4.73584905660377e-01 6.14291081672508e-01 2.78640290603954e-04
4.77358490566038e-01 6.14272985916510e-01 2.86236740593561e-04
4.81132075471698e-01 6.14254463830650e-01 2.93911003726701e-04
4.84905660377358e-01 6.14235513202310e-01 3.01656845819432e-04
4.88679245283019e-01 6.14216132207705e-01 3.09468323879234e-04
4.92452830188679e-01 6.14196319388997e-01 3.17339784123224e-04
4.96226415094340e-01 6.14176073630846e-01 3.25265882948932e-04
5.00000000000000e-01 6.14155394135628e-01 3.33181392526895e-04
5.03773584905660e-01 6.14134288757020e-01 3.41031574409278e-04
5.07547169811321e-01 6.14112764326841e-01 3.48892922360279e-04
5.11320754716981e-01 6.14090818276519e-01 3.56830013582771e-04
5.15094339622642e-01 6.14068448545841e-01 3.64834972854878e-04
5.18867924528302e-01 6.14045653554790e-01 3.72900269189655e-04
5.22641509433962e-01 6.14022432176669e-01 3.81018703661383e-04
5.26415094339623e-01 6.13998783712445e-01 3.89183397696319e-04
5.30188679245283e-01 6.13974707866262e-01 3.97387781823986e-04
5.33962264150943e-01 6.13950204722067e-01 4.05625584851666e-04
5.37735849056604e-01 6.13925274721286e-01 4.13890823443485e-04
5.41509433962264e-01 6.13899918641513e-01 4.22177792059981e-04
5.45283018867925e-01 6.13874137576170e-01 4.30481053270586e-04
5.49056603773585e-01 6.13847932915075e-01 4.38795428414781e-04
5.52830188679245e-01 6.13821306325892e-01 4.47115988597120e-04
5.56603773584906e-01 6.13794259736426e-01 4.55438046001902e-04
5.60377358490566e-01 6.13766795317706e-01 4.63757145504583e-04
5.64150943396226e-01 6.13738915467841e-01 4.72069056599504e-04
5.67924528301887e-01 6.13710622796602e-01 4.80369765596146e-04
5.71698113207547e-01 6.13681920110709e-01 4.88655467997022e-04
5.75471698113208e-01 6.13652810399781e-01 4.96922560585991e-04
5.79245283018868e-01 6.13623296823010e-01 5.05167632343217e-04
5.83018867924528e-01 6.13593382696615e-01 5.13387451883192e-04
5.86792452830189e-01 6.13563071482400e-01 5.21578952364222e-04
5.90566037735849e-01 6.13532366777355e-01 5.29739221480293e-04
5.94339622641509e-01 6.13501272303696e-01 5.37865513652458e-04
5.98113207547170e-01 6.13469791897218e-01 5.45955269460470e-04
6.01886792452830e-01 6.13437929495256e-01 5.54191536042349e-04
6.05660377358491e-01 6.13405667671708e-01 5.63104389278402e-04
6.09433962264151e-01 6.13372949285120e-01 5.73183053400051e-04
6.13207547169811e-01 6.13339701183686e-01 5.84536492821622e-04
6.16981132075472e-01 6.13305854735266e-01 5.97097170980547e-04
6.20754716981132e-01 6.13271345616307e-01 6.10800279173268e-04
6.24528301886792e-01 6.13236113610311e-01 6.25583629021732e-04
6.28301886792453e-01 6.13200102415414e-01 6.41387549371068e-04
6.32075471698113e-01 6.13163259460641e-01 6.58154787340540e-04
6.35849056603774e-01 6.13125535730448e-01 6.75830413261276e-04
6.39622641509434e-01 6.13086885597170e-01 6.94361729356899e-04
6.43396226415094e-01 6.13047266661010e-01 7.13698181966409e-04
6.47169811320755e-01 6.13006639597247e-01 7.33791277178761e-04
6.50943396226415e-01 6.12964968010318e-01 7.54594499732344e-04
6.54716981132075e-01 6.12922218294477e-01 7.76063235059074e-04
6.58490566037736e-01 6.12878359500732e-01 7.98154694340456e-04
6.62264150943396e-01 6.12833363209782e-01 8.20827842440566e-04
6.66037735849057e-01 6.12787203410682e-01 8.44043328632929e-04
6.69811320754717e-01 6.12739856384981e-01 8.67763419931434e-04
6.73584905660377e-01 6.12691300596102e-01 8.91951936750651e-04
6.77358490566038e-01 6.12641516583740e-01 9.16574190318807e-04
6.81132075471698e-01 6.12590486863127e-01 9.41596920661770e-04
6.84905660377358e-01 6.12538195829100e-01 9.66988233667031e-04
6.88679245283019e-01 6.12484629664973e-01 9.92717540147069e-04
6.92452830188679e-01 6.12429776255819e-01 1.01875551331856e-03
6.96226415094340e-01 6.12373625104226e-01 1.04507405196937e-03
7.00000000000000e-01 6.12316167249783e-01 1.07195359391721e-03
7.03773584905660e-01 6.12257362619703e-01 1.10026595904488e-03
7.07547169811321e-01 6.12197109041459e-01 1.13083680099349e-03
7.11320754716981e-01 6.12135277552856e-01 1.16385008642548e-03
7.15094339622641e-01 6.12071746933532e-01 1.19917987387187e-03
7.18867924528302e-01 6.12006403398539e-01 1.23670445055760e-03
7.22641509433962e-01 6.11939140303370e-01 1.27630619815171e-03
7.26415094339623e-01 6.11869857859960e-01 1.31787146282221e-03
7.30188679245283e-01 6.11798462863262e-01 1.36129042934149e-03
7.33962264150943e-01 6.11724868428016e-01 1.40645699897363e-03
7.37735849056604e-01 6.11648993735324e-01 1.45326867098373e-03
7.41509433962264e-01 6.11570763788689e-01 1.50162642761990e-03
7.45283018867925e-01 6.11490109179186e-01 1.55143462246384e-03
7.49056603773585e-01 6.11406965859412e-01 1.60260087206457e-03
7.52830188679245e-01 6.11321274925927e-01 1.65503595072213e-03
7.56603773584906e-01 6.11232982409872e-01 1.70865368835921e-03
7.60377358490566e-01 6.11142039075464e-01 1.76337087135714e-03
7.64150943396226e-01 6.11048400226108e-01 1.81910714625571e-03
7.67924528301887e-01 6.10952025517829e-01 1.87578492625813e-03
7.71698113207547e-01 6.10852878779796e-01 1.93332930036748e-03
7.75471698113208e-01 6.10750927841664e-01 1.99166794470968e-03
7.79245283018868e-01 6.10646144367559e-01 2.05073103509334e-03
7.83018867924528e-01 6.10538503696565e-01 2.11045115894331e-03
7.86792452830189e-01 6.10427984689742e-01 2.17076322798463e-03
7.90566037735849e-01 6.10314569583361e-01 2.23160439826287e-03
7.94339622641509e-01 6.10198243847667e-01 2.29291401349253e-03
7.98113207547170e-01 6.10078996049068e-01 2.35463355891517e-03
8.01886792452830e-01 6.09956817716532e-01 2.41644874721793e-03
8.05660377358491e-01 6.09831729599826e-01 2.47775938658485e-03
8.09433962264151e-01 6.09703784350383e-01 2.53820464493169e-03
8.13207547169811e-01 6.09573038959146e-01 2.59774137855226e-03
8.16981132075472e-01 6.09439549722252e-01 2.65637578458866e-03
8.20754716981132e-01 6.09303372242489e-01 2.71411419004907e-03
8.24528301886792e-01 6.09164561430389e-01 2.77096305692214e-03
8.28301886792453e-01 6.09023171505004e-01 2.82692898648766e-03
8.32075471698113e-01 6.08879255994405e-01 2.88201872297275e-03
8.35849056603774e-01 6.08732867735948e-01 2.93623915661875e-03
8.39622641509434e-01 6.08584058876324e-01 2.98959732621940e-03
8.43396226415094e-01 6.08432880871432e-01 3.04210042120249e-03
8.47169811320755e-01 6.08279384486097e-01 3.09375578326467e-03
8.50943396226415e-01 6.08123619793659e-01 3.14457090757672e-03
8.54716981132076e-01 6.07965636175451e-01 3.19455344361666e-03
8.58490566037736e-01 6.07805482320191e-01 3.24371119567064e-03
8.62264150943396e-01 6.07643206223307e-01 3.29205212301384e-03
8.66037735849057e-01 6.07478855186198e-01 3.33958433979894e-03
8.69811320754717e-01 6.07312475815473e-01 3.38631611466453e-03
8.73584905660377e-01 6.07144114022148e-01 3.43225586989385e-03
8.77358490566038e-01 6.06973815020873e-01 3.47741217958486e-03
8.81132075471698e-01 6.06801623329228e-01 3.52179376586948e-03
8.84905660377359e-01 6.06627582767257e-01 3.56540949284328e-03
8.88679245283019e-01 6.06451736457322e-01 3.60826836629897e-03
8.92452830188679e-01 6.06274126823506e-01 3.65037953549858e-03
8.96226415094340e-01 6.06094795591175e-01 3.69175231440314e-03
9.00000000000000e-01 6.05913783783881e-01 3.73238204883737e-03
9.03773584905660e-01 6.05731133100635e-01 3.77253318625583e-03
9.07547169811321e-01 6.05546858368229e-01 3.81275659383296e-03
9.11320754716981e-01 6.05360947465695e-01 3.85331956370999e-03
9.15094339622642e-01 6.05173389263131e-01 3.89420276784294e-03
9.18867924528302e-01 6.04984173596064e-01 3.93538726238443e-03
9.22641509433962e-01 6.04793291240027e-01 3.97685448830334e-03
9.26415094339623e-01 6.04600733885393e-01 4.01858627179804e-03
9.30188679245283e-01 6.04406494112445e-01 4.06056482453542e-03
9.33962264150943e-01 6.04210565366696e-01 4.10277274359346e-03
9.37735849056604e-01 6.04012941934478e-01 4.14519301112237e-03
9.41509433962264e-01 6.03813618918786e-01 4.18780899371648e-03
9.45283018867925e-01 6.03612592215417e-01 4.23060444147020e-03
9.49056603773585e-01 6.03409858489384e-01 4.27356348677974e-03
9.52830188679245e-01 6.03205415151633e-01 4.31667064288288e-03
9.56603773584906e-01 6.02999260336056e-01 4.35991080215856e-03
9.60377358490566e-01 6.02791392876819e-01 4.40326923414579e-03
9.64150943396226e-01 6.02581812286003e-01 4.44673158337509e-03
9.67924528301887e-01 6.02370518731565e-01 4.49028386695885e-03
9.71698113207547e-01 6.02157513015628e-01 4.53391247169159e-03
9.75471698113208e-01 6.01942796553131e-01 4.57760414990216e-03
9.79245283018868e-01 6.01726371350929e-01 4.62134601181741e-03
9.83018867924528e-01 6.01508239987617e-01 4.66512551194115e-03
9.86792452830189e-01 6.01288405594413e-01 4.70893042974952e-03
9.90566037735849e-01 6.01066871837328e-01 4.75274887161567e-03
9.94339622641509e-01 6.00843642898020e-01 4.79656931320088e-03
9.98113207547170e-01 6.00618723451633e-01 4.84038064225616e-03
1.00188679245283e+00 6.00392118643385e-01 4.88609130650529e-03
1.00566037735849e+00 6.00163641410254e-01 4.93710544760315e-03
1.00943396226415e+00 5.99932980677556e-01 4.99595735794884e-03
1.01320754716981e+00 5.99699729993838e-01 5.06354077879579e-03
1.01698113207547e+00 5.99463498604726e-01 5.13955786191453e-03
1.02075471698113e+00 5.99223911154016e-01 5.22371499925345e-03
1.02452830188679e+00 5.98980607386025e-01 5.31572286092270e-03
1.02830188679245e+00 5.98733241849064e-01 5.41529643481110e-03
1.03207547169811e+00 5.98481483599937e-01 5.52215506715350e-03
1.03584905660377e+00 5.98225015909411e-01 5.63602250339454e-03
1.03962264150943e+00 5.97963535968617e-01 5.75662692900970e-03
1.04339622641509e+00 5.97696754596350e-01 5.88370101000890e-03
1.04716981132075e+00 5.97424395947275e-01 6.01698193293175e-03
1.05094339622642e+00 5.97146197221005e-01 6.15621144424805e-03
1.05471698113208e+00 5.96861908372078e-01 6.30113588893321e-03
1.05849056603774e+00 5.96571291820828e-01 6.45150624809530e-03
1.06226415094340e+00 5.96274122165160e-01 6.60707817555676e-03
1.06603773584906e+00 5.95970185893275e-01 6.76761203321187e-03
1.06981132075472e+00 5.95659281097336e-01 6.93287292513685e-03
1.07358490566038e+00 5.95341217188140e-01 7.10263073028186e-03
1.07735849056604e+00 5.95015814610804e-01 7.27666013365105e-03
1.08113207547170e+00 5.94682904561524e-01 7.45474065593545e-03
1.08490566037736e+00 5.94342328705446e-01 7.63665668132842e-03
1.08867924528302e+00 5.93993938895695e-01 7.82219748326253e-03
1.09245283018868e+00 5.93637596893653e-01 8.01115724755335e-03
1.09622641509434e+00 5.93273174090577e-01 8.20333509351265e-03
1.10000000000000e+00 5.92900551230569e-01 8.39997802905493e-03
1.10377358490566e+00 5.92519464746777e-01 8.60261826273544e-03
1.10754716981132e+00 5.92129633160318e-01 8.81014294854957e-03
1.11132075471698e+00 5.91730915825418e-01 9.02117206329636e-03
1.11509433962264e+00 5.91323179803909e-01 9.23554377604295e-03
1.11886792452830e+00 5.90906299687198e-01 9.45309934672778e-03
1.12264150943396e+00 5.90480157419469e-01 9.67368312936694e-03
1.12641509433962e+00 5.90044642122172e-01 9.89714257304209e-03
1.13018867924528e+00 5.89599649919899e-01 1.01233282203881e-02
1.13396226415094e+00 5.89145083767718e-01 1.03520937038840e-02
1.13773584905660e+00 5.88680853280035e-01 1.05832957401480e-02
1.14150943396226e+00 5.88206874561063e-01 1.08167941223703e-02
1.14528301886792e+00 5.87723070036914e-01 1.10524517110222e-02
1.14905660377358e+00 5.87229368289413e-01 1.12901344228586e-02
1.15283018867925e+00 5.86725703891639e-01 1.15297112183544e-02
1.15660377358491e+00 5.86212017245270e-01 1.17710540876138e-02
1.16037735849057e+00 5.85688254419748e-01 1.20140380348583e-02
1.16415094339623e+00 5.85154366993319e-01 1.22585410615774e-02
1.16792452830189e+00 5.84610311895969e-01 1.25044441483772e-02
1.17169811320755e+00 5.84056051254292e-01 1.27516312356400e-02
1.17547169811321e+00 5.83491552238321e-01 1.29999892030517e-02
1.17924528301887e+00 5.82916786910328e-01 1.32494078480430e-02
1.18301886792453e+00 5.82331732075649e-01 1.34997798630971e-02
1.18679245283019e+00 5.81736369135524e-01 1.37510008115520e-02
1.19056603773585e+00 5.81130683942038e-01 1.40029691009841e-02
