Energy (eV)          EEDF (eV^-(3/2))     First Anisotropy
3.87837837837838e-02 4.69498179292479e-02 2.89289818294286e-05
1.16351351351351e-01 4.65131916631765e-02 4.77082303983108e-05
1.93918918918919e-01 4.60806259564587e-02 6.28169198392173e-05
2.71486486486486e-01 4.56520830449318e-02 7.41961769877880e-05
3.49054054054054e-01 4.52275255192554e-02 8.36050977013010e-05
4.26621621621622e-01 4.48069163143813e-02 9.17111724372162e-05
5.04189189189189e-01 4.43902187125608e-02 9.88610113833366e-05
5.81756756756757e-01 4.39773963356023e-02 1.05264621194129e-04
6.59324324324324e-01 4.35684131445302e-02 1.11061740243651e-04
7.36891891891892e-01 4.31632334361903e-02 1.16351454627733e-04
8.14459459459459e-01 4.27618218381363e-02 1.21207349840069e-04
8.92027027027027e-01 4.23641433080309e-02 1.25686035328861e-04
9.69594594594595e-01 4.19701631284264e-02 1.29832290749620e-04
1.04716216216216e+00 4.15798469048316e-02 1.33682346734165e-04
1.12472972972973e+00 4.11931605627286e-02 1.37266069690202e-04
1.20229729729730e+00 4.08100703482243e-02 1.40608470914682e-04
1.27986486486486e+00 4.04305428144836e-02 1.43730778558366e-04
1.35743243243243e+00 4.00545448291764e-02 1.46651219303097e-04
1.43500000000000e+00 3.96820435680997e-02 1.49385602268024e-04
1.51256756756757e+00 3.93130065148379e-02 1.51947762612038e-04
1.59013513513514e+00 3.89474014502279e-02 1.54349903378564e-04
1.66770270270270e+00 3.85851964573379e-02 1.56602863401641e-04
1.74527027027027e+00 3.82263599160511e-02 1.58716331131052e-04
1.82283783783784e+00 3.78708605023199e-02 1.60699016488377e-04
1.90040540540541e+00 3.75186671793418e-02 1.62558789735663e-04
1.97797297297297e+00 3.71697492010054e-02 1.64302795325768e-04
2.05554054054054e+00 3.68240761071224e-02 1.65937547013322e-04
2.13310810810811e+00 3.64816177224235e-02 1.67469007186707e-04
2.21067567567568e+00 3.61423441489476e-02 1.68902652869047e-04
2.28824324324324e+00 3.58062257684571e-02 1.70243531523769e-04
2.36581081081081e+00 3.54732332381476e-02 1.71496309375547e-04
2.44337837837838e+00 3.51433374894757e-02 1.72665312785229e-04
2.52094594594595e+00 3.48165097214581e-02 1.73754563270537e-04
2.59851351351351e+00 3.44927214023587e-02 1.74767807786180e-04
2.67608108108108e+00 3.41719442657705e-02 1.75708545779341e-04
2.75364864864865e+00 3.38541503093331e-02 1.76580052809198e-04
2.83121621621622e+00 3.35393117887452e-02 1.77385400705244e-04
2.90878378378378e+00 3.32274012189166e-02 1.78127475292665e-04
2.98635135135135e+00 3.29183913703528e-02 1.78808992858721e-04
3.06391891891892e+00 3.26122552667993e-02 1.79432514031284e-04
3.14148648648649e+00 3.23089661838538e-02 1.80000456856729e-04
3.21905405405405e+00 3.20084976436638e-02 1.80515107810138e-04
3.29662162162162e+00 3.17108234156125e-02 1.80978631631487e-04
3.37418918918919e+00 3.14159175130299e-02 1.81393080750039e-04
3.45175675675676e+00 3.11237541917737e-02 1.81760403749962e-04
3.52932432432432e+00 3.08343079453855e-02 1.82082452531675e-04
3.60689189189189e+00 3.05475535054841e-02 1.82360988771712e-04
3.68445945945946e+00 3.02634658386835e-02 1.82597690323907e-04
3.76202702702703e+00 2.99820201451596e-02 1.82794157017773e-04
3.83959459459459e+00 2.97031918541964e-02 1.82951915494711e-04
3.91716216216216e+00 2.94269566243495e-02 1.83072423604201e-04
3.99472972972973e+00 2.91532903405477e-02 1.83157074923392e-04
4.07229729729730e+00 2.88821691126577e-02 1.83207202877945e-04
4.14986486486487e+00 2.86135692713658e-02 1.83224084110098e-04
4.22743243243243e+00 2.83474673681612e-02 1.83208941559156e-04
4.30500000000000e+00 2.80838401726009e-02 1.83162947759646e-04
4.38256756756757e+00 2.78226646708818e-02 1.83087227863785e-04
4.46013513513514e+00 2.75639180620156e-02 1.82982862047608e-04
4.53770270270270e+00 2.73075777576688e-02 1.82850887722376e-04
4.61527027027027e+00 2.70536213795757e-02 1.82692302010876e-04
4.69283783783784e+00 2.68020267581244e-02 1.82508064025579e-04
4.77040540540541e+00 2.65527719287906e-02 1.82299096624443e-04
4.84797297297297e+00 2.63058351318639e-02 1.82066288030730e-04
4.92554054054054e+00 2.60611948099948e-02 1.81810493738912e-04
5.00310810810811e+00 2.58188296068012e-02 1.81532538273125e-04
5.08067567567568e+00 2.55787183635317e-02 1.81233216491366e-04
5.15824324324324e+00 2.53408401187021e-02 1.80913294792151e-04
5.23581081081081e+00 2.51051741057653e-02 1.80573512613637e-04
5.31337837837838e+00 2.48716997517415e-02 1.80214583819549e-04
5.39094594594595e+00 2.46403966740887e-02 1.79837197682478e-04
5.46851351351351e+00 2.44112446802669e-02 1.79442019795464e-04
5.54608108108108e+00 2.41842237655220e-02 1.79029693273926e-04
5.62364864864865e+00 2.39593141115427e-02 1.78600839868371e-04
5.70121621621622e+00 2.37364960835178e-02 1.78156060714996e-04
5.77878378378378e+00 2.35157502296440e-02 1.77695937032392e-04
5.85635135135135e+00 2.32970572790150e-02 1.77221031175225e-04
5.93391891891892e+00 2.30803981399424e-02 1.76731887247512e-04
6.01148648648649e+00 2.28657538986460e-02 1.76229032049864e-04
6.08905405405405e+00 2.26531058165178e-02 1.75712975621147e-04
6.16662162162162e+00 2.24424353295794e-02 1.75184211741632e-04
6.24418918918919e+00 2.22337240464954e-02 1.74643218710103e-04
6.32175675675676e+00 2.20269537472952e-02 1.74090460063940e-04
6.39932432432432e+00 2.18221063807896e-02 1.73526385000952e-04
6.47689189189189e+00 2.16191640639953e-02 1.72951428771060e-04
6.55445945945946e+00 2.14181090802385e-02 1.72366013330398e-04
6.63202702702703e+00 2.12189238779089e-02 1.71770547947302e-04
6.70959459459459e+00 2.10215910680169e-02 1.71165429532809e-04
6.78716216216216e+00 2.08260934235928e-02 1.70551042947239e-04
6.86472972972973e+00 2.06324138778754e-02 1.69927761557128e-04
6.94229729729730e+00 2.04405355230987e-02 1.69295947751017e-04
7.01986486486487e+00 2.02504416081789e-02 1.68655953199568e-04
7.09743243243243e+00 2.00621155380948e-02 1.68008119096345e-04
7.17500000000000e+00 1.98755408721568e-02 1.67352776637016e-04
7.25256756756757e+00 1.96907013228264e-02 1.66690247462774e-04
7.33013513513514e+00 1.95075807535227e-02 1.66020843865653e-04
7.40770270270270e+00 1.93261631779914e-02 1.65344868977992e-04
7.48527027027027e+00 1.91464327586476e-02 1.64662617188560e-04
7.56283783783784e+00 1.89683738054293e-02 1.63974374527259e-04
7.64040540540541e+00 1.87919707737154e-02 1.63280418827329e-04
7.71797297297297e+00 1.86172082636863e-02 1.62581019874474e-04
7.79554054054054e+00 1.84440710187378e-02 1.61876439771194e-04
7.87310810810811e+00 1.82725439243680e-02 1.61166933273246e-04
7.95067567567568e+00 1.81026120061990e-02 1.60452747917720e-04
8.02824324324324e+00 1.79342604293334e-02 1.59734124140170e-04
8.10581081081081e+00 1.77674744968353e-02 1.59011295595959e-04
8.18337837837838e+00 1.76022396486503e-02 1.58284489456720e-04
8.26094594594595e+00 1.74385414597241e-02 1.57553926511183e-04
8.33851351351351e+00 1.72763656393578e-02 1.56819821256742e-04
8.41608108108108e+00 1.71156980297533e-02 1.56082382184808e-04
8.49364864864865e+00 1.69565246049653e-02 1.55341812043695e-04
8.57121621621622e+00 1.67988314691110e-02 1.54598307917632e-04
8.64878378378378e+00 1.66426048557270e-02 1.53852061297751e-04
8.72635135135135e+00 1.64878311263753e-02 1.53103258379690e-04
8.80391891891892e+00 1.63344967694538e-02 1.52352080127038e-04
8.88148648648649e+00 1.61825883991872e-02 1.51598702546414e-04
8.95905405405405e+00 1.60320927539416e-02 1.50843296744344e-04
9.03662162162162e+00 1.58829966955870e-02 1.50086028977583e-04
9.11418918918919e+00 1.57352872081766e-02 1.49327060876702e-04
9.19175675675676e+00 1.55889513969691e-02 1.48566549651470e-04
9.26932432432432e+00 1.54439764868217e-02 1.47804648134170e-04
9.34689189189189e+00 1.53003498215596e-02 1.47041504817232e-04
9.42445945945946e+00 1.51580588627089e-02 1.46277264055237e-04
9.50202702702703e+00 1.50170911885495e-02 1.45512066250233e-04
9.57959459459459e+00 1.48774344925833e-02 1.44746047884023e-04
9.65716216216216e+00 1.47390765829106e-02 1.43979341545472e-04
9.73472972972973e+00 1.46020053810148e-02 1.43212076113789e-04
9.81229729729730e+00 1.44662089208457e-02 1.42444376926431e-04
9.88986486486487e+00 1.43316753473576e-02 1.41676365802408e-04
9.96743243243243e+00 1.41983929158945e-02 1.40908160992603e-04
1.00450000000000e+01 1.40663499912853e-02 1.40139877689740e-04
1.01225675675676e+01 1.39355350456517e-02 1.39371627732876e-04
1.02001351351351e+01 1.38059366589853e-02 1.38603519219638e-04
1.02777027027027e+01 1.36775435187325e-02 1.37835658014477e-04
1.03552702702703e+01 1.35503444150290e-02 1.37068146980240e-04
1.04328378378378e+01 1.34243282435247e-02 1.36301085051772e-04
1.05104054054054e+01 1.32994840043272e-02 1.35534569302492e-04
1.05879729729730e+01 1.31758007974508e-02 1.34768694029512e-04
1.06655405405405e+01 1.30532678254789e-02 1.34003549859350e-04
1.07431081081081e+01 1.29318743925401e-02 1.33239225730699e-04
1.08206756756757e+01 1.28116098999601e-02 1.32475808012218e-04
1.08982432432432e+01 1.26924638487718e-02 1.31713379639329e-04
1.09758108108108e+01 1.25744258387232e-02 1.30952022017305e-04
1.10533783783784e+01 1.24574855641210e-02 1.30191814170590e-04
1.11309459459459e+01 1.23416328161984e-02 1.29432831909629e-04
1.12085135135135e+01 1.22268574821531e-02 1.28675149658135e-04
1.12860810810811e+01 1.21131495411731e-02 1.27918839632810e-04
1.13636486486486e+01 1.20004990666703e-02 1.27163971039165e-04
1.14412162162162e+01 1.18888962253485e-02 1.26410611826636e-04
1.15187837837838e+01 1.17783312734008e-02 1.25658827897555e-04
1.15963513513514e+01 1.16687945586185e-02 1.24908682330984e-04
1.16739189189189e+01 1.15602765194869e-02 1.24160237069131e-04
1.17514864864865e+01 1.14527676815459e-02 1.23413552154213e-04
1.18290540540541e+01 1.13462586593827e-02 1.22668684979684e-04
1.19066216216216e+01 1.12407401557527e-02 1.21925691911130e-04
1.19841891891892e+01 1.11362029580966e-02 1.21184627549687e-04
1.20617567567568e+01 1.10326379404227e-02 1.20445544009916e-04
1.21393243243243e+01 1.09300360624533e-02 1.19708492478105e-04
1.22168918918919e+01 1.08283883662895e-02 1.18973522501305e-04
1.22944594594595e+01 1.07276859781901e-02 1.18240681290877e-04
1.23720270270270e+01 1.06279201077426e-02 1.17510015221025e-04
1.24495945945946e+01 1.05290820446683e-02 1.16781569142522e-04
1.25271621621622e+01 1.04311631605039e-02 1.16055385710976e-04
1.26047297297297e+01 1.03341549077971e-02 1.15331506828253e-04
1.26822972972973e+01 1.02380488170434e-02 1.14609972980015e-04
1.27598648648649e+01 1.01428364982783e-02 1.13890822587786e-04
1.28374324324324e+01 1.00485096402943e-02 1.13174093395793e-04
1.29150000000000e+01 9.95506000770568e-03 1.12459821831441e-04
1.29925675675676e+01 9.86247944245396e-03 1.11748042589660e-04
1.30701351351351e+01 9.77075986234925e-03 1.11038789128093e-04
1.31477027027027e+01 9.67989326105538e-03 1.10332094098487e-04
1.32252702702703e+01 9.58987170530502e-03 1.09627988957426e-04
1.33028378378378e+01 9.50068733630689e-03 1.08926503367441e-04
1.33804054054054e+01 9.41233236901503e-03 1.08227666470886e-04
1.34579729729730e+01 9.32479908945687e-03 1.07531506298786e-04
1.35355405405405e+01 9.23807985606485e-03 1.06838049192642e-04
1.36131081081081e+01 9.15216709896730e-03 1.06147321030895e-04
1.36906756756757e+01 9.06705331742415e-03 1.05459346658588e-04
1.37682432432432e+01 8.98273108108732e-03 1.04774149329103e-04
1.38458108108108e+01 8.89919302931252e-03 1.04091751885224e-04
1.39233783783784e+01 8.81643186869754e-03 1.03412176208836e-04
1.40009459459459e+01 8.73444037427551e-03 1.02735442681874e-04
1.40785135135135e+01 8.65321138884690e-03 1.02061571323870e-04
1.41560810810811e+01 8.57273782061576e-03 1.01390581260968e-04
1.42336486486486e+01 8.49301264431948e-03 1.00722490205364e-04
1.43112162162162e+01 8.41402890058055e-03 1.00057315551155e-04
1.43887837837838e+01 8.33577969363603e-03 9.93950738619327e-05
1.44663513513514e+01 8.25825819240765e-03 9.87357803680629e-05
1.45439189189189e+01 8.18145762987245e-03 9.80794500225866e-05
1.46214864864865e+01 8.10537130088132e-03 9.74260970065342e-05
1.46990540540541e+01 8.02999256317311e-03 9.67757342435951e-05
1.47766216216216e+01 7.95531483676300e-03 9.61283744176935e-05
1.48541891891892e+01 7.88133160184645e-03 9.54840294952054e-05
1.49317567567568e+01 7.80803639976037e-03 9.48427102565129e-05
1.50093243243243e+01 7.73542283238865e-03 9.42044272767797e-05
1.50868918918919e+01 7.66348456014777e-03 9.35691904644427e-05
1.51644594594595e+01 7.59221530289785e-03 9.29370086090357e-05
1.52420270270270e+01 7.52160883936496e-03 9.23078903266307e-05
1.53195945945946e+01 7.45165900520465e-03 9.16818436140334e-05
1.53971621621622e+01 7.38235969386575e-03 9.10588754122695e-05
1.54747297297297e+01 7.31370485602883e-03 9.04389925181011e-05
1.55522972972973e+01 7.24568849774436e-03 8.98222011533706e-05
1.56298648648649e+01 7.17830468125169e-03 8.92085065435536e-05
1.57074324324324e+01 7.11154752443336e-03 8.85979137967098e-05
1.57850000000000e+01 7.04541119902446e-03 8.79904274874183e-05
1.58625675675676e+01 6.97988993138936e-03 8.73860513839916e-05
1.59401351351351e+01 6.91497800158630e-03 8.67847887583222e-05
1.60177027027027e+01 6.85066974326879e-03 8.61866426558309e-05
1.60952702702703e+01 6.78695954198080e-03 8.55916156396542e-05
1.61728378378378e+01 6.72384183588474e-03 8.49997094006280e-05
1.62504054054054e+01 6.66131111525121e-03 8.44109255679705e-05
1.63279729729730e+01 6.59936192081860e-03 8.38252653242150e-05
1.64055405405405e+01 6.53798884448332e-03 8.32427290283441e-05
1.64831081081081e+01 6.47718652880440e-03 8.26633169978175e-05
1.65606756756757e+01 6.41694966542455e-03 8.20870291366999e-05
1.66382432432432e+01 6.35727299572487e-03 8.15138645714910e-05
1.67158108108108e+01 6.29815131034371e-03 8.09438224056101e-05
1.67933783783784e+01 6.23957944765670e-03 8.03769013602407e-05
1.68709459459459e+01 6.18155229439775e-03 7.98130994224025e-05
1.69485135135135e+01 6.12406478519174e-03 7.92524145729404e-05
1.70260810810811e+01 6.06711190109112e-03 7.86948444396305e-05
1.71036486486486e+01 6.01068867016491e-03 7.81403859570517e-05
1.71812162162162e+01 5.95479016704492e-03 7.75890360691053e-05
1.72587837837838e+01 5.89941151151640e-03 7.70407913939316e-05
1.73363513513514e+01 5.84454786907688e-03 7.64956478951596e-05
1.74139189189189e+01 5.79019445049540e-03 7.59536015599500e-05
1.74914864864865e+01 5.73634651045504e-03 7.54146480752116e-05
1.75690540540541e+01 5.68299934808329e-03 7.48787825099253e-05
1.76466216216216e+01 5.63014830652364e-03 7.43459999696345e-05
1.77241891891892e+01 5.57778877162807e-03 7.38162952834648e-05
1.78017567567568e+01 5.52591617246040e-03 7.32896626972101e-05
1.78793243243243e+01 5.47452598087985e-03 7.27660965051329e-05
1.79568918918919e+01 5.42361371028143e-03 7.22455907473962e-05
1.80344594594595e+01 5.37317491607374e-03 7.17281389135297e-05
1.81120270270270e+01 5.32320519527412e-03 7.12137345523893e-05
1.81895945945946e+01 5.27370018529501e-03 7.07023709796424e-05
1.82671621621622e+01 5.22465556439749e-03 7.01940409912417e-05
1.83447297297297e+01 5.17606705129775e-03 6.96887374523500e-05
1.84222972972973e+01 5.12793040399752e-03 6.91864530145372e-05
1.84998648648649e+01 5.08024142021459e-03 6.86871798388945e-05
1.85774324324324e+01 5.03299593700034e-03 6.81909101647101e-05
1.86550000000000e+01 4.98618982961238e-03 6.76976360360341e-05
1.87325675675676e+01 4.93981901192337e-03 6.72073491214718e-05
1.88101351351351e+01 4.89387943580628e-03 6.67200409130307e-05
1.88877027027027e+01 4.84836709102133e-03 6.62357028994120e-05
1.89652702702703e+01 4.80327800414028e-03 6.57543263968240e-05
1.90428378378378e+01 4.75860823892989e-03 6.52759022923717e-05
1.91204054054054e+01 4.71435389599403e-03 6.48004215699307e-05
1.91979729729730e+01 4.67051111173653e-03 6.43278750567178e-05
1.92755405405405e+01 4.62707605872508e-03 6.38582531751624e-05
1.93531081081081e+01 4.58404494534358e-03 6.33915464508282e-05
1.94306756756757e+01 4.54141401479191e-03 6.29277452674562e-05
1.95082432432432e+01 4.49917954543133e-03 6.24668396270099e-05
1.95858108108108e+01 4.45733785044677e-03 6.20088196403079e-05
1.96633783783784e+01 4.41588527688206e-03 6.15536752902432e-05
1.97409459459459e+01 4.37481820596785e-03 6.11013961997062e-05
1.98185135135135e+01 4.33413305279340e-03 6.06519721055724e-05
1.98960810810811e+01 4.29382626537606e-03 6.02053926298101e-05
1.99736486486486e+01 4.25389432497241e-03 5.97616470549989e-05
2.00512162162162e+01 4.21433374575950e-03 5.93207247822779e-05
2.01287837837838e+01 4.17514107393703e-03 5.88826151100564e-05
2.02063513513514e+01 4.13631288802275e-03 5.84473070168902e-05
2.02839189189189e+01 4.09784579854269e-03 5.80147896039617e-05
2.03614864864865e+01 4.05973644716495e-03 5.75850518810857e-05
2.04390540540541e+01 4.02198150698009e-03 5.71580825567501e-05
2.05166216216216e+01 3.98457768220007e-03 5.67338704656813e-05
2.05941891891892e+01 3.94752170732240e-03 5.63124043618387e-05
2.06717567567568e+01 3.91081034739642e-03 5.58936727154055e-05
2.07493243243243e+01 3.87444039773053e-03 5.54776641259766e-05
2.08268918918919e+01 3.83840868308568e-03 5.50643671222931e-05
2.09044594594595e+01 3.80271205792813e-03 5.46537699659477e-05
2.09820270270270e+01 3.76734740614487e-03 5.42458610507033e-05
2.10595945945946e+01 3.73231164026522e-03 5.38406287087454e-05
2.11371621621622e+01 3.69760170170080e-03 5.34380610208603e-05
2.12147297297297e+01 3.66321456046890e-03 5.30381462023743e-05
2.12922972972973e+01 3.62914721444110e-03 5.26408724157135e-05
2.13698648648649e+01 3.59539668957115e-03 5.22462275868223e-05
2.14474324324324e+01 3.56196003962598e-03 5.18541997782028e-05
2.15250000000000e+01 3.52883434546044e-03 5.14647770075649e-05
2.16025675675676e+01 3.49601671523357e-03 5.10779471278641e-05
2.16801351351351e+01 3.46350428399806e-03 5.06936979569841e-05
2.17577027027027e+01 3.43129421359772e-03 5.03120173907586e-05
2.18352702702703e+01 3.39938369197420e-03 4.99328932902332e-05
2.19128378378378e+01 3.36776993336984e-03 4.95563133113262e-05
2.19904054054054e+01 3.33645017807606e-03 4.91822652504076e-05
2.20679729729730e+01 3.30542169176390e-03 4.88107368760141e-05
2.21455405405405e+01 3.27468176567650e-03 4.84417157640179e-05
2.22231081081081e+01 3.24422771638459e-03 4.80751896317122e-05
2.23006756756757e+01 3.21405688514000e-03 4.77111461750430e-05
2.23782432432432e+01 3.18416663805830e-03 4.73495729090940e-05
2.24558108108108e+01 3.15455436588120e-03 4.69904574910942e-05
2.25333783783784e+01 3.12521748335212e-03 4.66337875629685e-05
2.26109459459459e+01 3.09615342938953e-03 4.62795505969687e-05
2.26885135135135e+01 3.06735966685600e-03 4.59277342079864e-05
2.27660810810811e+01 3.03883368195513e-03 4.55783260012330e-05
2.28436486486486e+01 3.01057298439592e-03 4.52313134228457e-05
2.29212162162162e+01 2.98257510716842e-03 4.48866840618758e-05
2.29987837837838e+01 2.95483760596108e-03 4.45444255029336e-05
2.30763513513514e+01 2.92735805931677e-03 4.42045251816038e-05
2.31539189189189e+01 2.90013406841465e-03 4.38669706764680e-05
2.32314864864865e+01 2.87316325650736e-03 4.35317495665169e-05
2.33090540540541e+01 2.84644326906899e-03 4.31988492912447e-05
2.33866216216216e+01 2.81997177358309e-03 4.28682574330573e-05
2.34641891891892e+01 2.79374645899888e-03 4.25399615792629e-05
2.35417567567568e+01 2.76776503587164e-03 4.22139491866998e-05
2.36193243243243e+01 2.74202523615664e-03 4.18902078548621e-05
2.36968918918919e+01 2.71652481268370e-03 4.15687251923134e-05
2.37744594594595e+01 2.69126153929043e-03 4.12494886857079e-05
2.38520270270270e+01 2.66623321062178e-03 4.09324859639465e-05
2.39295945945946e+01 2.64143764162243e-03 4.06177046688598e-05
2.40071621621622e+01 2.61687266766310e-03 4.03051323284696e-05
2.40847297297297e+01 2.59253614434571e-03 3.99947566124897e-05
2.41622972972973e+01 2.56842594701283e-03 3.96865652071467e-05
2.42398648648649e+01 2.54453997086746e-03 3.93805456925342e-05
2.43174324324324e+01 2.52087613078362e-03 3.90766857897492e-05
2.43950000000000e+01 2.49743236083228e-03 3.87749732397084e-05
2.44725675675676e+01 2.47420661439489e-03 3.84753957227626e-05
