Energy (eV)          EEDF (eV^-(3/2))     First Anisotropy
1.07526881720430e-03 6.15152704188315e-01 2.81343362509123e-08
3.22580645161290e-03 6.15152685114382e-01 8.31994415708033e-08
5.37634408602151e-03 6.15152638994124e-01 2.00824593441776e-07
7.52688172043011e-03 6.15152563119650e-01 3.51120728369071e-07
9.67741935483871e-03 6.15152458585391e-01 5.21705453047156e-07
1.18279569892473e-02 6.15152326542157e-01 7.13198946507380e-07
1.39784946236559e-02 6.15152165829944e-01 9.25114713869345e-07
1.61290322580645e-02 6.15151976957721e-01 1.14319080964542e-06
1.82795698924731e-02 6.15151763359252e-01 1.36002120299299e-06
2.04301075268817e-02 6.15151526859229e-01 1.57742658803296e-06
2.25806451612903e-02 6.15151269179462e-01 1.79732179582780e-06
2.47311827956989e-02 6.15150990871818e-01 2.02360026240868e-06
2.68817204301075e-02 6.15150692109299e-01 2.25675078147003e-06
2.90322580645161e-02 6.15150373116772e-01 2.49554665178187e-06
3.11827956989247e-02 6.15150034260228e-01 2.73260325923714e-06
3.33333333333333e-02 6.15149677532953e-01 2.96984432053911e-06
3.54838709677419e-02 6.15149302543236e-01 3.21597211832083e-06
3.76344086021505e-02 6.15148908990649e-01 3.47035587505877e-06
3.97849462365591e-02 6.15148496648261e-01 3.73395340544590e-06
4.19354838709677e-02 6.15148064998573e-01 4.00947564879650e-06
4.40860215053763e-02 6.15147613229333e-01 4.29700656334990e-06
4.62365591397849e-02 6.15147140866507e-01 4.59500825161016e-06
4.83870967741935e-02 6.15146647478922e-01 4.90321410188114e-06
5.05376344086022e-02 6.15146132671264e-01 5.21248223566284e-06
5.26881720430108e-02 6.15145597905263e-01 5.51935722505028e-06
5.48387096774194e-02 6.15145043392111e-01 5.83270668877427e-06
5.69892473118280e-02 6.15144468725240e-01 6.15553554074216e-06
5.91397849462366e-02 6.15143873520599e-01 6.48774244648811e-06
6.12903225806452e-02 6.15143257409585e-01 6.82943045354237e-06
6.34408602150538e-02 6.15142620005794e-01 7.18109709594058e-06
6.55913978494624e-02 6.15141960866193e-01 7.54307573460765e-06
6.77419354838710e-02 6.15141279562793e-01 7.91531848000489e-06
6.98924731182796e-02 6.15140575680066e-01 8.28990130525678e-06
7.20430107526882e-02 6.15139850208340e-01 8.65646217909243e-06
7.41935483870968e-02 6.15139104499769e-01 9.02218571907642e-06
7.63440860215054e-02 6.15138338200727e-01 9.39674634743073e-06
7.84946236559140e-02 6.15137550967462e-01 9.78011472029843e-06
8.06451612903226e-02 6.15136742464891e-01 1.01723218242622e-05
8.27956989247312e-02 6.15135912357013e-01 1.05735706097912e-05
8.49462365591398e-02 6.15135060288260e-01 1.09840204637428e-05
8.70967741935484e-02 6.15134185909320e-01 1.14036211046829e-05
8.92473118279570e-02 6.15133288884356e-01 1.18322799175175e-05
9.13978494623656e-02 6.15132368889175e-01 1.22699852776988e-05
9.35483870967742e-02 6.15131425599562e-01 1.27168810025862e-05
9.56989247311828e-02 6.15130458678606e-01 1.31730683196763e-05
9.78494623655914e-02 6.15129467795790e-01 1.36385495428410e-05
1.00000000000000e-01 6.15128452622690e-01 1.41022844886920e-05
1.02150537634409e-01 6.15127414502336e-01 1.45520268917254e-05
1.04301075268817e-01 6.15126354897265e-01 1.49971689780029e-05
1.06451612903226e-01 6.15125273670785e-01 1.54483048911701e-05
1.08602150537634e-01 6.15124170684875e-01 1.59054538934446e-05
1.10752688172043e-01 6.15123045799951e-01 1.63686372505627e-05
1.12903225806452e-01 6.15121898874945e-01 1.68378759061488e-05
1.15053763440860e-01 6.15120729767390e-01 1.73131905216119e-05
1.17204301075269e-01 6.15119538333491e-01 1.77946015176928e-05
1.19354838709677e-01 6.15118324428189e-01 1.82821291001519e-05
1.21505376344086e-01 6.15117087905217e-01 1.87757932861157e-05
1.23655913978495e-01 6.15115828617157e-01 1.92756139362658e-05
1.25806451612903e-01 6.15114546415484e-01 1.97816107874314e-05
1.27956989247312e-01 6.15113241150606e-01 2.02938034661658e-05
1.30107526881720e-01 6.15111912671909e-01 2.08122114972361e-05
1.32258064516129e-01 6.15110560827785e-01 2.13368543263114e-05
1.34408602150538e-01 6.15109185465669e-01 2.18677513397320e-05
1.36559139784946e-01 6.15107786432065e-01 2.24049218764250e-05
1.38709677419355e-01 6.15106363572572e-01 2.29483852481115e-05
1.40860215053763e-01 6.15104916731905e-01 2.34981607366563e-05
1.43010752688172e-01 6.15103445753923e-01 2.40542675986872e-05
1.45161290322581e-01 6.15101950481640e-01 2.46167250994212e-05
1.47311827956989e-01 6.15100430757249e-01 2.51855525038916e-05
1.49462365591398e-01 6.15098886422134e-01 2.57607690821428e-05
1.51612903225806e-01 6.15097317316884e-01 2.63423941280058e-05
1.53763440860215e-01 6.15095723281308e-01 2.69304469500633e-05
1.55913978494624e-01 6.15094104154449e-01 2.75249468830433e-05
1.58064516129032e-01 6.15092459774587e-01 2.81259132950271e-05
1.60215053763441e-01 6.15090789979256e-01 2.87333655844882e-05
1.62365591397849e-01 6.15089094605251e-01 2.93473231914322e-05
1.64516129032258e-01 6.15087373488634e-01 2.99678055953457e-05
1.66666666666667e-01 6.15085626464740e-01 3.05948323176537e-05
1.68817204301075e-01 6.15083853368190e-01 3.12284229149341e-05
1.70967741935484e-01 6.15082054032892e-01 3.18685966223413e-05
1.73118279569892e-01 6.15080228292087e-01 3.25153714537114e-05
1.75268817204301e-01 6.15078375978461e-01 3.31687627828059e-05
1.77419354838710e-01 6.15076496924343e-01 3.38287806054480e-05
1.79569892473118e-01 6.15074590962112e-01 3.44954245190778e-05
1.81720430107527e-01 6.15072657924947e-01 3.51686630595989e-05
1.83870967741935e-01 6.15070697649488e-01 3.58484186600713e-05
1.86021505376344e-01 6.15068709978163e-01 3.65345810933958e-05
1.88172043010753e-01 6.15066694760249e-01 3.72270134829450e-05
1.90322580645161e-01 6.15064651853453e-01 3.79255566514616e-05
1.92473118279570e-01 6.15062581124434e-01 3.86300513726776e-05
1.94623655913978e-01 6.15060482447912e-01 3.93403576773942e-05
1.96774193548387e-01 6.15058355705122e-01 4.00563759429523e-05
1.98924731182796e-01 6.15056200780732e-01 4.07780617406911e-05
2.01075268817204e-01 6.15054017559852e-01 4.14587136875208e-05
2.03225806451613e-01 6.15051811197801e-01 4.20970586792071e-05
2.05376344086022e-01 6.15049581659553e-01 4.27386786504346e-05
2.07526881720430e-01 6.15047328927954e-01 4.33833866514554e-05
2.09677419354839e-01 6.15045052985768e-01 4.40311657475777e-05
2.11827956989247e-01 6.15042753815665e-01 4.46819994855406e-05
2.13978494623656e-01 6.15040431400207e-01 4.53358718820606e-05
2.16129032258065e-01 6.15038085721843e-01 4.59927674111590e-05
2.18279569892473e-01 6.15035716762896e-01 4.66526710043764e-05
2.20430107526882e-01 6.15033324505552e-01 4.73155680172938e-05
2.22580645161290e-01 6.15030908931859e-01 4.79814442205820e-05
2.24731182795699e-01 6.15028470023712e-01 4.86502857998188e-05
2.26881720430108e-01 6.15026007762849e-01 4.93220793289184e-05
2.29032258064516e-01 6.15023522130843e-01 4.99968117697322e-05
2.31182795698925e-01 6.15021013109097e-01 5.06744704707041e-05
2.33333333333333e-01 6.15018480678835e-01 5.13550431398905e-05
2.35483870967742e-01 6.15015924821098e-01 5.20385178366100e-05
2.37634408602151e-01 6.15013345516739e-01 5.27248829721024e-05
2.39784946236559e-01 6.15010742746416e-01 5.34141272979000e-05
2.41935483870968e-01 6.15008116490588e-01 5.41062398918070e-05
2.44086021505376e-01 6.15005466729510e-01 5.48012101597144e-05
2.46236559139785e-01 6.15002793443230e-01 5.54990278215548e-05
2.48387096774194e-01 6.15000096611583e-01 5.61996829039988e-05
2.50537634408602e-01 6.14997376214186e-01 5.69031657366092e-05
2.52688172043011e-01 6.14994632230437e-01 5.76094669283304e-05
2.54838709677419e-01 6.14991864639512e-01 5.83185773832051e-05
2.56989247311828e-01 6.14989073420358e-01 5.90304882873649e-05
2.59139784946237e-01 6.14986258551693e-01 5.97451910900074e-05
2.61290322580645e-01 6.14983420012001e-01 6.04626775100048e-05
2.63440860215054e-01 6.14980557779532e-01 6.11829395250728e-05
2.65591397849462e-01 6.14977671832295e-01 6.19059693691420e-05
2.67741935483871e-01 6.14974762148061e-01 6.26317595203533e-05
2.69892473118280e-01 6.14971828704357e-01 6.33603026287739e-05
2.72043010752688e-01 6.14968871478470e-01 6.40915913280638e-05
2.74193548387097e-01 6.14965890447464e-01 6.48256178499683e-05
2.76344086021505e-01 6.14962885588221e-01 6.55623733343660e-05
2.78494623655914e-01 6.14959856877513e-01 6.63018465937277e-05
2.80645161290323e-01 6.14956804292160e-01 6.70440199235385e-05
2.82795698924731e-01 6.14953727809484e-01 6.77888632158067e-05
2.84946236559140e-01 6.14950627407991e-01 6.85363335508389e-05
2.87096774193548e-01 6.14947503067848e-01 6.92863784003434e-05
2.89247311827957e-01 6.14944354771252e-01 7.00389375269265e-05
2.91397849462366e-01 6.14941182502720e-01 7.07939477331545e-05
2.93548387096774e-01 6.14937986249013e-01 7.15513496662655e-05
2.95698924731183e-01 6.14934765998808e-01 7.23110948056545e-05
2.97849462365591e-01 6.14931521741997e-01 7.30731514174805e-05
3.00000000000000e-01 6.14928253468847e-01 7.38293458488137e-05
3.02150537634409e-01 6.14924962037797e-01 7.45901156402937e-05
3.04301075268817e-01 6.14921646656196e-01 7.54005531076253e-05
3.06451612903226e-01 6.14918304063941e-01 7.62859485135199e-05
3.08602150537634e-01 6.14914931135922e-01 7.72439272777579e-05
3.10752688172043e-01 6.14911524877317e-01 7.82721773399322e-05
3.12903225806452e-01 6.14908082419078e-01 7.93684469581044e-05
3.15053763440860e-01 6.14904601013597e-01 8.05305429325238e-05
3.17204301075269e-01 6.14901078030527e-01 8.17563288976409e-05
3.19354838709677e-01 6.14897510952759e-01 8.30437236646532e-05
3.21505376344086e-01 6.14893897372553e-01 8.43906996232031e-05
3.23655913978495e-01 6.14890234987805e-01 8.57952811837101e-05
3.25806451612903e-01 6.14886521598452e-01 8.72555432942811e-05
3.27956989247312e-01 6.14882755103011e-01 8.87696100004875e-05
3.30107526881720e-01 6.14878933495239e-01 9.03356530310059e-05
3.32258064516129e-01 6.14875054860917e-01 9.19518904594844e-05
3.34408602150538e-01 6.14871117374750e-01 9.36165853918089e-05
3.36559139784946e-01 6.14867119297372e-01 9.53280446962472e-05
3.38709677419355e-01 6.14863058972469e-01 9.70846177915670e-05
3.40860215053763e-01 6.14858934823991e-01 9.88846954437022e-05
3.43010752688172e-01 6.14854745353475e-01 1.00726708605077e-04
3.45161290322581e-01 6.14850489137453e-01 1.02609127319374e-04
3.47311827956989e-01 6.14846164824958e-01 1.04530459640355e-04
3.49462365591398e-01 6.14841771135112e-01 1.06489250590863e-04
3.51612903225806e-01 6.14837306854801e-01 1.08484081136414e-04
3.53763440860215e-01 6.14832770836430e-01 1.10513567196791e-04
3.55913978494624e-01 6.14828161995757e-01 1.12576358705987e-04
3.58064516129032e-01 6.14823479309801e-01 1.14671138687839e-04
3.60215053763441e-01 6.14818721814820e-01 1.16796622331471e-04
3.62365591397849e-01 6.14813888604365e-01 1.18951556141131e-04
3.64516129032258e-01 6.14808978827390e-01 1.21134717115463e-04
3.66666666666667e-01 6.14803991686440e-01 1.23344911887150e-04
3.68817204301075e-01 6.14798926435884e-01 1.25580975942499e-04
3.70967741935484e-01 6.14793782380228e-01 1.27841772789617e-04
3.73118279569892e-01 6.14788558872469e-01 1.30126193054650e-04
3.75268817204301e-01 6.14783255312533e-01 1.32433153564079e-04
3.77419354838710e-01 6.14777871145753e-01 1.34761596149720e-04
3.79569892473118e-01 6.14772405861449e-01 1.37110486086012e-04
3.81720430107527e-01 6.14766858991586e-01 1.39478808168024e-04
3.83870967741935e-01 6.14761230109700e-01 1.41865563738235e-04
3.86021505376344e-01 6.14755518829841e-01 1.44269772245307e-04
3.88172043010753e-01 6.14749724805407e-01 1.46690471541475e-04
3.90322580645161e-01 6.14743847728089e-01 1.49126718063404e-04
3.92473118279570e-01 6.14737887326730e-01 1.51577590246295e-04
3.94623655913979e-01 6.14731843366017e-01 1.54042191633811e-04
3.96774193548387e-01 6.14725715645125e-01 1.56519653778097e-04
3.98924731182796e-01 6.14719503996223e-01 1.59009137326189e-04
4.01075268817204e-01 6.14713208283072e-01 1.61455046518744e-04
4.03225806451613e-01 6.14706833386457e-01 1.63898950510800e-04
4.05376344086022e-01 6.14700375915243e-01 1.66436479220377e-04
4.07526881720430e-01 6.14693832594667e-01 1.69064933626940e-04
4.09677419354839e-01 6.14687200286955e-01 1.71781372631507e-04
4.11827956989247e-01 6.14680475986912e-01 1.74582931681983e-04
4.13978494623656e-01 6.14673656817658e-01 1.77466820904492e-04
4.16129032258065e-01 6.14666740026488e-01 1.80430323279008e-04
4.18279569892473e-01 6.14659722980865e-01 1.83470792856149e-04
4.20430107526882e-01 6.14652603164529e-01 1.86585653039288e-04
4.22580645161290e-01 6.14645378173739e-01 1.89772394901469e-04
4.24731182795699e-01 6.14638045713610e-01 1.93028575569828e-04
4.26881720430108e-01 6.14630603594580e-01 1.96351816632199e-04
4.29032258064516e-01 6.14623049728970e-01 1.99739802595463e-04
4.31182795698925e-01 6.14615382127659e-01 2.03190279377478e-04
4.33333333333333e-01 6.14607598896851e-01 2.06701052849142e-04
4.35483870967742e-01 6.14599698234945e-01 2.10269987424307e-04
4.37634408602151e-01 6.14591678429495e-01 2.13895004631976e-04
4.39784946236559e-01 6.14583537854267e-01 2.17574081785121e-04
4.41935483870968e-01 6.14575274966377e-01 2.21305250673542e-04
4.44086021505376e-01 6.14566888303520e-01 2.25086596264473e-04
4.46236559139785e-01 6.14558376481283e-01 2.28916255465522e-04
4.48387096774194e-01 6.14549738190528e-01 2.32792415893981e-04
4.50537634408602e-01 6.14540972194865e-01 2.36713314704201e-04
4.52688172043011e-01 6.14532077328193e-01 2.40677237416693e-04
4.54838709677419e-01 6.14523052492317e-01 2.44682516794717e-04
4.56989247311828e-01 6.14513896654631e-01 2.48727531750479e-04
4.59139784946237e-01 6.14504608845876e-01 2.52810706264198e-04
4.61290322580645e-01 6.14495188157957e-01 2.56930508345616e-04
4.63440860215054e-01 6.14485633741833e-01 2.61085449006179e-04
4.65591397849462e-01 6.14475944805458e-01 2.65274081283561e-04
4.67741935483871e-01 6.14466120611792e-01 2.69494999274677e-04
4.69892473118280e-01 6.14456160476866e-01 2.73746837158988e-04
4.72043010752688e-01 6.14446063767903e-01 2.78028268215287e-04
4.74193548387097e-01 6.14435829901504e-01 2.82338003833450e-04
4.76344086021505e-01 6.14425458341882e-01 2.86674792429083e-04
4.78494623655914e-01 6.14414948599168e-01 2.91037418209210e-04
4.80645161290323e-01 6.14404300227778e-01 2.95424699145938e-04
4.82795698924731e-01 6.14393512824901e-01 2.99835484534988e-04
4.84946236559140e-01 6.14382586029082e-01 3.04268653917884e-04
4.87096774193548e-01 6.14371519518818e-01 3.08723117249705e-04
4.89247311827957e-01 6.14360313011166e-01 3.13197815210340e-04
4.91397849462366e-01 6.14348966260338e-01 3.17691720048540e-04
4.93548387096774e-01 6.14337479056272e-01 3.22203836539737e-04
4.95698924731183e-01 6.14325851223193e-01 3.26733204026329e-04
4.97849462365591e-01 6.14314082618051e-01 3.31278897319772e-04
5.00000000000000e-01 6.14302173129054e-01 3.35808261027059e-04
5.02150537634409e-01 6.14290125204569e-01 3.40291941362520e-04
5.04301075268817e-01 6.14277941086201e-01 3.44767783895559e-04
5.06451612903226e-01 6.14265620255637e-01 3.49270019631071e-04
5.08602150537634e-01 6.14253162250329e-01 3.53797128216579e-04
5.10752688172043e-01 6.14240566661749e-01 3.58347626978003e-04
5.12903225806452e-01 6.14227833133662e-01 3.62920070444766e-04
5.15053763440860e-01 6.14214961360447e-01 3.67513049580279e-04
5.17204301075269e-01 6.14201951085462e-01 3.72125190994009e-04
5.19354838709677e-01 6.14188802099460e-01 3.76755156255542e-04
5.21505376344086e-01 6.14175514239028e-01 3.81401641191903e-04
5.23655913978495e-01 6.14162087385090e-01 3.86063375182605e-04
5.25806451612903e-01 6.14148521461430e-01 3.90739120470273e-04
5.27956989247312e-01 6.14134816433262e-01 3.95427671508132e-04
5.30107526881720e-01 6.14120972305842e-01 4.00127854313242e-04
5.32258064516129e-01 6.14106989123104e-01 4.04838525825904e-04
5.34408602150538e-01 6.14092866966343e-01 4.09558573294854e-04
5.36559139784946e-01 6.14078605952926e-01 4.14286913661616e-04
5.38709677419355e-01 6.14064206235039e-01 4.19022492966806e-04
5.40860215053763e-01 6.14049667998463e-01 4.23764285764469e-04
5.43010752688172e-01 6.14034991461393e-01 4.28511294569025e-04
5.45161290322581e-01 6.14020176873268e-01 4.33262549270858e-04
5.47311827956989e-01 6.14005224513653e-01 4.38017106586811e-04
5.49462365591398e-01 6.13990134691136e-01 4.42774049543014e-04
5.51612903225806e-01 6.13974907742257e-01 4.47532486933843e-04
5.53763440860215e-01 6.13959544030470e-01 4.52291552805762e-04
5.55913978494624e-01 6.13944043945125e-01 4.57050405963329e-04
5.58064516129032e-01 6.13928407900477e-01 4.61808229466833e-04
5.60215053763441e-01 6.13912636334730e-01 4.66564230149469e-04
5.62365591397849e-01 6.13896729709094e-01 4.71317638147953e-04
5.64516129032258e-01 6.13880688506873e-01 4.76067706425589e-04
5.66666666666667e-01 6.13864513232575e-01 4.80813710322427e-04
5.68817204301075e-01 6.13848204411048e-01 4.85554947107032e-04
5.70967741935484e-01 6.13831762586635e-01 4.90290735510709e-04
5.73118279569892e-01 6.13815188322355e-01 4.95020415242338e-04
5.75268817204301e-01 6.13798482199105e-01 4.99743346480499e-04
5.77419354838710e-01 6.13781644814893e-01 5.04458909242716e-04
5.79569892473118e-01 6.13764676784094e-01 5.09166502613375e-04
5.81720430107527e-01 6.13747578736748e-01 5.13865543055319e-04
5.83870967741935e-01 6.13730351317946e-01 5.18555463212317e-04
5.86021505376344e-01 6.13712995187218e-01 5.23235712637449e-04
5.88172043010753e-01 6.13695511017877e-01 5.27905757875779e-04
5.90322580645161e-01 6.13677899496414e-01 5.32565081871850e-04
5.92473118279570e-01 6.13660161321895e-01 5.37213185546177e-04
5.94623655913978e-01 6.13642297205244e-01 5.41849589621850e-04
5.96774193548387e-01 6.13624307868523e-01 5.46473835609832e-04
5.98924731182796e-01 6.13606194044163e-01 5.51085484712531e-04
6.01075268817204e-01 6.13587956474343e-01 5.55744514174933e-04
6.03225806451613e-01 6.13569591932706e-01 5.60626271388778e-04
6.05376344086021e-01 6.13551089640066e-01 5.65897397051451e-04
6.07526881720430e-01 6.13532435490711e-01 5.71602753625122e-04
6.09677419354839e-01 6.13513615876153e-01 5.77729248636334e-04
6.11827956989247e-01 6.13494617671770e-01 5.84264093521995e-04
6.13978494623656e-01 6.13475428223793e-01 5.91194796704829e-04
6.16129032258064e-01 6.13456035336635e-01 5.98509156850871e-04
6.18279569892473e-01 6.13436427260546e-01 6.06195256294575e-04
6.20430107526882e-01 6.13416592679600e-01 6.14241454589451e-04
6.22580645161290e-01 6.13396520699978e-01 6.22636382232315e-04
6.24731182795699e-01 6.13376200838576e-01 6.31368934544528e-04
6.26881720430107e-01 6.13355623011891e-01 6.40428265683086e-04
6.29032258064516e-01 6.13334777525205e-01 6.49803782784897e-04
6.31182795698925e-01 6.13313655062051e-01 6.59485140240714e-04
6.33333333333333e-01 6.13292246673945e-01 6.69462234126069e-04
6.35483870967742e-01 6.13270543770392e-01 6.79725196730495e-04
6.37634408602150e-01 6.13248538109142e-01 6.90264391198179e-04
6.39784946236559e-01 6.13226221786716e-01 7.01070406310602e-04
6.41935483870968e-01 6.13203587229153e-01 7.12134051396908e-04
6.44086021505376e-01 6.13180627183024e-01 7.23446351328021e-04
6.46236559139785e-01 6.13157334706654e-01 7.34998541638617e-04
6.48387096774194e-01 6.13133703161592e-01 7.46782063755373e-04
6.50537634408602e-01 6.13109726204290e-01 7.58788560325261e-04
6.52688172043011e-01 6.13085397778003e-01 7.71009870665521e-04
6.54838709677419e-01 6.13060712104897e-01 7.83438026292377e-04
6.56989247311828e-01 6.13035663678364e-01 7.96065246562139e-04
6.59139784946237e-01 6.13010247255536e-01 8.08883934397230e-04
6.61290322580645e-01 6.12984457849992e-01 8.21886672127323e-04
6.63440860215054e-01 6.12958290724655e-01 8.35066217409190e-04
6.65591397849462e-01 6.12931741384877e-01 8.48415499220158e-04
6.67741935483871e-01 6.12904805571697e-01 8.61927613964110e-04
6.69892473118280e-01 6.12877479255281e-01 8.75595821657775e-04
6.72043010752688e-01 6.12849758628533e-01 8.89413542161368e-04
6.74193548387097e-01 6.12821640100865e-01 9.03374351459983e-04
6.76344086021505e-01 6.12793120292146e-01 9.17471977997013e-04
6.78494623655914e-01 6.12764196026800e-01 9.31700298975077e-04
