Energy (eV)          EEDF (eV^-(3/2))     First Anisotropy
6.12068965517241e-02 3.39807882301799e-02 2.36034146294480e-05
1.83620689655172e-01 3.35789204089058e-02 3.88761693353215e-05
3.06034482758621e-01 3.31818052068187e-02 5.10573001533628e-05
4.28448275862069e-01 3.27893864179056e-02 6.01525148405666e-05
5.50862068965517e-01 3.24016085008570e-02 6.76076859135856e-05
6.73275862068966e-01 3.20184165705809e-02 7.39735753144131e-05
7.95689655172414e-01 3.16397563924712e-02 7.95372305397917e-05
9.18103448275862e-01 3.12655743725140e-02 8.44731908202483e-05
1.04051724137931e+00 3.08958175505337e-02 8.88980005836302e-05
1.16293103448276e+00 3.05304335919697e-02 9.28945826439982e-05
1.28534482758621e+00 3.01693707836173e-02 9.65247259867630e-05
1.40775862068966e+00 2.98125780218651e-02 9.98361214652537e-05
1.53017241379310e+00 2.94600048053016e-02 1.02866614161418e-04
1.65258620689655e+00 2.91116012347076e-02 1.05646919240357e-04
1.77500000000000e+00 2.87673179983073e-02 1.08202433322239e-04
1.89741379310345e+00 2.84271063657920e-02 1.10554485182963e-04
2.01982758620690e+00 2.80909181869784e-02 1.12721227658753e-04
2.14224137931034e+00 2.77587058790725e-02 1.14718289184465e-04
2.26465517241379e+00 2.74304224205996e-02 1.16559259053926e-04
2.38706896551724e+00 2.71060213492574e-02 1.18256057753321e-04
2.50948275862069e+00 2.67854567505956e-02 1.19819223522287e-04
2.63189655172414e+00 2.64686832519654e-02 1.21258136315907e-04
2.75431034482759e+00 2.61556560198652e-02 1.22581197004817e-04
2.87672413793103e+00 2.58463307496774e-02 1.23795971583542e-04
2.99913793103448e+00 2.55406636607515e-02 1.24909308068154e-04
3.12155172413793e+00 2.52386114892546e-02 1.25927432613743e-04
3.24396551724138e+00 2.49401314849987e-02 1.26856029560738e-04
3.36637931034483e+00 2.46451814023341e-02 1.27700308461224e-04
3.48879310344828e+00 2.43537194944035e-02 1.28465059690569e-04
3.61120689655172e+00 2.40657045097856e-02 1.29154702408775e-04
3.73362068965517e+00 2.37810956840113e-02 1.29773325502555e-04
3.85603448275862e+00 2.34998527339905e-02 1.30324721963812e-04
3.97844827586207e+00 2.32219358545393e-02 1.30812419312979e-04
4.10086206896552e+00 2.29473057104414e-02 1.31239706006001e-04
4.22327586206897e+00 2.26759234310342e-02 1.31609653744646e-04
4.34568965517241e+00 2.24077506066810e-02 1.31925137710179e-04
4.46810344827586e+00 2.21427492813050e-02 1.32188854297810e-04
4.59051724137931e+00 2.18808819477129e-02 1.32403336462673e-04
4.71293103448276e+00 2.16221115417434e-02 1.32570967356472e-04
4.83534482758621e+00 2.13664014386841e-02 1.32693992714510e-04
4.95775862068966e+00 2.11137154463839e-02 1.32774531991349e-04
5.08017241379310e+00 2.08640178002279e-02 1.32814587736887e-04
5.20258620689655e+00 2.06172731595667e-02 1.32816054598279e-04
5.32500000000000e+00 2.03734466011844e-02 1.32780727433266e-04
5.44741379310345e+00 2.01325036144429e-02 1.32710308081602e-04
5.56982758620690e+00 1.98944100977406e-02 1.32606412042077e-04
5.69224137931035e+00 1.96591323523078e-02 1.32470574537241e-04
5.81465517241379e+00 1.94266370775117e-02 1.32304255510414e-04
5.93706896551724e+00 1.91968913673610e-02 1.32108844694697e-04
6.05948275862069e+00 1.89698627046020e-02 1.31885666249054e-04
6.18189655172414e+00 1.87455189561792e-02 1.31635982514163e-04
6.30431034482759e+00 1.85238283697961e-02 1.31360997939769e-04
6.42672413793103e+00 1.83047595682896e-02 1.31061862649704e-04
6.54913793103448e+00 1.80882815455733e-02 1.30739675507586e-04
6.67155172413793e+00 1.78743636619323e-02 1.30395486967459e-04
6.79396551724138e+00 1.76629756406563e-02 1.30030301890940e-04
6.91637931034483e+00 1.74540875627646e-02 1.29645082207911e-04
7.03879310344828e+00 1.72476698628188e-02 1.29240748963095e-04
7.16120689655172e+00 1.70436933256258e-02 1.28818184629956e-04
7.28362068965517e+00 1.68421290811958e-02 1.28378235263449e-04
7.40603448275862e+00 1.66429486006993e-02 1.27921712108317e-04
7.52844827586207e+00 1.64461236932442e-02 1.27449393489250e-04
7.65086206896552e+00 1.62516265010535e-02 1.26962026576275e-04
7.77327586206897e+00 1.60594294955601e-02 1.26460328660654e-04
7.89568965517241e+00 1.58695054742614e-02 1.25944988717781e-04
8.01810344827586e+00 1.56818275561041e-02 1.25416668834752e-04
8.14051724137931e+00 1.54963691779395e-02 1.24876005382650e-04
8.26293103448276e+00 1.53131040905438e-02 1.24323610133509e-04
8.38534482758621e+00 1.51320063555728e-02 1.23760071451439e-04
8.50775862068966e+00 1.49530503412092e-02 1.23185955453561e-04
8.63017241379310e+00 1.47762107185636e-02 1.22601806777751e-04
8.75258620689655e+00 1.46014624587081e-02 1.22008149627403e-04
8.87500000000000e+00 1.44287808285038e-02 1.21405488757601e-04
8.99741379310345e+00 1.42581413871264e-02 1.20794310098141e-04
9.11982758620690e+00 1.40895199831805e-02 1.20175081646805e-04
9.24224137931034e+00 1.39228927506968e-02 1.19548254314384e-04
9.36465517241379e+00 1.37582361057790e-02 1.18914262432490e-04
9.48706896551724e+00 1.35955267437973e-02 1.18273524523281e-04
9.60948275862069e+00 1.34347416355490e-02 1.17626444029369e-04
9.73189655172414e+00 1.32758580240196e-02 1.16973409729131e-04
9.85431034482759e+00 1.31188534216576e-02 1.16314796404702e-04
9.97672413793103e+00 1.29637056066884e-02 1.15650965365489e-04
1.00991379310345e+01 1.28103926205895e-02 1.14982265154029e-04
1.02215517241379e+01 1.26588927634702e-02 1.14309031846204e-04
1.03439655172414e+01 1.25091845926841e-02 1.13631589350168e-04
1.04663793103448e+01 1.23612469191726e-02 1.12950250174146e-04
1.05887931034483e+01 1.22150588044655e-02 1.12265315737502e-04
1.07112068965517e+01 1.20705995577173e-02 1.11577076780014e-04
1.08336206896552e+01 1.19278487327777e-02 1.10885813751870e-04
1.09560344827586e+01 1.17867861253005e-02 1.10191797186950e-04
1.10784482758621e+01 1.16473917698826e-02 1.09495288060341e-04
1.12008620689655e+01 1.15096459372380e-02 1.08796538129403e-04
1.13232758620690e+01 1.13735291314054e-02 1.08095790260534e-04
1.14456896551724e+01 1.12390220869890e-02 1.07393278742054e-04
1.15681034482759e+01 1.11061057664317e-02 1.06689229360358e-04
1.16905172413793e+01 1.09747613584413e-02 1.05983860364252e-04
1.18129310344828e+01 1.08449702719287e-02 1.05277382286049e-04
1.19353448275862e+01 1.07167141368140e-02 1.04569997742433e-04
1.20577586206897e+01 1.05899748002675e-02 1.03861902387989e-04
1.21801724137931e+01 1.04647343241408e-02 1.03153284923221e-04
1.23025862068966e+01 1.03409749824277e-02 1.02444327328470e-04
1.24250000000000e+01 1.02186792587553e-02 1.01735205088763e-04
1.25474137931034e+01 1.00978298439044e-02 1.01026087409767e-04
1.26698275862069e+01 9.97840963336038e-03 1.00317137425358e-04
1.27922413793103e+01 9.86040172489228e-03 9.96085123976794e-05
1.29146551724138e+01 9.74378941616044e-03 9.89003639095717e-05
1.30370689655172e+01 9.62855620235234e-03 9.81928380496040e-05
1.31594827586207e+01 9.51468577384666e-03 9.74860755903366e-05
1.32818965517241e+01 9.40216201390482e-03 9.67802119834470e-05
1.34043103448276e+01 9.29096899721652e-03 9.60753780598598e-05
1.35267241379310e+01 9.18109098513966e-03 9.53716998305255e-05
1.36491379310345e+01 9.07251242600576e-03 9.46692982741481e-05
1.37715517241379e+01 8.96521795206531e-03 9.39682900381009e-05
1.38939655172414e+01 8.85919237731269e-03 9.32687873955796e-05
1.40163793103448e+01 8.75442069533684e-03 9.25708983836520e-05
1.41387931034483e+01 8.65088807719731e-03 9.18747269365157e-05
1.42612068965517e+01 8.54857986932541e-03 9.11803730142908e-05
1.43836206896552e+01 8.44748159144963e-03 9.04879327269766e-05
1.45060344827586e+01 8.34757893454742e-03 8.97974984544818e-05
1.46284482758621e+01 8.24885775881932e-03 8.91091589628698e-05
1.47508620689655e+01 8.15130409168763e-03 8.84229995162703e-05
1.48732758620690e+01 8.05490412581884e-03 8.77391019852070e-05
1.49956896551724e+01 7.95964421716937e-03 8.70575449513416e-05
1.51181034482759e+01 7.86551088305447e-03 8.63784036701933e-05
1.52405172413793e+01 7.77249080084799e-03 8.57017505885491e-05
1.53629310344828e+01 7.68057080425381e-03 8.50276551579323e-05
1.54853448275862e+01 7.58973788330443e-03 8.43561836391120e-05
1.56077586206897e+01 7.49997918189242e-03 8.36873996243495e-05
1.57301724137931e+01 7.41128199595076e-03 8.30213639775225e-05
1.58525862068966e+01 7.32363377165481e-03 8.23581349173240e-05
1.59750000000000e+01 7.23702210364547e-03 8.16977680978880e-05
1.60974137931034e+01 7.15143473327320e-03 8.10403166867771e-05
1.62198275862069e+01 7.06685954686317e-03 8.03858314404907e-05
1.63422413793103e+01 6.98328457400098e-03 7.97343607778071e-05
1.64646551724138e+01 6.90069798583818e-03 7.90859508508110e-05
1.65870689655172e+01 6.81908809341807e-03 7.84406456136374e-05
1.67094827586207e+01 6.73844334602131e-03 7.77984868891430e-05
1.68318965517241e+01 6.65875232953107e-03 7.71595143224096e-05
1.69543103448276e+01 6.58000376527986e-03 7.65237657798307e-05
1.70767241379310e+01 6.50218650705223e-03 7.58912771843157e-05
1.71991379310345e+01 6.42528954092239e-03 7.52620823438667e-05
1.73215517241379e+01 6.34930198321877e-03 7.46362133563783e-05
1.74439655172414e+01 6.27421307898358e-03 7.40137005482013e-05
1.75663793103448e+01 6.20001220045061e-03 7.33945725279634e-05
1.76887931034483e+01 6.12668884554105e-03 7.27788562388072e-05
1.78112068965517e+01 6.05423263637700e-03 7.21665770091480e-05
1.79336206896552e+01 5.98263331781244e-03 7.15577586017228e-05
1.80560344827586e+01 5.91188075598227e-03 7.09524232613545e-05
1.81784482758621e+01 5.84196493686774e-03 7.03505917614622e-05
1.83008620689655e+01 5.77287596487910e-03 6.97522834489941e-05
1.84232758620690e+01 5.70460406145502e-03 6.91575162881326e-05
1.85456896551724e+01 5.63713956367859e-03 6.85663069027394e-05
1.86681034482759e+01 5.57047292290964e-03 6.79786705292339e-05
1.87905172413793e+01 5.50459470378227e-03 6.73946213239704e-05
1.89129310344828e+01 5.43949558181219e-03 6.68141722228959e-05
1.90353448275862e+01 5.37516634314465e-03 6.62373347962248e-05
1.91577586206897e+01 5.31159788289095e-03 6.56641195613654e-05
1.92801724137931e+01 5.24878120383968e-03 6.50945359256769e-05
1.94025862068966e+01 5.18670741518340e-03 6.45285922211155e-05
1.95250000000000e+01 5.12536773126015e-03 6.39662957379263e-05
1.96474137931034e+01 5.06475347031001e-03 6.34076527573362e-05
1.97698275862069e+01 5.00485605324629e-03 6.28526685832971e-05
1.98922413793103e+01 4.94566700244147e-03 6.23013475734382e-05
2.00146551724138e+01 4.88717794052717e-03 6.17536931691345e-05
2.01370689655172e+01 4.82938058920848e-03 6.12097079246748e-05
2.02594827586207e+01 4.77226676809224e-03 6.06693935356396e-05
2.03818965517241e+01 4.71582839352928e-03 6.01327507949389e-05
2.05043103448276e+01 4.66005747774082e-03 5.95997798361679e-05
2.06267241379310e+01 4.60494612686835e-03 5.90704800145406e-05
2.07491379310345e+01 4.55048654068398e-03 5.85448497839333e-05
2.08715517241379e+01 4.49667101120781e-03 5.80228869452480e-05
2.09939655172414e+01 4.44349192161700e-03 5.75045885951561e-05
2.11163793103448e+01 4.39094174516768e-03 5.69899511494042e-05
2.12387931034483e+01 4.33901304412971e-03 5.64789703654891e-05
2.13612068965517e+01 4.28769846873392e-03 5.59716413647371e-05
2.14836206896552e+01 4.23699075613176e-03 5.54679586536597e-05
2.16060344827586e+01 4.18688272936758e-03 5.49679161448090e-05
2.17284482758621e+01 4.13736729636274e-03 5.44715071771287e-05
2.18508620689655e+01 4.08843744891180e-03 5.39787245356312e-05
2.19732758620690e+01 4.04008626169062e-03 5.34895604705814e-05
2.20956896551724e+01 3.99230689127615e-03 5.30040067161489e-05
2.22181034482759e+01 3.94509257517791e-03 5.25220544511942e-05
2.23405172413793e+01 3.89843663108852e-03 5.20436944904655e-05
2.24629310344828e+01 3.85233245530877e-03 5.15689171854446e-05
2.25853448275862e+01 3.80677352244821e-03 5.10977123221621e-05
2.27077586206897e+01 3.76175338428776e-03 5.06300693167268e-05
2.28301724137931e+01 3.71726566886704e-03 5.01659771708276e-05
2.29525862068966e+01 3.67330407958254e-03 4.97054244871029e-05
2.30750000000000e+01 3.62986239429641e-03 4.92483994840950e-05
2.31974137931034e+01 3.58693446445576e-03 4.87948900107658e-05
2.33198275862069e+01 3.54451421422245e-03 4.83448835606083e-05
2.34422413793103e+01 3.50259563961324e-03 4.78983672854268e-05
2.35646551724138e+01 3.46117280764992e-03 4.74553280087261e-05
2.36870689655172e+01 3.42023985551959e-03 4.70157522387023e-05
2.38094827586207e+01 3.37979098974487e-03 4.65796261808953e-05
2.39318965517241e+01 3.33982048536391e-03 4.61469357037199e-05
2.40543103448276e+01 3.30032268528335e-03 4.57176664919645e-05
2.41767241379310e+01 3.26129199898329e-03 4.52918039635809e-05
2.42991379310345e+01 3.22272290222505e-03 4.48693331840519e-05
2.44215517241379e+01 3.18460993610142e-03 4.44502390236087e-05
2.45439655172414e+01 3.14694770626394e-03 4.40345061187736e-05
2.46663793103448e+01 3.10973088215951e-03 4.36221188827699e-05
2.47887931034483e+01 3.07295419627582e-03 4.32130615156508e-05
2.49112068965517e+01 3.03661244339588e-03 4.28073180141602e-05
2.50336206896552e+01 3.00070047986121e-03 4.24048721812608e-05
2.51560344827586e+01 2.96521322284397e-03 4.20057076354472e-05
2.52784482758621e+01 2.93014564962745e-03 4.16098078198326e-05
2.54008620689655e+01 2.89549279689524e-03 4.12171560109245e-05
2.55232758620690e+01 2.86124976002872e-03 4.08277353271809e-05
2.56456896551724e+01 2.82741169241283e-03 4.04415287373198e-05
2.57681034482759e+01 2.79397380475018e-03 4.00585190306771e-05
2.58905172413793e+01 2.76093136451005e-03 3.96786889391986e-05
2.60129310344828e+01 2.72827969487430e-03 3.93020210685918e-05
2.61353448275862e+01 2.69601417446335e-03 3.89284978275586e-05
2.62577586206897e+01 2.66413023655152e-03 3.85581015529016e-05
2.63801724137931e+01 2.63262336842073e-03 3.81908144768920e-05
2.65025862068966e+01 2.60148911072172e-03 3.78266187340788e-05
2.66250000000000e+01 2.57072305684296e-03 3.74654963679065e-05
2.67474137931034e+01 2.54032085228691e-03 3.71074293371372e-05
2.68698275862069e+01 2.51027819405371e-03 3.67523995220755e-05
2.69922413793103e+01 2.48059083003219e-03 3.64003887306482e-05
2.71146551724138e+01 2.45125455839803e-03 3.60513787042991e-05
2.72370689655172e+01 2.42226522701903e-03 3.57053511237008e-05
2.73594827586207e+01 2.39361873286745e-03 3.53622876143081e-05
2.74818965517241e+01 2.36531102143929e-03 3.50221697208292e-05
2.76043103448276e+01 2.33733808628112e-03 3.46849790060041e-05
2.77267241379310e+01 2.30969596811813e-03 3.43506969930068e-05
2.78491379310345e+01 2.28238075460147e-03 3.40193051062937e-05
2.79715517241379e+01 2.25538857965101e-03 3.36907847730131e-05
2.80939655172414e+01 2.22871562290813e-03 3.33651173951611e-05
2.82163793103448e+01 2.20235810919500e-03 3.30422843540868e-05
2.83387931034483e+01 2.17631230798026e-03 3.27222670148663e-05
2.84612068965517e+01 2.15057453285103e-03 3.24050467305519e-05
2.85836206896552e+01 2.12514114099108e-03 3.20906048462578e-05
2.87060344827586e+01 2.10000853266536e-03 3.17789227031491e-05
2.88284482758621e+01 2.07517315071044e-03 3.14699816423294e-05
2.89508620689655e+01 2.05063148003106e-03 3.11637630085750e-05
2.90732758620690e+01 2.02638004710259e-03 3.08602481539660e-05
2.91956896551724e+01 2.00241541947947e-03 3.05594184414037e-05
2.93181034482759e+01 1.97873420530930e-03 3.02612552229706e-05
2.94405172413793e+01 1.95533305293185e-03 2.99657399190093e-05
2.95629310344828e+01 1.93220865016547e-03 2.96728539705511e-05
2.96853448275862e+01 1.90935772407970e-03 2.93825787904900e-05
2.98077586206897e+01 1.88677704045079e-03 2.90948958448533e-05
2.99301724137931e+01 1.86446340330397e-03 2.88097866293863e-05
3.00525862068965e+01 1.84241365446113e-03 2.85272326723565e-05
3.01750000000000e+01 1.82062467309375e-03 2.82472155372728e-05
3.02974137931034e+01 1.79909337528124e-03 2.79697168255029e-05
3.04198275862069e+01 1.77781671357447e-03 2.76947181788008e-05
3.05422413793103e+01 1.75679167656442e-03 2.74222012817712e-05
3.06646551724138e+01 1.73601528845597e-03 2.71521478642399e-05
3.07870689655172e+01 1.71548460864671e-03 2.68845397035391e-05
3.09094827586207e+01 1.69519673131077e-03 2.66193586267179e-05
3.10318965517241e+01 1.67514878498748e-03 2.63565864920632e-05
3.11543103448276e+01 1.65533793223820e-03 2.60962052535091e-05
3.12767241379310e+01 1.63576136905341e-03 2.58381969208517e-05
3.13991379310345e+01 1.61641632464889e-03 2.55825435189458e-05
3.15215517241379e+01 1.59730006100859e-03 2.53292271539497e-05
3.16439655172414e+01 1.57840987249714e-03 2.50782299934536e-05
3.17663793103448e+01 1.55974308547689e-03 2.48295342681919e-05
3.18887931034483e+01 1.54129705792947e-03 2.45831222736913e-05
3.20112068965517e+01 1.52306917908190e-03 2.43389763718635e-05
3.21336206896552e+01 1.50505686903701e-03 2.40970789925168e-05
3.22560344827586e+01 1.48725757840834e-03 2.38574126348242e-05
3.23784482758621e+01 1.46966878795931e-03 2.36199598687469e-05
3.25008620689655e+01 1.45228800824666e-03 2.33847033363784e-05
3.26232758620690e+01 1.43511277926806e-03 2.31516257532416e-05
3.27456896551724e+01 1.41814067011399e-03 2.29207099095353e-05
3.28681034482759e+01 1.40136927862363e-03 2.26919386545706e-05
3.29905172413793e+01 1.38479623109482e-03 2.24652949486030e-05
3.31129310344828e+01 1.36841918179698e-03 2.22407618299677e-05
3.32353448275862e+01 1.35223581279158e-03 2.20183223813946e-05
3.33577586206897e+01 1.33624383355277e-03 2.17979597833616e-05
3.34801724137931e+01 1.32044098064321e-03 2.15796572974466e-05
3.36025862068966e+01 1.30482501739371e-03 2.13633982672374e-05
3.37250000000000e+01 1.28939373358663e-03 2.11491661191997e-05
3.38474137931034e+01 1.27414494514309e-03 2.09369443634957e-05
3.39698275862069e+01 1.25907649381382e-03 2.07267165947649e-05
3.40922413793103e+01 1.24418624687371e-03 2.05184664928706e-05
3.42146551724138e+01 1.22947209681997e-03 2.03121778236067e-05
3.43370689655172e+01 1.21493196107379e-03 2.01078344393643e-05
3.44594827586207e+01 1.20056378168563e-03 1.99054202797585e-05
3.45818965517241e+01 1.18636552504392e-03 1.97049193583975e-05
3.47043103448276e+01 1.17233518162739e-03 1.95063158052695e-05
3.48267241379310e+01 1.15847076559911e-03 1.93095938392471e-05
3.49491379310345e+01 1.14477031464807e-03 1.91147377399238e-05
3.50715517241379e+01 1.13123188967016e-03 1.89217318912750e-05
3.51939655172414e+01 1.11785357449378e-03 1.87305607675640e-05
3.53163793103448e+01 1.10463347560857e-03 1.85412089337405e-05
3.54387931034483e+01 1.09156972189744e-03 1.83536610458116e-05
3.55612068965517e+01 1.07866046437174e-03 1.81679018511891e-05
3.56836206896552e+01 1.06590387590953e-03 1.79839161889911e-05
3.58060344827586e+01 1.05329815099704e-03 1.78016889903297e-05
3.59284482758621e+01 1.04084150547307e-03 1.76212052785811e-05
3.60508620689655e+01 1.02853217627651e-03 1.74424501696151e-05
3.61732758620690e+01 1.01636842119676e-03 1.72654088720037e-05
3.62956896551724e+01 1.00434851862717e-03 1.70900666872078e-05
3.64181034482759e+01 9.92470767321379e-04 1.69164089984645e-05
3.65405172413793e+01 9.80733486184409e-04 1.67444213050302e-05
3.66629310344828e+01 9.69135013938172e-04 1.65740891994538e-05
3.67853448275862e+01 9.57673708983778e-04 1.64053983443041e-05
3.69077586206897e+01 9.46347949136419e-04 1.62383345074677e-05
3.70301724137931e+01 9.35156131395767e-04 1.60728835503616e-05
3.71525862068966e+01 9.24096671719095e-04 1.59090314279679e-05
3.72750000000000e+01 9.13168004797078e-04 1.57467641888529e-05
3.73974137931034e+01 9.02368583832238e-04 1.55860679751590e-05
3.75198275862069e+01 8.91696880320028e-04 1.54269290225819e-05
3.76422413793103e+01 8.81151383832492e-04 1.52693336603361e-05
3.77646551724138e+01 8.70730601804485e-04 1.51132683111004e-05
3.78870689655172e+01 8.60433059322420e-04 1.49587194909438e-05
3.80094827586207e+01 8.50257298915515e-04 1.48056738092377e-05
3.81318965517241e+01 8.40201880349509e-04 1.46541179592273e-05
3.82543103448276e+01 8.30265380448615e-04 1.45040387461230e-05
3.83767241379310e+01 8.20446392816009e-04 1.43554230680720e-05
3.84991379310345e+01 8.10743527713550e-04 1.42082578966799e-05
3.86215517241379e+01 8.01155411838594e-04 1.40625303059876e-05
