Energy (eV)          EEDF (eV^-(3/2))     First Anisotropy
5.97916666666667e-02 4.68292200977956e-02 3.57370677383265e-05
1.79375000000000e-01 4.61595038033650e-02 5.87877162387572e-05
2.98958333333333e-01 4.54993652852278e-02 7.70143929500404e-05
4.18541666666667e-01 4.48486675733341e-02 9.05062905144580e-05
5.38125000000000e-01 4.42072756512371e-02 1.01468671333342e-04
6.57708333333333e-01 4.35750564333695e-02 1.10744824275493e-04
7.77291666666667e-01 4.29518787398096e-02 1.18775869900286e-04
8.96875000000000e-01 4.23376132652820e-02 1.25830980410497e-04
1.01645833333333e+00 4.17321325532628e-02 1.32090505033379e-04
1.13604166666667e+00 4.11353109713640e-02 1.37683190512612e-04
1.25562500000000e+00 4.05470246844972e-02 1.42705278653732e-04
1.37520833333333e+00 3.99671516227077e-02 1.47231279891248e-04
1.49479166666667e+00 3.93955714710100e-02 1.51320496466008e-04
1.61437500000000e+00 3.88321656300087e-02 1.55021193517160e-04
1.73395833333333e+00 3.82768171934399e-02 1.58373382675254e-04
1.85354166666667e+00 3.77294109338078e-02 1.61410750740887e-04
1.97312500000000e+00 3.71898332678020e-02 1.64162035259862e-04
2.09270833333333e+00 3.66579722340813e-02 1.66652029006982e-04
2.21229166666667e+00 3.61337174778684e-02 1.68902332739929e-04
2.33187500000000e+00 3.56169602197201e-02 1.70931928876476e-04
2.45145833333333e+00 3.51075932338822e-02 1.72757624439924e-04
2.57104166666667e+00 3.46055108324192e-02 1.74394400948110e-04
2.69062500000000e+00 3.41106088365525e-02 1.75855693277178e-04
2.81020833333333e+00 3.36227845557148e-02 1.77153613119240e-04
2.92979166666667e+00 3.31419367715575e-02 1.78299132516452e-04
3.04937500000000e+00 3.26679657113736e-02 1.79302234954727e-04
3.16895833333333e+00 3.22007730279010e-02 1.80172039550767e-04
3.28854166666667e+00 3.17402617834214e-02 1.80916906287943e-04
3.40812500000000e+00 3.12863364249433e-02 1.81544524806420e-04
3.52770833333333e+00 3.08389027647686e-02 1.82061988647150e-04
3.64729166666667e+00 3.03978679648189e-02 1.82475859869478e-04
3.76687500000000e+00 2.99631405133472e-02 1.82792224632855e-04
3.88645833333333e+00 2.95346302062640e-02 1.83016740185513e-04
4.00604166666667e+00 2.91122481317795e-02 1.83154676760440e-04
4.12562500000000e+00 2.86959066484709e-02 1.83210954177817e-04
4.24520833333333e+00 2.82855193673534e-02 1.83190172972757e-04
4.36479166666667e+00 2.78810011368959e-02 1.83096642790933e-04
4.48437500000000e+00 2.74822680223096e-02 1.82934407516035e-04
4.60395833333333e+00 2.70892372883430e-02 1.82707266674120e-04
4.72354166666667e+00 2.67018273847097e-02 1.82418795401533e-04
4.84312500000000e+00 2.63199579264879e-02 1.82072362304757e-04
4.96270833333333e+00 2.59435496776182e-02 1.81671144641682e-04
5.08229166666667e+00 2.55725245367650e-02 1.81218142806639e-04
5.20187500000000e+00 2.52068055187378e-02 1.80716193404154e-04
5.32145833333333e+00 2.48463167386661e-02 1.80167980300589e-04
5.44104166666667e+00 2.44909833983099e-02 1.79576045414804e-04
5.56062500000000e+00 2.41407317684234e-02 1.78942798533318e-04
5.68020833333333e+00 2.37954891735850e-02 1.78270525535663e-04
5.79979166666667e+00 2.34551839789603e-02 1.77561396619531e-04
5.91937500000000e+00 2.31197455735438e-02 1.76817473832539e-04
6.03895833333333e+00 2.27891043556183e-02 1.76040717311242e-04
6.15854166666667e+00 2.24631917199717e-02 1.75232991677217e-04
6.27812500000000e+00 2.21419400419585e-02 1.74396071928065e-04
6.39770833333333e+00 2.18252826635638e-02 1.73531648247798e-04
6.51729166666667e+00 2.15131538810713e-02 1.72641331068420e-04
6.63687500000000e+00 2.12054889298925e-02 1.71726655755550e-04
6.75645833333333e+00 2.09022239712123e-02 1.70789086370253e-04
6.87604166666667e+00 2.06032960801013e-02 1.69830019736862e-04
6.99562500000000e+00 2.03086432310672e-02 1.68850789225448e-04
7.11520833333333e+00 2.00182042852581e-02 1.67852667730191e-04
7.23479166666667e+00 1.97319189790122e-02 1.66836870983525e-04
7.35437500000000e+00 1.94497279100878e-02 1.65804560649935e-04
7.47395833333333e+00 1.91715725254038e-02 1.64756846709555e-04
7.59354166666667e+00 1.88973951100152e-02 1.63694790191292e-04
7.71312500000000e+00 1.86271387739861e-02 1.62619405733076e-04
7.83270833333333e+00 1.83607474406429e-02 1.61531663507547e-04
7.95229166666667e+00 1.80981658359672e-02 1.60432491500575e-04
8.07187500000000e+00 1.78393394760751e-02 1.59322777652199e-04
8.19145833333333e+00 1.75842146559637e-02 1.58203371425265e-04
8.31104166666667e+00 1.73327384393090e-02 1.57075085723458e-04
8.43062500000000e+00 1.70848586465197e-02 1.55938698698446e-04
8.55020833333333e+00 1.68405238439564e-02 1.54794955036890e-04
8.66979166666667e+00 1.65996833341231e-02 1.53644567589123e-04
8.78937500000000e+00 1.63622871442652e-02 1.52488218907406e-04
8.90895833333333e+00 1.61282860160424e-02 1.51326562308520e-04
9.02854166666667e+00 1.58976313961010e-02 1.50160223267619e-04
9.14812500000000e+00 1.56702754251893e-02 1.48989800737519e-04
9.26770833333333e+00 1.54461709282647e-02 1.47815868030799e-04
9.38729166666667e+00 1.52252714054347e-02 1.46638974021107e-04
9.50687500000000e+00 1.50075310215640e-02 1.45459644282391e-04
9.62645833333333e+00 1.47929045967970e-02 1.44278381824634e-04
9.74604166666667e+00 1.45813475978568e-02 1.43095668135790e-04
9.86562500000000e+00 1.43728161281178e-02 1.41911964171588e-04
9.98520833333333e+00 1.41672669185283e-02 1.40727710971649e-04
1.01047916666667e+01 1.39646573192534e-02 1.39543330469596e-04
1.02243750000000e+01 1.37649452907702e-02 1.38359226853098e-04
1.03439583333333e+01 1.35680893922777e-02 1.37175786190402e-04
1.04635416666667e+01 1.33740487794690e-02 1.35993377619708e-04
1.05831250000000e+01 1.31827831902026e-02 1.34812355098039e-04
1.07027083333333e+01 1.29942529363995e-02 1.33633056074099e-04
1.08222916666667e+01 1.28084189011222e-02 1.32455803073061e-04
1.09418750000000e+01 1.26252425250420e-02 1.31280905195330e-04
1.10614583333333e+01 1.24446857986676e-02 1.30108656824512e-04
1.11810416666667e+01 1.22667112593814e-02 1.28939339079543e-04
1.13006250000000e+01 1.20912819786500e-02 1.27773221189178e-04
1.14202083333333e+01 1.19183615545715e-02 1.26610559239250e-04
1.15397916666667e+01 1.17479141088876e-02 1.25451597507062e-04
1.16593750000000e+01 1.15799042748887e-02 1.24296569725469e-04
1.17789583333333e+01 1.14142971902671e-02 1.23145697872110e-04
1.18985416666667e+01 1.12510584941217e-02 1.21999193398782e-04
1.20181250000000e+01 1.10901543155120e-02 1.20857258396896e-04
1.21377083333333e+01 1.09315512666058e-02 1.19720084430267e-04
1.22572916666667e+01 1.07752164396899e-02 1.18587853670344e-04
1.23768750000000e+01 1.06211173963320e-02 1.17460739973139e-04
1.24964583333333e+01 1.04692221608114e-02 1.16338907756339e-04
1.26160416666667e+01 1.03194992171470e-02 1.15222513049778e-04
1.27356250000000e+01 1.01719174988294e-02 1.14111704492564e-04
1.28552083333333e+01 1.00264463825231e-02 1.13006622254640e-04
1.29747916666667e+01 9.88305568512211e-03 1.11907399010624e-04
1.30943750000000e+01 9.74171565401690e-03 1.10814160864732e-04
1.32139583333333e+01 9.60239696105760e-03 1.09727026316453e-04
1.33335416666667e+01 9.46507069964480e-03 1.08646107164859e-04
1.34531250000000e+01 9.32970837550003e-03 1.07571509367953e-04
1.35727083333333e+01 9.19628190087874e-03 1.06503332051781e-04
1.36922916666667e+01 9.06476359170370e-03 1.05441668351452e-04
1.38118750000000e+01 8.93512615880847e-03 1.04386606210734e-04
1.39314583333333e+01 8.80734270239083e-03 1.03338227433668e-04
1.40510416666667e+01 8.68138670919395e-03 1.02296608467801e-04
1.41706250000000e+01 8.55723204419547e-03 1.01261821149198e-04
1.42902083333333e+01 8.43485294529145e-03 1.00233931795428e-04
1.44097916666667e+01 8.31422402053014e-03 9.92130019358894e-05
1.45293750000000e+01 8.19532024022080e-03 9.81990890068314e-05
1.46489583333333e+01 8.07811693183903e-03 9.71922454844431e-05
1.47685416666667e+01 7.96258977731670e-03 9.61925195666445e-05
1.48881250000000e+01 7.84871480554674e-03 9.51999558221729e-05
1.50077083333333e+01 7.73646838750076e-03 9.42145943624673e-05
1.51272916666667e+01 7.62582723357821e-03 9.32364714788019e-05
1.52468750000000e+01 7.51676838648486e-03 9.22656202491044e-05
1.53664583333333e+01 7.40926921655404e-03 9.13020697472410e-05
1.54860416666667e+01 7.30330741915734e-03 9.03458456390024e-05
1.56056250000000e+01 7.19886100793601e-03 8.93969707499248e-05
1.57252083333333e+01 7.09590831031755e-03 8.84554643105712e-05
1.58447916666667e+01 6.99442796498962e-03 8.75213425145122e-05
1.59643750000000e+01 6.89439891546509e-03 8.65946190501296e-05
1.60839583333333e+01 6.79580040578577e-03 8.56753043804711e-05
1.62035416666667e+01 6.69861197806102e-03 8.47634062660678e-05
1.63231250000000e+01 6.60281346634807e-03 8.38589302634018e-05
1.64427083333333e+01 6.50838499253544e-03 8.29618790379289e-05
1.65622916666667e+01 6.41530696394688e-03 8.20722528543220e-05
1.66818750000000e+01 6.32356006752009e-03 8.11900500440303e-05
1.68014583333333e+01 6.23312526586234e-03 8.03152663500751e-05
1.69210416666667e+01 6.14398379492025e-03 7.94478953870760e-05
1.70406250000000e+01 6.05611715844102e-03 7.85879290801162e-05
1.71602083333333e+01 5.96950712419307e-03 7.77353570399440e-05
1.72797916666667e+01 5.88413572170190e-03 7.68901669949298e-05
1.73993750000000e+01 5.79998523697874e-03 7.60523452032527e-05
1.75189583333333e+01 5.71703820889953e-03 7.52218758571901e-05
1.76385416666667e+01 5.63527742700661e-03 7.43987414889481e-05
1.77581250000000e+01 5.55468592649087e-03 7.35829233580250e-05
1.78777083333333e+01 5.47524698472244e-03 7.27744008832952e-05
1.79972916666667e+01 5.39694411911785e-03 7.19731520245174e-05
1.81168750000000e+01 5.31976108236249e-03 7.11791536465630e-05
1.82364583333333e+01 5.24368185908674e-03 7.03923809780453e-05
1.83560416666667e+01 5.16869066379802e-03 6.96128079701450e-05
1.84756250000000e+01 5.09477193633114e-03 6.88404076392628e-05
1.85952083333333e+01 5.02191033866381e-03 6.80751515509958e-05
1.87147916666667e+01 4.95009075291289e-03 6.73170101577855e-05
1.88343750000000e+01 4.87929827700093e-03 6.65659531214362e-05
1.89539583333333e+01 4.80951822160524e-03 6.58219488212673e-05
1.90735416666667e+01 4.74073610821747e-03 6.50849646719854e-05
1.91931250000000e+01 4.67293766501531e-03 6.43549674273799e-05
1.93127083333333e+01 4.60610882393960e-03 6.36319227115420e-05
1.94322916666667e+01 4.54023571881623e-03 6.29157953182494e-05
1.95518750000000e+01 4.47530468142254e-03 6.22065494970565e-05
1.96714583333333e+01 4.41130223868725e-03 6.15041485065047e-05
1.97910416666667e+01 4.34821511087348e-03 6.08085548962106e-05
1.99106250000000e+01 4.28603020783015e-03 6.01197307764808e-05
2.00302083333333e+01 4.22473462630947e-03 5.94376373924872e-05
2.01497916666667e+01 4.16431564821002e-03 5.87622353901550e-05
2.02693750000000e+01 4.10476073700386e-03 5.80934850703454e-05
2.03889583333333e+01 4.04605753516668e-03 5.74313459830201e-05
2.05085416666667e+01 3.98819386247965e-03 5.67757771779461e-05
2.06281250000000e+01 3.93115771262349e-03 5.61267374444108e-05
2.07477083333333e+01 3.87493725071666e-03 5.54841849244345e-05
2.08672916666667e+01 3.81952081167460e-03 5.48480773492452e-05
2.09868750000000e+01 3.76489689696252e-03 5.42183722654203e-05
2.11064583333333e+01 3.71105417223710e-03 5.35950266662514e-05
2.12260416666667e+01 3.65798146576178e-03 5.29779972148644e-05
2.13456250000000e+01 3.60566776531050e-03 5.23672404576231e-05
2.14652083333333e+01 3.55410221590849e-03 5.17627124727909e-05
2.15847916666667e+01 3.50327411830234e-03 5.11643690811145e-05
2.17043750000000e+01 3.45317292600718e-03 5.05721660472665e-05
2.18239583333333e+01 3.40378824314253e-03 4.99860587449859e-05
2.19435416666667e+01 3.35510982295565e-03 4.94060023558792e-05
2.20631250000000e+01 3.30712756500523e-03 4.88319520596315e-05
2.21827083333333e+01 3.25983151308827e-03 4.82638627148417e-05
2.23022916666667e+01 3.21321185381532e-03 4.77016890467587e-05
2.24218750000000e+01 3.16725891392408e-03 4.71453858269304e-05
2.25414583333333e+01 3.12196315829345e-03 4.65949075689853e-05
2.26610416666667e+01 3.07731518856926e-03 4.60502087059663e-05
2.27806250000000e+01 3.03330574060145e-03 4.55112437600475e-05
2.29002083333333e+01 2.98992568254176e-03 4.49779670525561e-05
2.30197916666667e+01 2.94716601351842e-03 4.44503328715208e-05
2.31393750000000e+01 2.90501786119100e-03 4.39282956320407e-05
2.32589583333333e+01 2.86347247992815e-03 4.34118095998726e-05
2.33785416666667e+01 2.82252124952998e-03 4.29008290497690e-05
2.34981250000000e+01 2.78215567289484e-03 4.23953084170500e-05
2.36177083333333e+01 2.74236737427381e-03 4.18952020341108e-05
2.37372916666667e+01 2.70314809803927e-03 4.14004642800911e-05
2.38568750000000e+01 2.66448970645833e-03 4.09110497241628e-05
2.39764583333333e+01 2.62638417802086e-03 4.04269128743438e-05
2.40960416666667e+01 2.58882360625279e-03 3.99480083190003e-05
2.42156250000000e+01 2.55180019759119e-03 3.94742908623324e-05
2.43352083333333e+01 2.51530626978266e-03 3.90057152849113e-05
2.44547916666667e+01 2.47933425074009e-03 3.85422364774879e-05
2.45743750000000e+01 2.44387667651450e-03 3.80838095691222e-05
2.46939583333333e+01 2.40892618976084e-03 3.76303896988903e-05
2.48135416666667e+01 2.37447553863688e-03 3.71819321424409e-05
2.49331250000000e+01 2.34051757486714e-03 3.67383924331941e-05
2.50527083333333e+01 2.30704525227344e-03 3.62997261446826e-05
2.51722916666667e+01 2.27405162571440e-03 3.58658890102705e-05
2.52918750000000e+01 2.24152984923727e-03 3.54368370378218e-05
2.54114583333333e+01 2.20947317467035e-03 3.50125263021681e-05
2.55310416666667e+01 2.17787495060194e-03 3.45929130583822e-05
2.56506250000000e+01 2.14672862061585e-03 3.41779538502828e-05
2.57702083333333e+01 2.11602772194313e-03 3.37676053125514e-05
2.58897916666667e+01 2.08576588447914e-03 3.33618242779250e-05
2.60093750000000e+01 2.05593682909884e-03 3.29605678798834e-05
2.61289583333333e+01 2.02653436636536e-03 3.25637933639607e-05
2.62485416666667e+01 1.99755239558389e-03 3.21714581892003e-05
2.63681250000000e+01 1.96898490319305e-03 3.17835201253495e-05
2.64877083333333e+01 1.94082596152785e-03 3.13999370729320e-05
2.66072916666667e+01 1.91306972790927e-03 3.10206671592841e-05
2.67268750000000e+01 1.88571044310806e-03 3.06456688305685e-05
2.68464583333333e+01 1.85874243015990e-03 3.02749006801912e-05
2.69660416666667e+01 1.83216009348934e-03 2.99083215397230e-05
2.70856250000000e+01 1.80595791744279e-03 2.95458905660195e-05
2.72052083333333e+01 1.78013046515359e-03 2.91875670775867e-05
2.73247916666667e+01 1.75467237769918e-03 2.88333106406763e-05
2.74443750000000e+01 1.72957837270006e-03 2.84830811517806e-05
2.75639583333333e+01 1.70484324323266e-03 2.81368386815746e-05
2.76835416666667e+01 1.68046185701862e-03 2.77945435564449e-05
2.78031250000000e+01 1.65642915508664e-03 2.74561564366227e-05
2.79227083333333e+01 1.63274015073118e-03 2.71216381673433e-05
2.80422916666667e+01 1.60938992873267e-03 2.67909498560633e-05
2.81618750000000e+01 1.58637364407938e-03 2.64640529464685e-05
2.82814583333333e+01 1.56368652096999e-03 2.61409090765079e-05
2.84010416666667e+01 1.54132385206376e-03 2.58214801515399e-05
2.85206250000000e+01 1.51928099725947e-03 2.55057284144399e-05
2.86402083333333e+01 1.49755338274021e-03 2.51936163101882e-05
2.87597916666667e+01 1.47613650025224e-03 2.48851065551658e-05
2.88793750000000e+01 1.45502590593862e-03 2.45801622035763e-05
2.89989583333333e+01 1.43421721942418e-03 2.42787465182785e-05
2.91185416666667e+01 1.41370612312228e-03 2.39808230364421e-05
2.92381250000000e+01 1.39348836112043e-03 2.36863556324853e-05
2.93577083333333e+01 1.37355973830395e-03 2.33953083948558e-05
2.94772916666667e+01 1.35391611968941e-03 2.31076456882477e-05
2.95968750000000e+01 1.33455342936006e-03 2.28233322132438e-05
2.97164583333333e+01 1.31546764962638e-03 2.25423328887671e-05
2.98360416666667e+01 1.29665482038538e-03 2.22646129110438e-05
2.99556250000000e+01 1.27811103810345e-03 2.19901378101275e-05
3.00752083333333e+01 1.25983245501233e-03 2.17188733377573e-05
3.01947916666667e+01 1.24181527849328e-03 2.14507855232402e-05
3.03143750000000e+01 1.22405577010522e-03 2.11858407270285e-05
3.04339583333333e+01 1.20655024481459e-03 2.09240055337312e-05
3.05535416666667e+01 1.18929507040355e-03 2.06652468050816e-05
3.06731250000000e+01 1.17228666654126e-03 2.04095317307254e-05
3.07927083333333e+01 1.15552150404627e-03 2.01568277261422e-05
3.09122916666667e+01 1.13899610431782e-03 1.99071024828601e-05
3.10318750000000e+01 1.12270703844833e-03 1.96603240166024e-05
3.11514583333333e+01 1.10665092651698e-03 1.94164605698899e-05
3.12710416666667e+01 1.09082443704316e-03 1.91754806596478e-05
3.13906250000000e+01 1.07522428613844e-03 1.89373531228537e-05
3.15102083333333e+01 1.05984723682983e-03 1.87020470236029e-05
3.16297916666667e+01 1.04469009853480e-03 1.84695316982466e-05
3.17493750000000e+01 1.02974972625071e-03 1.82397767986749e-05
3.18689583333333e+01 1.01502301990672e-03 1.80127522036381e-05
3.19885416666667e+01 1.00050692385934e-03 1.77884280615458e-05
3.21081250000000e+01 9.86198426117850e-04 1.75667748315113e-05
3.22277083333333e+01 9.72094557723480e-04 1.73477631987297e-05
3.23472916666667e+01 9.58192392264866e-04 1.71313641150652e-05
3.24668750000000e+01 9.44489045137687e-04 1.69175488379754e-05
3.25864583333333e+01 9.30981672950092e-04 1.67062888497548e-05
3.27060416666667e+01 9.17667473057235e-04 1.64975558960296e-05
3.28256250000000e+01 9.04543682853641e-04 1.62913220226733e-05
3.29452083333333e+01 8.91607579203730e-04 1.60875594987376e-05
3.30647916666667e+01 8.78856477994736e-04 1.58862408529637e-05
3.31843750000000e+01 8.66287733460322e-04 1.56873389087965e-05
3.33039583333333e+01 8.53898737635141e-04 1.54908267108324e-05
3.34235416666667e+01 8.41686919925447e-04 1.52966775594497e-05
3.35431250000000e+01 8.29649746462550e-04 1.51048650440233e-05
3.36627083333333e+01 8.17784719580407e-04 1.49153629727254e-05
3.37822916666667e+01 8.06089377403245e-04 1.47281454053756e-05
3.39018750000000e+01 7.94561293227526e-04 1.45431866849496e-05
3.40214583333333e+01 7.83198075021587e-04 1.43604613705780e-05
3.41410416666667e+01 7.71997365029633e-04 1.41799442687097e-05
3.42606250000000e+01 7.60956839180930e-04 1.40016104630039e-05
3.43802083333333e+01 7.50074206610569e-04 1.38254352503785e-05
3.44997916666667e+01 7.39347209279200e-04 1.36513941705765e-05
3.46193750000000e+01 7.28773621408235e-04 1.34794630345263e-05
3.47389583333333e+01 7.18351249020841e-04 1.33096178632974e-05
3.48585416666667e+01 7.08077929576819e-04 1.31418349161540e-05
3.49781250000000e+01 6.97951531432646e-04 1.29760907174643e-05
3.50977083333333e+01 6.87969953401850e-04 1.28123619984289e-05
3.52172916666667e+01 6.78131124404448e-04 1.26506257237007e-05
3.53368750000000e+01 6.68433002950719e-04 1.24908591169182e-05
3.54564583333333e+01 6.58873576720143e-04 1.23330396050800e-05
3.55760416666667e+01 6.49450862224835e-04 1.21771448438050e-05
3.56956250000000e+01 6.40162904315992e-04 1.20231527415618e-05
3.58152083333333e+01 6.31007775780615e-04 1.18710414065670e-05
3.59347916666667e+01 6.21983577018391e-04 1.17207891707569e-05
3.60543750000000e+01 6.13088435569813e-04 1.15723746127812e-05
3.61739583333333e+01 6.04320505729922e-04 1.14257765073082e-05
3.62935416666667e+01 5.95677968238133e-04 1.12809738477750e-05
3.64131250000000e+01 5.87159029827046e-04 1.11379458682098e-05
3.65327083333333e+01 5.78761922852503e-04 1.09966719948335e-05
3.66522916666667e+01 5.70484904995843e-04 1.08571318676521e-05
3.67718750000000e+01 5.62326258832494e-04 1.07193053611680e-05
3.68914583333333e+01 5.54284291477653e-04 1.05831725381727e-05
3.70110416666667e+01 5.46357334300486e-04 1.04487136702405e-05
3.71306250000000e+01 5.38543742511622e-04 1.03159092573877e-05
3.72502083333333e+01 5.30841894823792e-04 1.01847399839544e-05
3.73697916666667e+01 5.23250193177518e-04 1.00551867380582e-05
3.74893750000000e+01 5.15767062346662e-04 9.92723063025400e-06
3.76089583333333e+01 5.08390949613398e-04 9.80085295140993e-06
3.77285416666667e+01 5.01120324504934e-04 9.67603519117420e-06
