Energy (eV)          EEDF (eV^-(3/2))     First Anisotropy
5.60869565217391e-03 1.72998921819143e+00 1.32502569622979e-03
1.68260869565217e-02 1.70424876537165e+00 2.17904200333181e-03
2.80434782608696e-02 1.67889130390700e+00 2.85296401561687e-03
3.92608695652174e-02 1.65391113528034e+00 3.35080031746468e-03
5.04782608695652e-02 1.62930264576353e+00 3.75445705512579e-03
6.16956521739130e-02 1.60506030515512e+00 4.09528368006949e-03
7.29130434782609e-02 1.58117866553741e+00 4.38969309037987e-03
8.41304347826087e-02 1.55765236005214e+00 4.64770872443270e-03
9.53478260869565e-02 1.53447610169438e+00 4.87605177166342e-03
1.06565217391304e-01 1.51164468205482e+00 5.07952396855553e-03
1.17782608695652e-01 1.48915297042859e+00 5.26171734762453e-03
1.29000000000000e-01 1.46699591229008e+00 5.42541481758223e-03
1.40217391304348e-01 1.44516852817901e+00 5.57283269339739e-03
1.51434782608696e-01 1.42366591305122e+00 5.70577586854613e-03
1.62652173913043e-01 1.40248323466705e+00 5.82574149077247e-03
1.73869565217391e-01 1.38161573257324e+00 5.93399067731387e-03
1.85086956521739e-01 1.36105871739789e+00 6.03159974754264e-03
1.96304347826087e-01 1.34080756940894e+00 6.11949771030804e-03
2.07521739130435e-01 1.32085773761308e+00 6.19849427189233e-03
2.18739130434783e-01 1.30120473864658e+00 6.26930119199075e-03
2.29956521739130e-01 1.28184415603390e+00 6.33254886123776e-03
2.41173913043478e-01 1.26277163891717e+00 6.38879935217410e-03
2.52391304347826e-01 1.24398290110463e+00 6.43855676993680e-03
2.63608695652174e-01 1.22547372032862e+00 6.48227565461300e-03
2.74826086956522e-01 1.20723993706532e+00 6.52036783426644e-03
2.86043478260870e-01 1.18927745362112e+00 6.55320801926141e-03
2.97260869565217e-01 1.17158223339836e+00 6.58113849753843e-03
3.08478260869565e-01 1.15415029979368e+00 6.60447306831519e-03
3.19695652173913e-01 1.13697773531982e+00 6.62350031722310e-03
3.30913043478261e-01 1.12006068088626e+00 6.63848644278942e-03
3.42130434782609e-01 1.10339533476559e+00 6.64967767023800e-03
3.53347826086957e-01 1.08697795179629e+00 6.65730230850703e-03
3.64565217391304e-01 1.07080484249888e+00 6.66157253246658e-03
3.75782608695652e-01 1.05487237237742e+00 6.66268594823233e-03
3.87000000000000e-01 1.03917696096789e+00 6.66082696588989e-03
3.98217391304348e-01 1.02371508104299e+00 6.65616796861796e-03
4.09434782608696e-01 1.00848325793407e+00 6.64887037834899e-03
4.20652173913043e-01 9.93478068631965e-01 6.63908559929142e-03
4.31869565217391e-01 9.78696141025632e-01 6.62695582307206e-03
4.43086956521739e-01 9.64134153245724e-01 6.61261477900074e-03
4.54304347826087e-01 9.49788832813750e-01 6.59618840228941e-03
4.65521739130435e-01 9.35656955942478e-01 6.57779541907836e-03
4.76739130434783e-01 9.21735346783472e-01 6.55754787491613e-03
4.87956521739130e-01 9.08020876799034e-01 6.53555162361344e-03
4.99173913043478e-01 8.94510463971347e-01 6.51190677336949e-03
5.10391304347826e-01 8.81201072114994e-01 6.48670806430746e-03
5.21608695652174e-01 8.68089710271271e-01 6.46004523877571e-03
5.32826086956522e-01 8.55173431957328e-01 6.43200337916190e-03
5.44043478260870e-01 8.42449334508658e-01 6.40266319122914e-03
5.55260869565217e-01 8.29914558495578e-01 6.37210128862498e-03
5.66478260869565e-01 8.17566287010035e-01 6.34039045408519e-03
5.77695652173913e-01 8.05401745036425e-01 6.30759985594568e-03
5.88913043478261e-01 7.93418198890193e-01 6.27379527089354e-03
6.00130434782609e-01 7.81612955539865e-01 6.23903928732759e-03
6.11347826086957e-01 7.69983362023511e-01 6.20339148279252e-03
6.22565217391304e-01 7.58526804834977e-01 6.16690858956628e-03
6.33782608695652e-01 7.47240709390457e-01 6.12964465685998e-03
6.45000000000000e-01 7.36122539394791e-01 6.09165120398746e-03
6.56217391304348e-01 7.25169796274347e-01 6.05297734290137e-03
6.67434782608696e-01 7.14380018664479e-01 6.01366991198011e-03
6.78652173913044e-01 7.03750781806291e-01 5.97377360083506e-03
6.89869565217391e-01 6.93279697004264e-01 5.93333104821784e-03
7.01086956521739e-01 6.82964411134075e-01 5.89238295195512e-03
7.12304347826087e-01 6.72802606068196e-01 5.85096817004485e-03
7.23521739130435e-01 6.62791998170476e-01 5.80912380707550e-03
7.34739130434783e-01 6.52930337770096e-01 5.76688529629343e-03
7.45956521739131e-01 6.43215408695229e-01 5.72428648352966e-03
7.57173913043478e-01 6.33645027735003e-01 5.68135970808513e-03
7.68391304347826e-01 6.24217044150756e-01 5.63813586297746e-03
7.79608695652174e-01 6.14929339228614e-01 5.59464446734470e-03
7.90826086956522e-01 6.05779825766682e-01 5.55091373470218e-03
8.02043478260870e-01 5.96766447607745e-01 5.50697062246828e-03
8.13260869565217e-01 5.87887179210109e-01 5.46284089343731e-03
8.24478260869565e-01 5.79140025158801e-01 5.41854917386913e-03
8.35695652173913e-01 5.70523019718658e-01 5.37411899445844e-03
8.46913043478261e-01 5.62034226422881e-01 5.32957284291426e-03
8.58130434782609e-01 5.53671737606985e-01 5.28493221238911e-03
8.69347826086957e-01 5.45433673990567e-01 5.24021764112195e-03
8.80565217391304e-01 5.37318184246167e-01 5.19544875076516e-03
8.91782608695652e-01 5.29323444610155e-01 5.15064428795536e-03
9.03000000000000e-01 5.21447658445441e-01 5.10582216526123e-03
9.14217391304348e-01 5.13689055838931e-01 5.06099948810033e-03
9.25434782608696e-01 5.06045893228602e-01 5.01619259219061e-03
9.36652173913044e-01 4.98516452986367e-01 4.97141707916529e-03
9.47869565217391e-01 4.91099043033176e-01 4.92668783918944e-03
9.59086956521739e-01 4.83791996481690e-01 4.88201908365713e-03
9.70304347826087e-01 4.76593671238330e-01 4.83742437521662e-03
9.81521739130435e-01 4.69502449642191e-01 4.79291665133856e-03
9.92739130434783e-01 4.62516738094761e-01 4.74850824737151e-03
1.00395652173913e+00 4.55634966722331e-01 4.70421092593244e-03
1.01517391304348e+00 4.48855588982894e-01 4.66003589138016e-03
1.02639130434783e+00 4.42177081391124e-01 4.61599381688104e-03
1.03760869565217e+00 4.35597943102965e-01 4.57209487319511e-03
1.04882608695652e+00 4.29116695605266e-01 4.52834873635618e-03
1.06004347826087e+00 4.22731882383779e-01 4.48476461140060e-03
1.07126086956522e+00 4.16442068595699e-01 4.44135126010617e-03
1.08247826086957e+00 4.10245840692093e-01 4.39811699023569e-03
1.09369565217391e+00 4.04141806267929e-01 4.35506969146003e-03
1.10491304347826e+00 3.98128593579076e-01 4.31221687107100e-03
1.11613043478261e+00 3.92204851291559e-01 4.26956563988526e-03
1.12734782608696e+00 3.86369248177836e-01 4.22712273710677e-03
1.13856521739130e+00 3.80620472817645e-01 4.18489454457236e-03
1.14978260869565e+00 3.74957233303383e-01 4.14288710045947e-03
1.16100000000000e+00 3.69378256949711e-01 4.10110612039582e-03
1.17221739130435e+00 3.63882289962440e-01 4.05955698595462e-03
1.18343478260870e+00 3.58468097293942e-01 4.01824477301043e-03
1.19465217391304e+00 3.53134462226517e-01 3.97717428004709e-03
1.20586956521739e+00 3.47880186145979e-01 3.93635001416989e-03
1.21708695652174e+00 3.42704088272247e-01 3.89577621037083e-03
1.22830434782609e+00 3.37605005394067e-01 3.85545684187935e-03
1.23952173913043e+00 3.32581791607601e-01 3.81539563014577e-03
1.25073913043478e+00 3.27633318058890e-01 3.77559606121217e-03
1.26195652173913e+00 3.22758472653033e-01 3.73606137432976e-03
1.27317391304348e+00 3.17956159917161e-01 3.69679458468904e-03
1.28439130434783e+00 3.13225300639824e-01 3.65779850619110e-03
1.29560869565217e+00 3.08564831667130e-01 3.61907573816380e-03
1.30682608695652e+00 3.03973705663774e-01 3.58062868052829e-03
1.31804347826087e+00 2.99450890877785e-01 3.54245954143207e-03
1.32926086956522e+00 2.94995370908606e-01 3.50457035055847e-03
1.34047826086957e+00 2.90606144447175e-01 3.46696294818472e-03
1.35169565217391e+00 2.86282225146664e-01 3.42963900411796e-03
1.36291304347826e+00 2.82022641303772e-01 3.39260003671551e-03
1.37413043478261e+00 2.77826435673149e-01 3.35584740041177e-03
1.38534782608696e+00 2.73692665252256e-01 3.31938229818264e-03
1.39656521739130e+00 2.69620401069454e-01 3.28320578742914e-03
1.40778260869565e+00 2.65608727975280e-01 3.24731878566896e-03
1.41900000000000e+00 2.61656744436755e-01 3.21172208112054e-03
1.43021739130435e+00 2.57763562308619e-01 3.17641632252768e-03
1.44143478260870e+00 2.53928306713267e-01 3.14140203464784e-03
1.45265217391304e+00 2.50150115763559e-01 3.10667963385011e-03
1.46386956521739e+00 2.46428140396354e-01 3.07224941672270e-03
1.47508695652174e+00 2.42761544181674e-01 3.03811157009437e-03
1.48630434782609e+00 2.39149503134772e-01 3.00426617545149e-03
1.49752173913043e+00 2.35591205530964e-01 2.97071321321500e-03
1.50873913043478e+00 2.32085851723195e-01 2.93745257123691e-03
1.51995652173913e+00 2.28632653940510e-01 2.90448403548232e-03
1.53117391304348e+00 2.25230836177342e-01 2.87180730279531e-03
1.54239130434783e+00 2.21879633951939e-01 2.83942199378407e-03
1.55360869565217e+00 2.18578294157250e-01 2.80732764252135e-03
1.56482608695652e+00 2.15326074891657e-01 2.77552370466768e-03
1.57604347826087e+00 2.12122245292306e-01 2.74400956080461e-03
1.58726086956522e+00 2.08966085370831e-01 2.71278452351304e-03
1.59847826086957e+00 2.05856885832851e-01 2.68184782879604e-03
1.60969565217391e+00 2.02793947975393e-01 2.65119864692332e-03
1.62091304347826e+00 1.99776583472321e-01 2.62083609339699e-03
1.63213043478261e+00 1.96804114239085e-01 2.59075921955484e-03
1.64334782608696e+00 1.93875872280329e-01 2.56096701938554e-03
1.65456521739130e+00 1.90991199539774e-01 2.53145843213144e-03
1.66578260869565e+00 1.88149447752359e-01 2.50223234481132e-03
1.67700000000000e+00 1.85349978298540e-01 2.47328759797746e-03
1.68821739130435e+00 1.82592162045079e-01 2.44462297798882e-03
1.69943478260870e+00 1.79875379251344e-01 2.41623722604423e-03
1.71065217391304e+00 1.77199019381744e-01 2.38812904733380e-03
1.72186956521739e+00 1.74562480984830e-01 2.36029710263792e-03
1.73308695652174e+00 1.71965171558121e-01 2.33274001391396e-03
1.74430434782609e+00 1.69406507414969e-01 2.30545636626653e-03
1.75552173913043e+00 1.66885913553392e-01 2.27844470985786e-03
1.76673913043478e+00 1.64402823526845e-01 2.25170356461432e-03
1.77795652173913e+00 1.61956679303713e-01 2.22523141329934e-03
1.78917391304348e+00 1.59546931182036e-01 2.19902670907011e-03
1.80039130434783e+00 1.57173037625341e-01 2.17308788314607e-03
1.81160869565217e+00 1.54834465154660e-01 2.14741333732360e-03
1.82282608695652e+00 1.52530688228630e-01 2.12200144857606e-03
1.83404347826087e+00 1.50261189125417e-01 2.09685057054266e-03
1.84526086956522e+00 1.48025457826356e-01 2.07195903750067e-03
1.85647826086957e+00 1.45822991889935e-01 2.04732515807622e-03
1.86769565217391e+00 1.43653296373505e-01 2.02294722173317e-03
1.87891304347826e+00 1.41515883687001e-01 1.99882350536719e-03
1.89013043478261e+00 1.39410273495192e-01 1.97495226654101e-03
1.90134782608696e+00 1.37335992609741e-01 1.95133174738796e-03
1.91256521739130e+00 1.35292574882860e-01 1.92796017576762e-03
1.92378260869565e+00 1.33279561102572e-01 1.90483576638604e-03
1.93500000000000e+00 1.31296498889499e-01 1.88195672406674e-03
1.94621739130435e+00 1.29342942585562e-01 1.85932123814534e-03
1.95743478260870e+00 1.27418453183109e-01 1.83692748793127e-03
1.96865217391304e+00 1.25522598196613e-01 1.81477364826633e-03
1.97986956521739e+00 1.23654951575486e-01 1.79285788352130e-03
1.99108695652174e+00 1.21815093608332e-01 1.77117835083039e-03
2.00230434782609e+00 1.20002610828627e-01 1.74973320095511e-03
2.01352173913043e+00 1.18217095921810e-01 1.72852057912064e-03
2.02473913043478e+00 1.16458147633741e-01 1.70753862771671e-03
2.03595652173913e+00 1.14725370672358e-01 1.68678548131139e-03
2.04717391304348e+00 1.13018375643654e-01 1.66625927126009e-03
2.05839130434783e+00 1.11336778939053e-01 1.64595813040287e-03
2.06960869565217e+00 1.09680202657682e-01 1.62588018774353e-03
2.08082608695652e+00 1.08048274521436e-01 1.60602357113645e-03
2.09204347826087e+00 1.06440627791332e-01 1.58638640792498e-03
2.10326086956522e+00 1.04856901185088e-01 1.56696682723731e-03
2.11447826086957e+00 1.03296738788838e-01 1.54776295548375e-03
2.12569565217391e+00 1.01759789998679e-01 1.52877292034019e-03
2.13691304347826e+00 1.00245709420088e-01 1.50999485481251e-03
2.14813043478261e+00 9.87541567976587e-02 1.49142689244574e-03
2.15934782608696e+00 9.72847969386332e-02 1.47306716961869e-03
2.17056521739130e+00 9.58372996375737e-02 1.45491382602454e-03
2.18178260869565e+00 9.44113396021646e-02 1.43696500513508e-03
2.19300000000000e+00 9.30065963801046e-02 1.41921885610382e-03
2.20421739130435e+00 9.16227542810644e-02 1.40167352977023e-03
2.21543478260870e+00 9.02595023240445e-02 1.38432718203417e-03
2.22665217391304e+00 8.89165341489654e-02 1.36717797730338e-03
2.23786956521739e+00 8.75935479540702e-02 1.35022408425379e-03
2.24908695652174e+00 8.62902464280977e-02 1.33346367774260e-03
2.26030434782609e+00 8.50063366834742e-02 1.31689493915032e-03
2.27152173913043e+00 8.37415301904934e-02 1.30051605671069e-03
2.28273913043478e+00 8.24955427124739e-02 1.28432522709049e-03
2.29395652173913e+00 8.12680942367473e-02 1.26832065184627e-03
2.30517391304348e+00 8.00589089273233e-02 1.25250054028774e-03
2.31639130434783e+00 7.88677150471229e-02 1.23686311240664e-03
2.32760869565217e+00 7.76942449022349e-02 1.22140659512641e-03
2.33882608695652e+00 7.65382347817535e-02 1.20612922389954e-03
2.35004347826087e+00 7.53994248985241e-02 1.19102924294275e-03
2.36126086956522e+00 7.42775593307575e-02 1.17610490658509e-03
2.37247826086957e+00 7.31723859600432e-02 1.16135447607592e-03
2.38369565217391e+00 7.20836564282722e-02 1.14677622206970e-03
2.39491304347826e+00 7.10111260680811e-02 1.13236842717049e-03
2.40613043478261e+00 6.99545538525046e-02 1.11812938256029e-03
2.41734782608696e+00 6.89137023408096e-02 1.10405738936806e-03
2.42856521739130e+00 6.78883376251350e-02 1.09015075883012e-03
2.43978260869565e+00 6.68782292779305e-02 1.07640781244331e-03
2.45100000000000e+00 6.58831503001704e-02 1.06282688308621e-03
2.46221739130435e+00 6.49028770665185e-02 1.04940631219140e-03
2.47343478260870e+00 6.39371892866748e-02 1.03614445185920e-03
2.48465217391304e+00 6.29858699441309e-02 1.02303966702473e-03
2.49586956521739e+00 6.20487052513605e-02 1.01009033247720e-03
2.50708695652174e+00 6.11254846017735e-02 9.97294834004950e-04
2.51830434782609e+00 6.02160005223900e-02 9.84651568491139e-04
2.52952173913043e+00 5.93200486272152e-02 9.72158944004089e-04
2.54073913043478e+00 5.84374275713077e-02 9.59815380730309e-04
2.55195652173913e+00 5.75679390022611e-02 9.47619308470261e-04
2.56317391304348e+00 5.67113875255540e-02 9.35569168438371e-04
2.57439130434783e+00 5.58675806505972e-02 9.23663415110678e-04
2.58560869565217e+00 5.50363287508634e-02 9.11900513590014e-04
2.59682608695652e+00 5.42174450212697e-02 9.00278940564367e-04
2.60804347826087e+00 5.34107454362033e-02 8.88797184353376e-04
2.61926086956522e+00 5.26160487081631e-02 8.77453745705669e-04
2.63047826086957e+00 5.18331762441612e-02 8.66247135545054e-04
2.64169565217391e+00 5.10619521142615e-02 8.55175876536889e-04
2.65291304347826e+00 5.03022030032688e-02 8.44238504697639e-04
2.66413043478261e+00 4.95537581747389e-02 8.33433567027357e-04
2.67534782608696e+00 4.88164494326096e-02 8.22759622332352e-04
2.68656521739130e+00 4.80901110834021e-02 8.12215241237622e-04
2.69778260869565e+00 4.73745798989871e-02 8.01799006196289e-04
2.70900000000000e+00 4.66696950799019e-02 7.91509512153283e-04
2.72021739130435e+00 4.59752982167637e-02 7.81345364550269e-04
2.73143478260870e+00 4.52912332621069e-02 7.71305180661767e-04
2.74265217391304e+00 4.46173464877920e-02 7.61387590969635e-04
2.75386956521739e+00 4.39534864529955e-02 7.51591237070566e-04
2.76508695652174e+00 4.32995039701762e-02 7.41914772365213e-04
2.77630434782609e+00 4.26552520715507e-02 7.32356862042132e-04
2.78752173913043e+00 4.20205859760649e-02 7.22916183059637e-04
2.79873913043478e+00 4.13953630568580e-02 7.13591424698261e-04
2.80995652173913e+00 4.07794428071063e-02 7.04381286794799e-04
2.82117391304348e+00 4.01726868148308e-02 6.95284480882817e-04
2.83239130434783e+00 3.95749587253346e-02 6.86299731367344e-04
2.84360869565217e+00 3.89861242127384e-02 6.77425773675406e-04
2.85482608695652e+00 3.84060509497918e-02 6.68661354833239e-04
2.86604347826087e+00 3.78346085781391e-02 6.60005233429442e-04
2.87726086956522e+00 3.72716686790228e-02 6.51456180086970e-04
2.88847826086957e+00 3.67171047425807e-02 6.43012975874494e-04
2.89969565217391e+00 3.61707921450094e-02 6.34674413300649e-04
2.91091304347826e+00 3.56326081148993e-02 6.26439297339154e-04
2.92213043478261e+00 3.51024317075528e-02 6.18306443767213e-04
2.93334782608696e+00 3.45801437778046e-02 6.10274679661210e-04
2.94456521739130e+00 3.40656269532460e-02 6.02342843345956e-04
2.95578260869565e+00 3.35587656078497e-02 5.94509784343081e-04
2.96700000000000e+00 3.30594458359846e-02 5.86774363763583e-04
2.97821739130435e+00 3.25675554252326e-02 5.79135452901706e-04
2.98943478260870e+00 3.20829838359820e-02 5.71591934084667e-04
3.00065217391304e+00 3.16056221717197e-02 5.64142701549708e-04
3.01186956521739e+00 3.11353631562010e-02 5.56786659975360e-04
3.02308695652174e+00 3.06721011093399e-02 5.49522724896513e-04
3.03430434782609e+00 3.02157319234620e-02 5.42349822643157e-04
3.04552173913044e+00 2.97661530399079e-02 5.35266890278771e-04
3.05673913043478e+00 2.93232634259853e-02 5.28272875926459e-04
3.06795652173913e+00 2.88869635509000e-02 5.21366737524407e-04
3.07917391304348e+00 2.84571553675281e-02 5.14547443552409e-04
3.09039130434783e+00 2.80337422861951e-02 5.07813973782571e-04
3.10160869565217e+00 2.76166291543809e-02 5.01165317980990e-04
3.11282608695652e+00 2.72057222353363e-02 4.94600476255174e-04
3.12404347826087e+00 2.68009291870188e-02 4.88118458986037e-04
3.13526086956522e+00 2.64021590413407e-02 4.81718287106003e-04
3.14647826086957e+00 2.60093221825270e-02 4.75398990979633e-04
3.15769565217391e+00 2.56223303306128e-02 4.69159611037686e-04
3.16891304347826e+00 2.52410965179263e-02 4.62999198433058e-04
3.18013043478261e+00 2.48655350707851e-02 4.56916813874225e-04
3.19134782608696e+00 2.44955615902425e-02 4.50911527923288e-04
3.20256521739130e+00 2.41310929331210e-02 4.44982420924028e-04
3.21378260869565e+00 2.37720471933282e-02 4.39128582930048e-04
3.22500000000000e+00 2.34183436834501e-02 4.33349113935356e-04
3.23621739130435e+00 2.30699029155850e-02 4.27643122883558e-04
3.24743478260870e+00 2.27266465866151e-02 4.22009728210371e-04
3.25865217391304e+00 2.23884975574391e-02 4.16448058405452e-04
3.26986956521739e+00 2.20553798367061e-02 4.10957250981087e-04
3.28108695652174e+00 2.17272185637377e-02 4.05536452721345e-04
3.29230434782609e+00 2.14039399917054e-02 4.00184819608210e-04
3.30352173913044e+00 2.10854714710577e-02 3.94901516748068e-04
3.31473913043478e+00 2.07717414331936e-02 3.89685718562594e-04
3.32595652173913e+00 2.04626793734874e-02 3.84536607911725e-04
3.33717391304348e+00 2.01582158381495e-02 3.79453376557917e-04
3.34839130434783e+00 1.98582824058824e-02 3.74435225647611e-04
3.35960869565217e+00 1.95628116734270e-02 3.69481364799301e-04
3.37082608695652e+00 1.92717372404145e-02 3.64591012311586e-04
3.38204347826087e+00 1.89849936944460e-02 3.59763395089219e-04
3.39326086956522e+00 1.87025165963912e-02 3.54997748805290e-04
3.40447826086957e+00 1.84242424651235e-02 3.50293317112340e-04
3.41569565217391e+00 1.81501087656336e-02 3.45649352047877e-04
3.42691304347826e+00 1.78800538925690e-02 3.41065114455333e-04
3.43813043478261e+00 1.76140171572016e-02 3.36539873164563e-04
3.44934782608696e+00 1.73519387737886e-02 3.32072905169965e-04
3.46056521739130e+00 1.70937598461374e-02 3.27663495557137e-04
3.47178260869565e+00 1.68394223543703e-02 3.23310937430089e-04
3.48300000000000e+00 1.65888691418854e-02 3.19014532044978e-04
3.49421739130435e+00 1.63420439018347e-02 3.14773588111761e-04
3.50543478260870e+00 1.60988911665258e-02 3.10587422141367e-04
3.51665217391304e+00 1.58593562928779e-02 3.06455358806564e-04
3.52786956521739e+00 1.56233854508430e-02 3.02376730217166e-04
3.53908695652174e+00 1.53909256113082e-02 2.98350876068482e-04
