Energy (eV)          EEDF (eV^-(3/2))     First Anisotropy
4.30000000000000e-03 1.73306889205361e+00 1.16427228581162e-03
1.29000000000000e-02 1.71326503730364e+00 1.91800793182249e-03
2.15000000000000e-02 1.69368748207518e+00 2.51999816672060e-03
3.01000000000000e-02 1.67433364043446e+00 2.97010369896414e-03
3.87000000000000e-02 1.65520095599661e+00 3.33956068472730e-03
4.73000000000000e-02 1.63628690158855e+00 3.65548766776983e-03
5.59000000000000e-02 1.61758897891532e+00 3.93201008830324e-03
6.45000000000000e-02 1.59910471823003e+00 4.17771204927022e-03
7.31000000000000e-02 1.58083167800774e+00 4.39832221182701e-03
8.17000000000000e-02 1.56276744462289e+00 4.59791439679009e-03
9.03000000000000e-02 1.54490963203052e+00 4.77952256658646e-03
9.89000000000000e-02 1.52725588145114e+00 4.94548722669952e-03
1.07500000000000e-01 1.50980386105912e+00 5.09766478857824e-03
1.16100000000000e-01 1.49255126567468e+00 5.23756120476728e-03
1.24700000000000e-01 1.47549581645948e+00 5.36642107177447e-03
1.33300000000000e-01 1.45863526061552e+00 5.48528920325870e-03
1.41900000000000e-01 1.44196737108765e+00 5.59505446981810e-03
1.50500000000000e-01 1.42548994626937e+00 5.69648181476255e-03
1.59100000000000e-01 1.40920080971204e+00 5.79023615096480e-03
1.67700000000000e-01 1.39309780983738e+00 5.87690053976253e-03
1.76300000000000e-01 1.37717881965329e+00 5.95699025283503e-03
1.84900000000000e-01 1.36144173647293e+00 6.03096381148870e-03
1.93500000000000e-01 1.34588448163693e+00 6.09923176818751e-03
2.02100000000000e-01 1.33050500023886e+00 6.16216377538816e-03
2.10700000000000e-01 1.31530126085379e+00 6.22009433698205e-03
2.19300000000000e-01 1.30027125526998e+00 6.27332753359777e-03
2.27900000000000e-01 1.28541299822361e+00 6.32214093944432e-03
2.36500000000000e-01 1.27072452713657e+00 6.36678889551911e-03
2.45100000000000e-01 1.25620390185719e+00 6.40750526547583e-03
2.53700000000000e-01 1.24184920440403e+00 6.44450577198768e-03
2.62300000000000e-01 1.22765853871249e+00 6.47798999016136e-03
2.70900000000000e-01 1.21363003038437e+00 6.50814305846682e-03
2.79500000000000e-01 1.19976182644034e+00 6.53513715535054e-03
2.88100000000000e-01 1.18605209507512e+00 6.55913278021406e-03
2.96700000000000e-01 1.17249902541555e+00 6.58027987005640e-03
3.05300000000000e-01 1.15910082728140e+00 6.59871877728002e-03
3.13900000000000e-01 1.14585573094892e+00 6.61458112957388e-03
3.22500000000000e-01 1.13276198691706e+00 6.62799058913027e-03
3.31100000000000e-01 1.11981786567639e+00 6.63906352551897e-03
3.39700000000000e-01 1.10702165748068e+00 6.64790961417085e-03
3.48300000000000e-01 1.09437167212102e+00 6.65463237049688e-03
3.56900000000000e-01 1.08186623870262e+00 6.65932962809501e-03
3.65500000000000e-01 1.06950370542405e+00 6.66209396819757e-03
3.74100000000000e-01 1.05728243935912e+00 6.66301310644883e-03
3.82700000000000e-01 1.04520082624113e+00 6.66217024221107e-03
3.91300000000000e-01 1.03325727024970e+00 6.65964437485374e-03
3.99900000000000e-01 1.02145019379993e+00 6.65551059086359e-03
4.08500000000000e-01 1.00977803733409e+00 6.64984032508923e-03
4.17100000000000e-01 9.98239259115563e-01 6.64270159899207e-03
4.25700000000000e-01 9.86832335025220e-01 6.63415923840003e-03
4.34300000000000e-01 9.75555758360121e-01 6.62427507294292e-03
4.42900000000000e-01 9.64408039634482e-01 6.61310811907689e-03
4.51500000000000e-01 9.53387706382939e-01 6.60071474836854e-03
4.60100000000000e-01 9.42493302966056e-01 6.58714884251051e-03
4.68700000000000e-01 9.31723390378050e-01 6.57246193636787e-03
4.77300000000000e-01 9.21076546056724e-01 6.55670335020170e-03
4.85900000000000e-01 9.10551363695560e-01 6.53992031208967e-03
4.94500000000000e-01 9.00146453057968e-01 6.52215807144764e-03
5.03100000000000e-01 8.89860439793652e-01 6.50346000445715e-03
5.11700000000000e-01 8.79691965257078e-01 6.48386771212026e-03
5.20300000000000e-01 8.69639686328013e-01 6.46342111158337e-03
5.28900000000000e-01 8.59702275234121e-01 6.44215852130765e-03
5.37500000000000e-01 8.49878419375577e-01 6.42011674060576e-03
5.46100000000000e-01 8.40166821151693e-01 6.39733112400787e-03
5.54700000000000e-01 8.30566197789519e-01 6.37383565087986e-03
5.63300000000000e-01 8.21075281174413e-01 6.34966299067349e-03
5.71900000000000e-01 8.11692817682532e-01 6.32484456415120e-03
5.80500000000000e-01 8.02417568015247e-01 6.29941060089580e-03
5.89100000000000e-01 7.93248307035451e-01 6.27339019338971e-03
5.97700000000000e-01 7.84183823605732e-01 6.24681134791976e-03
6.06300000000000e-01 7.75222920428399e-01 6.21970103254081e-03
6.14900000000000e-01 7.66364413887335e-01 6.19208522231251e-03
6.23500000000000e-01 7.57607133891655e-01 6.16398894200371e-03
6.32100000000000e-01 7.48949923721157e-01 6.13543630644214e-03
6.40700000000000e-01 7.40391639873528e-01 6.10645055867250e-03
6.49300000000000e-01 7.31931151913310e-01 6.07705410607325e-03
6.57900000000000e-01 7.23567342322580e-01 6.04726855456858e-03
6.66500000000000e-01 7.15299106353340e-01 6.01711474106290e-03
6.75100000000000e-01 7.07125351881597e-01 5.98661276421195e-03
6.83700000000000e-01 6.99044999263109e-01 5.95578201363935e-03
6.92300000000000e-01 6.91056981190772e-01 5.92464119769740e-03
7.00900000000000e-01 6.83160242553653e-01 5.89320836986200e-03
7.09500000000000e-01 6.75353740297614e-01 5.86150095384709e-03
7.18100000000000e-01 6.67636443287544e-01 5.82953576751602e-03
7.26700000000000e-01 6.60007332171160e-01 5.79732904566261e-03
7.35300000000000e-01 6.52465399244359e-01 5.76489646172853e-03
7.43900000000000e-01 6.45009648318120e-01 5.73225314851957e-03
7.52500000000000e-01 6.37639094586918e-01 5.69941371797865e-03
7.61100000000000e-01 6.30352764498644e-01 5.66639228006920e-03
7.69700000000000e-01 6.23149695626009e-01 5.63320246081920e-03
7.78300000000000e-01 6.16028936539428e-01 5.59985741957216e-03
7.86900000000000e-01 6.08989546681341e-01 5.56636986548916e-03
7.95500000000000e-01 6.02030596241980e-01 5.53275207334218e-03
8.04100000000000e-01 5.95151166036557e-01 5.49901589863671e-03
8.12700000000000e-01 5.88350347383846e-01 5.46517279209978e-03
8.21300000000000e-01 5.81627241986165e-01 5.43123381356535e-03
8.29900000000000e-01 5.74980961810716e-01 5.39720964528965e-03
8.38500000000000e-01 5.68410628972293e-01 5.36311060472482e-03
8.47100000000000e-01 5.61915375617322e-01 5.32894665677794e-03
8.55700000000000e-01 5.55494343809230e-01 5.29472742558182e-03
8.64300000000000e-01 5.49146685415126e-01 5.26046220580170e-03
8.72900000000000e-01 5.42871561993766e-01 5.22615997349999e-03
8.81500000000000e-01 5.36668144684815e-01 5.19182939658022e-03
8.90100000000000e-01 5.30535614099360e-01 5.15747884483130e-03
8.98700000000000e-01 5.24473160211682e-01 5.12311639959037e-03
9.07300000000000e-01 5.18479982252261e-01 5.08874986304213e-03
9.15900000000000e-01 5.12555288602006e-01 5.05438676717071e-03
9.24500000000000e-01 5.06698296687692e-01 5.02003438238185e-03
9.33100000000000e-01 5.00908232878594e-01 4.98569972580838e-03
9.41700000000000e-01 4.95184332384298e-01 4.95138956931448e-03
9.50300000000000e-01 4.89525839153684e-01 4.91711044721202e-03
9.58900000000000e-01 4.83932005775063e-01 4.88286866369979e-03
9.67500000000000e-01 4.78402093377451e-01 4.84867030004097e-03
9.76100000000000e-01 4.72935371532974e-01 4.81452122148741e-03
9.84700000000000e-01 4.67531118160393e-01 4.78042708396225e-03
9.93300000000000e-01 4.62188619429721e-01 4.74639334051178e-03
1.00190000000000e+00 4.56907169667938e-01 4.71242524753538e-03
1.01050000000000e+00 4.51686071265781e-01 4.67852787080392e-03
1.01910000000000e+00 4.46524634585598e-01 4.64470609127338e-03
1.02770000000000e+00 4.41422177870260e-01 4.61096461070307e-03
1.03630000000000e+00 4.36378027153102e-01 4.57730795708737e-03
1.04490000000000e+00 4.31391516168909e-01 4.54374048990713e-03
1.05350000000000e+00 4.26461986265908e-01 4.51026640520815e-03
1.06210000000000e+00 4.21588786318768e-01 4.47688974051321e-03
1.07070000000000e+00 4.16771272642597e-01 4.44361437957526e-03
1.07930000000000e+00 4.12008808907916e-01 4.41044405697683e-03
1.08790000000000e+00 4.07300766056615e-01 4.37738236258182e-03
1.09650000000000e+00 4.02646522218855e-01 4.34443274584581e-03
1.10510000000000e+00 3.98045462630933e-01 4.31159851998958e-03
1.11370000000000e+00 3.93496979554078e-01 4.27888286604069e-03
1.12230000000000e+00 3.89000472194177e-01 4.24628883674944e-03
1.13090000000000e+00 3.84555346622417e-01 4.21381936038206e-03
1.13950000000000e+00 3.80161015696837e-01 4.18147724439700e-03
1.14810000000000e+00 3.75816898984771e-01 4.14926517900813e-03
1.15670000000000e+00 3.71522422686185e-01 4.11718574063757e-03
1.16530000000000e+00 3.67277019557882e-01 4.08524139526463e-03
1.17390000000000e+00 3.63080128838579e-01 4.05343450167314e-03
1.18250000000000e+00 3.58931196174835e-01 4.02176731459983e-03
1.19110000000000e+00 3.54829673547832e-01 3.99024198778904e-03
1.19970000000000e+00 3.50775019200988e-01 3.95886057695593e-03
1.20830000000000e+00 3.46766697568394e-01 3.92762504266151e-03
1.21690000000000e+00 3.42804179204081e-01 3.89653725310257e-03
1.22550000000000e+00 3.38886940712078e-01 3.86559898681974e-03
1.23410000000000e+00 3.35014464677286e-01 3.83481193532562e-03
1.24270000000000e+00 3.31186239597130e-01 3.80417770565612e-03
1.25130000000000e+00 3.27401759813996e-01 3.77369782284792e-03
1.25990000000000e+00 3.23660525448445e-01 3.74337373234391e-03
1.26850000000000e+00 3.19962042333181e-01 3.71320680232944e-03
1.27710000000000e+00 3.16305821947778e-01 3.68319832600108e-03
1.28570000000000e+00 3.12691381354156e-01 3.65334952377057e-03
1.29430000000000e+00 3.09118243132790e-01 3.62366154540582e-03
1.30290000000000e+00 3.05585935319649e-01 3.59413547211142e-03
1.31150000000000e+00 3.02093991343854e-01 3.56477231854949e-03
1.32010000000000e+00 2.98641949966055e-01 3.53557303480386e-03
1.32870000000000e+00 2.95229355217502e-01 3.50653850828899e-03
1.33730000000000e+00 2.91855756339821e-01 3.47766956560550e-03
1.34590000000000e+00 2.88520707725474e-01 3.44896697434331e-03
1.35450000000000e+00 2.85223768858899e-01 3.42043144483474e-03
1.36310000000000e+00 2.81964504258326e-01 3.39206363185932e-03
1.37170000000000e+00 2.78742483418254e-01 3.36386413630070e-03
1.38030000000000e+00 2.75557280752587e-01 3.33583350675797e-03
1.38890000000000e+00 2.72408475538421e-01 3.30797224111258e-03
1.39750000000000e+00 2.69295651860470e-01 3.28028078805211e-03
1.40610000000000e+00 2.66218398556131e-01 3.25275954855256e-03
1.41470000000000e+00 2.63176309161174e-01 3.22540887731971e-03
1.42330000000000e+00 2.60168981856055e-01 3.19822908419121e-03
1.43190000000000e+00 2.57196019412837e-01 3.17122043550050e-03
1.44050000000000e+00 2.54257029142726e-01 3.14438315540379e-03
1.44910000000000e+00 2.51351622844201e-01 3.11771742717099e-03
1.45770000000000e+00 2.48479416751735e-01 3.09122339444146e-03
1.46630000000000e+00 2.45640031485107e-01 3.06490116244606e-03
1.47490000000000e+00 2.42833091999292e-01 3.03875079919642e-03
1.48350000000000e+00 2.40058227534920e-01 3.01277233664189e-03
1.49210000000000e+00 2.37315071569303e-01 2.98696577179538e-03
1.50070000000000e+00 2.34603261768028e-01 2.96133106782948e-03
1.50930000000000e+00 2.31922439937089e-01 2.93586815514240e-03
1.51790000000000e+00 2.29272251975583e-01 2.91057693239613e-03
1.52650000000000e+00 2.26652347828929e-01 2.88545726752672e-03
1.53510000000000e+00 2.24062381442638e-01 2.86050899872703e-03
1.54370000000000e+00 2.21502010716602e-01 2.83573193540421e-03
1.55230000000000e+00 2.18970897459903e-01 2.81112585911114e-03
1.56090000000000e+00 2.16468707346148e-01 2.78669052445295e-03
1.56950000000000e+00 2.13995109869305e-01 2.76242565996992e-03
1.57810000000000e+00 2.11549778300049e-01 2.73833096899683e-03
1.58670000000000e+00 2.09132389642607e-01 2.71440613049924e-03
1.59530000000000e+00 2.06742624592091e-01 2.69065079988776e-03
1.60390000000000e+00 2.04380167492326e-01 2.66706460981078e-03
1.61250000000000e+00 2.02044706294152e-01 2.64364717092648e-03
1.62110000000000e+00 1.99735932514210e-01 2.62039807265426e-03
1.62970000000000e+00 1.97453541194193e-01 2.59731688390587e-03
1.63830000000000e+00 1.95197230860568e-01 2.57440315379768e-03
1.64690000000000e+00 1.92966703484750e-01 2.55165641234405e-03
1.65550000000000e+00 1.90761664443743e-01 2.52907617113228e-03
1.66410000000000e+00 1.88581822481220e-01 2.50666192397997e-03
1.67270000000000e+00 1.86426889669051e-01 2.48441314757471e-03
1.68130000000000e+00 1.84296581369276e-01 2.46232930209702e-03
1.68990000000000e+00 1.82190616196505e-01 2.44040983182693e-03
1.69850000000000e+00 1.80108715980750e-01 2.41865416573423e-03
1.70710000000000e+00 1.78050605730686e-01 2.39706171805338e-03
1.71570000000000e+00 1.76016013597322e-01 2.37563188884316e-03
1.72430000000000e+00 1.74004670838103e-01 2.35436406453158e-03
1.73290000000000e+00 1.72016311781402e-01 2.33325761844630e-03
1.74150000000000e+00 1.70050673791437e-01 2.31231191133076e-03
1.75010000000000e+00 1.68107497233575e-01 2.29152629184714e-03
1.75870000000000e+00 1.66186525440038e-01 2.27090009706560e-03
1.76730000000000e+00 1.64287504676005e-01 2.25043265294043e-03
1.77590000000000e+00 1.62410184106092e-01 2.23012327477413e-03
1.78450000000000e+00 1.60554315761224e-01 2.20997126766859e-03
1.79310000000000e+00 1.58719654505876e-01 2.18997592696440e-03
1.80170000000000e+00 1.56905958005701e-01 2.17013653866855e-03
1.81030000000000e+00 1.55112986695516e-01 2.15045237987059e-03
1.81890000000000e+00 1.53340503747660e-01 2.13092271914792e-03
1.82750000000000e+00 1.51588275040712e-01 2.11154681695990e-03
1.83610000000000e+00 1.49856069128566e-01 2.09232392603143e-03
1.84470000000000e+00 1.48143657209862e-01 2.07325329172646e-03
1.85330000000000e+00 1.46450813097764e-01 2.05433415241144e-03
1.86190000000000e+00 1.44777313190080e-01 2.03556573980868e-03
1.87050000000000e+00 1.43122936439734e-01 2.01694727934039e-03
1.87910000000000e+00 1.41487464325561e-01 1.99847799046350e-03
1.88770000000000e+00 1.39870680823450e-01 1.98015708699523e-03
1.89630000000000e+00 1.38272372377806e-01 1.96198377742978e-03
1.90490000000000e+00 1.36692327873342e-01 1.94395726524661e-03
1.91350000000000e+00 1.35130338607196e-01 1.92607674921010e-03
1.92210000000000e+00 1.33586198261362e-01 1.90834142366109e-03
1.93070000000000e+00 1.32059702875441e-01 1.89075047880042e-03
1.93930000000000e+00 1.30550650819695e-01 1.87330310096476e-03
1.94790000000000e+00 1.29058842768422e-01 1.85599847289470e-03
1.95650000000000e+00 1.27584081673620e-01 1.83883577399533e-03
1.96510000000000e+00 1.26126172738965e-01 1.82181418058986e-03
1.97370000000000e+00 1.24684923394079e-01 1.80493286616607e-03
1.98230000000000e+00 1.23260143269095e-01 1.78819100161585e-03
1.99090000000000e+00 1.21851644169509e-01 1.77158775546792e-03
1.99950000000000e+00 1.20459240051325e-01 1.75512229411421e-03
2.00810000000000e+00 1.19082746996479e-01 1.73879378202973e-03
2.01670000000000e+00 1.17721983188550e-01 1.72260138198611e-03
2.02530000000000e+00 1.16376768888737e-01 1.70654425525934e-03
2.03390000000000e+00 1.15046926412124e-01 1.69062156183147e-03
2.04250000000000e+00 1.13732280104211e-01 1.67483246058642e-03
2.05110000000000e+00 1.12432656317704e-01 1.65917610950018e-03
2.05970000000000e+00 1.11147883389590e-01 1.64365166582552e-03
2.06830000000000e+00 1.09877791618454e-01 1.62825828627158e-03
2.07690000000000e+00 1.08622213242066e-01 1.61299512717776e-03
2.08550000000000e+00 1.07380982415224e-01 1.59786134468286e-03
2.09410000000000e+00 1.06153935187846e-01 1.58285609488920e-03
2.10270000000000e+00 1.04940909483315e-01 1.56797853402164e-03
2.11130000000000e+00 1.03741745077070e-01 1.55322781858218e-03
2.11990000000000e+00 1.02556283575442e-01 1.53860310549975e-03
2.12850000000000e+00 1.01384368394737e-01 1.52410355227543e-03
2.13710000000000e+00 1.00225844740547e-01 1.50972831712341e-03
2.14570000000000e+00 9.90805595873070e-02 1.49547655910765e-03
2.15430000000000e+00 9.79483616580821e-02 1.48134743827422e-03
2.16290000000000e+00 9.68291014045858e-02 1.46734011577978e-03
2.17150000000000e+00 9.57226309874262e-02 1.45345375401588e-03
2.18010000000000e+00 9.46288042565787e-02 1.43968751672927e-03
2.18870000000000e+00 9.35474767320816e-02 1.42604056913864e-03
2.19730000000000e+00 9.24785055849520e-02 1.41251207804775e-03
2.20590000000000e+00 9.14217496183202e-02 1.39910121195473e-03
2.21450000000000e+00 9.03770692487793e-02 1.38580714115772e-03
2.22310000000000e+00 8.93443264879481e-02 1.37262903785751e-03
2.23170000000000e+00 8.83233849242449e-02 1.35956607625647e-03
2.24030000000000e+00 8.73141097048689e-02 1.34661743265436e-03
2.24890000000000e+00 8.63163675179884e-02 1.33378228554096e-03
2.25750000000000e+00 8.53300265751319e-02 1.32105981568547e-03
2.26610000000000e+00 8.43549565937805e-02 1.30844920622305e-03
2.27470000000000e+00 8.33910287801595e-02 1.29594964273829e-03
2.28330000000000e+00 8.24381158122262e-02 1.28356031334580e-03
2.29190000000000e+00 8.14960918228524e-02 1.27128040876795e-03
2.30050000000000e+00 8.05648323831996e-02 1.25910912241001e-03
2.30910000000000e+00 7.96442144862827e-02 1.24704565043252e-03
2.31770000000000e+00 7.87341165307230e-02 1.23508919182097e-03
2.32630000000000e+00 7.78344183046861e-02 1.22323894845307e-03
2.33490000000000e+00 7.69450009700036e-02 1.21149412516349e-03
2.34350000000000e+00 7.60657470464760e-02 1.19985392980615e-03
2.35210000000000e+00 7.51965403963553e-02 1.18831757331413e-03
2.36070000000000e+00 7.43372662090046e-02 1.17688426975739e-03
2.36930000000000e+00 7.34878109857333e-02 1.16555323639819e-03
2.37790000000000e+00 7.26480625248054e-02 1.15432369374416e-03
2.38650000000000e+00 7.18179099066189e-02 1.14319486559955e-03
2.39510000000000e+00 7.09972434790551e-02 1.13216597911415e-03
2.40370000000000e+00 7.01859548429950e-02 1.12123626483023e-03
2.41230000000000e+00 6.93839368380009e-02 1.11040495672759e-03
2.42090000000000e+00 6.85910835281623e-02 1.09967129226670e-03
2.42950000000000e+00 6.78072901881030e-02 1.08903451242972e-03
2.43810000000000e+00 6.70324532891483e-02 1.07849386175993e-03
2.44670000000000e+00 6.62664704856502e-02 1.06804858839943e-03
2.45530000000000e+00 6.55092406014691e-02 1.05769794412479e-03
2.46390000000000e+00 6.47606636166093e-02 1.04744118438133e-03
2.47250000000000e+00 6.40206406540084e-02 1.03727756831559e-03
2.48110000000000e+00 6.32890739664762e-02 1.02720635880616e-03
2.48970000000000e+00 6.25658669237841e-02 1.01722682249299e-03
2.49830000000000e+00 6.18509239999015e-02 1.00733822980525e-03
2.50690000000000e+00 6.11441507603779e-02 9.97539854987686e-04
2.51550000000000e+00 6.04454538498692e-02 9.87830976125290e-04
2.52410000000000e+00 5.97547409798073e-02 9.78210875166864e-04
2.53270000000000e+00 5.90719209162095e-02 9.68678837947125e-04
2.54130000000000e+00 5.83969034676277e-02 9.59234154207329e-04
2.54990000000000e+00 5.77295994732358e-02 9.49876117614753e-04
2.55850000000000e+00 5.70699207910520e-02 9.40604025780893e-04
2.56710000000000e+00 5.64177802862971e-02 9.31417180278322e-04
2.57570000000000e+00 5.57730918198847e-02 9.22314886656446e-04
2.58430000000000e+00 5.51357702370437e-02 9.13296454455999e-04
2.59290000000000e+00 5.45057313560703e-02 9.04361197222512e-04
2.60150000000000e+00 5.38828919572086e-02 8.95508432518620e-04
2.61010000000000e+00 5.32671697716587e-02 8.86737481935232e-04
2.61870000000000e+00 5.26584834707098e-02 8.78047671101737e-04
2.62730000000000e+00 5.20567526549978e-02 8.69438329695108e-04
2.63590000000000e+00 5.14618978438860e-02 8.60908791448104e-04
2.64450000000000e+00 5.08738404649660e-02 8.52458394156447e-04
2.65310000000000e+00 5.02925028436802e-02 8.44086479685054e-04
2.66170000000000e+00 4.97178081930613e-02 8.35792393973369e-04
2.67030000000000e+00 4.91496806035901e-02 8.27575487039819e-04
2.67890000000000e+00 4.85880450331690e-02 8.19435112985383e-04
2.68750000000000e+00 4.80328272972097e-02 8.11370629996326e-04
2.69610000000000e+00 4.74839540588344e-02 8.03381400346141e-04
2.70470000000000e+00 4.69413528191890e-02 7.95466790396691e-04
2.71330000000000e+00 4.64049519078672e-02 7.87626170598496e-04
