Energy (eV)          EEDF (eV^-(3/2))     First Anisotropy
8.15000000000000e-04 3.86571372652199e+01 2.75407561928079e-02
2.44500000000000e-03 3.79943121273270e+01 4.52398183854726e-02
4.07500000000000e-03 3.73428519583720e+01 5.90950153940529e-02
5.70500000000000e-03 3.67025618916816e+01 6.92472305858469e-02
7.33500000000000e-03 3.60732504018294e+01 7.74105775406975e-02
8.96500000000000e-03 3.54547292473351e+01 8.42435117533409e-02
1.05950000000000e-02 3.48468134143551e+01 9.00919390047636e-02
1.22250000000000e-02 3.42493210613410e+01 9.51677901332970e-02
1.38550000000000e-02 3.36620734646457e+01 9.96136136423622e-02
1.54850000000000e-02 3.30848949650638e+01 1.03531547653519e-01
1.71150000000000e-02 3.25176129152872e+01 1.06998210070393e-01
1.87450000000000e-02 3.19600576282627e+01 1.10073113752564e-01
2.03750000000000e-02 3.14120623264346e+01 1.12803769550046e-01
2.20050000000000e-02 3.08734630918577e+01 1.15228954452340e-01
2.36350000000000e-02 3.03440988171657e+01 1.17380898032422e-01
2.52650000000000e-02 2.98238111573805e+01 1.19286798523333e-01
2.68950000000000e-02 2.93124444825472e+01 1.20969906000071e-01
2.85250000000000e-02 2.88098458311818e+01 1.22450316201922e-01
3.01550000000000e-02 2.83158648645170e+01 1.23745565168124e-01
3.17850000000000e-02 2.78303538215325e+01 1.24871083236517e-01
3.34150000000000e-02 2.73531674747558e+01 1.25840547522397e-01
3.50450000000000e-02 2.68841630868219e+01 1.26666159672373e-01
3.66750000000000e-02 2.64232003677773e+01 1.27358867655839e-01
3.83050000000000e-02 2.59701414331154e+01 1.27928544992124e-01
3.99350000000000e-02 2.55248507625328e+01 1.28384137149746e-01
4.15650000000000e-02 2.50871951593918e+01 1.28733782306085e-01
4.31950000000000e-02 2.46570437108780e+01 1.28984911850840e-01
4.48250000000000e-02 2.42342677488419e+01 1.29144334718009e-01
4.64550000000000e-02 2.38187408113106e+01 1.29218308682695e-01
4.80850000000000e-02 2.34103386046604e+01 1.29212601057445e-01
4.97150000000000e-02 2.30089389664382e+01 1.29132540697347e-01
5.13450000000000e-02 2.26144218288190e+01 1.28983062824959e-01
5.29750000000000e-02 2.22266691826917e+01 1.28768747881511e-01
5.46050000000000e-02 2.18455650423594e+01 1.28493855375331e-01
5.62350000000000e-02 2.14709954108455e+01 1.28162353514854e-01
5.78650000000000e-02 2.11028482457947e+01 1.27777945269107e-01
5.94950000000000e-02 2.07410134259586e+01 1.27344091384188e-01
6.11250000000000e-02 2.03853827182556e+01 1.26864030792794e-01
6.27550000000000e-02 2.00358497453963e+01 1.26340798780414e-01
6.43850000000000e-02 1.96923099540635e+01 1.25777243212363e-01
6.60150000000000e-02 1.93546605836376e+01 1.25176039077344e-01
6.76450000000000e-02 1.90228006354590e+01 1.24539701563657e-01
6.92750000000000e-02 1.86966308426169e+01 1.23870597851420e-01
7.09050000000000e-02 1.83760536402561e+01 1.23170957777241e-01
7.25350000000000e-02 1.80609731363935e+01 1.22442883505210e-01
7.41650000000000e-02 1.77512950832343e+01 1.21688358319307e-01
7.57950000000000e-02 1.74469268489804e+01 1.20909254636548e-01
7.74250000000000e-02 1.71477773901223e+01 1.20107341326875e-01
7.90550000000000e-02 1.68537572242056e+01 1.19284290414538e-01
8.06850000000000e-02 1.65647784030648e+01 1.18441683226115e-01
8.23150000000000e-02 1.62807544865164e+01 1.17581016042205e-01
8.39450000000000e-02 1.60016005165020e+01 1.16703705302771e-01
8.55750000000000e-02 1.57272329916760e+01 1.15811092410130e-01
8.72050000000000e-02 1.54575698424280e+01 1.14904448168435e-01
8.88350000000000e-02 1.51925304063342e+01 1.13984976893967e-01
9.04650000000000e-02 1.49320354040292e+01 1.13053820226727e-01
9.20950000000000e-02 1.46760069154918e+01 1.12112060670394e-01
9.37250000000000e-02 1.44243683567376e+01 1.11160724884799e-01
9.53550000000000e-02 1.41770444569105e+01 1.10200786752487e-01
9.69850000000000e-02 1.39339612357678e+01 1.09233170238690e-01
9.86150000000000e-02 1.36950459815507e+01 1.08258752062017e-01
1.00245000000000e-01 1.34602272292352e+01 1.07278364191460e-01
1.01875000000000e-01 1.32294347391544e+01 1.06292796183739e-01
1.03505000000000e-01 1.30025994759890e+01 1.05302797373676e-01
1.05135000000000e-01 1.27796535881165e+01 1.04309078929046e-01
1.06765000000000e-01 1.25605303873161e+01 1.03312315780277e-01
1.08395000000000e-01 1.23451643288199e+01 1.02313148434444e-01
1.10025000000000e-01 1.21334909917074e+01 1.01312184682104e-01
1.11655000000000e-01 1.19254470596357e+01 1.00310001204799e-01
1.13285000000000e-01 1.17209703019001e+01 9.93071450902975e-02
1.14915000000000e-01 1.15199995548192e+01 9.83041352621224e-02
1.16545000000000e-01 1.13224747034399e+01 9.73014638292889e-02
1.18175000000000e-01 1.11283366635554e+01 9.62995973616896e-02
1.19805000000000e-01 1.09375273640319e+01 9.52989780961468e-02
1.21435000000000e-01 1.07499897294377e+01 9.43000250777152e-02
1.23065000000000e-01 1.05656676629713e+01 9.33031352404518e-02
1.24695000000000e-01 1.03845060296813e+01 9.23086844315605e-02
1.26325000000000e-01 1.02064506399741e+01 9.13170283824836e-02
1.27955000000000e-01 1.00314482334048e+01 9.03285036302669e-02
1.29585000000000e-01 9.85944646274562e+00 8.93434283922609e-02
1.31215000000000e-01 9.69039387832768e+00 8.83621033969811e-02
1.32845000000000e-01 9.52423991265131e+00 8.73848126737823e-02
1.34475000000000e-01 9.36093486526006e+00 8.64118243037634e-02
1.36105000000000e-01 9.20042988787420e+00 8.54433911341701e-02
1.37735000000000e-01 9.04267696977904e+00 8.44797514584034e-02
1.39365000000000e-01 8.88762892346388e+00 8.35211296635965e-02
1.40995000000000e-01 8.73523937050711e+00 8.25677368475877e-02
1.42625000000000e-01 8.58546272770336e+00 8.16197714069702e-02
1.44255000000000e-01 8.43825419342852e+00 8.06774195978304e-02
1.45885000000000e-01 8.29356973423860e+00 7.97408560706512e-02
1.47515000000000e-01 8.15136607169821e+00 7.88102443807499e-02
1.49145000000000e-01 8.01160066943511e+00 7.78857374755750e-02
1.50775000000000e-01 7.87423172041653e+00 7.69674781600647e-02
1.52405000000000e-01 7.73921813444374e+00 7.60555995411972e-02
1.54035000000000e-01 7.60651952586107e+00 7.51502254528129e-02
1.55665000000000e-01 7.47609620147557e+00 7.42514708617144e-02
1.57295000000000e-01 7.34790914868391e+00 7.33594422559719e-02
1.58925000000000e-01 7.22192002380284e+00 7.24742380163329e-02
1.60555000000000e-01 7.09809114059966e+00 7.15959487715699e-02
1.62185000000000e-01 6.97638545901943e+00 7.07246577385419e-02
1.63815000000000e-01 6.85676657410544e+00 6.98604410477144e-02
1.65445000000000e-01 6.73919870510967e+00 6.90033680548365e-02
1.67075000000000e-01 6.62364668478992e+00 6.81535016394320e-02
1.68705000000000e-01 6.51007594889051e+00 6.73108984907301e-02
1.70335000000000e-01 6.39845252580329e+00 6.64756093816085e-02
1.71965000000000e-01 6.28874302640598e+00 6.56476794311168e-02
1.73595000000000e-01 6.18091463407471e+00 6.48271483561068e-02
1.75225000000000e-01 6.07493509486782e+00 6.40140507124487e-02
1.76855000000000e-01 5.97077270787794e+00 6.32084161263229e-02
1.78485000000000e-01 5.86839631574957e+00 6.24102695160234e-02
1.80115000000000e-01 5.76777529535917e+00 6.16196313046921e-02
1.81745000000000e-01 5.66887954865509e+00 6.08365176243943e-02
1.83375000000000e-01 5.57167949365452e+00 6.00609405119016e-02
1.85005000000000e-01 5.47614605559493e+00 5.92929080965545e-02
1.86635000000000e-01 5.38225065823705e+00 5.85324247805463e-02
1.88265000000000e-01 5.28996521531710e+00 5.77794914119471e-02
1.89895000000000e-01 5.19926212214557e+00 5.70341054507841e-02
1.91525000000000e-01 5.11011424734996e+00 5.62962611284655e-02
1.93155000000000e-01 5.02249492475923e+00 5.55659496008325e-02
1.94785000000000e-01 4.93637794542732e+00 5.48431590951144e-02
1.96415000000000e-01 4.85173754979342e+00 5.41278750510247e-02
1.98045000000000e-01 4.76854841997674e+00 5.34200802562495e-02
1.99675000000000e-01 4.68678567220333e+00 5.27197549765608e-02
2.01305000000000e-01 4.60642484936276e+00 5.20268770807659e-02
2.02935000000000e-01 4.52744191369247e+00 5.13414221607143e-02
2.04565000000000e-01 4.44981323958753e+00 5.06633636465551e-02
2.06195000000000e-01 4.37351560653361e+00 4.99926729174390e-02
2.07825000000000e-01 4.29852619216129e+00 4.93293194078399e-02
2.09455000000000e-01 4.22482256541929e+00 4.86732707096836e-02
2.11085000000000e-01 4.15238267986487e+00 4.80244926704431e-02
2.12715000000000e-01 4.08118486706921e+00 4.73829494873567e-02
2.14345000000000e-01 4.01120783013593e+00 4.67486037979296e-02
2.15975000000000e-01 3.94243063733063e+00 4.61214167668564e-02
2.17605000000000e-01 3.87483271581978e+00 4.55013481695089e-02
2.19235000000000e-01 3.80839384551692e+00 4.48883564721251e-02
2.20865000000000e-01 3.74309415303433e+00 4.42823989088214e-02
2.22495000000000e-01 3.67891410573847e+00 4.36834315555506e-02
2.24125000000000e-01 3.61583450590732e+00 4.30914094011305e-02
2.25755000000000e-01 3.55383648498792e+00 4.25062864154481e-02
2.27385000000000e-01 3.49290149795229e+00 4.19280156149499e-02
2.29015000000000e-01 3.43301131775027e+00 4.13565491255211e-02
2.30645000000000e-01 3.37414802985733e+00 4.07918382428520e-02
2.32275000000000e-01 3.31629402691596e+00 4.02338334903903e-02
2.33905000000000e-01 3.25943200346889e+00 3.96824846749655e-02
2.35535000000000e-01 3.20354495078263e+00 3.91377409401786e-02
2.37165000000000e-01 3.14861615175978e+00 3.85995508176335e-02
2.38795000000000e-01 3.09462917593855e+00 3.80678622760956e-02
2.40425000000000e-01 3.04156787457805e+00 3.75426227686593e-02
2.42055000000000e-01 2.98941637582782e+00 3.70237792779888e-02
2.43685000000000e-01 2.93815907998018e+00 3.65112783597113e-02
2.45315000000000e-01 2.88778065480404e+00 3.60050661840304e-02
2.46945000000000e-01 2.83826603095865e+00 3.55050885756190e-02
2.48575000000000e-01 2.78960039748601e+00 3.50112910518666e-02
2.50205000000000e-01 2.74176919738060e+00 3.45236188595334e-02
2.51835000000000e-01 2.69475812323501e+00 3.40420170098699e-02
2.53465000000000e-01 2.64855311296031e+00 3.35664303122646e-02
2.55095000000000e-01 2.60314034557973e+00 3.30968034064693e-02
2.56725000000000e-01 2.55850623709447e+00 3.26330807934535e-02
2.58355000000000e-01 2.51463743642048e+00 3.21752068649419e-02
2.59985000000000e-01 2.47152082139476e+00 3.17231259316815e-02
2.61615000000000e-01 2.42914349485030e+00 3.12767822504841e-02
2.63245000000000e-01 2.38749278075818e+00 3.08361200500890e-02
2.64875000000000e-01 2.34655622043593e+00 3.04010835558924e-02
2.66505000000000e-01 2.30632156882080e+00 2.99716170135786e-02
2.68135000000000e-01 2.26677679080703e+00 2.95476647117021e-02
2.69765000000000e-01 2.22791005764585e+00 2.91291710032504e-02
2.71395000000000e-01 2.18970974340724e+00 2.87160803262279e-02
2.73025000000000e-01 2.15216442150233e+00 2.83083372232992e-02
2.74655000000000e-01 2.11526286126546e+00 2.79058863605223e-02
2.76285000000000e-01 2.07899402459483e+00 2.75086725452088e-02
2.77915000000000e-01 2.04334706265075e+00 2.71166407429415e-02
2.79545000000000e-01 2.00831131261052e+00 2.67297360937763e-02
2.81175000000000e-01 1.97387629447888e+00 2.63479039276648e-02
2.82805000000000e-01 1.94003170795329e+00 2.59710897791244e-02
2.84435000000000e-01 1.90676742934278e+00 2.55992394011790e-02
2.86065000000000e-01 1.87407350853979e+00 2.52322987786035e-02
2.87695000000000e-01 1.84194016604385e+00 2.48702141404933e-02
2.89325000000000e-01 1.81035779003629e+00 2.45129319721855e-02
2.90955000000000e-01 1.77931693350513e+00 2.41603990265562e-02
2.92585000000000e-01 1.74880831141928e+00 2.38125623347160e-02
2.94215000000000e-01 1.71882279795115e+00 2.34693692161255e-02
2.95845000000000e-01 1.68935142374693e+00 2.31307672881532e-02
2.97475000000000e-01 1.66038537324363e+00 2.27967044750965e-02
2.99105000000000e-01 1.63191598203215e+00 2.24671290166867e-02
3.00735000000000e-01 1.60393473426557e+00 2.21419894760950e-02
3.02365000000000e-01 1.57643326011185e+00 2.18212347474594e-02
3.03995000000000e-01 1.54940333325021e+00 2.15048140629518e-02
3.05625000000000e-01 1.52283686841049e+00 2.11926769993994e-02
3.07255000000000e-01 1.49672591895461e+00 2.08847734844820e-02
3.08885000000000e-01 1.47106267449960e+00 2.05810538025158e-02
3.10515000000000e-01 1.44583945858129e+00 2.02814685998426e-02
3.12145000000000e-01 1.42104872635813e+00 1.99859688898400e-02
3.13775000000000e-01 1.39668306235434e+00 1.96945060575653e-02
3.15405000000000e-01 1.37273517824179e+00 1.94070318640488e-02
3.17035000000000e-01 1.34919791065988e+00 1.91234984502472e-02
3.18665000000000e-01 1.32606421907282e+00 1.88438583406736e-02
3.20295000000000e-01 1.30332718366364e+00 1.85680644467144e-02
3.21925000000000e-01 1.28098000326432e+00 1.82960700696476e-02
3.23555000000000e-01 1.25901599332139e+00 1.80278289033721e-02
3.25185000000000e-01 1.23742858389647e+00 1.77632950368582e-02
3.26815000000000e-01 1.21621131770097e+00 1.75024229563358e-02
3.28445000000000e-01 1.19535784816467e+00 1.72451675472244e-02
3.30075000000000e-01 1.17486193753723e+00 1.69914840958190e-02
3.31705000000000e-01 1.15471745502238e+00 1.67413282907411e-02
3.33335000000000e-01 1.13491837494404e+00 1.64946562241632e-02
3.34965000000000e-01 1.11545877494392e+00 1.62514243928181e-02
3.36595000000000e-01 1.09633283420998e+00 1.60115896988002e-02
3.38225000000000e-01 1.07753483173533e+00 1.57751094501665e-02
3.39855000000000e-01 1.05905914460690e+00 1.55419413613485e-02
3.41485000000000e-01 1.04090024632354e+00 1.53120435533810e-02
3.43115000000000e-01 1.02305270514290e+00 1.50853745539561e-02
3.44745000000000e-01 1.00551118245664e+00 1.48618932973090e-02
3.46375000000000e-01 9.88270431193609e-01 1.46415591239442e-02
3.48005000000000e-01 9.71325294250236e-01 1.44243317802087e-02
3.49635000000000e-01 9.54670702947982e-01 1.42101714177169e-02
3.51265000000000e-01 9.38301675517159e-01 1.39990385926381e-02
3.52895000000000e-01 9.22213315606774e-01 1.37908942648476e-02
3.54525000000000e-01 9.06400810819917e-01 1.35856997969507e-02
3.56155000000000e-01 8.90859431274263e-01 1.33834169531860e-02
3.57785000000000e-01 8.75584528187257e-01 1.31840078982101e-02
3.59415000000000e-01 8.60571532485553e-01 1.29874351957729e-02
3.61045000000000e-01 8.45815953438305e-01 1.27936618072871e-02
3.62675000000000e-01 8.31313377313883e-01 1.26026510902958e-02
3.64305000000000e-01 8.17059466059624e-01 1.24143667968457e-02
3.65935000000000e-01 8.03049956004227e-01 1.22287730717690e-02
3.67565000000000e-01 7.89280656582381e-01 1.20458344508781e-02
3.69195000000000e-01 7.75747449081283e-01 1.18655158590784e-02
3.70825000000000e-01 7.62446285408626e-01 1.16877826084031e-02
3.72455000000000e-01 7.49373186881727e-01 1.15126003959747e-02
3.74085000000000e-01 7.36524243037414e-01 1.13399353018951e-02
3.75715000000000e-01 7.23895610462311e-01 1.11697537870717e-02
3.77345000000000e-01 7.11483511643190e-01 1.10020226909793e-02
3.78975000000000e-01 6.99284233837029e-01 1.08367092293630e-02
3.80605000000000e-01 6.87294127960444e-01 1.06737809918877e-02
3.82235000000000e-01 6.75509607498165e-01 1.05132059397317e-02
3.83865000000000e-01 6.63927147430231e-01 1.03549524031346e-02
3.85495000000000e-01 6.52543283177568e-01 1.01989890788968e-02
3.87125000000000e-01 6.41354609565663e-01 1.00452850278368e-02
3.88755000000000e-01 6.30357779805991e-01 9.89380967220852e-03
3.90385000000000e-01 6.19549504494918e-01 9.74453279307918e-03
3.92015000000000e-01 6.08926550629764e-01 9.59742452767453e-03
3.93645000000000e-01 5.98485740641738e-01 9.45245536669020e-03
3.95275000000000e-01 5.88223951445453e-01 9.30959615157307e-03
3.96905000000000e-01 5.78138113504742e-01 9.16881807177509e-03
3.98535000000000e-01 5.68225209914488e-01 9.03009266198122e-03
4.00165000000000e-01 5.58482275498198e-01 8.89339179931515e-03
4.01795000000000e-01 5.48906395921052e-01 8.75868770052280e-03
4.03425000000000e-01 5.39494706818160e-01 8.62595291913662e-03
4.05055000000000e-01 5.30244392937761e-01 8.49516034262287e-03
4.06685000000000e-01 5.21152687299119e-01 8.36628318951355e-03
4.08315000000000e-01 5.12216870364857e-01 8.23929500652433e-03
4.09945000000000e-01 5.03434269227479e-01 8.11416966566060e-03
4.11575000000000e-01 4.94802256809842e-01 7.99088136131361e-03
4.13205000000000e-01 4.86318251079340e-01 7.86940460734738e-03
4.14835000000000e-01 4.77979714275554e-01 7.74971423417841e-03
4.16465000000000e-01 4.69784152151156e-01 7.63178538584993e-03
4.18095000000000e-01 4.61729113225815e-01 7.51559351710164e-03
4.19725000000000e-01 4.53812188052911e-01 7.40111439043609e-03
4.21355000000000e-01 4.46031008498808e-01 7.28832407318422e-03
4.22985000000000e-01 4.38383247034494e-01 7.17719893456943e-03
4.24615000000000e-01 4.30866616039364e-01 7.06771564277270e-03
4.26245000000000e-01 4.23478867116940e-01 6.95985116200015e-03
4.27875000000000e-01 4.16217790422320e-01 6.85358274955165e-03
4.29505000000000e-01 4.09081214001172e-01 6.74888795289539e-03
4.31135000000000e-01 4.02067003140043e-01 6.64574460674692e-03
4.32765000000000e-01 3.95173059727822e-01 6.54413083015300e-03
4.34395000000000e-01 3.88397321628148e-01 6.44402502358322e-03
4.36025000000000e-01 3.81737762062575e-01 6.34540586602901e-03
4.37655000000000e-01 3.75192389004318e-01 6.24825231211121e-03
4.39285000000000e-01 3.68759244582390e-01 6.15254358919675e-03
4.40915000000000e-01 3.62436404495961e-01 6.05825919452529e-03
4.42545000000000e-01 3.56221977438753e-01 5.96537889234696e-03
4.44175000000000e-01 3.50114104533309e-01 5.87388271107129e-03
4.45805000000000e-01 3.44110958774958e-01 5.78375094042804e-03
4.47435000000000e-01 3.38210744485318e-01 5.69496412864110e-03
4.49065000000000e-01 3.32411696775166e-01 5.60750307961574e-03
4.50695000000000e-01 3.26712081016520e-01 5.52134885013921e-03
4.52325000000000e-01 3.21110192323773e-01 5.43648274709612e-03
4.53955000000000e-01 3.15604355043720e-01 5.35288632469874e-03
4.55585000000000e-01 3.10192922254335e-01 5.27054138173243e-03
4.57215000000000e-01 3.04874275272135e-01 5.18942995881694e-03
4.58845000000000e-01 2.99646823167999e-01 5.10953433568424e-03
4.60475000000000e-01 2.94509002291281e-01 5.03083702847280e-03
4.62105000000000e-01 2.89459275802091e-01 4.95332078703882e-03
4.63735000000000e-01 2.84496133211583e-01 4.87696859228499e-03
4.65365000000000e-01 2.79618089930142e-01 4.80176365350685e-03
4.66995000000000e-01 2.74823686823304e-01 4.72768940575743e-03
4.68625000000000e-01 2.70111489775296e-01 4.65472950723005e-03
4.70255000000000e-01 2.65480089260061e-01 4.58286783665966e-03
4.71885000000000e-01 2.60928099919636e-01 4.51208849074340e-03
4.73515000000000e-01 2.56454160149757e-01 4.44237578157989e-03
4.75145000000000e-01 2.52056931692576e-01 4.37371423412809e-03
4.76775000000000e-01 2.47735099236354e-01 4.30608858368569e-03
4.78405000000000e-01 2.43487370022023e-01 4.23948377338693e-03
4.80035000000000e-01 2.39312473456493e-01 4.17388495172084e-03
4.81665000000000e-01 2.35209160732586e-01 4.10927747006933e-03
4.83295000000000e-01 2.31176204455491e-01 4.04564688026525e-03
4.84925000000000e-01 2.27212398275621e-01 3.98297893217111e-03
4.86555000000000e-01 2.23316556527768e-01 3.92125957127828e-03
4.88185000000000e-01 2.19487513876441e-01 3.86047493632668e-03
4.89815000000000e-01 2.15724124967289e-01 3.80061135694486e-03
4.91445000000000e-01 2.12025264084498e-01 3.74165535131115e-03
4.93075000000000e-01 2.08389824814067e-01 3.68359362383569e-03
4.94705000000000e-01 2.04816719712850e-01 3.62641306286307e-03
4.96335000000000e-01 2.01304879983278e-01 3.57010073839610e-03
4.97965000000000e-01 1.97853255153659e-01 3.51464389984042e-03
4.99595000000000e-01 1.94460812763956e-01 3.46002997377008e-03
5.01225000000000e-01 1.91126538056956e-01 3.40624656171428e-03
5.02855000000000e-01 1.87849433674731e-01 3.35328143796503e-03
5.04485000000000e-01 1.84628519360307e-01 3.30112254740588e-03
5.06115000000000e-01 1.81462831664446e-01 3.24975800336153e-03
5.07745000000000e-01 1.78351423657457e-01 3.19917608546858e-03
5.09375000000000e-01 1.75293364645946e-01 3.14936523756732e-03
5.11005000000000e-01 1.72287739894427e-01 3.10031406561433e-03
5.12635000000000e-01 1.69333650351700e-01 3.05201133561603e-03
5.14265000000000e-01 1.66430212381927e-01 3.00444597158320e-03
