Energy (eV)          EEDF (eV^-(3/2))     First Anisotropy
2.84166666666667e-01 3.53115685839378e-02 5.27483039573653e-05
8.52500000000000e-01 3.33361545883608e-02 8.49516735341998e-05
1.42083333333333e+00 3.14712499889468e-02 1.06588789673845e-04
1.98916666666667e+00 2.97106726427605e-02 1.19970006951818e-04
2.55750000000000e+00 2.80485862257808e-02 1.28819075274442e-04
3.12583333333333e+00 2.64794809126683e-02 1.34656067425491e-04
3.69416666666667e+00 2.49981551232576e-02 1.38320004089787e-04
4.26250000000000e+00 2.35996982589897e-02 1.40345547340276e-04
4.83083333333333e+00 2.22794744299767e-02 1.41103226230758e-04
5.39916666666667e+00 2.10331070953417e-02 1.40864172820758e-04
5.96750000000000e+00 1.98564645449067e-02 1.39834376594809e-04
6.53583333333333e+00 1.87456462048409e-02 1.38174621871958e-04
7.10416666666667e+00 1.76969697125039e-02 1.36012943698464e-04
7.67250000000000e+00 1.67069587034073e-02 1.33452847077030e-04
8.24083333333333e+00 1.57723312882316e-02 1.30578971853101e-04
8.80916666666667e+00 1.48899891768646e-02 1.27461138851705e-04
9.37750000000000e+00 1.40570074036572e-02 1.24157325718591e-04
9.94583333333333e+00 1.32706246318446e-02 1.20715909854817e-04
1.05141666666667e+01 1.25282340021501e-02 1.17177395047059e-04
1.10825000000000e+01 1.18273744901784e-02 1.13575764742973e-04
1.16508333333333e+01 1.11657227394185e-02 1.09939557558129e-04
1.22191666666667e+01 1.05410853794241e-02 1.06292735344960e-04
1.27875000000000e+01 9.95139173575388e-03 1.02655391560968e-04
1.33558333333333e+01 9.39468696857980e-03 9.90443326754089e-05
1.39241666666667e+01 8.86912560520203e-03 9.54735630446493e-05
1.44925000000000e+01 8.37296540845103e-03 9.19546907838549e-05
1.50608333333333e+01 7.90456160317169e-03 8.84972682774409e-05
1.56291666666667e+01 7.46236143333521e-03 8.51090822754121e-05
1.61975000000000e+01 7.04489900438140e-03 8.17964010226097e-05
1.67658333333333e+01 6.65079042519858e-03 7.85641845348637e-05
1.73341666666667e+01 6.27872922772628e-03 7.54162664255052e-05
1.79025000000000e+01 5.92748202829006e-03 7.23555106307044e-05
1.84708333333333e+01 5.59588443996456e-03 6.93839459419738e-05
1.90391666666667e+01 5.28283721812436e-03 6.65028835566419e-05
1.96075000000000e+01 4.98730261057408e-03 6.37130191752002e-05
2.01758333333333e+01 4.70830091815912e-03 6.10145210692678e-05
2.07441666666667e+01 4.44490725129013e-03 5.84071075911281e-05
2.13125000000000e+01 4.19624845942513e-03 5.58901147959802e-05
2.18808333333333e+01 3.96150023714271e-03 5.34625548704953e-05
2.24491666666667e+01 3.73988439484618e-03 5.11231678023067e-05
2.30175000000000e+01 3.53066627557712e-03 4.88704665424487e-05
2.35858333333333e+01 3.33315232005613e-03 4.67027759804089e-05
2.41541666666667e+01 3.14668777008941e-03 4.46182675041846e-05
2.47225000000000e+01 2.97065449532956e-03 4.26149891902319e-05
2.52908333333333e+01 2.80446894450025e-03 4.06908917471789e-05
2.58591666666667e+01 2.64758021292765e-03 3.88438515387407e-05
2.64275000000000e+01 2.49946821416500e-03 3.70716906304476e-05
2.69958333333333e+01 2.35964195615722e-03 3.53721938812769e-05
2.75641666666667e+01 2.22763791518076e-03 3.37431240910713e-05
2.81325000000000e+01 2.10301849758954e-03 3.21822351033737e-05
2.87008333333333e+01 1.98537058938627e-03 3.06872828321014e-05
2.92691666666667e+01 1.87430418799816e-03 2.92560349943812e-05
2.98375000000000e+01 1.76945110809655e-03 2.78862794331362e-05
3.04058333333333e+01 1.67046376121381e-03 2.65758309726995e-05
3.09741666666667e+01 1.57701400447866e-03 2.53225374196100e-05
3.15425000000000e+01 1.48879205177430e-03 2.41242845911690e-05
3.21108333333333e+01 1.40550544691577e-03 2.29790003050991e-05
3.26791666666667e+01 1.32687809494689e-03 2.18846578133954e-05
3.32475000000000e+01 1.25264934605151e-03 2.08392785694349e-05
3.38158333333333e+01 1.18257313159226e-03 1.98409342601077e-05
3.43841666666667e+01 1.11641714902337e-03 1.88877484867439e-05
3.49525000000000e+01 1.05396209114213e-03 1.79778979937910e-05
3.55208333333333e+01 9.95000919158868e-04 1.71096133798674e-05
3.60891666666667e+01 9.39338176868019e-04 1.62811795976832e-05
3.66575000000000e+01 8.86789342178253e-04 1.54909361528338e-05
3.72258333333333e+01 8.37180215479804e-04 1.47372769411479e-05
3.77941666666667e+01 7.90346342577814e-04 1.40186499704110e-05
3.83625000000000e+01 7.46132469099495e-04 1.33335568874797e-05
3.89308333333333e+01 7.04392025872019e-04 1.26805522564329e-05
3.94991666666667e+01 6.64986643371479e-04 1.20582427856116e-05
4.00675000000000e+01 6.27785692684534e-04 1.14652864349222e-05
4.06358333333333e+01 5.92665852510309e-04 1.09003913551885e-05
4.12041666666667e+01 5.59510700612805e-04 1.03623148192594e-05
4.17725000000000e+01 5.28210327604609e-04 9.84986208567527e-06
4.23408333333333e+01 4.98660972626626e-04 9.36188515258825e-06
4.29091666666667e+01 4.70764679592762e-04 8.89728153117527e-06
4.34775000000000e+01 4.44428972242316e-04 8.45499298773651e-06
4.40458333333333e+01 4.19566547604687e-04 8.03400421766371e-06
4.46141666666667e+01 3.96094986761383e-04 7.63334155607255e-06
4.51825000000000e+01 3.73936481446921e-04 7.25207168166739e-06
4.57508333333333e+01 3.53017576133288e-04 6.88930028198445e-06
4.63191666666667e+01 3.33268924663641e-04 6.54417076514151e-06
4.68875000000000e+01 3.14625060223761e-04 6.21586298107424e-06
4.74558333333333e+01 2.97024178334737e-04 5.90359192482319e-06
4.80241666666667e+01 2.80407932083654e-04 5.60660649113127e-06
4.85925000000000e+01 2.64721238585193e-04 5.32418824886800e-06
4.91608333333333e+01 2.49912096394081e-04 5.05565021173222e-06
4.97291666666667e+01 2.35931413211689e-04 4.80033566165931e-06
5.02975000000000e+01 2.22732843048954e-04 4.55761699820411e-06
5.08658333333333e+01 2.10272632599288e-04 4.32689459374389e-06
5.14341666666667e+01 1.98509476270662e-04 4.10759570052605e-06
5.20025000000000e+01 1.87404379179457e-04 3.89917338690045e-06
5.25708333333333e+01 1.76920527890393e-04 3.70110548552177e-06
5.31391666666667e+01 1.67023168440465e-04 3.51289359110282e-06
5.37075000000000e+01 1.57679491065993e-04 3.33406208852831e-06
5.42758333333333e+01 1.48858521444706e-04 3.16415719665315e-06
5.48441666666667e+01 1.40531018065133e-04 3.00274605849988e-06
5.54125000000000e+01 1.32669375239222e-04 2.84941586161769e-06
5.59808333333333e+01 1.25247531594706e-04 2.70377297610905e-06
5.65491666666667e+01 1.18240883721843e-04 2.56544213544824e-06
5.71175000000000e+01 1.11626204570893e-04 2.43406564636221e-06
5.76858333333333e+01 1.05381566458687e-04 2.30930261715015e-06
5.82541666666667e+01 9.94862684111691e-05 2.19082822500860e-06
5.88225000000000e+01 9.39207675052046e-05 2.07833301075998e-06
5.93908333333333e+01 8.86666140872364e-05 1.97152219195992e-06
5.99591666666667e+01 8.37063906394910e-05 1.87011501123138e-06
6.05275000000000e+01 7.90236540127549e-05 1.77384411002510e-06
6.10958333333333e+01 7.46028809201373e-05 1.68245492014722e-06
6.16641666666667e+01 7.04294164992974e-05 1.59570508686341e-06
6.22325000000000e+01 6.64894257085570e-05 1.51336391530486e-06
6.28008333333333e+01 6.27698474660194e-05 1.43521183367960e-06
6.33691666666667e+01 5.92583513700252e-05 1.36103988461483e-06
6.39375000000000e+01 5.59432968050352e-05 1.29064923764551e-06
6.45058333333333e+01 5.28136943548496e-05 1.22385071734248e-06
6.50741666666667e+01 4.98591693873884e-05 1.16046435637339e-06
6.56425000000000e+01 4.70699276473619e-05 1.10031896760210e-06
6.62108333333333e+01 4.44367227898312e-05 1.04325173056113e-06
6.67791666666667e+01 4.19508257406191e-05 9.89107799926177e-07
6.73475000000000e+01 3.96039957467893e-05 9.37739931019838e-07
6.79158333333333e+01 3.73884530597886e-05 8.89008118393385e-07
6.84841666666667e+01 3.52968531554590e-05 8.42779253752285e-07
6.90525000000000e+01 3.33222623765745e-05 7.98926799030432e-07
6.96208333333333e+01 3.14581349487797e-05 7.57330471268358e-07
7.01891666666667e+01 2.96982912894543e-05 7.17875944443327e-07
7.07575000000000e+01 2.80368975138913e-05 6.80454564712980e-07
7.13258333333333e+01 2.64684460967971e-05 6.44963076242059e-07
7.18941666666667e+01 2.49877376215017e-05 6.11303361843194e-07
7.24625000000000e+01 2.35898635369092e-05 5.79382195447765e-07
7.30308333333333e+01 2.22701898863280e-05 5.49111004012155e-07
7.35991666666667e+01 2.10243419513745e-05 5.20405642337946e-07
7.41675000000000e+01 1.98481897440435e-05 4.93186178289814e-07
7.47358333333333e+01 1.87378343163532e-05 4.67376686385617e-07
7.53041666666667e+01 1.76895948398294e-05 4.42905052619489e-07
7.58725000000000e+01 1.66999963988423e-05 4.19702788396246e-07
7.64408333333333e+01 1.57657584717162e-05 3.97704851864274e-07
7.70091666666667e+01 1.48837840594988e-05 3.76849479000332e-07
7.75775000000000e+01 1.40511494155304e-05 3.57078022657340e-07
7.81458333333333e+01 1.32650943535969e-05 3.38334798127029e-07
7.87141666666667e+01 1.25230131009562e-05 3.20566937153964e-07
7.92825000000000e+01 1.18224456570094e-05 3.03724248892713e-07
7.98508333333333e+01 1.11610696387051e-05 2.87759086583989e-07
8.04191666666667e+01 1.05366925843456e-05 2.72626221543627e-07
8.09875000000000e+01 9.94724468294812e-06 2.58282723192827e-07
8.15558333333333e+01 9.39077191307333e-06 2.44687844095042e-07
8.21241666666667e+01 8.86542956730803e-06 2.31802911311553e-07
8.26925000000000e+01 8.36947613489573e-06 2.19591223003797e-07
8.32608333333333e+01 7.90126752883502e-06 2.08017949408079e-07
8.38291666666667e+01 7.45925163743223e-06 1.97050039262981e-07
8.43975000000000e+01 7.04196317726751e-06 1.86656130785824e-07
8.49658333333333e+01 6.64801883595012e-06 1.76806466459337e-07
8.55341666666667e+01 6.27611268784019e-06 1.67472812518223e-07
8.61025000000000e+01 5.92501186343491e-06 1.58628382373830e-07
8.66708333333333e+01 5.59355246254572e-06 1.50247763352701e-07
8.72391666666667e+01 5.28063569712580e-06 1.42306847481803e-07
8.78075000000000e+01 4.98522424757513e-06 1.34782765678248e-07
8.83758333333333e+01 4.70633882414080e-06 1.27653824816175e-07
8.89441666666667e+01 4.44305492152588e-06 1.20899448274439e-07
8.95125000000000e+01 4.19449975315386e-06 1.14500119423786e-07
9.00808333333333e+01 3.95984935797570e-06 1.08437327608035e-07
9.06491666666667e+01 3.73832586982664e-06 1.02693517116641e-07
9.12175000000000e+01 3.52919493797415e-06 9.72520386922794e-08
9.17858333333333e+01 3.33176329282311e-06 9.20971031972260e-08
9.23541666666667e+01 3.14537644837747e-06 8.72137378483170e-08
9.29225000000000e+01 2.96941653193744e-06 8.25877446358364e-08
9.34908333333333e+01 2.80330023591560e-06 7.82056606085430e-08
9.40591666666667e+01 2.64647688470949e-06 7.40547203625497e-08
9.46275000000000e+01 2.49842660864887e-06 7.01228204098036e-08
9.51958333333333e+01 2.35865862068062e-06 6.63984851577815e-08
9.57641666666667e+01 2.22670958985357e-06 6.28708347787364e-08
9.63325000000000e+01 2.10214210491109e-06 5.95295546951615e-08
9.69008333333333e+01 1.98454322431645e-06 5.63648664548236e-08
9.74691666666667e+01 1.87352310771841e-06 5.33675002247830e-08
9.80375000000000e+01 1.76871372324596e-06 5.05286686739895e-08
9.86058333333333e+01 1.66976762751868e-06 4.78400420530665e-08
9.91741666666667e+01 1.57635681417516e-06 4.52937246603884e-08
9.97425000000000e+01 1.48817162621408e-06 4.28822325287915e-08
1.00310833333333e+02 1.40491972926779e-06 4.05984719983196e-08
1.00879166666667e+02 1.32632514375156e-06 3.84357197102938e-08
1.01447500000000e+02 1.25212732843890e-06 3.63876036414254e-08
1.02015833333333e+02 1.18208031674420e-06 3.44480844964706e-08
1.02584166666667e+02 1.11595190342209e-06 3.26114387304113e-08
1.03152500000000e+02 1.05352287263552e-06 3.08722424509140e-08
1.03720833333333e+02 9.94586271460749e-07 2.92253554109339e-08
1.04289166666667e+02 9.38946725558481e-07 2.76659065292479e-08
1.04857500000000e+02 8.86419789711099e-07 2.61892801352675e-08
1.05425833333333e+02 8.36831336556523e-07 2.47911023074665e-08
1.05994166666667e+02 7.90016980779815e-07 2.34672285041235e-08
1.06562500000000e+02 7.45821532688633e-07 2.22137318148413e-08
1.07130833333333e+02 7.04098483899719e-07 2.10268913055153e-08
1.07699166666667e+02 6.64709522842457e-07 1.99031814562587e-08
1.08267500000000e+02 6.27524075024741e-07 1.88392621310672e-08
1.08835833333333e+02 5.92418870294547e-07 1.78319686382480e-08
1.09404166666667e+02 5.59277535175662e-07 1.68783027151392e-08
1.09972500000000e+02 5.27990206069977e-07 1.59754239680418e-08
1.10540833333333e+02 4.98453165155597e-07 1.51206413985548e-08
1.11109166666667e+02 4.70568497370999e-07 1.43114057115152e-08
1.11677500000000e+02 4.44243764982009e-07 1.35453020124246e-08
1.12245833333333e+02 4.19391701230087e-07 1.28200425858781e-08
1.12814166666667e+02 3.95929921713113e-07 1.21334603348981e-08
1.13382500000000e+02 3.73780650581335e-07 1.14835025533480e-08
1.13950833333333e+02 3.52870462776103e-07 1.08682247733742e-08
1.14519166666667e+02 3.33130041181153e-07 1.02857851716567e-08
1.15087500000000e+02 3.14493946256458e-07 9.73443926036821e-09
1.15655833333333e+02 2.96900399160521e-07 9.21253464694895e-09
1.16224166666667e+02 2.80291077413871e-07 8.71850626634143e-09
1.16792500000000e+02 2.64610921079357e-07 8.25087185647302e-09
1.17360833333333e+02 2.49807950283470e-07 7.80822749635361e-09
1.17929166666667e+02 2.35833093284756e-07 7.38924354360217e-09
1.18497500000000e+02 2.22640023402466e-07 6.99266077971126e-09
1.19065833333333e+02 2.10185005480880e-07 6.61728661189893e-09
1.19634166666667e+02 1.98426751223815e-07 6.26199161263038e-09
1.20202500000000e+02 1.87326281993435e-07 5.92570623647860e-09
1.20770833333333e+02 1.76846799626942e-07 5.60741758783305e-09
1.21339166666667e+02 1.66953564713232e-07 5.30616647405238e-09
1.21907500000000e+02 1.57613781157634e-07 5.02104460994766e-09
1.22475833333333e+02 1.48796487488434e-07 4.75119186773052e-09
1.23044166666667e+02 1.40472454437435e-07 4.49579376824576e-09
1.23612500000000e+02 1.32614087817527e-07 4.25407910129241e-09
1.24180833333333e+02 1.25195337069153e-07 4.02531758642274e-09
1.24749166666667e+02 1.18191609083467e-07 3.80881773768777e-09
1.25317500000000e+02 1.11579686487486e-07 3.60392483845970e-09
1.25885833333333e+02 1.05337650696071e-07 3.41001895215742e-09
1.26454166666667e+02 9.94448094018378e-08 3.22651310534960e-09
1.27022500000000e+02 9.38816278235639e-08 3.05285156469264e-09
1.27590833333333e+02 8.86296639629518e-08 2.88850814560752e-09
1.28159166666667e+02 8.36715075939457e-08 2.73298466664578e-09
1.28727500000000e+02 7.89907224178409e-08 2.58580948381897e-09
1.29295833333333e+02 7.45717915890339e-08 2.44653605290352e-09
1.29864166666667e+02 7.04000663800800e-08 2.31474161487218e-09
1.30432500000000e+02 6.64617175132394e-08 2.19002594944802e-09
1.31000833333333e+02 6.27436893264416e-08 2.07201015325127e-09
1.31569166666667e+02 5.92336565796304e-08 1.96033552199994e-09
1.32137500000000e+02 5.59199835069774e-08 1.85466249072862e-09
1.32705833333333e+02 5.27916852526306e-08 1.75466959557500e-09
1.33274166666667e+02 4.98383915272329e-08 1.66005252349841e-09
1.33842500000000e+02 4.70503121559848e-08 1.57052321139697e-09
1.34410833333333e+02 4.44182046311126e-08 1.48580896409902e-09
1.34979166666667e+02 4.19333435321963e-08 1.40565164665934e-09
1.35547500000000e+02 3.95874915395765e-08 1.32980691870401e-09
1.36115833333333e+02 3.73728721333648e-08 1.25804348526019e-09
1.36684166666667e+02 3.52821438634986e-08 1.19014241037279e-09
1.37252500000000e+02 3.33083759614713e-08 1.12589646650430e-09
1.37820833333333e+02 3.14450253695872e-08 1.06510949830707e-09
1.38389166666667e+02 2.96859150916226e-08 1.00759583944773e-09
1.38957500000000e+02 2.80252136734058e-08 9.53179759875588e-10
1.39525833333333e+02 2.64574158754911e-08 9.01694925601274e-10
1.40094166666667e+02 2.49773244572799e-08 8.52983903300242e-10
1.40662500000000e+02 2.35800329127004e-08 8.06897690811894e-10
1.41230833333333e+02 2.22609092084153e-08 7.63295258511381e-10
1.41799166666667e+02 2.10155804568846e-08 7.22043128553771e-10
1.42367500000000e+02 1.98399183907627e-08 6.83014976139773e-10
1.42935833333333e+02 1.87300256804129e-08 6.46091240218158e-10
1.43504166666667e+02 1.76822230377468e-08 6.11158766185000e-10
1.44072500000000e+02 1.66930369948777e-08 5.78110467306083e-10
1.44640833333333e+02 1.57591883918340e-08 5.46844994319171e-10
1.45209166666667e+02 1.48775815256723e-08 5.17266432068081e-10
1.45777500000000e+02 1.40452938678472e-08 4.89284012052351e-10
1.46345833333333e+02 1.32595663779058e-08 4.62811832058827e-10
1.46914166666667e+02 1.25177943735084e-08 4.37768598629752e-10
1.47482500000000e+02 1.18175188789629e-08 4.14077383057121e-10
1.48050833333333e+02 1.11564184752811e-08 3.91665383501693e-10
1.48619166666667e+02 1.05323016181797e-08 3.70463706403588e-10
1.49187500000000e+02 9.94309935902085e-09 3.50407159386348e-10
1.49755833333333e+02 9.38685848754368e-09 3.31434049452343e-10
1.50324166666667e+02 8.86173506820602e-09 3.13485997474578e-10
1.50892500000000e+02 8.36598831581819e-09 2.96507762452845e-10
1.51460833333333e+02 7.89797482591752e-09 2.80447070336927e-10
1.52029166666667e+02 7.45614313622792e-09 2.65254456615566e-10
1.52597500000000e+02 7.03902857381295e-09 2.50883117199358e-10
1.53165833333333e+02 6.64524840058071e-09 2.37288763241966e-10
1.53734166666667e+02 6.27349723728238e-09 2.24429487589103e-10
1.54302500000000e+02 5.92254272806871e-09 2.12265638271201e-10
1.54870833333333e+02 5.59122145597502e-09 2.00759695389421e-10
1.55439166666667e+02 5.27843509266381e-09 1.89876157823134e-10
1.56007500000000e+02 4.98314675071711e-09 1.79581435918352e-10
1.56575833333333e+02 4.70437754697382e-09 1.69843747097609e-10
1.57144166666667e+02 4.44120336291635e-09 1.60633019765362e-10
1.57712500000000e+02 4.19275177560107e-09 1.51920802291134e-10
1.58280833333333e+02 3.95819916609120e-09 1.43680174505967e-10
1.58849166666667e+02 3.73676799364138e-09 1.35885666205322e-10
1.59417500000000e+02 3.52772421347550e-09 1.28513179962234e-10
1.59985833333333e+02 3.33037484385654e-09 1.21539916101155e-10
1.60554166666667e+02 3.14406567258238e-09 1.14944303589290e-10
1.61122500000000e+02 2.96817908438133e-09 1.08705934586179e-10
1.61690833333333e+02 2.80213201387375e-09 1.02805500849570e-10
1.62259166666667e+02 2.64537401581577e-09 9.72247351389516e-11
1.62827500000000e+02 2.49738543713409e-09 9.19463557234787e-11
1.63395833333333e+02 2.35767569457248e-09 8.69540124837061e-11
1.63964166666667e+02 2.22578165099378e-09 8.22322372339829e-11
1.64532500000000e+02 2.10126607738348e-09 7.77663966788866e-11
1.65100833333333e+02 1.98371620368215e-09 7.35426467372827e-11
1.65669166666667e+02 1.87274235260562e-09 6.95478904307494e-11
1.66237500000000e+02 1.76797664561924e-09 6.57697380066505e-11
1.66805833333333e+02 1.66907178362574e-09 6.21964682340854e-11
1.67374166666667e+02 1.57569989746163e-09 5.88169927098838e-11
1.67942500000000e+02 1.48755145914094e-09 5.56208220601598e-11
1.68510833333333e+02 1.40433425594077e-09 5.25980331471974e-11
1.69079166666667e+02 1.32577242320927e-09 4.97392388181928e-11
1.69647500000000e+02 1.25160552831701e-09 4.70355592617198e-11
1.70215833333333e+02 1.18158770746492e-09 4.44785942254782e-11
1.70784166666667e+02 1.11548685188957e-09 4.20603973804731e-11
1.71352500000000e+02 1.05308383712548e-09 3.97734520486218e-11
1.71920833333333e+02 9.94171796725788e-10 3.76106476678833e-11
1.72489166666667e+02 9.38555437536131e-10 3.55652580698557e-11
1.73057500000000e+02 8.86050391217242e-10 3.36309209134908e-11
1.73625833333333e+02 8.36482603162434e-10 3.18016177500610e-11
1.74194166666667e+02 7.89687756369759e-10 3.00716556185582e-11
1.74762500000000e+02 7.45510725830940e-10 2.84356496213022e-11
1.75330833333333e+02 7.03805064373995e-10 2.68885060396118e-11
1.75899166666667e+02 6.64432517910056e-10 2.54254067417233e-11
1.76467500000000e+02 6.27262566371037e-10 2.40417944216830e-11
1.77035833333333e+02 5.92171991103916e-10 2.27333583000946e-11
1.77604166666667e+02 5.59044467000178e-10 2.14960209159681e-11
1.78172500000000e+02 5.27770176253123e-10 2.03259256229541e-11
1.78740833333333e+02 4.98245444368721e-10 1.92194244803907e-11
1.79309166666667e+02 4.70372396984070e-10 1.81730670655952e-11
