Energy (eV)          EEDF (eV^-(3/2))     First Anisotropy
3.07142857142857e-03 9.49081509901952e-01 4.44354989457772e-04
9.21428571428571e-03 9.43891304020364e-01 7.34218352521802e-04
1.53571428571429e-02 9.38729481610455e-01 9.70476020189538e-04
2.15000000000000e-02 9.33595887478357e-01 1.15071014931096e-03
2.76428571428571e-02 9.28490367223613e-01 1.30164758734070e-03
3.37857142857143e-02 9.23412767342149e-01 1.43337276476443e-03
3.99285714285714e-02 9.18362935129131e-01 1.55109427790328e-03
4.60714285714286e-02 9.13340718747657e-01 1.65795149952244e-03
5.22142857142857e-02 9.08345967173403e-01 1.75602262822504e-03
5.83571428571429e-02 9.03378530201485e-01 1.84677375806797e-03
6.45000000000000e-02 8.98438258466272e-01 1.93128815537084e-03
7.06428571428571e-02 8.93525003402560e-01 2.01039498440018e-03
7.67857142857143e-02 8.88638617272605e-01 2.08474686056780e-03
8.29285714285714e-02 8.83778953132682e-01 2.15486919563455e-03
8.90714285714286e-02 8.78945864855526e-01 2.22119299421208e-03
9.52142857142857e-02 8.74139207106105e-01 2.28407744856277e-03
1.01357142857143e-01 8.69358835339938e-01 2.34382596726590e-03
1.07500000000000e-01 8.64604605829576e-01 2.40069786038066e-03
1.13642857142857e-01 8.59876375556095e-01 2.45491700573615e-03
1.19785714285714e-01 8.55174002382262e-01 2.50667843875384e-03
1.25928571428571e-01 8.50497344903555e-01 2.55615344575053e-03
1.32071428571429e-01 8.45846262488865e-01 2.60349351856929e-03
1.38214285714286e-01 8.41220615275917e-01 2.64883350940867e-03
1.44357142857143e-01 8.36620264167755e-01 2.69229415743777e-03
1.50500000000000e-01 8.32045070828152e-01 2.73398414183180e-03
1.56642857142857e-01 8.27494897648669e-01 2.77400174623887e-03
1.62785714285714e-01 8.22969607832465e-01 2.81243625307395e-03
1.68928571428571e-01 8.18469065300443e-01 2.84936910585246e-03
1.75071428571429e-01 8.13993134717720e-01 2.88487486399793e-03
1.81214285714286e-01 8.09541681489372e-01 2.91902202485937e-03
1.87357142857143e-01 8.05114571756769e-01 2.95187371877613e-03
1.93500000000000e-01 8.00711672393331e-01 2.98348830709746e-03
1.99642857142857e-01 7.96332850978880e-01 3.01391988227833e-03
2.05785714285714e-01 7.91977975861614e-01 3.04321871695181e-03
2.11928571428571e-01 7.87646916087090e-01 3.07143165476557e-03
2.18071428571429e-01 7.83339541417035e-01 3.09860243380330e-03
2.24214285714286e-01 7.79055722325312e-01 3.12477198336930e-03
2.30357142857143e-01 7.74795329994257e-01 3.14997868173038e-03
2.36500000000000e-01 7.70558236310683e-01 3.17425858681819e-03
2.42642857142857e-01 7.66344313844926e-01 3.19764562825985e-03
2.48785714285714e-01 7.62153435899000e-01 3.22017179296914e-03
2.54928571428571e-01 7.57985476450061e-01 3.24186729127004e-03
2.61071428571429e-01 7.53840310164451e-01 3.26276069008584e-03
2.67214285714286e-01 7.49717812393856e-01 3.28287904432677e-03
2.73357142857143e-01 7.45617859171713e-01 3.30224801214694e-03
2.79500000000000e-01 7.41540327209400e-01 3.32089196168230e-03
2.85642857142857e-01 7.37485093878570e-01 3.33883405655707e-03
2.91785714285714e-01 7.33452037249837e-01 3.35609634668764e-03
2.97928571428571e-01 7.29441036046205e-01 3.37269985122867e-03
3.04071428571429e-01 7.25451969653905e-01 3.38866462034628e-03
3.10214285714286e-01 7.21484718118720e-01 3.40400980223789e-03
3.16357142857143e-01 7.17539162142483e-01 3.41875370175373e-03
3.22500000000000e-01 7.13615183079435e-01 3.43291383658370e-03
3.28642857142857e-01 7.09712662921001e-01 3.44650697892575e-03
3.34785714285714e-01 7.05831484327593e-01 3.45954920579992e-03
3.40928571428571e-01 7.01971530589324e-01 3.47205594573972e-03
3.47071428571429e-01 6.98132685634559e-01 3.48404200948424e-03
3.53214285714286e-01 6.94314834026385e-01 3.49552162797317e-03
3.59357142857143e-01 6.90517860959220e-01 3.50650848510742e-03
3.65500000000000e-01 6.86741652255319e-01 3.51701575036068e-03
3.71642857142857e-01 6.82986094351429e-01 3.52705610008088e-03
3.77785714285714e-01 6.79251074325409e-01 3.53664174820806e-03
3.83928571428571e-01 6.75536479862487e-01 3.54578447514925e-03
3.90071428571429e-01 6.71842199262102e-01 3.55449564345106e-03
3.96214285714286e-01 6.68168121434521e-01 3.56278622119932e-03
4.02357142857143e-01 6.64514135897556e-01 3.57066680169123e-03
4.08500000000000e-01 6.60880132773213e-01 3.57814762388585e-03
4.14642857142857e-01 6.57266002775843e-01 3.58523858337924e-03
4.20785714285714e-01 6.53671637234729e-01 3.59194925268114e-03
4.26928571428571e-01 6.50096928064692e-01 3.59828890048103e-03
4.33071428571429e-01 6.46541767771634e-01 3.60426649949024e-03
4.39214285714286e-01 6.43006049449289e-01 3.60989074185260e-03
4.45357142857143e-01 6.39489666776048e-01 3.61517005164762e-03
4.51500000000000e-01 6.35992514011744e-01 3.62011259855080e-03
4.57642857142857e-01 6.32514485987023e-01 3.62472630322380e-03
4.63785714285714e-01 6.29055478122718e-01 3.62901885158387e-03
4.69928571428571e-01 6.25615386403960e-01 3.63299770848621e-03
4.76071428571429e-01 6.22194107384707e-01 3.63667012124983e-03
4.82214285714286e-01 6.18791538184608e-01 3.64004313038719e-03
4.88357142857143e-01 6.15407576485955e-01 3.64312357792438e-03
4.94500000000000e-01 6.12042120530578e-01 3.64591811701788e-03
5.00642857142857e-01 6.08695069110247e-01 3.64843321418238e-03
5.06785714285714e-01 6.05366321583429e-01 3.65067515987593e-03
5.12928571428572e-01 6.02055777852286e-01 3.65265007872765e-03
5.19071428571429e-01 5.98763338366381e-01 3.65436393059004e-03
5.25214285714286e-01 5.95488904119671e-01 3.65582251836644e-03
5.31357142857143e-01 5.92232376647563e-01 3.65703149376256e-03
5.37500000000000e-01 5.88993658023931e-01 3.65799636436349e-03
5.43642857142857e-01 5.85772650852380e-01 3.65872249401029e-03
5.49785714285714e-01 5.82569258280848e-01 3.65921511100085e-03
5.55928571428571e-01 5.79383383981016e-01 3.65947931606473e-03
5.62071428571429e-01 5.76214932151351e-01 3.65952008196207e-03
5.68214285714286e-01 5.73063807514216e-01 3.65934225942380e-03
5.74357142857143e-01 5.69929915313029e-01 3.65895058125533e-03
5.80500000000000e-01 5.66813161309400e-01 3.65834966774525e-03
5.86642857142857e-01 5.63713451775129e-01 3.65754402593847e-03
5.92785714285714e-01 5.60630693505016e-01 3.65653805621830e-03
5.98928571428571e-01 5.57564793798306e-01 3.65533605874490e-03
6.05071428571429e-01 5.54515660461191e-01 3.65394223219041e-03
6.11214285714286e-01 5.51483201804033e-01 3.65236067839953e-03
6.17357142857143e-01 5.48467326638623e-01 3.65059540539921e-03
6.23500000000000e-01 5.45467944275432e-01 3.64865033166473e-03
6.29642857142857e-01 5.42484964516248e-01 3.64652928473320e-03
6.35785714285714e-01 5.39518297665468e-01 3.64423600664273e-03
6.41928571428572e-01 5.36567854513293e-01 3.64177415927690e-03
6.48071428571429e-01 5.33633546337780e-01 3.63914732259152e-03
6.54214285714286e-01 5.30715284902170e-01 3.63635899837579e-03
6.60357142857143e-01 5.27812982452248e-01 3.63341261251210e-03
6.66500000000000e-01 5.24926551713701e-01 3.63031151843336e-03
6.72642857142857e-01 5.22055905885315e-01 3.62705899534614e-03
6.78785714285714e-01 5.19200958648979e-01 3.62365825283399e-03
6.84928571428572e-01 5.16361624154383e-01 3.62011243539566e-03
6.91071428571429e-01 5.13537817020704e-01 3.61642462038172e-03
6.97214285714286e-01 5.10729452334032e-01 3.61259782110345e-03
7.03357142857143e-01 5.07936445644829e-01 3.60863498856341e-03
7.09500000000000e-01 5.05158712965384e-01 3.60453901432356e-03
7.15642857142857e-01 5.02396170763514e-01 3.60031272850775e-03
7.21785714285714e-01 4.99648735971451e-01 3.59595890377152e-03
7.27928571428571e-01 4.96916325971865e-01 3.59148025922928e-03
7.34071428571429e-01 4.94198858599229e-01 3.58687945823732e-03
7.40214285714286e-01 4.91496252137350e-01 3.58215911101601e-03
7.46357142857143e-01 4.88808425316915e-01 3.57732177599957e-03
7.52500000000000e-01 4.86135297313051e-01 3.57236996226000e-03
7.58642857142857e-01 4.83476787739462e-01 3.56730612739902e-03
7.64785714285714e-01 4.80832816656359e-01 3.56213268102525e-03
7.70928571428572e-01 4.78203304557639e-01 3.55685198820280e-03
7.77071428571429e-01 4.75588172371994e-01 3.55146636716979e-03
7.83214285714286e-01 4.72987341460522e-01 3.54597809158744e-03
7.89357142857143e-01 4.70400733614378e-01 3.54038939160892e-03
7.95500000000000e-01 4.67828271052415e-01 3.53470245596315e-03
8.01642857142857e-01 4.65269876415725e-01 3.52891942980447e-03
8.07785714285714e-01 4.62725472774737e-01 3.52304241779706e-03
8.13928571428572e-01 4.60194983617412e-01 3.51707348718161e-03
8.20071428571429e-01 4.57678332850133e-01 3.51101466548524e-03
8.26214285714286e-01 4.55175444795408e-01 3.50486794247828e-03
8.32357142857143e-01 4.52686244189604e-01 3.49863527103212e-03
8.38500000000000e-01 4.50210656180680e-01 3.49231856893637e-03
8.44642857142857e-01 4.47748606323089e-01 3.48591971675119e-03
8.50785714285714e-01 4.45300020584136e-01 3.47944056057190e-03
8.56928571428571e-01 4.42864825333100e-01 3.47288291478393e-03
8.63071428571429e-01 4.40442947341918e-01 3.46624855979962e-03
8.69214285714286e-01 4.38034313782985e-01 3.45953924378127e-03
8.75357142857143e-01 4.35638852226970e-01 3.45275668334043e-03
8.81500000000000e-01 4.33256490640633e-01 3.44590256513832e-03
8.87642857142857e-01 4.30887157382052e-01 3.43897854377118e-03
8.93785714285714e-01 4.28530781206343e-01 3.43198624427089e-03
8.99928571428572e-01 4.26187291255591e-01 3.42492726459855e-03
9.06071428571429e-01 4.23856617059380e-01 3.41780317343248e-03
9.12214285714286e-01 4.21538688532668e-01 3.41061551170144e-03
9.18357142857143e-01 4.19233435973691e-01 3.40336579315954e-03
9.24500000000000e-01 4.16940790061858e-01 3.39605550581207e-03
9.30642857142857e-01 4.14660681853277e-01 3.38868610985193e-03
9.36785714285714e-01 4.12393042785905e-01 3.38125903993601e-03
9.42928571428572e-01 4.10137804670217e-01 3.37377570745887e-03
9.49071428571429e-01 4.07894899689594e-01 3.36623749840708e-03
9.55214285714286e-01 4.05664260398277e-01 3.35864577473462e-03
9.61357142857143e-01 4.03445819719352e-01 3.35100187483999e-03
9.67500000000000e-01 4.01239510942726e-01 3.34330711484743e-03
9.73642857142857e-01 3.99045267720916e-01 3.33556278660631e-03
9.79785714285714e-01 3.96863024073707e-01 3.32777015977570e-03
9.85928571428571e-01 3.94692714379474e-01 3.31993048390985e-03
9.92071428571429e-01 3.92534273375458e-01 3.31204498638654e-03
9.98214285714286e-01 3.90387636155793e-01 3.30411487054714e-03
1.00435714285714e+00 3.88252738177838e-01 3.29614132775772e-03
1.01050000000000e+00 3.86129515229145e-01 3.28812552688425e-03
1.01664285714286e+00 3.84017903463036e-01 3.28006860837824e-03
1.02278571428571e+00 3.81917839381986e-01 3.27197169130475e-03
1.02892857142857e+00 3.79829259855615e-01 3.26383589088482e-03
1.03507142857143e+00 3.77752102058855e-01 3.25566230369494e-03
1.04121428571429e+00 3.75686303530208e-01 3.24745198526497e-03
1.04735714285714e+00 3.73631802168981e-01 3.23920599562106e-03
1.05350000000000e+00 3.71588536175561e-01 3.23092537715882e-03
1.05964285714286e+00 3.69556444107619e-01 3.22261113998993e-03
1.06578571428571e+00 3.67535464858834e-01 3.21426427759162e-03
1.07192857142857e+00 3.65525537675426e-01 3.20588578104204e-03
1.07807142857143e+00 3.63526602098989e-01 3.19747662503286e-03
1.08421428571429e+00 3.61538598020212e-01 3.18903774671889e-03
1.09035714285714e+00 3.59561465676272e-01 3.18057008862949e-03
1.09650000000000e+00 3.57595145595558e-01 3.17207457777122e-03
1.10264285714286e+00 3.55639578649548e-01 3.16355211178062e-03
1.10878571428571e+00 3.53694706033073e-01 3.15500357365294e-03
1.11492857142857e+00 3.51760469279547e-01 3.14642984514699e-03
1.12107142857143e+00 3.49836810208012e-01 3.13783179356248e-03
1.12721428571429e+00 3.47923670972768e-01 3.12921025175784e-03
1.13335714285714e+00 3.46020994060900e-01 3.12056605861770e-03
1.13950000000000e+00 3.44128722241050e-01 3.11190003930719e-03
1.14564285714286e+00 3.42246798611370e-01 3.10321299217998e-03
1.15178571428571e+00 3.40375166581189e-01 3.09450570265458e-03
1.15792857142857e+00 3.38513769885056e-01 3.08577895585120e-03
1.16407142857143e+00 3.36662552533622e-01 3.07703352408477e-03
1.17021428571429e+00 3.34821458859554e-01 3.06827014797620e-03
1.17635714285714e+00 3.32990433515189e-01 3.05948957464749e-03
1.18250000000000e+00 3.31169421424988e-01 3.05069253905337e-03
1.18864285714286e+00 3.29358367829925e-01 3.04187975159664e-03
1.19478571428571e+00 3.27557218270431e-01 3.03305191121486e-03
1.20092857142857e+00 3.25765918599366e-01 3.02420971730414e-03
1.20707142857143e+00 3.23984414936393e-01 3.01535385788279e-03
1.21321428571429e+00 3.22212653710512e-01 3.00648499172748e-03
1.21935714285714e+00 3.20450581657836e-01 2.99760378445064e-03
1.22550000000000e+00 3.18698145777397e-01 2.98871089084068e-03
1.23164285714286e+00 3.16955293372297e-01 2.97980694314189e-03
1.23778571428571e+00 3.15221972033817e-01 2.97089256340602e-03
1.24392857142857e+00 3.13498129653413e-01 2.96196837475253e-03
1.25007142857143e+00 3.11783714380281e-01 2.95303499016370e-03
1.25621428571429e+00 3.10078674660810e-01 2.94409299557967e-03
1.26235714285714e+00 3.08382959236471e-01 2.93514298399901e-03
1.26850000000000e+00 3.06696517102689e-01 2.92618553876502e-03
1.27464285714286e+00 3.05019297547037e-01 2.91722122246957e-03
1.28078571428571e+00 3.03351250134417e-01 2.90825058862023e-03
1.28692857142857e+00 3.01692324718161e-01 2.89927419228163e-03
1.29307142857143e+00 3.00042471400518e-01 2.89029257946344e-03
1.29921428571429e+00 2.98401640569295e-01 2.88130627111459e-03
1.30535714285714e+00 2.96769782895851e-01 2.87231579537749e-03
1.31150000000000e+00 2.95146849296777e-01 2.86332167176121e-03
1.31764285714286e+00 2.93532790969385e-01 2.85432440063045e-03
1.32378571428571e+00 2.91927559377873e-01 2.84532447423496e-03
1.32992857142857e+00 2.90331106263615e-01 2.83632238677320e-03
1.33607142857143e+00 2.88743383608319e-01 2.82731862433668e-03
1.34221428571429e+00 2.87164343668100e-01 2.81831364974950e-03
1.34835714285714e+00 2.85593938971571e-01 2.80930793309328e-03
1.35450000000000e+00 2.84032122284098e-01 2.80030193671356e-03
1.36064285714286e+00 2.82478846640816e-01 2.79129610525884e-03
1.36678571428571e+00 2.80934065333697e-01 2.78229087611390e-03
1.37292857142857e+00 2.79397731921091e-01 2.77328668892367e-03
1.37907142857143e+00 2.77869800193353e-01 2.76428397606026e-03
1.38521428571429e+00 2.76350224204549e-01 2.75528314825660e-03
1.39135714285714e+00 2.74838958270639e-01 2.74628462351129e-03
1.39750000000000e+00 2.73335956936107e-01 2.73728881287756e-03
1.40364285714286e+00 2.71841175004704e-01 2.72829611102042e-03
1.40978571428571e+00 2.70354567527340e-01 2.71930690609201e-03
1.41592857142857e+00 2.68876089810959e-01 2.71032158874831e-03
1.42207142857143e+00 2.67405697386412e-01 2.70134054310985e-03
1.42821428571429e+00 2.65943346038010e-01 2.69236413314187e-03
1.43435714285714e+00 2.64488991801786e-01 2.68339273003841e-03
1.44050000000000e+00 2.63042590934310e-01 2.67442669874816e-03
1.44664285714286e+00 2.61604099941344e-01 2.66546638901850e-03
1.45278571428571e+00 2.60173475566502e-01 2.65651214474744e-03
1.45892857142857e+00 2.58750674799499e-01 2.64756431252684e-03
1.46507142857143e+00 2.57335654846110e-01 2.63862323306680e-03
1.47121428571429e+00 2.55928373155733e-01 2.62968922827742e-03
1.47735714285714e+00 2.54528787419728e-01 2.62076262722597e-03
1.48350000000000e+00 2.53136855542247e-01 2.61184375335529e-03
1.48964285714286e+00 2.51752535666968e-01 2.60293291598688e-03
1.49578571428571e+00 2.50375786166467e-01 2.59403041918276e-03
1.50192857142857e+00 2.49006565649885e-01 2.58513656984237e-03
1.50807142857143e+00 2.47644832934822e-01 2.57625166956446e-03
1.51421428571429e+00 2.46290547073054e-01 2.56737600239020e-03
1.52035714285714e+00 2.44943667348960e-01 2.55850985941846e-03
1.52650000000000e+00 2.43604153252203e-01 2.54965352667663e-03
1.53264285714286e+00 2.42271964502698e-01 2.54080727705625e-03
1.53878571428571e+00 2.40947061040636e-01 2.53197137871406e-03
1.54492857142857e+00 2.39629403033625e-01 2.52314610275043e-03
1.55107142857143e+00 2.38318950850364e-01 2.51433171548321e-03
1.55721428571429e+00 2.37015665084671e-01 2.50552846681390e-03
1.56335714285714e+00 2.35719506553972e-01 2.49673661358026e-03
1.56950000000000e+00 2.34430436273712e-01 2.48795640804306e-03
1.57564285714286e+00 2.33148415480683e-01 2.47918809022830e-03
1.58178571428571e+00 2.31873405623659e-01 2.47043189589549e-03
1.58792857142857e+00 2.30605368370047e-01 2.46168806382248e-03
1.59407142857143e+00 2.29344265581214e-01 2.45295682846790e-03
1.60021428571429e+00 2.28090059334945e-01 2.44423840892538e-03
1.60635714285714e+00 2.26842711924004e-01 2.43553303108649e-03
1.61250000000000e+00 2.25602185832140e-01 2.42684091670757e-03
1.61864285714286e+00 2.24368443755897e-01 2.41816227613764e-03
1.62478571428571e+00 2.23141448595823e-01 2.40949731587777e-03
1.63092857142857e+00 2.21921163462664e-01 2.40084624549590e-03
1.63707142857143e+00 2.20707551654223e-01 2.39220927065677e-03
1.64321428571429e+00 2.19500576676369e-01 2.38358658262881e-03
1.64935714285714e+00 2.18300202241665e-01 2.37497837932826e-03
1.65550000000000e+00 2.17106392246848e-01 2.36638485493291e-03
1.66164285714286e+00 2.15919110793248e-01 2.35780619297243e-03
1.66778571428571e+00 2.14738322178511e-01 2.34924257350503e-03
1.67392857142857e+00 2.13563990902389e-01 2.34069417968232e-03
1.68007142857143e+00 2.12396081645007e-01 2.33216119112553e-03
1.68621428571429e+00 2.11234559286542e-01 2.32364377395675e-03
1.69235714285714e+00 2.10079388905903e-01 2.31514210078524e-03
1.69850000000000e+00 2.08930535759589e-01 2.30665634083833e-03
1.70464285714286e+00 2.07787965300813e-01 2.29818665339545e-03
1.71078571428571e+00 2.06651643171708e-01 2.28973319460196e-03
1.71692857142857e+00 2.05521535208738e-01 2.28129612370519e-03
1.72307142857143e+00 2.04397607422282e-01 2.27287559675847e-03
1.72921428571429e+00 2.03279826015068e-01 2.26447175714559e-03
1.73535714285714e+00 2.02168157380912e-01 2.25608475457096e-03
1.74150000000000e+00 2.01062568084857e-01 2.24771473567869e-03
1.74764285714286e+00 1.99963024881086e-01 2.23936183781013e-03
1.75378571428571e+00 1.98869494705590e-01 2.23102619547696e-03
1.75992857142857e+00 1.97781944681220e-01 2.22270794628611e-03
1.76607142857143e+00 1.96700342098499e-01 2.21440722495370e-03
1.77221428571429e+00 1.95624654432902e-01 2.20612415429662e-03
1.77835714285714e+00 1.94554849343651e-01 2.19785886328074e-03
1.78450000000000e+00 1.93490894655036e-01 2.18961147810154e-03
1.79064285714286e+00 1.92432758373221e-01 2.18138211624818e-03
1.79678571428571e+00 1.91380408679331e-01 2.17317089265503e-03
1.80292857142857e+00 1.90333813934174e-01 2.16497792533276e-03
1.80907142857143e+00 1.89292942660195e-01 2.15680332967452e-03
1.81521428571429e+00 1.88257763557688e-01 2.14864720989002e-03
1.82135714285714e+00 1.87228245503636e-01 2.14050967616350e-03
1.82750000000000e+00 1.86204357534149e-01 2.13239083617114e-03
1.83364285714286e+00 1.85186068860221e-01 2.12429078943539e-03
1.83978571428571e+00 1.84173348861223e-01 2.11620963317139e-03
1.84592857142857e+00 1.83166167089310e-01 2.10814746764138e-03
1.85207142857143e+00 1.82164493252448e-01 2.10010439073802e-03
1.85821428571429e+00 1.81168297229622e-01 2.09208048983582e-03
1.86435714285714e+00 1.80177549069733e-01 2.08407585810848e-03
1.87050000000000e+00 1.79192218975061e-01 2.07609058645924e-03
1.87664285714286e+00 1.78212277316061e-01 2.06812475814930e-03
1.88278571428571e+00 1.77237694625223e-01 2.06017845435671e-03
1.88892857142857e+00 1.76268441601198e-01 2.05225175926898e-03
1.89507142857143e+00 1.75304489092817e-01 2.04434475492871e-03
1.90121428571429e+00 1.74345808113369e-01 2.03645751348031e-03
1.90735714285714e+00 1.73392369839550e-01 2.02859011269167e-03
1.91350000000000e+00 1.72444145595884e-01 2.02074262827536e-03
1.91964285714286e+00 1.71501106868623e-01 2.01291512877712e-03
1.92578571428571e+00 1.70563225299953e-01 2.00510768086297e-03
1.93192857142857e+00 1.69630472691856e-01 1.99732035416362e-03
1.93807142857143e+00 1.68702820991053e-01 1.98955321636881e-03
