Energy (eV)          EEDF (eV^-(3/2))     First Anisotropy
1.54098360655738e-03 2.81113973150123e+00 1.32185271441343e-03
4.62295081967213e-03 2.79523253344193e+00 2.18392075636738e-03
7.70491803278689e-03 2.77941534831207e+00 2.88611402548554e-03
1.07868852459016e-02 2.76368766678901e+00 3.42146149742288e-03
1.38688524590164e-02 2.74804898231969e+00 3.86951173374288e-03
1.69508196721311e-02 2.73249879140346e+00 4.26028776274219e-03
2.00327868852459e-02 2.71703659327538e+00 4.60930045606855e-03
2.31147540983607e-02 2.70166189001032e+00 4.92590102279107e-03
2.61967213114754e-02 2.68637418650288e+00 5.21628130038526e-03
2.92786885245902e-02 2.67117299045076e+00 5.48481049586913e-03
3.23606557377049e-02 2.65605781233911e+00 5.73471772227352e-03
3.54426229508197e-02 2.64102816542337e+00 5.96847525363217e-03
3.85245901639344e-02 2.62608356567530e+00 6.18802943241838e-03
4.16065573770492e-02 2.61122353188583e+00 6.39494761863752e-03
4.46885245901639e-02 2.59644758552650e+00 6.59051587145818e-03
4.77704918032787e-02 2.58175525077688e+00 6.77580622656074e-03
5.08524590163934e-02 2.56714605450895e+00 6.95172446164369e-03
5.39344262295082e-02 2.55261952627230e+00 7.11904486800237e-03
5.70163934426230e-02 2.53817519827880e+00 7.27843612329966e-03
6.00983606557377e-02 2.52381260538741e+00 7.43048091421244e-03
6.31803278688525e-02 2.50953128506737e+00 7.57569105644885e-03
6.62622950819672e-02 2.49533077745027e+00 7.71451933874259e-03
6.93442622950820e-02 2.48121062524662e+00 7.84736891490423e-03
7.24262295081967e-02 2.46717037375460e+00 7.97460082645366e-03
7.55081967213115e-02 2.45320957084530e+00 8.09654011266351e-03
7.85901639344262e-02 2.43932776694843e+00 8.21348081132220e-03
8.16721311475410e-02 2.42552451503768e+00 8.32569009212403e-03
8.47540983606557e-02 2.41179937060067e+00 8.43341169019402e-03
8.78360655737705e-02 2.39815189167238e+00 8.53686879733643e-03
9.09180327868852e-02 2.38458163877230e+00 8.63626650518170e-03
9.40000000000000e-02 2.37108817490679e+00 8.73179387142294e-03
9.70819672131148e-02 2.35767106555495e+00 8.82362569522621e-03
1.00163934426230e-01 2.34432987865472e+00 8.91192404188728e-03
1.03245901639344e-01 2.33106418458896e+00 8.99683955687518e-03
1.06327868852459e-01 2.31787355619498e+00 9.07851261808032e-03
1.09409836065574e-01 2.30475756870232e+00 9.15707435256990e-03
1.12491803278689e-01 2.29171579963334e+00 9.23264744743211e-03
1.15573770491803e-01 2.27874782912752e+00 9.30534696128604e-03
1.18655737704918e-01 2.26585323958412e+00 9.37528104089482e-03
1.21737704918033e-01 2.25303161576561e+00 9.44255148277529e-03
1.24819672131148e-01 2.24028254468657e+00 9.50725423539240e-03
1.27901639344262e-01 2.22760561589861e+00 9.56947991176378e-03
1.30983606557377e-01 2.21500042117394e+00 9.62931425115629e-03
1.34065573770492e-01 2.20246655459434e+00 9.68683844834166e-03
1.37147540983607e-01 2.19000361253906e+00 9.74212953161175e-03
1.40229508196721e-01 2.17761119358689e+00 9.79526062573412e-03
1.43311475409836e-01 2.16528889876030e+00 9.84630126494478e-03
1.46393442622951e-01 2.15303633125180e+00 9.89531767934717e-03
1.49475409836066e-01 2.14085309649891e+00 9.94237297701192e-03
1.52557377049180e-01 2.12873880217240e+00 9.98752738520224e-03
1.55639344262295e-01 2.11669305808927e+00 1.00308383984250e-02
1.58721311475410e-01 2.10471547642456e+00 1.00723609833258e-02
1.61803278688525e-01 2.09280567147142e+00 1.01121477686087e-02
1.64885245901639e-01 2.08096325970555e+00 1.01502491610337e-02
1.67967213114754e-01 2.06918785970600e+00 1.01867134543696e-02
1.71049180327869e-01 2.05747909234654e+00 1.02215869819961e-02
1.74131147540984e-01 2.04583658057705e+00 1.02549142595317e-02
1.77213114754098e-01 2.03425994948079e+00 1.02867380484464e-02
1.80295081967213e-01 2.02274882626274e+00 1.03170994810111e-02
1.83377049180328e-01 2.01130284017785e+00 1.03460381127103e-02
1.86459016393443e-01 1.99992162269998e+00 1.03735920324097e-02
1.89540983606557e-01 1.98860480732702e+00 1.03997979664503e-02
1.92622950819672e-01 1.97735202963047e+00 1.04246913119958e-02
1.95704918032787e-01 1.96616292724437e+00 1.04483062298059e-02
1.98786885245902e-01 1.95503713979984e+00 1.04706756716430e-02
2.01868852459016e-01 1.94397430907541e+00 1.04918314633163e-02
2.04950819672131e-01 1.93297407882178e+00 1.05118043838388e-02
2.08032786885246e-01 1.92203609480544e+00 1.05306241803071e-02
2.11114754098361e-01 1.91116000479760e+00 1.05483196395504e-02
2.14196721311475e-01 1.90034545851448e+00 1.05649185998971e-02
2.17278688524590e-01 1.88959210775184e+00 1.05804480161813e-02
2.20360655737705e-01 1.87889960622635e+00 1.05949340221001e-02
2.23442622950820e-01 1.86826760961427e+00 1.06084019440717e-02
2.26524590163934e-01 1.85769577549576e+00 1.06208763161064e-02
2.29606557377049e-01 1.84718376347885e+00 1.06323809345628e-02
2.32688524590164e-01 1.83673123505206e+00 1.06429389109859e-02
2.35770491803279e-01 1.82633785361927e+00 1.06525726690412e-02
2.38852459016393e-01 1.81600328448922e+00 1.06613039932993e-02
2.41934426229508e-01 1.80572719482406e+00 1.06691540257151e-02
2.45016393442623e-01 1.79550925375128e+00 1.06761433107612e-02
2.48098360655738e-01 1.78534913222917e+00 1.06822918392548e-02
2.51180327868852e-01 1.77524650307791e+00 1.06876190401274e-02
2.54262295081967e-01 1.76520104096919e+00 1.06921438212889e-02
2.57344262295082e-01 1.75521242237867e+00 1.06958845615920e-02
2.60426229508197e-01 1.74528032568741e+00 1.06988591489349e-02
2.63508196721311e-01 1.73540443105858e+00 1.07010850174120e-02
2.66590163934426e-01 1.72558442046521e+00 1.07025791447434e-02
2.69672131147541e-01 1.71581997764544e+00 1.07033580513866e-02
2.72754098360656e-01 1.70611078819687e+00 1.07034378343620e-02
2.75836065573770e-01 1.69645653946088e+00 1.07028342003616e-02
2.78918032786885e-01 1.68685692054799e+00 1.07015624523771e-02
2.82000000000000e-01 1.67731162232804e+00 1.06996375209238e-02
2.85081967213115e-01 1.66782033738840e+00 1.06970739515104e-02
2.88163934426230e-01 1.65838276012006e+00 1.06938859341141e-02
2.91245901639344e-01 1.64899858661099e+00 1.06900873321602e-02
2.94327868852459e-01 1.63966751466880e+00 1.06856916677578e-02
2.97409836065574e-01 1.63038924381119e+00 1.06807121491971e-02
3.00491803278689e-01 1.62116347522696e+00 1.06751616571803e-02
3.03573770491803e-01 1.61198991185481e+00 1.06690527708857e-02
3.06655737704918e-01 1.60286825828453e+00 1.06623977936627e-02
3.09737704918033e-01 1.59379822077756e+00 1.06552087451669e-02
3.12819672131148e-01 1.58477950723004e+00 1.06474973551496e-02
3.15901639344262e-01 1.57581182724653e+00 1.06392750873616e-02
3.18983606557377e-01 1.56689489204683e+00 1.06305531631573e-02
3.22065573770492e-01 1.55802841448477e+00 1.06213425455489e-02
3.25147540983607e-01 1.54921210903908e+00 1.06116539617514e-02
3.28229508196721e-01 1.54044569177874e+00 1.06014978883483e-02
3.31311475409836e-01 1.53172888043075e+00 1.05908845728324e-02
3.34393442622951e-01 1.52306139429345e+00 1.05798240549570e-02
3.37475409836066e-01 1.51444295425353e+00 1.05683261506390e-02
3.40557377049180e-01 1.50587328277715e+00 1.05564004724251e-02
3.43639344262295e-01 1.49735210387734e+00 1.05440564145308e-02
3.46721311475410e-01 1.48887914317643e+00 1.05313031724337e-02
3.49803278688525e-01 1.48045412782535e+00 1.05181497623265e-02
3.52885245901639e-01 1.47207678651893e+00 1.05046050117412e-02
3.55967213114754e-01 1.46374684946498e+00 1.04906775516696e-02
3.59049180327869e-01 1.45546404844296e+00 1.04763758348859e-02
3.62131147540984e-01 1.44722811672739e+00 1.04617081541457e-02
3.65213114754098e-01 1.43903878910206e+00 1.04466826262779e-02
3.68295081967213e-01 1.43089580185155e+00 1.04313072096988e-02
3.71377049180328e-01 1.42279889273196e+00 1.04155896895996e-02
3.74459016393443e-01 1.41474780102521e+00 1.03995376948033e-02
3.77540983606557e-01 1.40674226746742e+00 1.03831587145616e-02
3.80622950819672e-01 1.39878203426173e+00 1.03664600829314e-02
3.83704918032787e-01 1.39086684507012e+00 1.03494489949697e-02
3.86786885245902e-01 1.38299644498572e+00 1.03321324921938e-02
3.89868852459016e-01 1.37517058058315e+00 1.03145174781832e-02
3.92950819672131e-01 1.36738899985136e+00 1.02966107341448e-02
3.96032786885246e-01 1.35965145220532e+00 1.02784189036616e-02
3.99114754098361e-01 1.35195768847801e+00 1.02599485077449e-02
4.02196721311475e-01 1.34430746089427e+00 1.02412059306103e-02
4.05278688524590e-01 1.33670052311747e+00 1.02221974341988e-02
4.08360655737705e-01 1.32913663018650e+00 1.02029291726574e-02
4.11442622950820e-01 1.32161553852642e+00 1.01834071830291e-02
4.14524590163934e-01 1.31413700592341e+00 1.01636373771875e-02
4.17606557377049e-01 1.30670079156890e+00 1.01436255556056e-02
4.20688524590164e-01 1.29930665599951e+00 1.01233774211172e-02
4.23770491803279e-01 1.29195436110684e+00 1.01028985643850e-02
4.26852459016393e-01 1.28464367012993e+00 1.00821944772222e-02
4.29934426229508e-01 1.27737434763145e+00 1.00612705390381e-02
4.33016393442623e-01 1.27014615953876e+00 1.00401320297221e-02
4.36098360655738e-01 1.26295887308740e+00 1.00187841425349e-02
4.39180327868852e-01 1.25581225683003e+00 9.99723197003715e-03
4.42262295081967e-01 1.24870608062901e+00 9.97548051659640e-03
4.45344262295082e-01 1.24164011563387e+00 9.95353468523851e-03
4.48426229508197e-01 1.23461413431954e+00 9.93139928975031e-03
4.51508196721311e-01 1.22762791043308e+00 9.90907906678884e-03
4.54590163934426e-01 1.22068121900186e+00 9.88657866713231e-03
4.57672131147541e-01 1.21377383631189e+00 9.86390264801232e-03
4.60754098360656e-01 1.20690553994409e+00 9.84105548467283e-03
4.63836065573770e-01 1.20007610872338e+00 9.81804158194312e-03
4.66918032786885e-01 1.19328532272618e+00 9.79486526097150e-03
4.70000000000000e-01 1.18653296327342e+00 9.77153077045875e-03
4.73081967213115e-01 1.17981881290995e+00 9.74804227425351e-03
4.76163934426230e-01 1.17314265543832e+00 9.72440386224589e-03
4.79245901639344e-01 1.16650427587076e+00 9.70061956128906e-03
4.82327868852459e-01 1.15990346043602e+00 9.67669332239897e-03
4.85409836065574e-01 1.15333999657252e+00 9.65262903136945e-03
4.88491803278689e-01 1.14681367290880e+00 9.62843049679022e-03
4.91573770491803e-01 1.14032427929504e+00 9.60410146034395e-03
4.94655737704918e-01 1.13387160675770e+00 9.57964560712985e-03
4.97737704918033e-01 1.12745544750574e+00 9.55506655760776e-03
5.00819672131148e-01 1.12107559491181e+00 9.53036786048541e-03
5.03901639344262e-01 1.11473184354224e+00 9.50555300259871e-03
5.06983606557377e-01 1.10842398911350e+00 9.48062541881718e-03
5.10065573770492e-01 1.10215182849804e+00 9.45558848003661e-03
5.13147540983607e-01 1.09591515971773e+00 9.43044550281167e-03
5.16229508196721e-01 1.08971378192593e+00 9.40519973810302e-03
5.19311475409836e-01 1.08354749543555e+00 9.37985438063501e-03
5.22393442622951e-01 1.07741610167786e+00 9.35441257829620e-03
5.25475409836066e-01 1.07131940320775e+00 9.32887742056715e-03
5.28557377049180e-01 1.06525720369737e+00 9.30325194766326e-03
5.31639344262295e-01 1.05922930791907e+00 9.27753913969342e-03
5.34721311475410e-01 1.05323552177162e+00 9.25174192553932e-03
5.37803278688525e-01 1.04727565224119e+00 9.22586319178007e-03
5.40885245901639e-01 1.04134950740615e+00 9.19990577534873e-03
5.43967213114754e-01 1.03545689642058e+00 9.17387245701366e-03
5.47049180327869e-01 1.02959762953925e+00 9.14776596993352e-03
5.50131147540984e-01 1.02377151808019e+00 9.12158900823924e-03
5.53213114754098e-01 1.01797837442909e+00 9.09534421620787e-03
5.56295081967213e-01 1.01221801203328e+00 9.06903419661903e-03
5.59377049180328e-01 1.00649024538599e+00 9.04266150059493e-03
5.62459016393443e-01 1.00079489004980e+00 9.01622863572675e-03
5.65540983606557e-01 9.95131762621048e-01 8.98973807425019e-03
5.68622950819672e-01 9.89500680733892e-01 8.96319224261980e-03
5.71704918032787e-01 9.83901463054441e-01 8.93659352946658e-03
5.74786885245902e-01 9.78333929265696e-01 8.90994427581693e-03
5.77868852459016e-01 9.72797900089548e-01 8.88324678283013e-03
5.80950819672131e-01 9.67293197253021e-01 8.85650331958278e-03
5.84032786885246e-01 9.61819643491913e-01 8.82971611303822e-03
5.87114754098361e-01 9.56377062545109e-01 8.80288735563553e-03
5.90196721311475e-01 9.50965279140173e-01 8.77601919586191e-03
5.93278688524590e-01 9.45584119014013e-01 8.74911374563396e-03
5.96360655737705e-01 9.40233408880795e-01 8.72217308771859e-03
5.99442622950820e-01 9.34912976435245e-01 8.69519926931692e-03
6.02524590163934e-01 9.29622650338756e-01 8.66819429633887e-03
6.05606557377049e-01 9.24362260239075e-01 8.64116014052652e-03
6.08688524590164e-01 9.19131636739452e-01 8.61409874661767e-03
6.11770491803279e-01 9.13930611401677e-01 8.58701202296319e-03
6.14852459016394e-01 9.08759016740682e-01 8.55990184851009e-03
6.17934426229508e-01 9.03616686211222e-01 8.53277006398295e-03
6.21016393442623e-01 8.98503454226397e-01 8.50561847867942e-03
6.24098360655738e-01 8.93419156128288e-01 8.47844887731272e-03
6.27180327868852e-01 8.88363628190707e-01 8.45126301098255e-03
6.30262295081967e-01 8.83336707613942e-01 8.42406260384667e-03
6.33344262295082e-01 8.78338232512003e-01 8.39684934462854e-03
6.36426229508197e-01 8.73368041930048e-01 8.36962489311256e-03
6.39508196721312e-01 8.68425975816419e-01 8.34239088667727e-03
6.42590163934426e-01 8.63511875025136e-01 8.31514893449837e-03
6.45672131147541e-01 8.58625581303567e-01 8.28790061235890e-03
6.48754098360656e-01 8.53766937309065e-01 8.26064746892495e-03
6.51836065573770e-01 8.48935786582038e-01 8.23339103206464e-03
6.54918032786885e-01 8.44131973548234e-01 8.20613280040610e-03
6.58000000000000e-01 8.39355343513745e-01 8.17887424949933e-03
6.61081967213115e-01 8.34605742653185e-01 8.15161682387002e-03
6.64163934426230e-01 8.29883018025361e-01 8.12436194302205e-03
6.67245901639344e-01 8.25187017547599e-01 8.09711100748215e-03
6.70327868852459e-01 8.20517589997800e-01 8.06986539067320e-03
6.73409836065574e-01 8.15874585009582e-01 8.04262644481379e-03
6.76491803278689e-01 8.11257853060943e-01 8.01539549326640e-03
6.79573770491803e-01 8.06667245489024e-01 7.98817383628190e-03
6.82655737704918e-01 8.02102614465626e-01 7.96096275678379e-03
6.85737704918033e-01 7.97563812999055e-01 7.93376351513152e-03
6.88819672131148e-01 7.93050694923155e-01 7.90657734442262e-03
6.91901639344262e-01 7.88563114911419e-01 7.87940545605130e-03
6.94983606557377e-01 7.84100928453377e-01 7.85224904530660e-03
6.98065573770492e-01 7.79663991856286e-01 7.82510928377535e-03
7.01147540983607e-01 7.75252162240511e-01 7.79798732480154e-03
7.04229508196721e-01 7.70865297528998e-01 7.77088429632962e-03
7.07311475409836e-01 7.66503256460573e-01 7.74380130622555e-03
7.10393442622951e-01 7.62165898567411e-01 7.71673944764101e-03
7.13475409836066e-01 7.57853084176540e-01 7.68969979169962e-03
7.16557377049180e-01 7.53564674405349e-01 7.66268339273011e-03
7.19639344262295e-01 7.49300531151481e-01 7.63569128137259e-03
7.22721311475410e-01 7.45060517105381e-01 7.60872446967951e-03
7.25803278688525e-01 7.40844495728777e-01 7.58178395625667e-03
7.28885245901639e-01 7.36652331256016e-01 7.55487072153526e-03
7.31967213114754e-01 7.32483888684275e-01 7.52798572352086e-03
7.35049180327869e-01 7.28339033785565e-01 7.50112990273518e-03
7.38131147540984e-01 7.24217633085963e-01 7.47430418719603e-03
7.41213114754098e-01 7.20119553866819e-01 7.44750948557427e-03
7.44295081967213e-01 7.16044664160493e-01 7.42074669205033e-03
7.47377049180328e-01 7.11992832740947e-01 7.39401667986339e-03
7.50459016393443e-01 7.07963929135073e-01 7.36732030604721e-03
7.53540983606557e-01 7.03957823602849e-01 7.34065841620868e-03
7.56622950819672e-01 6.99974387138396e-01 7.31403183793556e-03
7.59704918032787e-01 6.96013491465839e-01 7.28744138545812e-03
7.62786885245902e-01 6.92075009030260e-01 7.26088785343644e-03
7.65868852459016e-01 6.88158813008399e-01 7.23437202150310e-03
7.68950819672131e-01 6.84264777289677e-01 7.20789465884554e-03
7.72032786885246e-01 6.80392776477126e-01 7.18145651786118e-03
7.75114754098361e-01 6.76542685883359e-01 7.15505833863300e-03
7.78196721311475e-01 6.72714381521871e-01 7.12870084293889e-03
7.81278688524590e-01 6.68907740117155e-01 7.10238473861593e-03
7.84360655737705e-01 6.65122639086542e-01 7.07611072395761e-03
7.87442622950820e-01 6.61358956541017e-01 7.04987948360138e-03
7.90524590163935e-01 6.57616571276788e-01 7.02369168482100e-03
7.93606557377049e-01 6.53895362784966e-01 6.99754798175682e-03
7.96688524590164e-01 6.50195211234025e-01 6.97144901968105e-03
7.99770491803279e-01 6.46515997470515e-01 6.94539542905542e-03
8.02852459016393e-01 6.42857603015238e-01 6.91938782969623e-03
8.05934426229508e-01 6.39219910055135e-01 6.89342682516600e-03
8.09016393442623e-01 6.35602801452437e-01 6.86751300683420e-03
8.12098360655738e-01 6.32006160727873e-01 6.84164695797328e-03
8.15180327868853e-01 6.28429872061285e-01 6.81582924803484e-03
8.18262295081967e-01 6.24873820287902e-01 6.79006043665217e-03
8.21344262295082e-01 6.21337890890536e-01 6.76434106823284e-03
8.24426229508197e-01 6.17821970008237e-01 6.73867167586142e-03
8.27508196721311e-01 6.14325944420213e-01 6.71305278523524e-03
8.30590163934426e-01 6.10849701546347e-01 6.68748491094605e-03
8.33672131147541e-01 6.07393129439633e-01 6.66196855312684e-03
8.36754098360656e-01 6.03956116794456e-01 6.63650420123634e-03
8.39836065573771e-01 6.00538552931058e-01 6.61109233787747e-03
8.42918032786885e-01 5.97140327795968e-01 6.58573343343716e-03
8.46000000000000e-01 5.93761331958475e-01 6.56042794981297e-03
8.49081967213115e-01 5.90401456603331e-01 6.53517633534940e-03
8.52163934426230e-01 5.87060593538598e-01 6.50997902847448e-03
8.55245901639344e-01 5.83738635180756e-01 6.48483646137106e-03
8.58327868852459e-01 5.80435474555055e-01 6.45974905480875e-03
8.61409836065574e-01 5.77151005292080e-01 6.43471722172955e-03
8.64491803278689e-01 5.73885121620731e-01 6.40974136236662e-03
8.67573770491803e-01 5.70637718375646e-01 6.38482186773877e-03
8.70655737704918e-01 5.67408690982924e-01 6.35995912318011e-03
8.73737704918033e-01 5.64197935460411e-01 6.33515350498066e-03
8.76819672131148e-01 5.61005348410886e-01 6.31040537734754e-03
8.79901639344262e-01 5.57830827029181e-01 6.28571509580165e-03
8.82983606557377e-01 5.54674269088360e-01 6.26108301060240e-03
8.86065573770492e-01 5.51535572939952e-01 6.23650946190367e-03
8.89147540983607e-01 5.48414637510679e-01 6.21199478310124e-03
8.92229508196721e-01 5.45311362295893e-01 6.18753929625516e-03
8.95311475409836e-01 5.42225647366313e-01 6.16314331535335e-03
8.98393442622951e-01 5.39157393354778e-01 6.13880714960702e-03
9.01475409836066e-01 5.36106501456408e-01 6.11453109878133e-03
9.04557377049180e-01 5.33072873425424e-01 6.09031545641479e-03
9.07639344262295e-01 5.30056411568829e-01 6.06616050540648e-03
9.10721311475410e-01 5.27057018752781e-01 6.04206652115597e-03
9.13803278688525e-01 5.24074598389891e-01 6.01803377473170e-03
9.16885245901639e-01 5.21109054439322e-01 5.99406252983195e-03
9.19967213114754e-01 5.18160291400650e-01 5.97015304003394e-03
9.23049180327869e-01 5.15228214319981e-01 5.94630555184427e-03
9.26131147540984e-01 5.12312728777650e-01 5.92252030777636e-03
9.29213114754098e-01 5.09413740888276e-01 5.89879754197381e-03
9.32295081967213e-01 5.06531157297742e-01 5.87513748321733e-03
9.35377049180328e-01 5.03664885177274e-01 5.85154035078435e-03
9.38459016393443e-01 5.00814832229240e-01 5.82800635738416e-03
9.41540983606557e-01 4.97980906675341e-01 5.80453571212030e-03
9.44622950819672e-01 4.95163017256618e-01 5.78112861626908e-03
9.47704918032787e-01 4.92361073230511e-01 5.75778526617451e-03
9.50786885245902e-01 4.89574984365158e-01 5.73450584925601e-03
9.53868852459016e-01 4.86804660944882e-01 5.71129054683323e-03
9.56950819672131e-01 4.84050013758859e-01 5.68813953697694e-03
9.60032786885246e-01 4.81310954101076e-01 5.66505299043827e-03
9.63114754098361e-01 4.78587393767478e-01 5.64203107343717e-03
9.66196721311475e-01 4.75879245050457e-01 5.61907394380991e-03
9.69278688524590e-01 4.73186420744068e-01 5.59618175372905e-03
9.72360655737705e-01 4.70508834133137e-01 5.57335465244824e-03
