Energy (eV)          EEDF (eV^-(3/2))     First Anisotropy
1.35000000000000e-02 1.11086573300265e-01 5.38101554468688e-05
4.05000000000000e-02 1.10447690070730e-01 8.88992080593888e-05
6.75000000000000e-02 1.09812481198738e-01 1.17471918044591e-04
9.45000000000000e-02 1.09180925552203e-01 1.39248905200248e-04
1.21500000000000e-01 1.08553002120614e-01 1.57469285912341e-04
1.48500000000000e-01 1.07928690014302e-01 1.73355722851459e-04
1.75500000000000e-01 1.07307968463745e-01 1.87539962696271e-04
2.02500000000000e-01 1.06690816818867e-01 2.00402920515716e-04
2.29500000000000e-01 1.06077214548358e-01 2.12196847240970e-04
2.56500000000000e-01 1.05467141238988e-01 2.23099762731941e-04
2.83500000000000e-01 1.04860576594928e-01 2.33243250532192e-04
3.10500000000000e-01 1.04257500437075e-01 2.42728065671309e-04
3.37500000000000e-01 1.03657892702380e-01 2.51633539220417e-04
3.64500000000000e-01 1.03061733443181e-01 2.60023563002410e-04
3.91500000000000e-01 1.02469002826540e-01 2.67950567915804e-04
4.18500000000000e-01 1.01879681133581e-01 2.75458264776226e-04
4.45500000000000e-01 1.01293748758838e-01 2.82583589852350e-04
4.72500000000000e-01 1.00711186209598e-01 2.89358121329849e-04
4.99500000000000e-01 1.00131974105257e-01 2.95809133317515e-04
5.26500000000000e-01 9.95560931766719e-02 3.01960395165304e-04
5.53500000000000e-01 9.89835242655204e-02 3.07832787821188e-04
5.80500000000000e-01 9.84142483236645e-02 3.13444786170899e-04
6.07500000000000e-01 9.78482464125161e-02 3.18812841502090e-04
6.34500000000000e-01 9.72854997024071e-02 3.23951688379601e-04
6.61500000000000e-01 9.67259894719627e-02 3.28874593512916e-04
6.88500000000000e-01 9.61696971074793e-02 3.33593559545835e-04
7.15500000000000e-01 9.56166041023043e-02 3.38119493414362e-04
7.42500000000000e-01 9.50666920562212e-02 3.42462346562908e-04
7.69500000000000e-01 9.45199426748371e-02 3.46631232594925e-04
7.96500000000000e-01 9.39763377689741e-02 3.50634526669083e-04
8.23500000000000e-01 9.34358592540643e-02 3.54479950008313e-04
8.50500000000000e-01 9.28984891495483e-02 3.58174642176411e-04
8.77500000000000e-01 9.23642095782765e-02 3.61725223232800e-04
9.04500000000000e-01 9.18330027659149e-02 3.65137847457556e-04
9.31500000000000e-01 9.13048510403536e-02 3.68418250012821e-04
9.58500000000000e-01 9.07797368311188e-02 3.71571787651708e-04
9.85500000000000e-01 9.02576426687884e-02 3.74603474384338e-04
1.01250000000000e+00 8.97385511844107e-02 3.77518012849863e-04
1.03950000000000e+00 8.92224451089268e-02 3.80319822015133e-04
1.06650000000000e+00 8.87093072725959e-02 3.83013061716763e-04
1.09350000000000e+00 8.81991206044240e-02 3.85601654479154e-04
1.12050000000000e+00 8.76918681315962e-02 3.88089304972401e-04
1.14750000000000e+00 8.71875329789121e-02 3.90479517417893e-04
1.17450000000000e+00 8.66860983682242e-02 3.92775611202534e-04
1.20150000000000e+00 8.61875476178796e-02 3.94980734924046e-04
1.22850000000000e+00 8.56918641421656e-02 3.97097879057916e-04
1.25550000000000e+00 8.51990314507573e-02 3.99129887409560e-04
1.28250000000000e+00 8.47090331481694e-02 4.01079467492586e-04
1.30950000000000e+00 8.42218529332106e-02 4.02949199955165e-04
1.33650000000000e+00 8.37374745984412e-02 4.04741547160170e-04
1.36350000000000e+00 8.32558820296343e-02 4.06458861011600e-04
1.39050000000000e+00 8.27770592052393e-02 4.08103390107413e-04
1.41750000000000e+00 8.23009901958490e-02 4.09677286288989e-04
1.44450000000000e+00 8.18276591636697e-02 4.11182610649503e-04
1.47150000000000e+00 8.13570503619945e-02 4.12621339055426e-04
1.49850000000000e+00 8.08891481346791e-02 4.13995367229124e-04
1.52550000000000e+00 8.04239369156211e-02 4.15306515435083e-04
1.55250000000000e+00 7.99614012282423e-02 4.16556532807598e-04
1.57950000000000e+00 7.95015256849736e-02 4.17747101353208e-04
1.60650000000000e+00 7.90442949867433e-02 4.18879839657776e-04
1.63350000000000e+00 7.85896939224679e-02 4.19956306324903e-04
1.66050000000000e+00 7.81377073685461e-02 4.20978003169405e-04
1.68750000000000e+00 7.76883202883560e-02 4.21946378187290e-04
1.71450000000000e+00 7.72415177317543e-02 4.22862828321285e-04
1.74150000000000e+00 7.67972848345794e-02 4.23728702039191e-04
1.76850000000000e+00 7.63556068181569e-02 4.24545301740695e-04
1.79550000000000e+00 7.59164689888075e-02 4.25313886006490e-04
1.82250000000000e+00 7.54798567373587e-02 4.26035671702389e-04
1.84950000000000e+00 7.50457555386585e-02 4.26711835950086e-04
1.87650000000000e+00 7.46141509510921e-02 4.27343517974817e-04
1.90350000000000e+00 7.41850286161018e-02 4.27931820839290e-04
1.93050000000000e+00 7.37583742577090e-02 4.28477813072794e-04
1.95750000000000e+00 7.33341736820393e-02 4.28982530202939e-04
1.98450000000000e+00 7.29124127768506e-02 4.29446976197439e-04
2.01150000000000e+00 7.24930775110632e-02 4.29872124822454e-04
2.03850000000000e+00 7.20761539342933e-02 4.30258920923165e-04
2.06550000000000e+00 7.16616281763888e-02 4.30608281632505e-04
2.09250000000000e+00 7.12494864469678e-02 4.30921097512688e-04
2.11950000000000e+00 7.08397150349602e-02 4.31198233634328e-04
2.14650000000000e+00 7.04323003081509e-02 4.31440530597260e-04
2.17350000000000e+00 7.00272287127268e-02 4.31648805496960e-04
2.20050000000000e+00 6.96244867728259e-02 4.31823852840387e-04
2.22750000000000e+00 6.92240610900886e-02 4.31966445414201e-04
2.25450000000000e+00 6.88259383432124e-02 4.32077335108562e-04
2.28150000000000e+00 6.84301052875083e-02 4.32157253699400e-04
2.30850000000000e+00 6.80365487544606e-02 4.32206913591669e-04
2.33550000000000e+00 6.76452556512887e-02 4.32227008526042e-04
2.36250000000000e+00 6.72562129605112e-02 4.32218214251196e-04
2.38950000000000e+00 6.68694077395132e-02 4.32181189163870e-04
2.41650000000000e+00 6.64848271201156e-02 4.32116574918652e-04
2.44350000000000e+00 6.61024583081471e-02 4.32024997009115e-04
2.47050000000000e+00 6.57222885830183e-02 4.31907065322072e-04
2.49750000000000e+00 6.53443052972990e-02 4.31763374666539e-04
2.52450000000000e+00 6.49684958762968e-02 4.31594505278816e-04
2.55150000000000e+00 6.45948478176394e-02 4.31401023304971e-04
2.57850000000000e+00 6.42233486908583e-02 4.31183481262071e-04
2.60550000000000e+00 6.38539861369751e-02 4.30942418479243e-04
2.63250000000000e+00 6.34867478680910e-02 4.30678361519797e-04
2.65950000000000e+00 6.31216216669773e-02 4.30391824585255e-04
2.68650000000000e+00 6.27585953866694e-02 4.30083309902357e-04
2.71350000000000e+00 6.23976569500625e-02 4.29753308094047e-04
2.74050000000000e+00 6.20387943495099e-02 4.29402298535029e-04
2.76750000000000e+00 6.16819956464235e-02 4.29030749692834e-04
2.79450000000000e+00 6.13272489708767e-02 4.28639119455164e-04
2.82150000000000e+00 6.09745425212093e-02 4.28227855444209e-04
2.84850000000000e+00 6.06238645636351e-02 4.27797395318371e-04
2.87550000000000e+00 6.02752034318515e-02 4.27348167062316e-04
2.90250000000000e+00 5.99285475266514e-02 4.26880589265886e-04
2.92950000000000e+00 5.95838853155373e-02 4.26395071392177e-04
2.95650000000000e+00 5.92412053323374e-02 4.25892014035484e-04
2.98350000000000e+00 5.89004961768247e-02 4.25371809169689e-04
3.01050000000000e+00 5.85617465143372e-02 4.24834840387254e-04
3.03750000000000e+00 5.82249450754010e-02 4.24281483129492e-04
3.06450000000000e+00 5.78900806553554e-02 4.23712104908525e-04
3.09150000000000e+00 5.75571421139804e-02 4.23127065521104e-04
3.11850000000000e+00 5.72261183751255e-02 4.22526717254944e-04
3.14550000000000e+00 5.68969984263419e-02 4.21911405087653e-04
3.17250000000000e+00 5.65697713185156e-02 4.21281466878657e-04
3.19950000000000e+00 5.62444261655034e-02 4.20637233554619e-04
3.22650000000000e+00 5.59209521437706e-02 4.19979029288367e-04
3.25350000000000e+00 5.55993384920313e-02 4.19307171671700e-04
3.28050000000000e+00 5.52795745108899e-02 4.18621971882481e-04
3.30750000000000e+00 5.49616495624853e-02 4.17923734846085e-04
3.33450000000000e+00 5.46455530701373e-02 4.17212759391425e-04
3.36150000000000e+00 5.43312745179942e-02 4.16489338401955e-04
3.38850000000000e+00 5.40188034506836e-02 4.15753758961734e-04
3.41550000000000e+00 5.37081294729641e-02 4.15006302496745e-04
3.44250000000000e+00 5.33992422493796e-02 4.14247244911781e-04
3.46950000000000e+00 5.30921315039155e-02 4.13476856722898e-04
3.49650000000000e+00 5.27867870196567e-02 4.12695403185650e-04
3.52350000000000e+00 5.24831986384479e-02 4.11903144419526e-04
3.55050000000000e+00 5.21813562605557e-02 4.11100335528410e-04
3.57750000000000e+00 5.18812498443322e-02 4.10287226717367e-04
3.60450000000000e+00 5.15828694058815e-02 4.09464063405835e-04
3.63150000000000e+00 5.12862050187272e-02 4.08631086337534e-04
3.65850000000000e+00 5.09912468134820e-02 4.07788531687032e-04
3.68550000000000e+00 5.06979849775200e-02 4.06936631163067e-04
3.71250000000000e+00 5.04064097546495e-02 4.06075612108963e-04
3.73950000000000e+00 5.01165114447892e-02 4.05205697600032e-04
3.76650000000000e+00 4.98282804036446e-02 4.04327106538201e-04
3.79350000000000e+00 4.95417070423880e-02 4.03440053743939e-04
3.82050000000000e+00 4.92567818273391e-02 4.02544750045471e-04
3.84750000000000e+00 4.89734952796478e-02 4.01641402365557e-04
3.87450000000000e+00 4.86918379749790e-02 4.00730213805884e-04
3.90150000000000e+00 4.84118005431990e-02 3.99811383728982e-04
3.92850000000000e+00 4.81333736680638e-02 3.98885107837962e-04
3.95550000000000e+00 4.78565480869092e-02 3.97951578254088e-04
3.98250000000000e+00 4.75813145903425e-02 3.97010983592139e-04
4.00950000000000e+00 4.73076640219363e-02 3.96063509033823e-04
4.03650000000000e+00 4.70355872779238e-02 3.95109336399260e-04
4.06350000000000e+00 4.67650753068961e-02 3.94148644216429e-04
4.09050000000000e+00 4.64961191095008e-02 3.93181607788879e-04
4.11750000000000e+00 4.62287097381427e-02 3.92208399261676e-04
4.14450000000000e+00 4.59628382966862e-02 3.91229187685600e-04
4.17150000000000e+00 4.56984959401595e-02 3.90244139079646e-04
4.19850000000000e+00 4.54356738744600e-02 3.89253416491966e-04
4.22550000000000e+00 4.51743633560619e-02 3.88257180059329e-04
4.25250000000000e+00 4.49145556917255e-02 3.87255587064937e-04
4.27950000000000e+00 4.46562422382077e-02 3.86248791994814e-04
4.30650000000000e+00 4.43994144019745e-02 3.85236946592903e-04
4.33350000000000e+00 4.41440636389153e-02 3.84220199914716e-04
4.36050000000000e+00 4.38901814540587e-02 3.83198698379594e-04
4.38750000000000e+00 4.36377594012895e-02 3.82172585821849e-04
4.41450000000000e+00 4.33867890830680e-02 3.81142003540532e-04
4.44150000000000e+00 4.31372621501508e-02 3.80107090348022e-04
4.46850000000000e+00 4.28891703013125e-02 3.79067982617536e-04
4.49550000000000e+00 4.26425052830702e-02 3.78024814329399e-04
4.52250000000000e+00 4.23972588894083e-02 3.76977717116271e-04
4.54950000000000e+00 4.21534229615060e-02 3.75926820307283e-04
4.57650000000000e+00 4.19109893874655e-02 3.74872250971174e-04
4.60350000000000e+00 4.16699501020425e-02 3.73814133958403e-04
4.63050000000000e+00 4.14302970863775e-02 3.72752591942317e-04
4.65750000000000e+00 4.11920223677294e-02 3.71687745459382e-04
4.68450000000000e+00 4.09551180192099e-02 3.70619712948414e-04
4.71150000000000e+00 4.07195761595200e-02 3.69548610788971e-04
4.73850000000000e+00 4.04853889526880e-02 3.68474553338930e-04
4.76550000000000e+00 4.02525486078083e-02 3.67397652971141e-04
4.79250000000000e+00 4.00210473787826e-02 3.66318020109297e-04
4.81950000000000e+00 3.97908775640622e-02 3.65235763263068e-04
4.84650000000000e+00 3.95620315063916e-02 3.64150989062365e-04
4.87350000000000e+00 3.93345015925539e-02 3.63063802290888e-04
4.90050000000000e+00 3.91082802531174e-02 3.61974305918966e-04
4.92750000000000e+00 3.88833599621841e-02 3.60882601135714e-04
4.95450000000000e+00 3.86597332371387e-02 3.59788787380378e-04
4.98150000000000e+00 3.84373926384003e-02 3.58692962373121e-04
5.00850000000000e+00 3.82163307691748e-02 3.57595222145208e-04
5.03550000000000e+00 3.79965402752084e-02 3.56495661068366e-04
5.06250000000000e+00 3.77780138445433e-02 3.55394371883621e-04
5.08950000000000e+00 3.75607442072745e-02 3.54291445729624e-04
5.11650000000000e+00 3.73447241353077e-02 3.53186972170232e-04
5.14350000000000e+00 3.71299464421190e-02 3.52081039221591e-04
5.17050000000000e+00 3.69164039825157e-02 3.50973733378713e-04
5.19750000000000e+00 3.67040896523989e-02 3.49865139641431e-04
5.22450000000000e+00 3.64929963885266e-02 3.48755341539817e-04
5.25150000000000e+00 3.62831171682792e-02 3.47644421159109e-04
5.27850000000000e+00 3.60744450094258e-02 3.46532459164205e-04
5.30550000000000e+00 3.58669729698918e-02 3.45419534823558e-04
5.33250000000000e+00 3.56606941475279e-02 3.44305726032653e-04
5.35950000000000e+00 3.54556016798807e-02 3.43191109336998e-04
5.38650000000000e+00 3.52516887439642e-02 3.42075759954646e-04
5.41350000000000e+00 3.50489485560329e-02 3.40959751798315e-04
5.44050000000000e+00 3.48473743713561e-02 3.39843157497074e-04
5.46750000000000e+00 3.46469594839936e-02 3.38726048417554e-04
5.49450000000000e+00 3.44476972265723e-02 3.37608494684768e-04
5.52150000000000e+00 3.42495809700650e-02 3.36490565202584e-04
5.54850000000000e+00 3.40526041235691e-02 3.35372327673715e-04
5.57550000000000e+00 3.38567601340881e-02 3.34253848619432e-04
5.60250000000000e+00 3.36620424863128e-02 3.33135193398794e-04
5.62950000000000e+00 3.34684447024053e-02 3.32016426227547e-04
5.65650000000000e+00 3.32759603417831e-02 3.30897610196753e-04
5.68350000000000e+00 3.30845830009049e-02 3.29778807290925e-04
5.71050000000000e+00 3.28943063130574e-02 3.28660078405923e-04
5.73750000000000e+00 3.27051239481438e-02 3.27541483366546e-04
5.76450000000000e+00 3.25170296124732e-02 3.26423080943674e-04
5.79150000000000e+00 3.23300170485509e-02 3.25304928871166e-04
5.81850000000000e+00 3.21440800348704e-02 3.24187083862473e-04
5.84550000000000e+00 3.19592123857067e-02 3.23069601626891e-04
5.87250000000000e+00 3.17754079509099e-02 3.21952536885556e-04
5.89950000000000e+00 3.15926606157013e-02 3.20835943387165e-04
5.92650000000000e+00 3.14109643004695e-02 3.19719873923347e-04
5.95350000000000e+00 3.12303129605681e-02 3.18604380343818e-04
5.98050000000000e+00 3.10507005861152e-02 3.17489513571257e-04
6.00750000000000e+00 3.08721212017926e-02 3.16375323615866e-04
6.03450000000000e+00 3.06945688666478e-02 3.15261859589748e-04
6.06150000000000e+00 3.05180376738957e-02 3.14149169720938e-04
6.08850000000000e+00 3.03425217507228e-02 3.13037301367290e-04
6.11550000000000e+00 3.01680152580912e-02 3.11926301030052e-04
6.14250000000000e+00 2.99945123905445e-02 3.10816214367190e-04
6.16950000000000e+00 2.98220073760149e-02 3.09707086206601e-04
6.19650000000000e+00 2.96504944756312e-02 3.08598960558930e-04
6.22350000000000e+00 2.94799679835273e-02 3.07491880630224e-04
6.25050000000000e+00 2.93104222266530e-02 3.06385888834457e-04
6.27750000000000e+00 2.91418515645852e-02 3.05281026805729e-04
6.30450000000000e+00 2.89742503893399e-02 3.04177335410272e-04
6.33150000000000e+00 2.88076131251858e-02 3.03074854758347e-04
6.35850000000000e+00 2.86419342284591e-02 3.01973624215809e-04
6.38550000000000e+00 2.84772081873786e-02 3.00873682415549e-04
6.41250000000000e+00 2.83134295218627e-02 2.99775067268754e-04
6.43950000000000e+00 2.81505927833469e-02 2.98677815975909e-04
6.46650000000000e+00 2.79886925546025e-02 2.97581965037680e-04
6.49350000000000e+00 2.78277234495566e-02 2.96487550265603e-04
6.52050000000000e+00 2.76676801131127e-02 2.95394606792579e-04
6.54750000000000e+00 2.75085572209728e-02 2.94303169083189e-04
6.57450000000000e+00 2.73503494794599e-02 2.93213270943919e-04
6.60150000000000e+00 2.71930516253421e-02 2.92124945533048e-04
6.62850000000000e+00 2.70366584256577e-02 2.91038225370517e-04
6.65550000000000e+00 2.68811646775407e-02 2.89953142347640e-04
6.68250000000000e+00 2.67265652080481e-02 2.88869727736560e-04
6.70950000000000e+00 2.65728548739874e-02 2.87788012199614e-04
6.73650000000000e+00 2.64200285617459e-02 2.86708025798556e-04
6.76350000000000e+00 2.62680811871205e-02 2.85629798003578e-04
6.79050000000000e+00 2.61170076951482e-02 2.84553357702219e-04
6.81750000000000e+00 2.59668030599383e-02 2.83478733208184e-04
6.84450000000000e+00 2.58174622845053e-02 2.82405952269895e-04
6.87150000000000e+00 2.56689804006022e-02 2.81335042079031e-04
6.89850000000000e+00 2.55213524685555e-02 2.80266029278874e-04
6.92550000000000e+00 2.53745735771011e-02 2.79198939972479e-04
6.95250000000000e+00 2.52286388432203e-02 2.78133799730856e-04
6.97950000000000e+00 2.50835434119780e-02 2.77070633600832e-04
7.00650000000000e+00 2.49392824563607e-02 2.76009466112949e-04
7.03350000000000e+00 2.47958511771163e-02 2.74950321289175e-04
7.06050000000000e+00 2.46532448025940e-02 2.73893222650448e-04
7.08750000000000e+00 2.45114585885860e-02 2.72838193224217e-04
7.11450000000000e+00 2.43704878181695e-02 2.71785255551770e-04
7.14150000000000e+00 2.42303278015496e-02 2.70734431695481e-04
7.16850000000000e+00 2.40909738759036e-02 2.69685743245923e-04
7.19550000000000e+00 2.39524214052256e-02 2.68639211328910e-04
7.22250000000000e+00 2.38146657801725e-02 2.67594856612416e-04
7.24950000000000e+00 2.36777024179103e-02 2.66552699313372e-04
7.27650000000000e+00 2.35415267619622e-02 2.65512759204385e-04
7.30350000000000e+00 2.34061342820565e-02 2.64475055620316e-04
7.33050000000000e+00 2.32715204739762e-02 2.63439607464800e-04
7.35750000000000e+00 2.31376808594089e-02 2.62406433216630e-04
7.38450000000000e+00 2.30046109857980e-02 2.61375550936078e-04
7.41150000000000e+00 2.28723064261946e-02 2.60346978271103e-04
7.43850000000000e+00 2.27407627791101e-02 2.59320732463462e-04
7.46550000000000e+00 2.26099756683699e-02 2.58296830354752e-04
7.49250000000000e+00 2.24799407429676e-02 2.57275288392288e-04
7.51950000000000e+00 2.23506536769205e-02 2.56256122635001e-04
7.54650000000000e+00 2.22221101691255e-02 2.55239348759201e-04
7.57350000000000e+00 2.20943059432162e-02 2.54224982064224e-04
7.60050000000000e+00 2.19672367474205e-02 2.53213037478017e-04
7.62750000000000e+00 2.18408983544189e-02 2.52203529562645e-04
7.65450000000000e+00 2.17152865612046e-02 2.51196472519713e-04
7.68150000000000e+00 2.15903971889429e-02 2.50191880195720e-04
7.70850000000000e+00 2.14662260828325e-02 2.49189766087310e-04
7.73550000000000e+00 2.13427691119674e-02 2.48190143346465e-04
7.76250000000000e+00 2.12200221691993e-02 2.47193024785620e-04
7.78950000000000e+00 2.10979811710009e-02 2.46198422882667e-04
7.81650000000000e+00 2.09766420573305e-02 2.45206349785967e-04
7.84350000000000e+00 2.08560007914961e-02 2.44216817319214e-04
7.87050000000000e+00 2.07360533600220e-02 2.43229836986227e-04
7.89750000000000e+00 2.06167957725146e-02 2.42245419975731e-04
7.92450000000000e+00 2.04982240615302e-02 2.41263577166038e-04
7.95150000000000e+00 2.03803342824425e-02 2.40284319129621e-04
7.97850000000000e+00 2.02631225133118e-02 2.39307656137693e-04
8.00550000000000e+00 2.01465848547542e-02 2.38333598164690e-04
8.03250000000000e+00 2.00307174298119e-02 2.37362154892660e-04
8.05950000000000e+00 1.99155163838248e-02 2.36393335715624e-04
8.08650000000000e+00 1.98009778843012e-02 2.35427149743862e-04
8.11350000000000e+00 1.96870981207912e-02 2.34463605808139e-04
8.14050000000000e+00 1.95738733047598e-02 2.33502712463886e-04
8.16750000000000e+00 1.94612996694604e-02 2.32544477995281e-04
8.19450000000000e+00 1.93493734698099e-02 2.31588910419312e-04
8.22150000000000e+00 1.92380909822640e-02 2.30636017489787e-04
8.24850000000000e+00 1.91274485046932e-02 2.29685806701247e-04
8.27550000000000e+00 1.90174423562601e-02 2.28738285292819e-04
8.30250000000000e+00 1.89080688772961e-02 2.27793460252072e-04
8.32950000000000e+00 1.87993244291806e-02 2.26851338318781e-04
8.35650000000000e+00 1.86912053942193e-02 2.25911925988640e-04
8.38350000000000e+00 1.85837081755240e-02 2.24975229516951e-04
8.41050000000000e+00 1.84768291968932e-02 2.24041254922189e-04
8.43750000000000e+00 1.83705649026927e-02 2.23110007989580e-04
8.46450000000000e+00 1.82649117577377e-02 2.22181494274631e-04
8.49150000000000e+00 1.81598662471748e-02 2.21255719106577e-04
8.51850000000000e+00 1.80554248763656e-02 2.20332687591772e-04
