Energy (eV)          EEDF (eV^-(3/2))     First Anisotropy
2.39361702127660e-02 6.74043077551728e-02 3.68165402400021e-05
7.18085106382979e-02 6.69118034892961e-02 6.07767875829579e-05
1.19680851063830e-01 6.64228978127010e-02 8.01851460353279e-05
1.67553191489362e-01 6.59375644331696e-02 9.49011925484667e-05
2.15425531914894e-01 6.54557772461003e-02 1.07150883028283e-04
2.63297872340426e-01 6.49775103432681e-02 1.17776351168646e-04
3.11170212765957e-01 6.45027380007461e-02 1.27213661596772e-04
3.59042553191489e-01 6.40314346866329e-02 1.35726293595464e-04
4.06914893617021e-01 6.35635750533916e-02 1.43489091550861e-04
4.54787234042553e-01 6.30991339378877e-02 1.50625701732952e-04
5.02659574468085e-01 6.26380863630495e-02 1.57227705200366e-04
5.50531914893617e-01 6.21804075322835e-02 1.63365370207436e-04
5.98404255319149e-01 6.17260728320238e-02 1.69094136404827e-04
6.46276595744681e-01 6.12750578268416e-02 1.74458744510630e-04
6.94148936170213e-01 6.08273382614249e-02 1.79495983592333e-04
7.42021276595745e-01 6.03828900568509e-02 1.84236585642490e-04
7.89893617021277e-01 5.99416893096159e-02 1.88706570883391e-04
8.37765957446808e-01 5.95037122920384e-02 1.92928228564818e-04
8.85638297872340e-01 5.90689354487028e-02 1.96920847124345e-04
9.33510638297872e-01 5.86373353973527e-02 2.00701268386792e-04
9.81382978723404e-01 5.82088889255840e-02 2.04284315333913e-04
1.02925531914894e+00 5.77835729911072e-02 2.07683126859957e-04
1.07712765957447e+00 5.73613647204069e-02 2.10909423883450e-04
1.12500000000000e+00 5.69422414066400e-02 2.13973722760314e-04
1.17287234042553e+00 5.65261805088736e-02 2.16885508442555e-04
1.22074468085106e+00 5.61131596508786e-02 2.19653376533583e-04
1.26861702127660e+00 5.57031566199295e-02 2.22285150701591e-04
1.31648936170213e+00 5.52961493656043e-02 2.24787980550091e-04
1.36436170212766e+00 5.48921159985982e-02 2.27168423807560e-04
1.41223404255319e+00 5.44910347895466e-02 2.29432515825898e-04
1.46010638297872e+00 5.40928841678561e-02 2.31585828721840e-04
1.50797872340426e+00 5.36976427205442e-02 2.33633522002714e-04
1.55585106382979e+00 5.33052891910877e-02 2.35580386141552e-04
1.60372340425532e+00 5.29158024782795e-02 2.37430880276427e-04
1.65159574468085e+00 5.25291616350936e-02 2.39189164983138e-04
1.69946808510638e+00 5.21453458675584e-02 2.40859131237297e-04
1.74734042553191e+00 5.17643345314462e-02 2.42444424469413e-04
1.79521276595745e+00 5.13861071378342e-02 2.43948467364169e-04
1.84308510638298e+00 5.10106433452313e-02 2.45374480089955e-04
1.89095744680851e+00 5.06379229607770e-02 2.46725496549616e-04
1.93882978723404e+00 5.02679259391545e-02 2.48004380151069e-04
1.98670212765957e+00 4.99006323815134e-02 2.49213837564768e-04
2.03457446808511e+00 4.95360225343988e-02 2.50356431042110e-04
2.08244680851064e+00 4.91740767886892e-02 2.51434589476985e-04
2.13031914893617e+00 4.88147756785420e-02 2.52450618365922e-04
2.17819148936170e+00 4.84580998803463e-02 2.53406708799822e-04
2.22606382978723e+00 4.81040302116834e-02 2.54304945601574e-04
2.27393617021277e+00 4.77525476302959e-02 2.55147314708568e-04
2.32180851063830e+00 4.74036332330608e-02 2.55935709883917e-04
2.36968085106383e+00 4.70572682549775e-02 2.56671938832393e-04
2.41755319148936e+00 4.67134340681559e-02 2.57357728785498e-04
2.46542553191489e+00 4.63721121808151e-02 2.57994731610167e-04
2.51329787234043e+00 4.60332842362885e-02 2.58584528492088e-04
2.56117021276596e+00 4.56969320120367e-02 2.59128634236554e-04
2.60904255319149e+00 4.53630374186673e-02 2.59628501225068e-04
2.65691489361702e+00 4.50315824989623e-02 2.60085523061408e-04
2.70478723404255e+00 4.47025494269120e-02 2.60501037937068e-04
2.75265957446809e+00 4.43759205067565e-02 2.60876331742542e-04
2.80053191489362e+00 4.40516781720341e-02 2.61212641174960e-04
2.84840425531915e+00 4.37298049835054e-02 2.61511155722784e-04
2.89627659574468e+00 4.34102836316445e-02 2.61773020607692e-04
2.94414893617021e+00 4.30930969322414e-02 2.61999339554707e-04
2.99202127659574e+00 4.27782278266466e-02 2.62191176237100e-04
3.03989361702128e+00 4.24656593808531e-02 2.62349556514019e-04
3.08776595744681e+00 4.21553747845866e-02 2.62475470298775e-04
3.13563829787234e+00 4.18473573504002e-02 2.62569873304731e-04
3.18351063829787e+00 4.15415905127781e-02 2.62633688678737e-04
3.23138297872340e+00 4.12380578272439e-02 2.62667808531015e-04
3.27925531914894e+00 4.09367429694765e-02 2.62673095369677e-04
3.32712765957447e+00 4.06376297344322e-02 2.62650383447206e-04
3.37500000000000e+00 4.03407020354728e-02 2.62600480025645e-04
3.42287234042553e+00 4.00459439035006e-02 2.62524166566403e-04
3.47074468085106e+00 3.97533394860995e-02 2.62422199850308e-04
3.51861702127660e+00 3.94628730466833e-02 2.62295313033337e-04
3.56648936170213e+00 3.91745289636483e-02 2.62144216642300e-04
3.61436170212766e+00 3.88882917295337e-02 2.61969599514573e-04
3.66223404255319e+00 3.86041459501874e-02 2.61772129686053e-04
3.71010638297872e+00 3.83220763439381e-02 2.61552455230881e-04
3.75797872340426e+00 3.80420677407733e-02 2.61311205056030e-04
3.80585106382979e+00 3.77641050815237e-02 2.61048989653935e-04
3.85372340425532e+00 3.74881734170530e-02 2.60766401815913e-04
3.90159574468085e+00 3.72142579074543e-02 2.60464017308820e-04
3.94946808510638e+00 3.69423438212514e-02 2.60142395677862e-04
3.99734042553191e+00 3.66724165339333e-02 2.59802080372086e-04
4.04521276595745e+00 3.64044615292073e-02 2.59443599649817e-04
4.09308510638298e+00 3.61384643961595e-02 2.59067467458424e-04
4.14095744680851e+00 3.58744108291725e-02 2.58674183464142e-04
4.18882978723404e+00 3.56122866271561e-02 2.58264233718686e-04
4.23670212765957e+00 3.53520776927836e-02 2.57838091136040e-04
4.28457446808511e+00 3.50937700317333e-02 2.57396215947219e-04
4.33244680851064e+00 3.48373497519365e-02 2.56939056134195e-04
4.38031914893617e+00 3.45828030628294e-02 2.56467047844180e-04
4.42819148936170e+00 3.43301162746126e-02 2.55980615785465e-04
4.47606382978723e+00 3.40792757975138e-02 2.55480173605813e-04
4.52393617021277e+00 3.38302681410575e-02 2.54966124254391e-04
4.57180851063830e+00 3.35830799133390e-02 2.54438860327883e-04
4.61968085106383e+00 3.33376978203049e-02 2.53898764402045e-04
4.66755319148936e+00 3.30941086650377e-02 2.53346209349480e-04
4.71542553191489e+00 3.28522993470460e-02 2.52781558643938e-04
4.76329787234043e+00 3.26122568615602e-02 2.52205166652171e-04
4.81117021276596e+00 3.23739682988328e-02 2.51617378913928e-04
4.85904255319149e+00 3.21374208434441e-02 2.51018532410674e-04
4.90691489361702e+00 3.19026017736133e-02 2.50408955823624e-04
4.95478723404255e+00 3.16694984605140e-02 2.49788969781630e-04
5.00265957446809e+00 3.14380983675950e-02 2.49158887099415e-04
5.05053191489362e+00 3.12083890499062e-02 2.48519013126575e-04
5.09840425531915e+00 3.09803581529835e-02 2.47869645605625e-04
5.14627659574468e+00 3.07539934135328e-02 2.47211075126969e-04
5.19414893617021e+00 3.05292826574105e-02 2.46543585578238e-04
5.24202127659574e+00 3.03062137994263e-02 2.45867453970763e-04
5.28989361702128e+00 3.00847748426930e-02 2.45182950753111e-04
5.33776595744681e+00 2.98649538779812e-02 2.44490339993587e-04
5.38563829787234e+00 2.96467390830789e-02 2.43789879556209e-04
5.43351063829787e+00 2.94301187221557e-02 2.43081821270385e-04
5.48138297872340e+00 2.92150811451316e-02 2.42366411094678e-04
5.52925531914894e+00 2.90016147870505e-02 2.41643889274821e-04
5.57712765957447e+00 2.87897081674584e-02 2.40914490496330e-04
5.62500000000000e+00 2.85793498897853e-02 2.40178444031914e-04
5.67287234042553e+00 2.83705286407329e-02 2.39435973883757e-04
5.72074468085106e+00 2.81632331896662e-02 2.38687298921128e-04
5.76861702127660e+00 2.79574523880089e-02 2.37932633013471e-04
5.81648936170213e+00 2.77531751686448e-02 2.37172185159050e-04
5.86436170212766e+00 2.75503905453215e-02 2.36406159609401e-04
5.91223404255319e+00 2.73490876120603e-02 2.35634755989733e-04
5.96010638297872e+00 2.71492555425695e-02 2.34858169415496e-04
6.00797872340426e+00 2.69508835896619e-02 2.34076590605232e-04
6.05585106382979e+00 2.67539610846770e-02 2.33290205989905e-04
6.10372340425532e+00 2.65584774369073e-02 2.32499197818750e-04
6.15159574468085e+00 2.63644221330286e-02 2.31703744261884e-04
6.19946808510638e+00 2.61717847365345e-02 2.30904019600597e-04
6.24734042553191e+00 2.59805548868706e-02 2.30100194049553e-04
6.29521276595745e+00 2.57907222997982e-02 2.29292434034093e-04
6.34308510638298e+00 2.56022767659134e-02 2.28480902466599e-04
6.39095744680851e+00 2.54152081504092e-02 2.27665758554466e-04
6.43882978723404e+00 2.52295063925309e-02 2.26847157979490e-04
6.48670212765957e+00 2.50451615050352e-02 2.26025252980745e-04
6.53457446808511e+00 2.48621635736523e-02 2.25200192435093e-04
6.58244680851064e+00 2.46805027565535e-02 2.24372121935367e-04
6.63031914893617e+00 2.45001692838215e-02 2.23541183866299e-04
6.67819148936170e+00 2.43211534569250e-02 2.22707517478329e-04
6.72606382978723e+00 2.41434456481972e-02 2.21871258959317e-04
6.77393617021277e+00 2.39670363003180e-02 2.21032541504272e-04
6.82180851063830e+00 2.37919159257996e-02 2.20191495383040e-04
6.86968085106383e+00 2.36180751064770e-02 2.19348248006229e-04
6.91755319148936e+00 2.34455044930009e-02 2.18502923989373e-04
6.96542553191489e+00 2.32741948043352e-02 2.17655645215253e-04
7.01329787234043e+00 2.31041368272577e-02 2.16806530894586e-04
7.06117021276596e+00 2.29353214158645e-02 2.15955697625040e-04
7.10904255319149e+00 2.27677394910784e-02 2.15103259448743e-04
7.15691489361702e+00 2.26013820401603e-02 2.14249327908250e-04
7.20478723404255e+00 2.24362401162248e-02 2.13394012101019e-04
7.25265957446809e+00 2.22723048377588e-02 2.12537418732474e-04
7.30053191489362e+00 2.21095673881440e-02 2.11679652238477e-04
7.34840425531915e+00 2.19480190149637e-02 2.10820814622145e-04
7.39627659574468e+00 2.17876510301934e-02 2.09961005645979e-04
7.44414893617021e+00 2.16284548090678e-02 2.09100323024349e-04
7.49202127659574e+00 2.14704217898400e-02 2.08238862252080e-04
7.53989361702128e+00 2.13135434733216e-02 2.07376716723039e-04
7.58776595744681e+00 2.11578114224254e-02 2.06513977774455e-04
7.63563829787234e+00 2.10032172617114e-02 2.05650734730155e-04
7.68351063829787e+00 2.08497526769368e-02 2.04787074942735e-04
7.73138297872340e+00 2.06974094146086e-02 2.03923083834670e-04
7.77925531914894e+00 2.05461792815396e-02 2.03058844938433e-04
7.82712765957447e+00 2.03960541444081e-02 2.02194439935674e-04
7.87500000000000e+00 2.02470259293202e-02 2.01329948695456e-04
7.92287234042553e+00 2.00990866213757e-02 2.00465449311539e-04
7.97074468085106e+00 1.99522282642369e-02 1.99601018138768e-04
8.01861702127660e+00 1.98064429597009e-02 1.98736729828650e-04
8.06648936170213e+00 1.96617228672749e-02 1.97872657364109e-04
8.11436170212766e+00 1.95180602037542e-02 1.97008872093374e-04
8.16223404255319e+00 1.93754472428038e-02 1.96145443763066e-04
8.21010638297872e+00 1.92338763145430e-02 1.95282440550590e-04
8.25797872340426e+00 1.90933398051325e-02 1.94419929095761e-04
8.30585106382979e+00 1.89538301563654e-02 1.93557974531651e-04
8.35372340425532e+00 1.88153398652605e-02 1.92696640514778e-04
8.40159574468085e+00 1.86778614836586e-02 1.91835989254627e-04
8.44946808510638e+00 1.85413876178222e-02 1.90976081597620e-04
8.49734042553191e+00 1.84059109278791e-02 1.90116976888891e-04
8.54521276595745e+00 1.82714241279070e-02 1.89258733111286e-04
8.59308510638298e+00 1.81379199850588e-02 1.88401407025087e-04
8.64095744680851e+00 1.80053913193359e-02 1.87545054024445e-04
8.68882978723404e+00 1.78738310032018e-02 1.86689728220128e-04
8.73670212765957e+00 1.77432319611990e-02 1.85835482464728e-04
8.78457446808511e+00 1.76135871695685e-02 1.84982368377341e-04
8.83244680851064e+00 1.74848896558717e-02 1.84130436367699e-04
8.88031914893617e+00 1.73571324986158e-02 1.83279735659748e-04
8.92819148936170e+00 1.72303088268814e-02 1.82430314314768e-04
8.97606382978723e+00 1.71044118199527e-02 1.81582219253958e-04
9.02393617021277e+00 1.69794347069514e-02 1.80735496280599e-04
9.07180851063830e+00 1.68553707664717e-02 1.79890190101684e-04
9.11968085106383e+00 1.67322133262194e-02 1.79046344349095e-04
9.16755319148936e+00 1.66099557626530e-02 1.78204001600403e-04
9.21542553191489e+00 1.64885915006271e-02 1.77363203399147e-04
9.26329787234043e+00 1.63681140130391e-02 1.76523990274755e-04
9.31117021276596e+00 1.62485168204783e-02 1.75686401762023e-04
9.35904255319149e+00 1.61297934908771e-02 1.74850476420190e-04
9.40691489361702e+00 1.60119376391650e-02 1.74016251851621e-04
9.45478723404255e+00 1.58949429269258e-02 1.73183764720106e-04
9.50265957446809e+00 1.57788030620560e-02 1.72353050768815e-04
9.55053191489362e+00 1.56635117984270e-02 1.71524144881669e-04
9.59840425531915e+00 1.55490629354300e-02 1.70697080968310e-04
9.64627659574468e+00 1.54354503180012e-02 1.69871892069497e-04
9.69414893617021e+00 1.53226678359300e-02 1.69048610463252e-04
9.74202127659574e+00 1.52107094236513e-02 1.68227267546053e-04
9.78989361702128e+00 1.50995690599195e-02 1.67407893893948e-04
9.83776595744681e+00 1.49892407674844e-02 1.66590519278124e-04
9.88563829787234e+00 1.48797186127699e-02 1.65775172680156e-04
9.93351063829787e+00 1.47709967055550e-02 1.64961882306936e-04
9.98138297872340e+00 1.46630691986569e-02 1.64150675405293e-04
1.00292553191489e+01 1.45559302881457e-02 1.63341579117836e-04
1.00771276595745e+01 1.44495742108057e-02 1.62534619217882e-04
1.01250000000000e+01 1.43439952477459e-02 1.61729820903128e-04
1.01728723404255e+01 1.42391877197772e-02 1.60927208733687e-04
1.02207446808511e+01 1.41351459912689e-02 1.60126806553806e-04
1.02686170212766e+01 1.40318644657280e-02 1.59328637554715e-04
1.03164893617021e+01 1.39293375895714e-02 1.58532723861691e-04
1.03643617021277e+01 1.38275598487770e-02 1.57739088102340e-04
1.04122340425532e+01 1.37265257686504e-02 1.56947751118076e-04
1.04601063829787e+01 1.36262299164406e-02 1.56158733489246e-04
1.05079787234043e+01 1.35266668971713e-02 1.55372055203339e-04
1.05558510638298e+01 1.34278313571858e-02 1.54587735261273e-04
1.06037234042553e+01 1.33297179809870e-02 1.53805793170752e-04
1.06515957446809e+01 1.32323214910108e-02 1.53026246765396e-04
1.06994680851064e+01 1.31356366500833e-02 1.52249113657373e-04
1.07473404255319e+01 1.30396582574877e-02 1.51474410920614e-04
1.07952127659574e+01 1.29443811522975e-02 1.50702154715345e-04
1.08430851063830e+01 1.28498002103930e-02 1.49932361710562e-04
1.08909574468085e+01 1.27559103442410e-02 1.49165047005192e-04
1.09388297872340e+01 1.26627065052053e-02 1.48400225512058e-04
1.09867021276596e+01 1.25701836798326e-02 1.47637911655432e-04
1.10345744680851e+01 1.24783368929894e-02 1.46878119012879e-04
1.10824468085106e+01 1.23871612050431e-02 1.46120861670568e-04
1.11303191489362e+01 1.22966517116482e-02 1.45366152241255e-04
1.11781914893617e+01 1.22068035459193e-02 1.44614003183185e-04
1.12260638297872e+01 1.21176118749234e-02 1.43864426511252e-04
1.12739361702128e+01 1.20290719026320e-02 1.43117433455339e-04
1.13218085106383e+01 1.19411788672573e-02 1.42373035751967e-04
1.13696808510638e+01 1.18539280410448e-02 1.41631243754130e-04
1.14175531914894e+01 1.17673147323176e-02 1.40892067688563e-04
1.14654255319149e+01 1.16813342821621e-02 1.40155517379912e-04
1.15132978723404e+01 1.15959820672080e-02 1.39421601924511e-04
1.15611702127660e+01 1.15112534971092e-02 1.38690330921933e-04
1.16090425531915e+01 1.14271440143428e-02 1.37961712672036e-04
1.16569148936170e+01 1.13436490961338e-02 1.37235755373530e-04
1.17047872340426e+01 1.12607642513213e-02 1.36512466860684e-04
1.17526595744681e+01 1.11784850229779e-02 1.35791854291823e-04
1.18005319148936e+01 1.10968069860269e-02 1.35073925323825e-04
1.18484042553191e+01 1.10157257470469e-02 1.34358686391949e-04
1.18962765957447e+01 1.09352369460848e-02 1.33646143852759e-04
1.19441489361702e+01 1.08553362536916e-02 1.32936303732763e-04
1.19920212765957e+01 1.07760193733914e-02 1.32229171430892e-04
1.20398936170213e+01 1.06972820394265e-02 1.31524752838842e-04
1.20877659574468e+01 1.06191200165677e-02 1.30823052699582e-04
1.21356382978723e+01 1.05415291018227e-02 1.30124075697440e-04
1.21835106382979e+01 1.04645051216312e-02 1.29427826218104e-04
1.22313829787234e+01 1.03880439341929e-02 1.28734308064412e-04
1.22792553191489e+01 1.03121414273331e-02 1.28043525525273e-04
1.23271276595745e+01 1.02367935183185e-02 1.27355481808937e-04
1.23750000000000e+01 1.01619961554671e-02 1.26670180082934e-04
1.24228723404255e+01 1.00877453154940e-02 1.25987623244879e-04
1.24707446808511e+01 1.00140370057065e-02 1.25307813896236e-04
1.25186170212766e+01 9.94086726140233e-03 1.24630754379368e-04
1.25664893617021e+01 9.86823214801895e-03 1.23956446510190e-04
1.26143617021277e+01 9.79612775915281e-03 1.23284892581473e-04
1.26622340425532e+01 9.72455021638285e-03 1.22616093891802e-04
1.27101063829787e+01 9.65349567075669e-03 1.21950051721669e-04
1.27579787234043e+01 9.58296030032624e-03 1.21286767117755e-04
1.28058510638298e+01 9.51294031217680e-03 1.20626240637627e-04
1.28537234042553e+01 9.44343194054949e-03 1.19968473307299e-04
1.29015957446809e+01 9.37443144667070e-03 1.19313465216576e-04
1.29494680851064e+01 9.30593512015387e-03 1.18661216450834e-04
1.29973404255319e+01 9.23793927666489e-03 1.18011726884809e-04
1.30452127659574e+01 9.17044025983767e-03 1.17364995938732e-04
1.30930851063830e+01 9.10343443949432e-03 1.16721023492416e-04
1.31409574468085e+01 9.03691821148011e-03 1.16079808543778e-04
1.31888297872340e+01 8.97088799898621e-03 1.15441350098451e-04
1.32367021276596e+01 8.90534025033712e-03 1.14805646972657e-04
1.32845744680851e+01 8.84027144079986e-03 1.14172697560233e-04
1.33324468085106e+01 8.77567807089609e-03 1.13542500705367e-04
1.33803191489362e+01 8.71155666624254e-03 1.12915054421238e-04
1.34281914893617e+01 8.64790377879948e-03 1.12290356739558e-04
1.34760638297872e+01 8.58471598477322e-03 1.11668405522070e-04
1.35239361702128e+01 8.52198988632523e-03 1.11049198237955e-04
1.35718085106383e+01 8.45972210997109e-03 1.10432732797238e-04
1.36196808510638e+01 8.39790930642609e-03 1.09819006326659e-04
1.36675531914894e+01 8.33654815178412e-03 1.09208015981091e-04
1.37154255319149e+01 8.27563534552843e-03 1.08599758763269e-04
1.37632978723404e+01 8.21516761214687e-03 1.07994231310995e-04
1.38111702127660e+01 8.15514169961279e-03 1.07391430693276e-04
1.38590425531915e+01 8.09555437923542e-03 1.06791353240649e-04
1.39069148936170e+01 8.03640244677355e-03 1.06193995320188e-04
1.39547872340426e+01 7.97768272054844e-03 1.05599353163218e-04
1.40026595744681e+01 7.91939204297067e-03 1.05007422661832e-04
1.40505319148936e+01 7.86152727909841e-03 1.04418200129512e-04
1.40984042553191e+01 7.80408531649252e-03 1.03831681183348e-04
1.41462765957447e+01 7.74706306626886e-03 1.03247861484397e-04
1.41941489361702e+01 7.69045746130755e-03 1.02666736572985e-04
1.42420212765957e+01 7.63426545769679e-03 1.02088301674107e-04
1.42898936170213e+01 7.57848403336410e-03 1.01512552424240e-04
1.43377659574468e+01 7.52311018793598e-03 1.00939483802990e-04
1.43856382978723e+01 7.46814094373257e-03 1.00369090840460e-04
1.44335106382979e+01 7.41357334406786e-03 9.98013684597945e-05
1.44813829787234e+01 7.35940445461535e-03 9.92363112910579e-05
1.45292553191489e+01 7.30563136210817e-03 9.86739143658356e-05
1.45771276595745e+01 7.25225117420324e-03 9.81141720959770e-05
1.46250000000000e+01 7.19926102042171e-03 9.75570789495568e-05
1.46728723404255e+01 7.14665805053496e-03 9.70026293003152e-05
1.47207446808511e+01 7.09443943585674e-03 9.64508174096051e-05
1.47686170212766e+01 7.04260236765954e-03 9.59016374492013e-05
1.48164893617021e+01 6.99114405844112e-03 9.53550833260040e-05
1.48643617021277e+01 6.94006174071294e-03 9.48111493352628e-05
1.49122340425532e+01 6.88935266687056e-03 9.42698291999830e-05
1.49601063829787e+01 6.83901411006495e-03 9.37311167066115e-05
1.50079787234043e+01 6.78904336269844e-03 9.31950055631720e-05
1.50558510638298e+01 6.73943773762341e-03 9.26614892316274e-05
1.51037234042553e+01 6.69019456699093e-03 9.21305615522823e-05
