Energy (eV)          EEDF (eV^-(3/2))     First Anisotropy
3.33333333333333e-02 4.83867364702824e-01 5.92329576406904e-04
1.00000000000000e-01 4.65633568654088e-01 9.62912430304732e-04
1.66666666666667e-01 4.48086885158177e-01 1.23153240678395e-03
2.33333333333333e-01 4.31201421360509e-01 1.41294890761457e-03
3.00000000000000e-01 4.14952260222476e-01 1.54651241328129e-03
3.66666666666667e-01 3.99315423720611e-01 1.64785357667840e-03
4.33333333333333e-01 3.84267837293914e-01 1.72542920557317e-03
5.00000000000000e-01 3.69787295963249e-01 1.78455628226283e-03
5.66666666666667e-01 3.55852431538078e-01 1.82889180450529e-03
6.33333333333333e-01 3.42442680998449e-01 1.86110587040756e-03
7.00000000000000e-01 3.29538256237701e-01 1.88323249574250e-03
7.66666666666667e-01 3.17120114851133e-01 1.89687071987232e-03
8.33333333333333e-01 3.05169931982149e-01 1.90330832680119e-03
9.00000000000000e-01 2.93670073335676e-01 1.90360225337174e-03
9.66666666666667e-01 2.82603569150009e-01 1.89863319980953e-03
1.03333333333333e+00 2.71954089118269e-01 1.88914407399254e-03
1.10000000000000e+00 2.61705918298961e-01 1.87576787743671e-03
1.16666666666667e+00 2.51843934064629e-01 1.85904848143701e-03
1.23333333333333e+00 2.42353583482707e-01 1.83945641933265e-03
1.30000000000000e+00 2.33220862114331e-01 1.81740112428550e-03
1.36666666666667e+00 2.24432293322520e-01 1.79324061309328e-03
1.43333333333333e+00 2.15974908182606e-01 1.76728920660144e-03
1.50000000000000e+00 2.07836226550959e-01 1.73982378772339e-03
1.56666666666667e+00 2.00004238629931e-01 1.71108896121524e-03
1.63333333333333e+00 1.92467387089241e-01 1.68130130551817e-03
1.70000000000000e+00 1.85214550170662e-01 1.65065292881416e-03
1.76666666666667e+00 1.78235025262329e-01 1.61931449147231e-03
1.83333333333333e+00 1.71518512982612e-01 1.58743775453113e-03
1.90000000000000e+00 1.65055102107032e-01 1.55515776042924e-03
1.96666666666667e+00 1.58835254932218e-01 1.52259473020296e-03
2.03333333333333e+00 1.52849793103747e-01 1.48985568916510e-03
2.10000000000000e+00 1.47089884171915e-01 1.45703588195917e-03
2.16666666666667e+00 1.41547028549959e-01 1.42422002653052e-03
2.23333333333333e+00 1.36213046892796e-01 1.39148340077105e-03
2.30000000000000e+00 1.31080068107641e-01 1.35889280071025e-03
2.36666666666667e+00 1.26140517732595e-01 1.32650740242821e-03
2.43333333333333e+00 1.21387106695264e-01 1.29437951467519e-03
2.50000000000000e+00 1.16812820622114e-01 1.26255524913918e-03
2.56666666666667e+00 1.12410909482575e-01 1.23107513090956e-03
2.63333333333333e+00 1.08174877575812e-01 1.19997463413837e-03
2.70000000000000e+00 1.04098473999018e-01 1.16928466274363e-03
2.76666666666667e+00 1.00175683419132e-01 1.13903199287650e-03
2.83333333333333e+00 9.64007171529705e-02 1.10923966222563e-03
2.90000000000000e+00 9.27680046694442e-02 1.07992732143395e-03
2.96666666666667e+00 8.92721853660429e-02 1.05111156055305e-03
3.03333333333333e+00 8.59081006225100e-02 1.02280619654297e-03
3.10000000000000e+00 8.26707862252680e-02 9.95022533953776e-04
3.16666666666667e+00 7.95554650392292e-02 9.67769609083036e-04
3.23333333333333e+00 7.65575399284485e-02 9.41054404873363e-04
3.30000000000000e+00 7.36725870029918e-02 9.14882046413966e-04
3.36666666666667e+00 7.08963490885605e-02 8.89255985425230e-04
3.43333333333333e+00 6.82247294193087e-02 8.64178162316921e-04
3.50000000000000e+00 6.56537856180955e-02 8.39649153970218e-04
3.56666666666667e+00 6.31797238770412e-02 8.15668314173234e-04
3.63333333333333e+00 6.07988933381237e-02 7.92233896581382e-04
3.70000000000000e+00 5.85077807273365e-02 7.69343167019225e-04
3.76666666666667e+00 5.63030051687664e-02 7.46992510922550e-04
3.83333333333333e+00 5.41813131778436e-02 7.25177526977541e-04
3.90000000000000e+00 5.21395738785012e-02 7.03893112710197e-04
3.96666666666667e+00 5.01747743817945e-02 6.83133546921747e-04
4.03333333333333e+00 4.82840153249180e-02 6.62892561099098e-04
4.10000000000000e+00 4.64645066081174e-02 6.43163404689623e-04
4.16666666666667e+00 4.47135632763859e-02 6.23938908401961e-04
4.23333333333333e+00 4.30286015446850e-02 6.05211538618753e-04
4.30000000000000e+00 4.14071349982001e-02 5.86973447098924e-04
4.36666666666667e+00 3.98467709223425e-02 5.69216519525996e-04
4.43333333333333e+00 3.83452067611285e-02 5.51932416835664e-04
4.50000000000000e+00 3.69002267304738e-02 5.35112612907330e-04
4.56666666666667e+00 3.55096985476962e-02 5.18748431671818e-04
4.63333333333333e+00 3.41715702758055e-02 5.02831078315054e-04
4.70000000000000e+00 3.28838673049835e-02 4.87351667664212e-04
4.76666666666667e+00 3.16446894380929e-02 4.72301252384734e-04
4.83333333333333e+00 3.04522080787980e-02 4.57670846323818e-04
4.90000000000000e+00 2.93046635412328e-02 4.43451445665470e-04
4.96666666666667e+00 2.82003624527642e-02 4.29634050166802e-04
5.03333333333333e+00 2.71376752484524e-02 4.16209680386327e-04
5.10000000000000e+00 2.61150337732541e-02 4.03169393210820e-04
5.16666666666667e+00 2.51309289675005e-02 3.90504297645233e-04
5.23333333333333e+00 2.41839086343057e-02 3.78205567280239e-04
5.30000000000000e+00 2.32725753025145e-02 3.66264451437579e-04
5.36666666666667e+00 2.23955841641209e-02 3.54672286696914e-04
5.43333333333333e+00 2.15516410848727e-02 3.43420505659812e-04
5.50000000000000e+00 2.07395006996277e-02 3.32500644688292e-04
5.56666666666667e+00 1.99579645742851e-02 3.21904352097923e-04
5.63333333333333e+00 1.92058794330843e-02 3.11623394047166e-04
5.70000000000000e+00 1.84821354611056e-02 3.01649659634311e-04
5.76666666666667e+00 1.77856646662769e-02 2.91975166489544e-04
5.83333333333333e+00 1.71154392997523e-02 2.82592064441760e-04
5.90000000000000e+00 1.64704703430389e-02 2.73492638576468e-04
5.96666666666667e+00 1.58498060483003e-02 2.64669312806307e-04
6.03333333333333e+00 1.52525305307758e-02 2.56114651829579e-04
6.10000000000000e+00 1.46777624204630e-02 2.47821362624620e-04
6.16666666666667e+00 1.41246535613072e-02 2.39782296458003e-04
6.23333333333333e+00 1.35923877569198e-02 2.31990449540946e-04
6.30000000000000e+00 1.30801795689221e-02 2.24438963335822e-04
6.36666666666667e+00 1.25872731577275e-02 2.17121125366396e-04
6.43333333333333e+00 1.21129411648568e-02 2.10030368893059e-04
6.50000000000000e+00 1.16564836419970e-02 2.03160272328316e-04
6.56666666666667e+00 1.12172270179622e-02 1.96504559138270e-04
6.63333333333333e+00 1.07945231027265e-02 1.90057096790183e-04
6.70000000000000e+00 1.03877481329822e-02 1.83811895511310e-04
6.76666666666667e+00 9.99630185154585e-03 1.77763107511075e-04
6.83333333333333e+00 9.61960661984910e-03 1.71905025400873e-04
6.90000000000000e+00 9.25710656732738e-03 1.66232080480995e-04
6.96666666666667e+00 8.90826677103082e-03 1.60738841465233e-04
7.03333333333333e+00 8.57257246475984e-03 1.55420012530194e-04
7.10000000000000e+00 8.24952828099169e-03 1.50270431275513e-04
7.16666666666667e+00 7.93865751978886e-03 1.45285067094469e-04
7.23333333333333e+00 7.63950144405315e-03 1.40459018976082e-04
7.30000000000000e+00 7.35161860392512e-03 1.35787513252199e-04
7.36666666666667e+00 7.07458418527008e-03 1.31265901727193e-04
7.43333333333333e+00 6.80798938167115e-03 1.26889659328917e-04
7.50000000000000e+00 6.55144079233107e-03 1.22654381731057e-04
7.56666666666667e+00 6.30455984147377e-03 1.18555783330449e-04
7.63333333333333e+00 6.06698221871893e-03 1.14589694821281e-04
7.70000000000000e+00 5.83835734249095e-03 1.10752060760913e-04
7.76666666666667e+00 5.61834784261700e-03 1.07038937463739e-04
7.83333333333333e+00 5.40662906163598e-03 1.03446490555641e-04
7.90000000000000e+00 5.20288857658891e-03 9.99709925353994e-05
7.96666666666667e+00 5.00682573793459e-03 9.66088206382347e-05
8.03333333333333e+00 4.81815122515716e-03 9.33564544136940e-05
8.10000000000000e+00 4.63658662058698e-03 9.02104733219086e-05
8.16666666666667e+00 4.46186399850386e-03 8.71675546073327e-05
8.23333333333333e+00 4.29372552913022e-03 8.42244709321852e-05
8.30000000000000e+00 4.13192309882224e-03 8.13780880365810e-05
8.36666666666667e+00 3.97621794389785e-03 7.86253626528815e-05
8.43333333333333e+00 3.82638029774656e-03 7.59633402180407e-05
8.50000000000000e+00 3.68218905234630e-03 7.33891526184951e-05
8.56666666666667e+00 3.54343143194794e-03 7.09000161674804e-05
8.63333333333333e+00 3.40990267860674e-03 6.84932294126759e-05
8.70000000000000e+00 3.28140575052901e-03 6.61661709803022e-05
8.76666666666667e+00 3.15775103127480e-03 6.39162976313417e-05
8.83333333333333e+00 3.03875604952735e-03 6.17411421753891e-05
8.90000000000000e+00 2.92424521026254e-03 5.96383114233465e-05
8.96666666666667e+00 2.81404953560385e-03 5.76054843333963e-05
9.03333333333333e+00 2.70800641510159e-03 5.56404100376634e-05
9.10000000000000e+00 2.60595936615421e-03 5.37409059089337e-05
9.16666666666667e+00 2.50775780307020e-03 5.19048558032295e-05
9.23333333333333e+00 2.41325681453505e-03 5.01302082025461e-05
9.30000000000000e+00 2.32231695010186e-03 4.84149743979366e-05
9.36666666666667e+00 2.23480401438992e-03 4.67572268324116e-05
9.43333333333333e+00 2.15058886877912e-03 4.51550973604326e-05
9.50000000000000e+00 2.06954724113348e-03 4.36067755473568e-05
9.56666666666667e+00 1.99155954240033e-03 4.21105071139522e-05
9.63333333333333e+00 1.91651068989430e-03 4.06645923113723e-05
9.70000000000000e+00 1.84428993772591e-03 3.92673843351653e-05
9.76666666666667e+00 1.77479071336311e-03 3.79172878708429e-05
9.83333333333333e+00 1.70791046015425e-03 3.66127575815954e-05
9.90000000000000e+00 1.64355048620881e-03 3.53522966337505e-05
9.96666666666667e+00 1.58161581874855e-03 3.41344553414281e-05
1.00333333333333e+01 1.52201506377469e-03 3.29578297853456e-05
1.01000000000000e+01 1.46466027122708e-03 3.18210603351672e-05
1.01666666666667e+01 1.40946680601614e-03 3.07228305866841e-05
1.02333333333333e+01 1.35635322131791e-03 2.96618659821361e-05
1.03000000000000e+01 1.30524114005366e-03 2.86369323192738e-05
1.03666666666667e+01 1.25605513912563e-03 2.76468349738563e-05
1.04333333333333e+01 1.20872263669788e-03 2.66904175101344e-05
1.05000000000000e+01 1.16317378654727e-03 2.57665603376669e-05
1.05666666666667e+01 1.11934137490142e-03 2.48741799761859e-05
1.06333333333333e+01 1.07716072001243e-03 2.40122277823356e-05
1.07000000000000e+01 1.03656957798240e-03 2.31796887192261e-05
1.07666666666667e+01 9.97508050831654e-04 2.23755806645317e-05
1.08333333333333e+01 9.59918497023884e-04 2.15989532453324e-05
1.09000000000000e+01 9.23745447520828e-04 2.08488867124324e-05
1.09666666666667e+01 8.88935523858095e-04 2.01244912917288e-05
1.10333333333333e+01 8.55437358426905e-04 1.94249061192916e-05
1.11000000000000e+01 8.23201519647463e-04 1.87492982127709e-05
1.11666666666667e+01 7.92180438962969e-04 1.80968618654359e-05
1.12333333333333e+01 7.62328339813458e-04 1.74668176739694e-05
1.13000000000000e+01 7.33601170937953e-04 1.68584115996291e-05
1.13666666666667e+01 7.05956541315788e-04 1.62709144038819e-05
1.14333333333333e+01 6.79353656884316e-04 1.57036207617605e-05
1.15000000000000e+01 6.53753261087276e-04 1.51558484058199e-05
1.15666666666667e+01 6.29117576898255e-04 1.46269376019366e-05
1.16333333333333e+01 6.05410250437566e-04 1.41162503414710e-05
1.17000000000000e+01 5.82596297979998e-04 1.36231695614515e-05
1.17666666666667e+01 5.60642054289442e-04 1.31470986588583e-05
1.18333333333333e+01 5.39515122382434e-04 1.26874607552385e-05
1.19000000000000e+01 5.19184326293834e-04 1.22436979869470e-05
1.19666666666667e+01 4.99619665035580e-04 1.18152710560698e-05
1.20333333333333e+01 4.80792267836512e-04 1.14016585615406e-05
1.21000000000000e+01 4.62674352040656e-04 1.10023563536667e-05
1.21666666666667e+01 4.45239182077850e-04 1.06168771197416e-05
1.22333333333333e+01 4.28461029582650e-04 1.02447497761138e-05
1.23000000000000e+01 4.12315135867730e-04 9.88551888161500e-06
1.23666666666667e+01 3.96777675360807e-04 9.53874425586182e-06
1.24333333333333e+01 3.81825720070559e-04 9.20400042711557e-06
1.25000000000000e+01 3.67437206138206e-04 8.88087609960859e-06
1.25666666666667e+01 3.53590901254521e-04 8.56897380252724e-06
1.26333333333333e+01 3.40266372998770e-04 8.26790938887346e-06
1.27000000000000e+01 3.27443959025458e-04 7.97731155205313e-06
1.27666666666667e+01 3.15104738028160e-04 7.69682150355086e-06
1.28333333333333e+01 3.03230501529198e-04 7.42609251836428e-06
1.29000000000000e+01 2.91803727306635e-04 7.16478949656665e-06
1.29666666666667e+01 2.80807553518828e-04 6.91258866772942e-06
1.30333333333333e+01 2.70225753568617e-04 6.66917717884026e-06
1.31000000000000e+01 2.60042712418537e-04 6.43425269688358e-06
1.31666666666667e+01 2.50243403532020e-04 6.20752313812932e-06
1.32333333333333e+01 2.40813366476916e-04 5.98870629476778e-06
1.33000000000000e+01 2.31738685815107e-04 5.77752947486431e-06
1.33666666666667e+01 2.23005970553755e-04 5.57372925470763e-06
1.34333333333333e+01 2.14602334189521e-04 5.37705114069741e-06
1.35000000000000e+01 2.06515375892857e-04 5.18724924332317e-06
1.35666666666667e+01 1.98733162196064e-04 5.00408605084922e-06
1.36333333333333e+01 1.91244209212146e-04 4.82733212327431e-06
1.37000000000000e+01 1.84037465864440e-04 4.65676579726052e-06
1.37666666666667e+01 1.77102297567984e-04 4.49217297952061e-06
1.38333333333333e+01 1.70428470385977e-04 4.33334686993339e-06
1.39000000000000e+01 1.64006136082462e-04 4.18008769460497e-06
1.39666666666667e+01 1.57825817580037e-04 4.03220251741631e-06
1.40333333333333e+01 1.51878394842713e-04 3.88950498962501e-06
1.41000000000000e+01 1.46155091553540e-04 3.75181510847909e-06
1.41666666666667e+01 1.40647462155290e-04 3.61895904547558e-06
1.42333333333333e+01 1.35347379271543e-04 3.49076892000754e-06
1.43000000000000e+01 1.30247021832666e-04 3.36708258117226e-06
1.43666666666667e+01 1.25338863527144e-04 3.24774345138435e-06
1.44333333333333e+01 1.20615661593255e-04 3.13260032183761e-06
1.45000000000000e+01 1.16070446235973e-04 3.02150715535449e-06
1.45666666666667e+01 1.11696510335403e-04 2.91432294408725e-06
1.46333333333333e+01 1.07487399459664e-04 2.81091152476005e-06
1.47000000000000e+01 1.03436902432413e-04 2.71114140059527e-06
1.47666666666667e+01 9.95390421615339e-05 2.61488561192422e-06
1.48333333333333e+01 9.57880667401470e-05 2.52202156935477e-06
1.49000000000000e+01 9.21784410396840e-05 2.43243089298387e-06
1.49666666666667e+01 8.87048385368888e-05 2.34599929482435e-06
1.50333333333333e+01 8.53621333843718e-05 2.26261642820860e-06
1.51000000000000e+01 8.21453929177589e-05 2.18217574265702e-06
1.51666666666667e+01 7.90498703723357e-05 2.10457437710778e-06
1.52333333333333e+01 7.60709978174917e-05 2.02971302401955e-06
1.53000000000000e+01 7.32043794785802e-05 1.95749579841230e-06
1.53666666666667e+01 7.04457852463659e-05 1.88783014096402e-06
1.54333333333333e+01 6.77911443812208e-05 1.82062669541468e-06
1.55000000000000e+01 6.52365395611302e-05 1.75579919043048e-06
1.55666666666667e+01 6.27782010976446e-05 1.69326435170435e-06
1.56333333333333e+01 6.04125013259509e-05 1.63294179139080e-06
1.57000000000000e+01 5.81359493000845e-05 1.57475390156836e-06
1.57666666666667e+01 5.59451856384793e-05 1.51862577454877e-06
1.58333333333333e+01 5.38369775251813e-05 1.46448510318936e-06
1.59000000000000e+01 5.18082139819040e-05 1.41226208484120e-06
1.59666666666667e+01 4.98559012746450e-05 1.36188934913584e-06
1.60333333333333e+01 4.79771584594509e-05 1.31330186812878e-06
1.61000000000000e+01 4.61692131686037e-05 1.26643686972366e-06
1.61666666666667e+01 4.44293975172295e-05 1.22123377226562e-06
1.62333333333333e+01 4.27551441342835e-05 1.17763410356651e-06
1.63000000000000e+01 4.11439824069694e-05 1.13558142288977e-06
1.63666666666667e+01 3.95935348329152e-05 1.09502126173498e-06
1.64333333333333e+01 3.81015134835127e-05 1.05590105088457e-06
1.65000000000000e+01 3.66657166567475e-05 1.01817005011953e-06
1.65666666666667e+01 3.52840256264420e-05 9.81779294631756e-07
1.66333333333333e+01 3.39544014908432e-05 9.46681529312718e-07
1.67000000000000e+01 3.26748821894588e-05 9.12831145448428e-07
1.67666666666667e+01 3.14435796061449e-05 8.80184132244133e-07
1.68333333333333e+01 3.02586767609712e-05 8.48698017649131e-07
1.69000000000000e+01 2.91184251514837e-05 8.18331811350448e-07
1.69666666666667e+01 2.80211421711205e-05 7.89045960938855e-07
1.70333333333333e+01 2.69652086069569e-05 7.60802298631005e-07
1.71000000000000e+01 2.59490662701177e-05 7.33563989945938e-07
1.71666666666667e+01 2.49712156951976e-05 7.07295494082466e-07
1.72333333333333e+01 2.40302139105629e-05 6.81962515960663e-07
1.73000000000000e+01 2.31246723264718e-05 6.57531960024017e-07
1.73666666666667e+01 2.22532546849127e-05 6.33971894436024e-07
1.74333333333333e+01 2.14146750727691e-05 6.11251507918408e-07
1.75000000000000e+01 2.06076960396258e-05 5.89341068175125e-07
1.75666666666667e+01 1.98311267707657e-05 5.68211889550722e-07
1.76333333333333e+01 1.90838213167427e-05 5.47836294192867e-07
1.77000000000000e+01 1.83646769158955e-05 5.28187574642842e-07
1.77666666666667e+01 1.76726323662138e-05 5.09239964630202e-07
1.78333333333333e+01 1.70066664477423e-05 4.90968604132702e-07
1.79000000000000e+01 1.63657964275442e-05 4.73349505721809e-07
1.79666666666667e+01 1.57490766087867e-05 4.56359528197541e-07
1.80333333333333e+01 1.51555969249735e-05 4.39976345160193e-07
1.81000000000000e+01 1.45844816075142e-05 4.24178414739190e-07
1.81666666666667e+01 1.40348878927410e-05 4.08944955798807e-07
1.82333333333333e+01 1.35060047692510e-05 3.94255919673502e-07
1.83000000000000e+01 1.29970517903990e-05 3.80091962944573e-07
1.83666666666667e+01 1.25072779220537e-05 3.66434425972035e-07
1.84333333333333e+01 1.20359604263725e-05 3.53265307479235e-07
1.85000000000000e+01 1.15824038034564e-05 3.40567240074405e-07
1.85666666666667e+01 1.11459387645271e-05 3.28323470886464e-07
1.86333333333333e+01 1.07259212372720e-05 3.16517838715297e-07
1.87000000000000e+01 1.03217314226155e-05 3.05134752024870e-07
1.87666666666667e+01 9.93277287966355e-06 2.94159171481245e-07
1.88333333333333e+01 9.55847163937862e-06 2.83576589412632e-07
1.89000000000000e+01 9.19827536394594e-06 2.73373010027507e-07
1.89666666666667e+01 8.85165253132153e-06 2.63534933671853e-07
1.90333333333333e+01 8.51809164543555e-06 2.54049338368212e-07
1.91000000000000e+01 8.19710048699713e-06 2.44903662036449e-07
1.91666666666667e+01 7.88820538680290e-06 2.36085788304307e-07
1.92333333333333e+01 7.59095052195568e-06 2.27584029917383e-07
1.93000000000000e+01 7.30489724816237e-06 2.19387112762056e-07
1.93666666666667e+01 7.02962345214169e-06 2.11484163078999e-07
1.94333333333333e+01 6.76472292448946e-06 2.03864692556523e-07
1.95000000000000e+01 6.50980476460625e-06 1.96518583974945e-07
1.95666666666667e+01 6.26449280359435e-06 1.89436079686884e-07
1.96333333333333e+01 6.02842504542159e-06 1.82607768224942e-07
1.97000000000000e+01 5.80125313657912e-06 1.76024571404665e-07
1.97666666666667e+01 5.58264185179500e-06 1.69677733948302e-07
1.98333333333333e+01 5.37226859605776e-06 1.63558811454533e-07
1.99000000000000e+01 5.16982293196386e-06 1.57659658813327e-07
1.99666666666667e+01 4.97500612141043e-06 1.51972420861545e-07
2.00333333333333e+01 4.78753068184998e-06 1.46489521577557e-07
2.01000000000000e+01 4.60711996505289e-06 1.41203653675821e-07
2.01666666666667e+01 4.43350774868593e-06 1.36107770193389e-07
2.02333333333333e+01 4.26643784089174e-06 1.31195074785860e-07
2.03000000000000e+01 4.10566370487391e-06 1.26459012382683e-07
2.03666666666667e+01 3.95094809493135e-06 1.21893261613262e-07
2.04333333333333e+01 3.80206270409935e-06 1.17491726093010e-07
2.05000000000000e+01 3.65878782957314e-06 1.13248526032229e-07
2.05666666666667e+01 3.52091204835912e-06 1.09157991419274e-07
2.06333333333333e+01 3.38823190328773e-06 1.05214654196582e-07
2.07000000000000e+01 3.26055160483331e-06 1.01413240726673e-07
2.07666666666667e+01 3.13768274207003e-06 9.77486656577839e-08
2.08333333333333e+01 3.01944400287748e-06 9.42160248997583e-08
2.09000000000000e+01 2.90566090819794e-06 9.08105888603569e-08
2.09666666666667e+01 2.79616555445410e-06 8.75277969259816e-08
2.10333333333333e+01 2.69079636422355e-06 8.43632511563288e-08
