Energy (eV)          EEDF (eV^-(3/2))     First Anisotropy
4.13157894736842e-03 3.66278189149912e+00 3.05234853224283e-03
1.23947368421053e-02 3.59662174669719e+00 5.01162213682263e-03
2.06578947368421e-02 3.53165664014402e+00 6.54038218666341e-03
2.89210526315789e-02 3.46786498618342e+00 7.65683867529206e-03
3.71842105263158e-02 3.40522558895242e+00 8.55149814658910e-03
4.54473684210526e-02 3.34371763545082e+00 9.29764952574183e-03
5.37105263157895e-02 3.28332068862106e+00 9.93384670481798e-03
6.19736842105263e-02 3.22401468055676e+00 1.04837417731627e-02
7.02368421052632e-02 3.16577990583458e+00 1.09632630919610e-02
7.85000000000000e-02 3.10859701496668e+00 1.13838367183084e-02
8.67631578947368e-02 3.05244700803558e+00 1.17540429946786e-02
9.50263157894737e-02 2.99731122818095e+00 1.20805532799697e-02
1.03289473684211e-01 2.94317135560964e+00 1.23686983177614e-02
1.11552631578947e-01 2.89000940124056e+00 1.26228324211598e-02
1.19815789473684e-01 2.83780770128833e+00 1.28465772626816e-02
1.28078947368421e-01 2.78654891125322e+00 1.30429911148362e-02
1.36342105263158e-01 2.73621599911580e+00 1.32146896956530e-02
1.44605263157895e-01 2.68679224092328e+00 1.33639348027904e-02
1.52868421052632e-01 2.63826121480339e+00 1.34927008512422e-02
1.61131578947368e-01 2.59060679550820e+00 1.36027256249853e-02
1.69394736842105e-01 2.54381314905433e+00 1.36955497242115e-02
1.77657894736842e-01 2.49786472746666e+00 1.37725476702990e-02
1.85921052631579e-01 2.45274626360967e+00 1.38349527604047e-02
1.94184210526316e-01 2.40844276611477e+00 1.38838771500553e-02
2.02447368421053e-01 2.36493951460485e+00 1.39203283272147e-02
2.10710526315789e-01 2.32222205417221e+00 1.39452226409570e-02
2.18973684210526e-01 2.28027619122203e+00 1.39593965628338e-02
2.27236842105263e-01 2.23908798853548e+00 1.39636162183918e-02
2.35500000000000e-01 2.19864376063884e+00 1.39585853932693e-02
2.43763157894737e-01 2.15893006925590e+00 1.39449523677597e-02
2.52026315789474e-01 2.11993371884344e+00 1.39233157768015e-02
2.60289473684211e-01 2.08164175220712e+00 1.38942296645814e-02
2.68552631578947e-01 2.04404144619585e+00 1.38582078685431e-02
2.76815789473684e-01 2.00712030747426e+00 1.38157278308638e-02
2.85078947368421e-01 1.97086606849274e+00 1.37672339792206e-02
2.93342105263158e-01 1.93526668304077e+00 1.37131406516919e-02
3.01605263157895e-01 1.90031032262264e+00 1.36538346786428e-02
3.09868421052632e-01 1.86598537239841e+00 1.35896777277104e-02
3.18131578947368e-01 1.83228042732474e+00 1.35210083504923e-02
3.26394736842105e-01 1.79918428836500e+00 1.34481438221499e-02
3.34657894736842e-01 1.76668595876899e+00 1.33713817912670e-02
3.42921052631579e-01 1.73477464041872e+00 1.32910017642247e-02
3.51184210526316e-01 1.70343973024049e+00 1.32072664365234e-02
3.59447368421053e-01 1.67267081676292e+00 1.31204229290611e-02
3.67710526315789e-01 1.64245767640997e+00 1.30307038713954e-02
3.75973684210526e-01 1.61279027035627e+00 1.29383283851329e-02
3.84236842105263e-01 1.58365874110582e+00 1.28435030216716e-02
3.92500000000000e-01 1.55505340921668e+00 1.27464225871265e-02
4.00763157894737e-01 1.52696477008469e+00 1.26472709058293e-02
4.09026315789474e-01 1.49938349078559e+00 1.25462215210830e-02
4.17289473684211e-01 1.47230040697402e+00 1.24434383396551e-02
4.25552631578947e-01 1.44570651983848e+00 1.23390762255895e-02
4.33815789473684e-01 1.41959299311126e+00 1.22332815422984e-02
4.42078947368421e-01 1.39395115018733e+00 1.21261926776034e-02
4.50342105263158e-01 1.36877247107400e+00 1.20179405007956e-02
4.58605263157895e-01 1.34404858973034e+00 1.19086487852913e-02
4.66868421052632e-01 1.31977129122962e+00 1.17984346323265e-02
4.75131578947368e-01 1.29593250902978e+00 1.16874088407002e-02
4.83394736842105e-01 1.27252432229305e+00 1.15756762572387e-02
4.91657894736842e-01 1.24953895325439e+00 1.14633361037291e-02
4.99921052631579e-01 1.22696876463705e+00 1.13504822822845e-02
5.08184210526316e-01 1.20480625711497e+00 1.12372036561349e-02
5.16447368421053e-01 1.18304406686071e+00 1.11235843311864e-02
5.24710526315790e-01 1.16167496297757e+00 1.10097038968741e-02
5.32973684210526e-01 1.14069184522018e+00 1.08956376511739e-02
5.41236842105263e-01 1.12008774159354e+00 1.07814568363355e-02
5.49500000000000e-01 1.09985580603651e+00 1.06672288411970e-02
5.57763157894737e-01 1.07998931614699e+00 1.05530173963208e-02
5.66026315789474e-01 1.06048167094839e+00 1.04388827577414e-02
5.74289473684211e-01 1.04132638869631e+00 1.03248818801636e-02
5.82552631578947e-01 1.02251710472493e+00 1.02110685803247e-02
5.90815789473684e-01 1.00404756933216e+00 1.00974936875579e-02
5.99078947368421e-01 9.85911645731623e-01 9.98420520052799e-03
6.07342105263158e-01 9.68103307926667e-01 9.87124841751080e-03
6.15605263157895e-01 9.50616638796477e-01 9.75866605896193e-03
6.23868421052632e-01 9.33445828100074e-01 9.64649840251100e-03
6.32131578947368e-01 9.16585170545768e-01 9.53478339584466e-03
6.40394736842105e-01 9.00029063895428e-01 9.42355676741703e-03
6.48657894736842e-01 8.83772007103149e-01 9.31285213145713e-03
6.56921052631579e-01 8.67808598487378e-01 9.20270108762491e-03
6.65184210526316e-01 8.52133533936124e-01 9.09313331269793e-03
6.73447368421053e-01 8.36741605166068e-01 8.98417665926863e-03
6.81710526315789e-01 8.21627697926527e-01 8.87585723520863e-03
6.89973684210526e-01 8.06786790366690e-01 8.76819947870494e-03
6.98236842105263e-01 7.92213951344493e-01 8.66122624482347e-03
7.06500000000000e-01 7.77904338788163e-01 8.55495887587054e-03
7.14763157894737e-01 7.63853198087340e-01 8.44941727137616e-03
7.23026315789474e-01 7.50055860513299e-01 8.34461995474729e-03
7.31289473684210e-01 7.36507741667701e-01 8.24058413678618e-03
7.39552631578947e-01 7.23204339959333e-01 8.13732577623115e-03
7.47815789473684e-01 7.10141235108376e-01 8.03485963519212e-03
7.56078947368421e-01 6.97314086693659e-01 7.93319934116035e-03
7.64342105263158e-01 6.84718632661862e-01 7.83235743487321e-03
7.72605263157895e-01 6.72350687960744e-01 7.73234541560191e-03
7.80868421052632e-01 6.60206143131875e-01 7.63317379635273e-03
7.89131578947368e-01 6.48280962945200e-01 7.53485214710582e-03
7.97394736842105e-01 6.36571185058242e-01 7.43738913847532e-03
8.05657894736842e-01 6.25072918699599e-01 7.34079258343267e-03
8.13921052631579e-01 6.13782343376140e-01 7.24506947718971e-03
8.22184210526316e-01 6.02695707603583e-01 7.15022603346453e-03
8.30447368421053e-01 5.91809327672320e-01 7.05626772655036e-03
8.38710526315789e-01 5.81119586385941e-01 6.96319932239755e-03
8.46973684210526e-01 5.70622931897424e-01 6.87102490803031e-03
8.55236842105263e-01 5.60315876516093e-01 6.77974792937539e-03
8.63500000000000e-01 5.50194995548775e-01 6.68937121978255e-03
8.71763157894737e-01 5.40256926161877e-01 6.59989702923503e-03
8.80026315789474e-01 5.30498366264039e-01 6.51132705230970e-03
8.88289473684211e-01 5.20916073408967e-01 6.42366245494919e-03
8.96552631578947e-01 5.11506863718063e-01 6.33690390009324e-03
9.04815789473684e-01 5.02267610822534e-01 6.25105157075172e-03
9.13078947368421e-01 4.93195244833934e-01 6.16610519798032e-03
9.21342105263158e-01 4.84286751295724e-01 6.08206408039526e-03
9.29605263157895e-01 4.75539170210512e-01 5.99892710261921e-03
9.37868421052632e-01 4.66949595046780e-01 5.91669276065701e-03
9.46131578947368e-01 4.58515171773145e-01 5.83535918009968e-03
9.54394736842105e-01 4.50233097910048e-01 5.75492413508731e-03
9.62657894736842e-01 4.42100621598602e-01 5.67538506648364e-03
9.70921052631579e-01 4.34115040686231e-01 5.59673909929555e-03
9.79184210526316e-01 4.26273701828835e-01 5.51898305816210e-03
9.87447368421053e-01 4.18573999616491e-01 5.44211348699354e-03
9.95710526315789e-01 4.11013375685483e-01 5.36612666185545e-03
1.00397368421053e+00 4.03589317890847e-01 5.29101859977429e-03
1.01223684210526e+00 3.96299359484171e-01 5.21678508899905e-03
1.02050000000000e+00 3.89141078219553e-01 5.14342168989719e-03
1.02876315789474e+00 3.82112095638033e-01 5.07092374083340e-03
1.03702631578947e+00 3.75210076242284e-01 4.99928637568240e-03
1.04528947368421e+00 3.68432726781540e-01 4.92850456085400e-03
1.05355263157895e+00 3.61777795304441e-01 4.85857308581130e-03
1.06181578947368e+00 3.55243070598483e-01 4.78948655221176e-03
1.07007894736842e+00 3.48826381391751e-01 4.72123941717964e-03
1.07834210526316e+00 3.42525595631658e-01 4.65382598303780e-03
1.08660526315789e+00 3.36338619829954e-01 4.58724043485339e-03
1.09486842105263e+00 3.30263398204494e-01 4.52147683092502e-03
1.10313157894737e+00 3.24297912161046e-01 4.45652909210315e-03
1.11139473684211e+00 3.18440179566728e-01 4.39239103961411e-03
1.11965789473684e+00 3.12688254091656e-01 4.32905638497695e-03
1.12792105263158e+00 3.07040224609153e-01 4.26651876280716e-03
1.13618421052632e+00 3.01494214417691e-01 4.20477172144903e-03
1.14444736842105e+00 2.96048380762351e-01 4.14380871259322e-03
1.15271052631579e+00 2.90700914173482e-01 4.08362312442394e-03
1.16097368421053e+00 2.85450037865606e-01 4.02420827184377e-03
1.16923684210526e+00 2.80294007188406e-01 3.96555742516267e-03
1.17750000000000e+00 2.75231108921021e-01 3.90766380101239e-03
1.18576315789474e+00 2.70259660830523e-01 3.85052055235210e-03
1.19402631578947e+00 2.65378011069829e-01 3.79412079080552e-03
1.20228947368421e+00 2.60584537666287e-01 3.73845760443872e-03
1.21055263157895e+00 2.55877647868976e-01 3.68352404899146e-03
1.21881578947368e+00 2.51255777734785e-01 3.62931313828669e-03
1.22707894736842e+00 2.46717391569746e-01 3.57581787041895e-03
1.23534210526316e+00 2.42260981418870e-01 3.52303121871586e-03
1.24360526315789e+00 2.37885066598098e-01 3.47094615435465e-03
1.25186842105263e+00 2.33588193101900e-01 3.41955563796709e-03
1.26013157894737e+00 2.29368933221939e-01 3.36885261053929e-03
1.26839473684211e+00 2.25225885038233e-01 3.31883001644282e-03
1.27665789473684e+00 2.21157671953472e-01 3.26948079485971e-03
1.28492105263158e+00 2.17162942264735e-01 3.22079789965918e-03
1.29318421052632e+00 2.13240368625629e-01 3.17277429141430e-03
1.30144736842105e+00 2.09388647695195e-01 3.12540292879976e-03
1.30971052631579e+00 2.05606499674443e-01 3.07867678888371e-03
1.31797368421053e+00 2.01892667881183e-01 3.03258885903227e-03
1.32623684210526e+00 1.98245918358252e-01 2.98713215438375e-03
1.33450000000000e+00 1.94665039384996e-01 2.94229971030719e-03
1.34276315789474e+00 1.91148841154224e-01 2.89808457430249e-03
1.35102631578947e+00 1.87696155349996e-01 2.85447981940136e-03
1.35928947368421e+00 1.84305834782849e-01 2.81147855461924e-03
1.36755263157895e+00 1.80976752937491e-01 2.76907391779106e-03
1.37581578947368e+00 1.77707803670569e-01 2.72725906789939e-03
1.38407894736842e+00 1.74497900818753e-01 2.68602720123874e-03
1.39234210526316e+00 1.71345977837891e-01 2.64537154418531e-03
1.40060526315789e+00 1.68250987469346e-01 2.60528536708204e-03
1.40886842105263e+00 1.65211901329006e-01 2.56576197750334e-03
1.41713157894737e+00 1.62227709629448e-01 2.52679471308099e-03
1.42539473684211e+00 1.59297420822811e-01 2.48837695577441e-03
1.43365789473684e+00 1.56420061271408e-01 2.45050212510823e-03
1.44192105263158e+00 1.53594674942563e-01 2.41316369042008e-03
1.45018421052632e+00 1.50820323035060e-01 2.37635516454909e-03
1.45844736842105e+00 1.48096083723860e-01 2.34007009713698e-03
1.46671052631579e+00 1.45421051834650e-01 2.30430208724384e-03
1.47497368421053e+00 1.42794338543135e-01 2.26904477703804e-03
1.48323684210526e+00 1.40215071095997e-01 2.23429186259931e-03
1.49150000000000e+00 1.37682392471297e-01 2.20003708802596e-03
1.49976315789474e+00 1.35195461143988e-01 2.16627423919111e-03
1.50802631578947e+00 1.32753450789326e-01 2.13299715189363e-03
1.51628947368421e+00 1.30355550023150e-01 2.10019971807618e-03
1.52455263157895e+00 1.28000962087206e-01 2.06787588026823e-03
1.53281578947368e+00 1.25688904630080e-01 2.03601962570869e-03
1.54107894736842e+00 1.23418609431805e-01 2.00462499644921e-03
1.54934210526316e+00 1.21189322148634e-01 1.97368608381031e-03
1.55760526315789e+00 1.19000302075568e-01 1.94319703700854e-03
1.56586842105263e+00 1.16850821860180e-01 1.91315205797858e-03
1.57413157894737e+00 1.14740167301540e-01 1.88354539591699e-03
1.58239473684211e+00 1.12667637099169e-01 1.85437135622419e-03
1.59065789473684e+00 1.10632542620063e-01 1.82562429535641e-03
1.59892105263158e+00 1.08634207681587e-01 1.79729862845319e-03
1.60718421052632e+00 1.06671968291165e-01 1.76938882452177e-03
1.61544736842105e+00 1.04745172461768e-01 1.74188940137451e-03
1.62371052631579e+00 1.02853179983072e-01 1.71479493355175e-03
1.63197368421053e+00 1.00995362208763e-01 1.68810004754763e-03
1.64023684210526e+00 9.91711018580783e-02 1.66179942855180e-03
1.64850000000000e+00 9.73797927789874e-02 1.63588781598102e-03
1.65676315789474e+00 9.56208397789210e-02 1.61035999878659e-03
1.66502631578947e+00 9.38936584161592e-02 1.58521082045121e-03
1.67328947368421e+00 9.21976748151452e-02 1.56043518270794e-03
1.68155263157895e+00 9.05323254469292e-02 1.53602804134251e-03
1.68981578947368e+00 8.88970569711803e-02 1.51198440179085e-03
1.69807894736842e+00 8.72913260424372e-02 1.48829932550632e-03
1.70634210526316e+00 8.57145991295905e-02 1.46496792580263e-03
1.71460526315789e+00 8.41663523470672e-02 1.44198537325495e-03
1.72286842105263e+00 8.26460712550317e-02 1.41934689180820e-03
1.73113157894737e+00 8.11532507145236e-02 1.39704775470692e-03
1.73939473684211e+00 7.96873947107984e-02 1.37508329013978e-03
1.74765789473684e+00 7.82480161885432e-02 1.35344887739513e-03
1.75592105263158e+00 7.68346368975778e-02 1.33213995164309e-03
1.76418421052632e+00 7.54467872110099e-02 1.31115200033188e-03
1.77244736842105e+00 7.40840059924348e-02 1.29048055942538e-03
1.78071052631579e+00 7.27458404348613e-02 1.27012121841153e-03
1.78897368421053e+00 7.14318459102718e-02 1.25006961674983e-03
1.79723684210526e+00 7.01415858286120e-02 1.23032144810348e-03
1.80550000000000e+00 6.88746314722619e-02 1.21087245700774e-03
1.81376315789474e+00 6.76305618743191e-02 1.19171843539384e-03
1.82202631578947e+00 6.64089636717260e-02 1.17285522566447e-03
1.83028947368421e+00 6.52094309740663e-02 1.15427872291801e-03
1.83855263157895e+00 6.40315652100365e-02 1.13598487182598e-03
1.84681578947368e+00 6.28749750139214e-02 1.11796966337837e-03
1.85507894736842e+00 6.17392760891638e-02 1.10022913891783e-03
1.86334210526316e+00 6.06240910806856e-02 1.08275938706295e-03
1.87160526315789e+00 5.95290494549855e-02 1.06555654710515e-03
1.87986842105263e+00 5.84537873603579e-02 1.04861680612277e-03
1.88813157894737e+00 5.73979475228808e-02 1.03193639597947e-03
1.89639473684211e+00 5.63611791219954e-02 1.01551159690441e-03
1.90465789473684e+00 5.53431376739550e-02 9.99338734654062e-04
1.91292105263158e+00 5.43434849222546e-02 9.83414183522269e-04
1.92118421052632e+00 5.33618887103529e-02 9.67734363675149e-04
1.92944736842105e+00 5.23980228863899e-02 9.52295738382913e-04
1.93771052631579e+00 5.14515671897212e-02 9.37094817199455e-04
1.94597368421053e+00 5.05222071445138e-02 9.22128153345607e-04
1.95423684210526e+00 4.96096339596296e-02 9.07392346374880e-04
1.96250000000000e+00 4.87135444127180e-02 8.92884039715191e-04
1.97076315789474e+00 4.78336407629444e-02 8.78599918116885e-04
1.97902631578947e+00 4.69696306475102e-02 8.64536709547279e-04
1.98728947368421e+00 4.61212269885110e-02 8.50691186515141e-04
1.99555263157895e+00 4.52881478853959e-02 8.37060163770114e-04
2.00381578947368e+00 4.44701165336128e-02 8.23640495916117e-04
2.01207894736842e+00 4.36668611284739e-02 8.10429079975918e-04
2.02034210526316e+00 4.28781147748499e-02 7.97422853132850e-04
2.02860526315789e+00 4.21036154020652e-02 7.84618794872351e-04
2.03686842105263e+00 4.13431056659489e-02 7.72013924860039e-04
2.04513157894737e+00 4.05963328743412e-02 7.59605300744389e-04
2.05339473684211e+00 3.98630488994083e-02 7.47390020434024e-04
2.06165789473684e+00 3.91430100952064e-02 7.35365220017985e-04
2.06992105263158e+00 3.84359772199226e-02 7.23528075664030e-04
2.07818421052632e+00 3.77417153466552e-02 7.11875801662629e-04
2.08644736842105e+00 3.70599937952098e-02 7.00405648403745e-04
2.09471052631579e+00 3.63905860521225e-02 6.89114904400285e-04
2.10297368421053e+00 3.57332696954017e-02 6.78000894373490e-04
2.11123684210526e+00 3.50878263234873e-02 6.67060980934483e-04
2.11950000000000e+00 3.44540414739744e-02 6.56292562782895e-04
2.12776315789474e+00 3.38317045611761e-02 6.45693072844310e-04
2.13602631578947e+00 3.32206088031746e-02 6.35259979435346e-04
2.14428947368421e+00 3.26205511557366e-02 6.24990787045187e-04
2.15255263157895e+00 3.20313322368828e-02 6.14883034651376e-04
2.16081578947368e+00 3.14527562687085e-02 6.04934293979456e-04
2.16907894736842e+00 3.08846310096054e-02 5.95142171136100e-04
2.17734210526316e+00 3.03267676903905e-02 5.85504304960739e-04
2.18560526315789e+00 2.97789809539308e-02 5.76018368376569e-04
2.19386842105263e+00 2.92410887864202e-02 5.66682066839361e-04
2.20213157894737e+00 2.87129124641303e-02 5.57493136736994e-04
2.21039473684211e+00 2.81942764915827e-02 5.48449346839928e-04
2.21865789473684e+00 2.76850085432430e-02 5.39548496784945e-04
2.22692105263158e+00 2.71849394083638e-02 5.30788418272611e-04
2.23518421052632e+00 2.66939029283685e-02 5.22166973639259e-04
2.24344736842105e+00 2.62117359481184e-02 5.13682054384892e-04
2.25171052631579e+00 2.57382782595139e-02 5.05331582462179e-04
2.25997368421053e+00 2.52733725482654e-02 4.97113508882108e-04
2.26823684210526e+00 2.48168643435075e-02 4.89025814774504e-04
2.27650000000000e+00 2.43686019607419e-02 4.81066510074326e-04
2.28476315789474e+00 2.39284364572427e-02 4.73233632167891e-04
2.29302631578947e+00 2.34962215806086e-02 4.65525246606264e-04
2.30128947368421e+00 2.30718137218947e-02 4.57939447559654e-04
2.30955263157895e+00 2.26550718626489e-02 4.50474356590016e-04
2.31781578947368e+00 2.22458575333710e-02 4.43128121386806e-04
2.32607894736842e+00 2.18440347657078e-02 4.35898916807401e-04
2.33434210526316e+00 2.14494700472772e-02 4.28784943678686e-04
2.34260526315789e+00 2.10620322788557e-02 4.21784429648588e-04
2.35086842105263e+00 2.06815927261103e-02 4.14895628056777e-04
2.35913157894737e+00 2.03080249815929e-02 4.08116816773016e-04
2.36739473684211e+00 1.99412049211278e-02 4.01446299121163e-04
2.37565789473684e+00 1.95810106625719e-02 3.94882402777717e-04
2.38392105263158e+00 1.92273225267062e-02 3.88423480526213e-04
2.39218421052632e+00 1.88800229932464e-02 3.82067909218601e-04
2.40044736842105e+00 1.85389966660734e-02 3.75814088707626e-04
2.40871052631579e+00 1.82041302334453e-02 3.69660442667833e-04
2.41697368421053e+00 1.78753124303497e-02 3.63605417583478e-04
2.42523684210526e+00 1.75524340027807e-02 3.57647483416249e-04
2.43350000000000e+00 1.72353876676460e-02 3.51785132650588e-04
2.44176315789474e+00 1.69240680809606e-02 3.46016879312641e-04
2.45002631578947e+00 1.66183718015474e-02 3.40341259403991e-04
2.45828947368421e+00 1.63181972578118e-02 3.34756831159938e-04
2.46655263157895e+00 1.60234447105178e-02 3.29262174157965e-04
2.47481578947368e+00 1.57340162231673e-02 3.23855888401990e-04
2.48307894736842e+00 1.54498156282694e-02 3.18536594984680e-04
2.49134210526316e+00 1.51707484953893e-02 3.13302935218685e-04
2.49960526315789e+00 1.48967221007976e-02 3.08153571172097e-04
2.50786842105263e+00 1.46276453935424e-02 3.03087184848819e-04
2.51613157894737e+00 1.43634289683555e-02 2.98102477347646e-04
2.52439473684211e+00 1.41039850348779e-02 2.93198169450255e-04
2.53265789473684e+00 1.38492273884926e-02 2.88373000823233e-04
2.54092105263158e+00 1.35990713826018e-02 2.83625730492065e-04
2.54918421052632e+00 1.33534338977007e-02 2.78955136087840e-04
2.55744736842105e+00 1.31122333165969e-02 2.74360013074896e-04
2.56571052631579e+00 1.28753894963337e-02 2.69839175273026e-04
2.57397368421053e+00 1.26428237415618e-02 2.65391454124691e-04
2.58223684210526e+00 1.24144587792197e-02 2.61015699114133e-04
2.59050000000000e+00 1.21902187303408e-02 2.56710777075400e-04
2.59876315789474e+00 1.19700290873909e-02 2.52475571483047e-04
2.60702631578947e+00 1.17538166886514e-02 2.48308982713084e-04
