Energy (eV)          EEDF (eV^-(3/2))     First Anisotropy
3.03278688524590e-02 3.20885681256113e-02 1.54251617283485e-05
9.09836065573771e-02 3.19073986756760e-02 2.54850976629464e-05
1.51639344262295e-01 3.17272520943776e-02 3.36797192875089e-05
2.12295081967213e-01 3.15481226057426e-02 3.99275062537950e-05
2.72950819672131e-01 3.13700044674204e-02 4.51567054169547e-05
3.33606557377049e-01 3.11928919694897e-02 4.97176470830285e-05
3.94262295081967e-01 3.10167794347695e-02 5.37913201071546e-05
4.54918032786885e-01 3.08416612169935e-02 5.74868374399526e-05
5.15573770491803e-01 3.06675317023442e-02 6.08764461524709e-05
5.76229508196721e-01 3.04943853090379e-02 6.40111258865146e-05
6.36885245901639e-01 3.03222164861207e-02 6.69285531216388e-05
6.97540983606557e-01 3.01510197143164e-02 6.96575731304533e-05
7.58196721311475e-01 2.99807895057513e-02 7.22208946461090e-05
8.18852459016393e-01 2.98115204030523e-02 7.46368043753496e-05
8.79508196721312e-01 2.96432069799006e-02 7.69203066571644e-05
9.40163934426230e-01 2.94758438406126e-02 7.90839086694922e-05
1.00081967213115e+00 2.93094256201449e-02 8.11381777464875e-05
1.06147540983607e+00 2.91439469835402e-02 8.30921471559110e-05
1.12213114754098e+00 2.89794026255235e-02 8.49536178260391e-05
1.18278688524590e+00 2.88157872712642e-02 8.67293871187446e-05
1.24344262295082e+00 2.86530956770651e-02 8.84254260074219e-05
1.30409836065574e+00 2.84913226260874e-02 9.00470167831625e-05
1.36475409836066e+00 2.83304629323366e-02 9.15988622096146e-05
1.42540983606557e+00 2.81705114390855e-02 9.30851737830824e-05
1.48606557377049e+00 2.80114630198224e-02 9.45097432866300e-05
1.54672131147541e+00 2.78533125747637e-02 9.58760008180566e-05
1.60737704918033e+00 2.76960550340414e-02 9.71870626651389e-05
1.66803278688525e+00 2.75396853563991e-02 9.84457719322456e-05
1.72868852459016e+00 2.73841985290510e-02 9.96547319130950e-05
1.78934426229508e+00 2.72295895683949e-02 1.00816334973935e-04
1.85000000000000e+00 2.70758535171753e-02 1.01932786454916e-04
1.91065573770492e+00 2.69229854470264e-02 1.03006125066843e-04
1.97131147540984e+00 2.67709804574073e-02 1.04038240984133e-04
2.03196721311475e+00 2.66198336762026e-02 1.05030891465750e-04
2.09262295081967e+00 2.64695402572761e-02 1.05985713947232e-04
2.15327868852459e+00 2.63200953826242e-02 1.06904237426020e-04
2.21393442622951e+00 2.61714942614399e-02 1.07787893061170e-04
2.27459016393443e+00 2.60237321299701e-02 1.08638022898945e-04
2.33524590163934e+00 2.58768042519965e-02 1.09455888154344e-04
2.39590163934426e+00 2.57307059167459e-02 1.10242675993605e-04
2.45655737704918e+00 2.55854324406921e-02 1.10999505534376e-04
2.51721311475410e+00 2.54409791667542e-02 1.11727433663176e-04
2.57786885245902e+00 2.52973414647096e-02 1.12427460223401e-04
2.63852459016393e+00 2.51545147293370e-02 1.13100532260558e-04
2.69918032786885e+00 2.50124943819899e-02 1.13747547816549e-04
2.75983606557377e+00 2.48712758698713e-02 1.14369359783920e-04
2.82049180327869e+00 2.47308546663932e-02 1.14966779375634e-04
2.88114754098361e+00 2.45912262695100e-02 1.15540578888009e-04
2.94180327868852e+00 2.44523862031060e-02 1.16091494189132e-04
3.00245901639344e+00 2.43143300163338e-02 1.16620227481917e-04
3.06311475409836e+00 2.41770532834783e-02 1.17127449343078e-04
3.12377049180328e+00 2.40405516042529e-02 1.17613801052957e-04
3.18442622950820e+00 2.39048206023228e-02 1.18079896277287e-04
3.24508196721311e+00 2.37698559265094e-02 1.18526322592127e-04
3.30573770491803e+00 2.36356532502016e-02 1.18953643261653e-04
3.36639344262295e+00 2.35022082716159e-02 1.19362398861445e-04
3.42704918032787e+00 2.33695167124504e-02 1.19753108439263e-04
3.48770491803279e+00 2.32375743189637e-02 1.20126270571456e-04
3.54836065573771e+00 2.31063768614296e-02 1.20482364693449e-04
3.60901639344262e+00 2.29759201343673e-02 1.20821852319515e-04
3.66967213114754e+00 2.28461999553073e-02 1.21145177857524e-04
3.73032786885246e+00 2.27172121657630e-02 1.21452769351865e-04
3.79098360655738e+00 2.25889526307241e-02 1.21745039585875e-04
3.85163934426230e+00 2.24614172385284e-02 1.22022386708312e-04
3.91229508196721e+00 2.23346019010538e-02 1.22285195205704e-04
3.97295081967213e+00 2.22085025526013e-02 1.22533836432116e-04
4.03360655737705e+00 2.20831151507570e-02 1.22768669092333e-04
4.09426229508197e+00 2.19584356759306e-02 1.22990040007442e-04
4.15491803278689e+00 2.18344601315262e-02 1.23198284820434e-04
4.21557377049180e+00 2.17111845429084e-02 1.23393728374966e-04
4.27622950819672e+00 2.15886049581857e-02 1.23576685060104e-04
4.33688524590164e+00 2.14667174477785e-02 1.23747459430800e-04
4.39754098360656e+00 2.13455181045701e-02 1.23906346780583e-04
4.45819672131148e+00 2.12250030429465e-02 1.24053633412318e-04
4.51885245901639e+00 2.11051683995118e-02 1.24189596883464e-04
4.57950819672131e+00 2.09860103326815e-02 1.24314506585230e-04
4.64016393442623e+00 2.08675250225612e-02 1.24428623949692e-04
4.70081967213115e+00 2.07497086710751e-02 1.24532202974887e-04
4.76147540983607e+00 2.06325575010837e-02 1.24625490399565e-04
4.82213114754098e+00 2.05160677570280e-02 1.24708725859958e-04
4.88278688524590e+00 2.04002357045524e-02 1.24782142304413e-04
4.94344262295082e+00 2.02850576306191e-02 1.24845966376464e-04
5.00409836065574e+00 2.01705298426835e-02 1.24900418536066e-04
5.06475409836066e+00 2.00566486692855e-02 1.24945713166746e-04
5.12540983606557e+00 1.99434104596928e-02 1.24982058930644e-04
5.18606557377049e+00 1.98308115840032e-02 1.25009659096457e-04
5.24672131147541e+00 1.97188484323709e-02 1.25028711620706e-04
5.30737704918033e+00 1.96075174155511e-02 1.25039409217701e-04
5.36803278688525e+00 1.94968149645631e-02 1.25041939724739e-04
5.42868852459016e+00 1.93867375305766e-02 1.25036486157893e-04
5.48934426229508e+00 1.92772815849981e-02 1.25023227048738e-04
5.55000000000000e+00 1.91684436187533e-02 1.25002336488131e-04
5.61065573770492e+00 1.90602201427822e-02 1.24973984161569e-04
5.67131147540984e+00 1.89526076877238e-02 1.24938335612163e-04
5.73196721311475e+00 1.88456028039919e-02 1.24895552483330e-04
5.79262295081967e+00 1.87392020611004e-02 1.24845792541322e-04
5.85327868852459e+00 1.86334020481203e-02 1.24789209690764e-04
5.91393442622951e+00 1.85281993733801e-02 1.24725954260182e-04
5.97459016393443e+00 1.84235906643580e-02 1.24656173010371e-04
6.03524590163934e+00 1.83195725677458e-02 1.24580009399674e-04
6.09590163934426e+00 1.82161417488202e-02 1.24497603586100e-04
6.15655737704918e+00 1.81132948918597e-02 1.24409092423829e-04
6.21721311475410e+00 1.80110286998636e-02 1.24314609668332e-04
6.27786885245902e+00 1.79093398946080e-02 1.24214286165373e-04
6.33852459016393e+00 1.78082252160512e-02 1.24108249841372e-04
6.39918032786885e+00 1.77076814227215e-02 1.23996625689262e-04
6.45983606557377e+00 1.76077052914479e-02 1.23879535954249e-04
6.52049180327869e+00 1.75082936174103e-02 1.23757100304834e-04
6.58114754098361e+00 1.74094432135755e-02 1.23629435814379e-04
6.64180327868853e+00 1.73111509110587e-02 1.23496656938712e-04
6.70245901639344e+00 1.72134135588656e-02 1.23358875730674e-04
6.76311475409836e+00 1.71162280237929e-02 1.23216201815073e-04
6.82377049180328e+00 1.70195911904686e-02 1.23068742589561e-04
6.88442622950820e+00 1.69234999608248e-02 1.22916603197401e-04
6.94508196721311e+00 1.68279512544280e-02 1.22759886496943e-04
7.00573770491803e+00 1.67329420082367e-02 1.22598693214417e-04
7.06639344262295e+00 1.66384691766371e-02 1.22433122084398e-04
7.12704918032787e+00 1.65445297309416e-02 1.22263269817803e-04
7.18770491803279e+00 1.64511206596974e-02 1.22089231067000e-04
7.24836065573770e+00 1.63582389684540e-02 1.21911098566909e-04
7.30901639344262e+00 1.62658816797940e-02 1.21728963264620e-04
7.36967213114754e+00 1.61740458328559e-02 1.21542914283789e-04
7.43032786885246e+00 1.60827284836230e-02 1.21353038886557e-04
7.49098360655738e+00 1.59919267046997e-02 1.21159422644091e-04
7.55163934426230e+00 1.59016375852188e-02 1.20962149397781e-04
7.61229508196721e+00 1.58118582308655e-02 1.20761301419748e-04
7.67295081967213e+00 1.57225857634287e-02 1.20556959373571e-04
7.73360655737705e+00 1.56338173210664e-02 1.20349202272888e-04
7.79426229508197e+00 1.55455500580947e-02 1.20138107601712e-04
7.85491803278689e+00 1.54577811450079e-02 1.19923751424803e-04
7.91557377049180e+00 1.53705077680507e-02 1.19706208346740e-04
7.97622950819672e+00 1.52837271294669e-02 1.19485551469031e-04
8.03688524590164e+00 1.51974364472963e-02 1.19261852502667e-04
8.09754098360656e+00 1.51116329553911e-02 1.19035181871334e-04
8.15819672131148e+00 1.50263139030084e-02 1.18805608669344e-04
8.21885245901639e+00 1.49414765550426e-02 1.18573200617774e-04
8.27950819672131e+00 1.48571181918301e-02 1.18338024205176e-04
8.34016393442623e+00 1.47732361090623e-02 1.18100144643924e-04
8.40081967213115e+00 1.46898276177987e-02 1.17859626003001e-04
8.46147540983607e+00 1.46068900440801e-02 1.17616531164698e-04
8.52213114754098e+00 1.45244207291448e-02 1.17370921779779e-04
8.58278688524590e+00 1.44424170292422e-02 1.17122858365801e-04
8.64344262295082e+00 1.43608763156425e-02 1.16872400397217e-04
8.70409836065574e+00 1.42797959742679e-02 1.16619606261837e-04
8.76475409836066e+00 1.41991734058948e-02 1.16364533215858e-04
8.82540983606557e+00 1.41190060259742e-02 1.16107237476675e-04
8.88606557377049e+00 1.40392912646393e-02 1.15847774307912e-04
8.94672131147541e+00 1.39600265663523e-02 1.15586197975906e-04
9.00737704918033e+00 1.38812093900942e-02 1.15322561704812e-04
9.06803278688525e+00 1.38028372091925e-02 1.15056917795598e-04
9.12868852459016e+00 1.37249075112399e-02 1.14789317581734e-04
9.18934426229508e+00 1.36474177980983e-02 1.14519811541724e-04
9.25000000000000e+00 1.35703655855647e-02 1.14248449255537e-04
9.31065573770492e+00 1.34937484035464e-02 1.13975279359876e-04
9.37131147540984e+00 1.34175637958969e-02 1.13700349630617e-04
9.43196721311475e+00 1.33418093204171e-02 1.13423707058351e-04
9.49262295081967e+00 1.32664825485351e-02 1.13145397805273e-04
9.55327868852459e+00 1.31915810654716e-02 1.12865467160897e-04
9.61393442622951e+00 1.31171024700808e-02 1.12583959649218e-04
9.67459016393443e+00 1.30430443747735e-02 1.12300918985231e-04
9.73524590163935e+00 1.29694044055165e-02 1.12016388176309e-04
9.79590163934426e+00 1.28961802015282e-02 1.11730409479539e-04
9.85655737704918e+00 1.28233694154318e-02 1.11443024357996e-04
9.91721311475410e+00 1.27509697131040e-02 1.11154273554689e-04
9.97786885245902e+00 1.26789787736715e-02 1.10864197105886e-04
1.00385245901639e+01 1.26073942893616e-02 1.10572834625445e-04
1.00991803278689e+01 1.25362139647961e-02 1.10280224554431e-04
1.01598360655738e+01 1.24654355188289e-02 1.09986404694449e-04
1.02204918032787e+01 1.23950566824779e-02 1.09691412949382e-04
1.02811475409836e+01 1.23250751988958e-02 1.09395285769599e-04
1.03418032786885e+01 1.22554888253423e-02 1.09098058976555e-04
1.04024590163934e+01 1.21862953310510e-02 1.08799768563790e-04
1.04631147540984e+01 1.21174924971978e-02 1.08500449128716e-04
1.05237704918033e+01 1.20490781188023e-02 1.08200134925576e-04
1.05844262295082e+01 1.19810500020295e-02 1.07898859634689e-04
1.06450819672131e+01 1.19134059667221e-02 1.07596656099266e-04
1.07057377049180e+01 1.18461438443801e-02 1.07293557357013e-04
1.07663934426230e+01 1.17792614781299e-02 1.06989595134302e-04
1.08270491803279e+01 1.17127567245212e-02 1.06684800614572e-04
1.08877049180328e+01 1.16466274515770e-02 1.06379205185311e-04
1.09483606557377e+01 1.15808715387616e-02 1.06072838972450e-04
1.10090163934426e+01 1.15154868787138e-02 1.05765731822496e-04
1.10696721311475e+01 1.14504713747796e-02 1.05457913085983e-04
1.11303278688525e+01 1.13858229433224e-02 1.05149411370690e-04
1.11909836065574e+01 1.13215395118740e-02 1.04840255504385e-04
1.12516393442623e+01 1.12576190191039e-02 1.04530473126870e-04
1.13122950819672e+01 1.11940594164580e-02 1.04220091633238e-04
1.13729508196721e+01 1.11308586658198e-02 1.03909137964827e-04
1.14336065573771e+01 1.10680147416975e-02 1.03597638371154e-04
1.14942622950820e+01 1.10055256294720e-02 1.03285619334820e-04
1.15549180327869e+01 1.09433893253633e-02 1.02973106218628e-04
1.16155737704918e+01 1.08816038379842e-02 1.02660123953427e-04
1.16762295081967e+01 1.08201671866460e-02 1.02346697707615e-04
1.17368852459016e+01 1.07590774013267e-02 1.02032851569543e-04
1.17975409836066e+01 1.06983325241690e-02 1.01718609428887e-04
1.18581967213115e+01 1.06379306073366e-02 1.01403994780431e-04
1.19188524590164e+01 1.05778697150140e-02 1.01089030500705e-04
1.19795081967213e+01 1.05181479217994e-02 1.00773739712690e-04
1.20401639344262e+01 1.04587633126711e-02 1.00458144519190e-04
1.21008196721311e+01 1.03997139844091e-02 1.00142266645764e-04
1.21614754098361e+01 1.03409980440396e-02 9.98261280669541e-05
1.22221311475410e+01 1.02826136088024e-02 9.95097497722428e-05
1.22827868852459e+01 1.02245588075238e-02 9.91931525904427e-05
1.23434426229508e+01 1.01668317786467e-02 9.88763570054821e-05
1.24040983606557e+01 1.01094306720633e-02 9.85593829467593e-05
1.24647540983607e+01 1.00523536476382e-02 9.82422505982981e-05
1.25254098360656e+01 9.99559887517470e-03 9.79249792119633e-05
1.25860655737705e+01 9.93916453571790e-03 9.76075877090644e-05
1.26467213114754e+01 9.88304882012448e-03 9.72900952666245e-05
1.27073770491803e+01 9.82724992902964e-03 9.69725201607343e-05
1.27680327868852e+01 9.77176607410663e-03 9.66548805383619e-05
1.28286885245902e+01 9.71659547625417e-03 9.63371942443038e-05
1.28893442622951e+01 9.66173636727918e-03 9.60194786243698e-05
1.29500000000000e+01 9.60718698853650e-03 9.57017512832278e-05
1.30106557377049e+01 9.55294559089580e-03 9.53840289716052e-05
1.30713114754098e+01 9.49901043593789e-03 9.50663281497281e-05
1.31319672131148e+01 9.44537979463739e-03 9.47486655366583e-05
1.31926229508197e+01 9.39205194732962e-03 9.44310570254264e-05
1.32532786885246e+01 9.33902518486799e-03 9.41135184062441e-05
1.33139344262295e+01 9.28629780695369e-03 9.37960652039036e-05
1.33745901639344e+01 9.23386812368254e-03 9.34787124928314e-05
1.34352459016393e+01 9.18173445429089e-03 9.31614756075195e-05
1.34959016393443e+01 9.12989512712289e-03 9.28443690984002e-05
1.35565573770492e+01 9.07834848073043e-03 9.25274072599379e-05
1.36172131147541e+01 9.02709286265796e-03 9.22106046458006e-05
1.36778688524590e+01 8.97612662940973e-03 9.18939750506489e-05
1.37385245901639e+01 8.92544814751453e-03 9.15775321883227e-05
1.37991803278689e+01 8.87505579198454e-03 9.12612895389537e-05
1.38598360655738e+01 8.82494794773922e-03 9.09452601751761e-05
1.39204918032787e+01 8.77512300844741e-03 9.06294574285758e-05
1.39811475409836e+01 8.72557937649520e-03 9.03138939093519e-05
1.40418032786885e+01 8.67631546399849e-03 8.99985820016868e-05
1.41024590163934e+01 8.62732969168067e-03 8.96835343472191e-05
1.41631147540984e+01 8.57862048884024e-03 8.93687628887830e-05
1.42237704918033e+01 8.53018629433165e-03 8.90542795068363e-05
1.42844262295082e+01 8.48202555514145e-03 8.87400958756929e-05
1.43450819672131e+01 8.43413672770065e-03 8.84262233001011e-05
1.44057377049180e+01 8.38651827681433e-03 8.81126733408326e-05
1.44663934426230e+01 8.33916867563016e-03 8.77994568937459e-05
1.45270491803279e+01 8.29208640657170e-03 8.74865846547675e-05
1.45877049180328e+01 8.24526996030055e-03 8.71740675739070e-05
1.46483606557377e+01 8.19871783568443e-03 8.68619159566685e-05
1.47090163934426e+01 8.15242854070184e-03 8.65501400617062e-05
1.47696721311475e+01 8.10640059112505e-03 8.62387499655406e-05
1.48303278688525e+01 8.06063251173102e-03 8.59277554088172e-05
1.48909836065574e+01 8.01512283531080e-03 8.56171663839762e-05
1.49516393442623e+01 7.96987010263876e-03 8.53069922695662e-05
1.50122950819672e+01 7.92487286333376e-03 8.49972424061361e-05
1.50729508196721e+01 7.88012967460251e-03 8.46879259655703e-05
1.51336065573770e+01 7.83563910239334e-03 8.43790518026251e-05
1.51942622950820e+01 7.79139972045128e-03 8.40706290212957e-05
1.52549180327869e+01 7.74741011028700e-03 8.37626661407325e-05
1.53155737704918e+01 7.70366886199782e-03 8.34551715157475e-05
1.53762295081967e+01 7.66017457335007e-03 8.31481537477155e-05
1.54368852459016e+01 7.61692584974886e-03 8.28416208704308e-05
1.54975409836066e+01 7.57392130503372e-03 8.25355808913884e-05
1.55581967213115e+01 7.53115956031422e-03 8.22300416687752e-05
1.56188524590164e+01 7.48863924503646e-03 8.19250107717430e-05
1.56795081967213e+01 7.44635899610701e-03 8.16204960128705e-05
1.57401639344262e+01 7.40431745786273e-03 8.13165046635200e-05
1.58008196721311e+01 7.36251328282960e-03 8.10130438492040e-05
1.58614754098361e+01 7.32094513087179e-03 8.07101209360013e-05
1.59221311475410e+01 7.27961166916202e-03 8.04077427645262e-05
1.59827868852459e+01 7.23851157291746e-03 8.01059161589627e-05
1.60434426229508e+01 7.19764352431968e-03 7.98046478112122e-05
1.61040983606557e+01 7.15700621350147e-03 7.95039441493341e-05
1.61647540983607e+01 7.11659833773385e-03 7.92038118384053e-05
1.62254098360656e+01 7.07641860139673e-03 7.89042570420380e-05
1.62860655737705e+01 7.03646571668099e-03 7.86052857942799e-05
1.63467213114754e+01 6.99673840279863e-03 7.83069043632293e-05
1.64073770491803e+01 6.95723538595381e-03 7.80091185299200e-05
1.64680327868852e+01 6.91795540002402e-03 7.77119340672709e-05
1.65286885245902e+01 6.87889718555748e-03 7.74153566309415e-05
1.65893442622951e+01 6.84005949068697e-03 7.71193916354087e-05
1.66500000000000e+01 6.80144107037473e-03 7.68240447253259e-05
1.67106557377049e+01 6.76304068638393e-03 7.65293210801915e-05
1.67713114754098e+01 6.72485710792889e-03 7.62352257643394e-05
1.68319672131148e+01 6.68688911094122e-03 7.59417640692706e-05
1.68926229508197e+01 6.64913547804155e-03 7.56489408345161e-05
1.69532786885246e+01 6.61159499917071e-03 7.53567608984848e-05
1.70139344262295e+01 6.57426647065808e-03 7.50652289956271e-05
1.70745901639344e+01 6.53714869606863e-03 7.47743496396416e-05
1.71352459016393e+01 6.50024048550095e-03 7.44841275672928e-05
1.71959016393443e+01 6.46354065555961e-03 7.41945670834075e-05
1.72565573770492e+01 6.42704802995776e-03 7.39056723904412e-05
1.73172131147541e+01 6.39076143883477e-03 7.36174479108616e-05
1.73778688524590e+01 6.35467971872871e-03 7.33298976473019e-05
1.74385245901639e+01 6.31880171316167e-03 7.30430256071935e-05
1.74991803278689e+01 6.28312627177324e-03 7.27568357057761e-05
1.75598360655738e+01 6.24765225110646e-03 7.24713316560051e-05
1.76204918032787e+01 6.21237851395453e-03 7.21865173866316e-05
1.76811475409836e+01 6.17730392933415e-03 7.19023964249437e-05
1.77418032786885e+01 6.14242737304449e-03 7.16189722071916e-05
1.78024590163934e+01 6.10774772703204e-03 7.13362483823785e-05
1.78631147540984e+01 6.07326387936405e-03 7.10542282091743e-05
1.79237704918033e+01 6.03897472477155e-03 7.07729149559783e-05
1.79844262295082e+01 6.00487916384301e-03 7.04923118094665e-05
1.80450819672131e+01 5.97097610375391e-03 7.02124217707700e-05
1.81057377049180e+01 5.93726445765854e-03 6.99332480494721e-05
1.81663934426230e+01 5.90374314466410e-03 6.96547934816775e-05
1.82270491803279e+01 5.87041109034969e-03 6.93770608225493e-05
1.82877049180328e+01 5.83726722617467e-03 6.91000530326908e-05
1.83483606557377e+01 5.80431048945296e-03 6.88237727094865e-05
1.84090163934426e+01 5.77153982385731e-03 6.85482224641795e-05
1.84696721311475e+01 5.73895417866826e-03 6.82734048356109e-05
1.85303278688525e+01 5.70655250945201e-03 6.79993221922745e-05
1.85909836065574e+01 5.67433377749369e-03 6.77259771037391e-05
1.86516393442623e+01 5.64229694977229e-03 6.74533717918752e-05
1.87122950819672e+01 5.61044099944278e-03 6.71815084948642e-05
1.87729508196721e+01 5.57876490511665e-03 6.69103893837748e-05
1.88336065573770e+01 5.54726765151030e-03 6.66400164679118e-05
1.88942622950820e+01 5.51594822890221e-03 6.63703919533940e-05
1.89549180327869e+01 5.48480563310823e-03 6.61015177134834e-05
1.90155737704918e+01 5.45383886594276e-03 6.58333955546563e-05
1.90762295081967e+01 5.42304693469029e-03 6.55660274771614e-05
1.91368852459016e+01 5.39242885208116e-03 6.52994151573047e-05
