Energy (eV)          EEDF (eV^-(3/2))     First Anisotropy
7.26666666666667e-02 7.51241511821904e-01 1.53067418861623e-03
2.18000000000000e-01 6.69393948608602e-01 2.39795010631376e-03
3.63333333333333e-01 5.96463655452863e-01 2.83977183261740e-03
5.08666666666667e-01 5.31479098507297e-01 3.01681246057601e-03
6.54000000000000e-01 4.73574591818433e-01 3.05745109273585e-03
7.99333333333333e-01 4.21978765712207e-01 3.01653925146152e-03
9.44666666666667e-01 3.76004291191334e-01 2.92463558084959e-03
1.09000000000000e+00 3.35038723579164e-01 2.80084527046515e-03
1.23533333333333e+00 2.98536343465603e-01 2.65785408812006e-03
1.38066666666667e+00 2.66010888083863e-01 2.50436977000076e-03
1.52600000000000e+00 2.37029072490213e-01 2.34647302865092e-03
1.67133333333333e+00 2.11204817902161e-01 2.18843480598279e-03
1.81666666666667e+00 1.88194109050638e-01 2.03324297657094e-03
1.96200000000000e+00 1.67690410852571e-01 1.88295784242274e-03
2.10733333333333e+00 1.49420585070014e-01 1.73896047336297e-03
2.25266666666667e+00 1.33141251986509e-01 1.60213081101223e-03
2.39800000000000e+00 1.18635547939919e-01 1.47297793101955e-03
2.54333333333333e+00 1.05710236463738e-01 1.35173673100960e-03
2.68866666666667e+00 9.41931342590924e-02 1.23844052427322e-03
2.83400000000000e+00 8.39308172937622e-02 1.13297596671302e-03
2.97933333333333e+00 7.47865770168037e-02 1.03512482636998e-03
3.12466666666667e+00 6.66385993010073e-02 9.44595856298082e-04
3.27000000000000e+00 5.93783416014543e-02 8.61049123244324e-04
3.41533333333333e+00 5.29090870382612e-02 7.84114540545770e-04
3.56066666666667e+00 4.71446560488066e-02 7.13405939203842e-04
3.70600000000000e+00 4.20082582898700e-02 6.48531672319299e-04
3.85133333333333e+00 3.74314696953558e-02 5.89102518827168e-04
3.99666666666667e+00 3.33533210072731e-02 5.34737491959769e-04
4.14200000000000e+00 2.97194855390018e-02 4.85068011006877e-04
4.28733333333333e+00 2.64815554753701e-02 4.39740796611850e-04
4.43266666666667e+00 2.35963970351802e-02 3.98419781319715e-04
4.57800000000000e+00 2.10255758429775e-02 3.60787256719024e-04
4.72333333333333e+00 1.87348449340293e-02 3.26544432871888e-04
4.86866666666667e+00 1.66936885511523e-02 2.95411554758036e-04
5.01400000000000e+00 1.48749156155288e-02 2.67127684422844e-04
5.15933333333333e+00 1.32542975063777e-02 2.41450235279979e-04
5.30466666666667e+00 1.18102453110721e-02 2.18154330673410e-04
5.45000000000000e+00 1.05235222198825e-02 1.97032039536724e-04
5.59533333333333e+00 9.37698726657228e-03 1.77891530881731e-04
5.74066666666667e+00 8.35536699276069e-03 1.60556182249810e-04
5.88600000000000e+00 7.44505197709245e-03 1.44863666677234e-04
6.03133333333333e+00 6.63391553985878e-03 1.30665037157682e-04
6.17666666666667e+00 5.91115220259439e-03 1.17823824698781e-04
6.32200000000000e+00 5.26713373939862e-03 1.06215160170208e-04
6.46733333333333e+00 4.69328091623524e-03 9.57249274013768e-05
6.61266666666667e+00 4.18194920612281e-03 8.62489538884949e-05
6.75800000000000e+00 3.72632695031422e-03 7.76922421652452e-05
6.90333333333333e+00 3.32034461794922e-03 6.99682436120470e-05
7.04866666666667e+00 2.95859395312421e-03 6.29981762241083e-05
7.19400000000000e+00 2.63625592735207e-03 5.67103860136819e-05
7.33933333333333e+00 2.34903654366990e-03 5.10397511925880e-05
7.48466666666667e+00 2.09310963572874e-03 4.59271284003414e-05
7.63000000000000e+00 1.86506589657035e-03 4.13188392279455e-05
7.77533333333333e+00 1.66186746209045e-03 3.71661951338772e-05
7.92066666666667e+00 1.48080744319591e-03 3.34250591100438e-05
8.06600000000000e+00 1.31947386536366e-03 3.00554419117852e-05
8.21133333333333e+00 1.17571753789761e-03 2.70211306906197e-05
8.35666666666667e+00 1.04762342420782e-03 2.42893481602782e-05
8.50200000000000e+00 9.33485130246491e-04 2.18304401492491e-05
8.64733333333333e+00 8.31782173038803e-04 1.96175894925176e-05
8.79266666666667e+00 7.41159726061531e-04 1.76265544877004e-05
8.93800000000000e+00 6.60410570656801e-04 1.58354300117194e-05
9.08333333333333e+00 5.88459014247886e-04 1.42244295158927e-05
9.22866666666667e+00 5.24346560836975e-04 1.27756863515730e-05
9.37400000000000e+00 4.67219142226913e-04 1.14730728297426e-05
9.51933333333333e+00 4.16315740675834e-04 1.03020355367301e-05
9.66466666666667e+00 3.70958251229568e-04 9.24944562031596e-06
9.81000000000000e+00 3.30542448232159e-04 8.30346275335889e-06
9.95533333333333e+00 2.94529936219930e-04 7.45341158706260e-06
1.01006666666667e+01 2.62440977844208e-04 6.68966965523821e-06
1.02460000000000e+01 2.33848103052175e-04 6.00356573288292e-06
1.03913333333333e+01 2.08370414216600e-04 5.38728764221294e-06
1.05366666666667e+01 1.85668512894300e-04 4.83379878445441e-06
1.06820000000000e+01 1.65439977753688e-04 4.33676258975149e-06
1.08273333333333e+01 1.47415336036964e-04 3.89047402482621e-06
1.09726666666667e+01 1.31354474303368e-04 3.48979772976847e-06
1.11180000000000e+01 1.17043439232311e-04 3.13011206995266e-06
1.12633333333333e+01 1.04291587558613e-04 2.80725848762518e-06
1.14086666666667e+01 9.29290467756373e-05 2.51749580527828e-06
1.15540000000000e+01 8.28044518220383e-05 2.25745894528403e-06
1.16993333333333e+01 7.37829287501701e-05 2.02412160315424e-06
1.18446666666667e+01 6.57442982466307e-05 1.81476260156953e-06
1.19900000000000e+01 5.85814744211900e-05 1.62693552584183e-06
1.21353333333333e+01 5.21990383154722e-05 1.45844129516652e-06
1.22806666666667e+01 4.65119669459013e-05 1.30730345860092e-06
1.24260000000000e+01 4.14445005051106e-05 1.17174591941706e-06
1.25713333333333e+01 3.69291331642105e-05 1.05017283088823e-06
1.27166666666667e+01 3.29057139078637e-05 9.41150501998375e-07
1.28620000000000e+01 2.93206451201629e-05 8.43391094032505e-07
1.30073333333333e+01 2.61261686090474e-05 7.55737917852315e-07
1.31526666666667e+01 2.32797294736150e-05 6.77152209324733e-07
1.32980000000000e+01 2.07434091323456e-05 6.06701221557918e-07
1.34433333333333e+01 1.84834202079230e-05 5.43547493659612e-07
1.35886666666667e+01 1.64696564822210e-05 4.86939203707666e-07
1.37340000000000e+01 1.46752917839549e-05 4.36201487435855e-07
1.38793333333333e+01 1.30764226356704e-05 3.90728619481399e-07
1.40246666666667e+01 1.16517498603161e-05 3.49976988055647e-07
1.41700000000000e+01 1.03822948084523e-05 3.13458776232504e-07
1.43153333333333e+01 9.25114654231537e-06 2.80736274206757e-07
1.44606666666667e+01 8.24323658201037e-06 2.51416770991772e-07
1.46060000000000e+01 7.34513814625022e-06 2.25147962109047e-07
1.47513333333333e+01 6.54488729309968e-06 2.01613817922678e-07
1.48966666666667e+01 5.83182355968943e-06 1.80530874371630e-07
1.50420000000000e+01 5.19644793207057e-06 1.61644899816505e-07
1.51873333333333e+01 4.63029630797093e-06 1.44727897590115e-07
1.53326666666667e+01 4.12582675421124e-06 1.29575415965724e-07
1.54780000000000e+01 3.67631902532959e-06 1.16004131839656e-07
1.56233333333333e+01 3.27578504250403e-06 1.03849678676939e-07
1.57686666666667e+01 2.91888913159658e-06 9.29646978657759e-08
1.59140000000000e+01 2.60087693606912e-06 8.32170889766720e-08
1.60593333333333e+01 2.31751208366970e-06 7.44884374971037e-08
1.62046666666667e+01 2.06501975727820e-06 6.66726047087444e-08
1.63500000000000e+01 1.84003640325329e-06 5.96744619164268e-08
1.64953333333333e+01 1.63956492513008e-06 5.34087534596511e-08
1.66406666666667e+01 1.46093476171774e-06 4.77990772602612e-08
1.67860000000000e+01 1.30176630748846e-06 4.27769700060175e-08
1.69313333333333e+01 1.15993921354676e-06 3.82810856733331e-08
1.70766666666667e+01 1.03356414410704e-06 3.42564591578885e-08
1.72220000000000e+01 9.20957605141180e-07 3.06538456698308e-08
1.73673333333333e+01 8.20619518325449e-07 2.74291277066819e-08
1.75126666666667e+01 7.31213239616356e-07 2.45427835909693e-08
1.76580000000000e+01 6.51547751381002e-07 2.19594108126181e-08
1.78033333333333e+01 5.80561796680369e-07 1.96472982494725e-08
1.79486666666667e+01 5.17309743027325e-07 1.75780428809883e-08
1.80940000000000e+01 4.60948983927109e-07 1.57262061089169e-08
1.82393333333333e+01 4.10728714389513e-07 1.40690053988647e-08
1.83846666666667e+01 3.65979929974209e-07 1.25860380499825e-08
1.85300000000000e+01 3.26106513809832e-07 1.12590335641133e-08
1.86753333333333e+01 2.90577295627576e-07 1.00716315175487e-08
1.88206666666667e+01 2.58918976395264e-07 9.00918261398691e-09
1.89660000000000e+01 2.30709822686250e-07 8.05857037245680e-09
1.91113333333333e+01 2.05574048699613e-07 7.20805121453105e-09
1.92566666666667e+01 1.83176810658164e-07 6.44711126512729e-09
1.94020000000000e+01 1.63219745788252e-07 5.76633803095983e-09
1.95473333333333e+01 1.45436997778781e-07 5.15730534391932e-09
1.96926666666667e+01 1.29591675473315e-07 4.61247034674149e-09
1.98380000000000e+01 1.15472696849225e-07 4.12508119810262e-09
1.99833333333333e+01 1.02891977157163e-07 3.68909433463540e-09
2.01286666666667e+01 9.16819235559337e-08 3.29910040404038e-09
2.02740000000000e+01 8.16932023343195e-08 2.95025791673959e-09
2.04193333333333e+01 7.27927496097895e-08 2.63823377866082e-09
2.05646666666667e+01 6.48619988607768e-08 2.35915006399260e-09
2.07100000000000e+01 5.77953013113696e-08 2.10953634241963e-09
2.08553333333333e+01 5.14985185643777e-08 1.88628695798710e-09
2.10006666666667e+01 4.58877686357535e-08 1.68662279594738e-09
2.11460000000000e+01 4.08883084299092e-08 1.50805704456561e-09
2.12913333333333e+01 3.64335380727116e-08 1.34836451814535e-09
2.14366666666667e+01 3.24641137700406e-08 1.20555420627918e-09
2.15820000000000e+01 2.89271571966143e-08 1.07784469491540e-09
2.17273333333333e+01 2.57755510935016e-08 9.63642147345957e-10
2.18726666666667e+01 2.29673116433255e-08 8.61520603264442e-10
2.20180000000000e+01 2.04650291393734e-08 7.70204341254652e-10
2.21633333333333e+01 1.82353696434259e-08 6.88552080545864e-10
2.23086666666667e+01 1.62486309608872e-08 6.15542847557413e-10
2.24540000000000e+01 1.44783469329121e-08 5.50263324361746e-10
2.25993333333333e+01 1.29009348753060e-08 4.91896518033302e-10
2.27446666666667e+01 1.14953814448646e-08 4.39711625097062e-10
2.28900000000000e+01 1.02429626892881e-08 3.93054959804659e-10
2.30353333333333e+01 9.12699462151517e-09 3.51341830609409e-10
2.31806666666667e+01 8.13261098002840e-09 3.14049274215135e-10
2.33260000000000e+01 7.24656517351875e-09 2.80709553005329e-10
2.34713333333333e+01 6.45705382023275e-09 2.50904332861608e-10
2.36166666666667e+01 5.75355952037819e-09 2.24259476117920e-10
2.37620000000000e+01 5.12671073858138e-09 2.00440382089002e-10
2.39073333333333e+01 4.56815696364040e-09 1.79147815631358e-10
2.40526666666667e+01 4.07045747495222e-09 1.60114176778091e-10
2.41980000000000e+01 3.62698221401995e-09 1.43100163006197e-10
2.43433333333333e+01 3.23182346398725e-09 1.27891781434497e-10
2.44886666666667e+01 2.87971715539073e-09 1.14297677177068e-10
2.46340000000000e+01 2.56597273605079e-09 1.02146743131982e-10
2.47793333333333e+01 2.28641068717903e-09 9.12859805917918e-11
2.49246666666667e+01 2.03730684968012e-09 8.15785863949724e-11
2.50700000000000e+01 1.81534280943140e-09 7.29022417410543e-11
2.52153333333333e+01 1.61756169193627e-09 6.51475807296499e-11
2.53606666666667e+01 1.44132877494020e-09 5.82168211762372e-11
2.55060000000000e+01 1.28429638766413e-09 5.20225398855904e-11
2.56513333333333e+01 1.14437263694215e-09 4.64865766644042e-11
2.57966666666667e+01 1.01969354189175e-09 4.15390545419093e-11
2.59420000000000e+01 9.08598201286242e-10 3.71175034388339e-11
2.60873333333333e+01 8.09606668302295e-10 3.31660760269339e-11
2.62326666666667e+01 7.21400236680146e-10 2.96348467824861e-11
2.63780000000000e+01 6.42803872462947e-10 2.64791850996214e-11
2.65233333333333e+01 5.72770561091881e-10 2.36591944029004e-11
2.66686666666667e+01 5.10367360488218e-10 2.11392108027087e-11
2.68140000000000e+01 4.54762972090923e-10 1.88873547565043e-11
2.69593333333333e+01 4.05216666929697e-10 1.68751299661312e-11
2.71046666666667e+01 3.61068418622108e-10 1.50770648794912e-11
2.72500000000000e+01 3.21730110294114e-10 1.34703921195184e-11
2.73953333333333e+01 2.86677700132836e-10 1.20347617115432e-11
2.75406666666667e+01 2.55444240794628e-10 1.07519847875452e-11
2.76860000000000e+01 2.27613658592186e-10 9.60580442179901e-12
2.78313333333333e+01 2.02815210875104e-10 8.58169064398115e-12
2.79766666666667e+01 1.80718547482373e-10 7.66665724862868e-12
2.81220000000000e+01 1.61029309722871e-10 6.84909800848846e-12
2.82673333333333e+01 1.43485209150392e-10 6.11864017895568e-12
2.84126666666667e+01 1.27852533697937e-10 5.46601358719207e-12
2.85580000000000e+01 1.13923034101771e-10 4.88293359539628e-12
2.87033333333333e+01 1.01511149760904e-10 4.36199642739875e-12
2.88486666666667e+01 9.04515369379924e-11 3.89658563607026e-12
2.89940000000000e+01 8.05968660071251e-11 3.48078848884350e-12
2.91393333333333e+01 7.18158588386644e-11 3.10932119122366e-12
2.92846666666667e+01 6.39915400798750e-11 2.77746207271232e-12
2.94300000000000e+01 5.70196787803947e-11 2.48099186133065e-12
2.95753333333333e+01 5.08073999051616e-11 2.21614027470380e-12
2.97206666666667e+01 4.52719471710192e-11 1.97953830078667e-12
2.98660000000000e+01 4.03395805481095e-11 1.76817554387780e-12
3.00113333333333e+01 3.59445939499545e-11 1.57936208420755e-12
3.01566666666667e+01 3.20284399796801e-11 1.41069440234161e-12
3.03020000000000e+01 2.85389499485751e-11 1.26002492237646e-12
3.04473333333333e+01 2.54296389234407e-11 1.12543477973947e-12
3.05926666666667e+01 2.26590865123792e-11 1.00520949244792e-12
3.07380000000000e+01 2.01903850536070e-11 8.97817217257786e-13
3.08833333333333e+01 1.79906479588260e-11 8.01889309117750e-13
3.10286666666667e+01 1.60305716388693e-11 7.16202954163700e-13
3.11740000000000e+01 1.42840451154473e-11 6.39665648758668e-13
3.13193333333333e+01 1.27278021899109e-11 5.71301323467440e-13
3.14646666666667e+01 1.13411115195897e-11 5.10237947619071e-13
3.16100000000000e+01 1.01055004309438e-11 4.55696452027515e-13
3.17553333333333e+01 9.00450884016259e-12 4.06980826260403e-13
3.19006666666667e+01 8.02346999204347e-12 3.63469272928252e-13
3.20460000000000e+01 7.14931506687641e-12 3.24606303039757e-13
3.21913333333333e+01 6.37039908719186e-12 2.89895669891063e-13
3.23366666666667e+01 5.67634579750183e-12 2.58894057460933e-13
3.24820000000000e+01 5.05790943009195e-12 2.31205440548348e-13
3.26273333333333e+01 4.50685153965182e-12 2.06476043460494e-13
3.27726666666667e+01 4.01583126063524e-12 1.84389837186728e-13
3.29180000000000e+01 3.57830751109861e-12 1.64664515994480e-13
3.30633333333333e+01 3.18845185716861e-12 1.47047901207608e-13
3.32086666666667e+01 2.84107087362310e-12 1.31314729241006e-13
3.33540000000000e+01 2.53153695631765e-12 1.17263781746816e-13
3.34993333333333e+01 2.25572667660303e-12 1.04715320592943e-13
3.36446666666667e+01 2.00996585391209e-12 9.35087970018286e-14
3.37900000000000e+01 1.79098060782226e-12 8.35008047818350e-14
3.39353333333333e+01 1.59585374579156e-12 7.45632510518319e-14
3.40806666666667e+01 1.42198590376613e-12 6.65817225469775e-14
3.42260000000000e+01 1.26706091712020e-12 5.94540260572713e-14
3.43713333333333e+01 1.12901496638422e-12 5.30888840224465e-14
3.45166666666667e+01 1.00600908546481e-12 4.74047696321778e-14
3.46620000000000e+01 8.96404662720321e-13 4.23288661336616e-14
3.48073333333333e+01 7.98741612557561e-13 3.77961368103685e-14
3.49526666666667e+01 7.11718925874949e-13 3.37484944548941e-14
3.50980000000000e+01 6.34177337876595e-13 3.01340594261903e-14
3.52433333333333e+01 5.65083885180260e-13 2.69064966368625e-14
3.53886666666667e+01 5.03518145876937e-13 2.40244234898526e-14
3.55340000000000e+01 4.48659977577272e-13 2.14508809852243e-14
3.56793333333333e+01 3.99778592063034e-13 1.91528611122820e-14
3.58246666666667e+01 3.56222820568770e-13 1.71008848295550e-14
3.59700000000000e+01 3.17412438851316e-13 1.52686250862406e-14
3.61153333333333e+01 2.82830437857770e-13 1.36325699759857e-14
3.62606666666667e+01 2.52016136723273e-13 1.21717219561875e-14
3.64060000000000e+01 2.24559045541770e-13 1.08673291788460e-14
3.65513333333333e+01 2.00093397112683e-13 9.70264543299733e-15
3.66966666666667e+01 1.78293274606932e-13 8.66271579629110e-15
3.68420000000000e+01 1.58868269678157e-13 7.73418517730358e-15
3.69873333333333e+01 1.41559613849723e-13 6.90512725356416e-15
3.71326666666667e+01 1.26136731494175e-13 6.16489173416808e-15
3.72780000000000e+01 1.12394168089024e-13 5.50396793822322e-15
3.74233333333333e+01 1.00148853297732e-13 4.91386291070960e-15
3.75686666666667e+01 8.92376623128959e-14 4.38699259804109e-15
3.77140000000000e+01 7.95152426977121e-14 3.91658465179585e-15
3.78593333333333e+01 7.08520781039858e-14 3.49659159311839e-15
3.80046666666667e+01 6.31327630004288e-14 3.12161328361979e-15
3.81500000000000e+01 5.62544652340702e-14 2.78682768270336e-15
3.82953333333333e+01 5.01255561731631e-14 2.48792898805682e-15
3.84406666666667e+01 4.46643901326439e-14 2.22107240738099e-15
3.85860000000000e+01 3.97982166866022e-14 1.98282483455315e-15
3.87313333333333e+01 3.54622115385433e-14 1.77012078660078e-15
3.88766666666667e+01 3.15986130039562e-14 1.58022306521196e-15
3.90220000000000e+01 2.81559525069400e-14 1.41068762498755e-15
3.91673333333333e+01 2.50883689521573e-14 1.25933218986193e-15
3.93126666666667e+01 2.23549978138857e-14 1.12420823527190e-15
3.94580000000000e+01 1.99194267375292e-14 1.00357596721695e-15
3.96033333333333e+01 1.77492104798783e-14 8.95881971516502e-16
3.97486666666667e+01 1.58154387091695e-14 7.99739260590263e-16
3.98940000000000e+01 1.40923508609414e-14 7.13909455027636e-16
4.00393333333333e+01 1.25569929739068e-14 6.37286867226235e-16
4.01846666666667e+01 1.11889119223323e-14 5.68884292700448e-16
4.03300000000000e+01 9.96988293913702e-15 5.07820321933261e-16
4.04753333333333e+01 8.88366683833628e-15 4.53308007009602e-16
4.06206666666667e+01 7.91579369424171e-15 4.04644744452737e-16
4.07660000000000e+01 7.05337007295160e-15 3.61203240998591e-16
4.09113333333333e+01 6.28490727505776e-15 3.22423444249909e-16
4.10566666666667e+01 5.60016829560812e-15 2.87805339434799e-16
4.12020000000000e+01 4.99003144667983e-15 2.56902517371125e-16
4.13473333333333e+01 4.44636884463259e-15 2.29316429561402e-16
4.14926666666667e+01 3.96193813918477e-15 2.04691260020952e-16
4.16380000000000e+01 3.53028603083551e-15 1.82709346267490e-16
4.17833333333333e+01 3.14566230451470e-15 1.63087089602843e-16
4.19286666666667e+01 2.80294323137344e-15 1.45571304519928e-16
4.20740000000000e+01 2.49756331050878e-15 1.29935959124960e-16
4.22193333333333e+01 2.22545445054332e-15 1.15979263946022e-16
4.23646666666667e+01 1.98299177884660e-15 1.03521073381492e-16
4.25100000000000e+01 1.76694535103248e-15 9.24005655374978e-17
4.26553333333333e+01 1.57443712388802e-15 8.24741701037545e-17
4.28006666666667e+01 1.40290261713449e-15 7.36137187991002e-17
4.29460000000000e+01 1.25005674947209e-15 6.57047940044899e-17
4.30913333333333e+01 1.11386339831472e-15 5.86452539763672e-17
4.32366666666667e+01 9.92508276714882e-16 5.23439164961576e-17
4.33820000000000e+01 8.84374763479621e-16 4.67193836002091e-17
4.35273333333333e+01 7.88022367664557e-16 4.41014105093337e-17
