Energy (eV)          EEDF (eV^-(3/2))     First Anisotropy
7.14285714285714e-03 6.15084276306595e-01 2.37817921832331e-07
2.14285714285714e-02 6.15083859868705e-01 7.42855679523425e-07
3.57142857142857e-02 6.15082766331213e-01 1.77581594558891e-06
5.00000000000000e-02 6.15081049646494e-01 3.07948286840220e-06
6.42857142857143e-02 6.15078626414047e-01 4.72400146679302e-06
7.85714285714286e-02 6.15075419563753e-01 6.67023088922069e-06
9.28571428571429e-02 6.15071400072621e-01 8.94307703971202e-06
1.07142857142857e-01 6.15066464710804e-01 1.14791932414696e-05
1.21428571428571e-01 6.15060651030933e-01 1.42025044844440e-05
1.35714285714286e-01 6.15053919791852e-01 1.71883091006245e-05
1.50000000000000e-01 6.15046228882398e-01 2.04424190387002e-05
1.64285714285714e-01 6.15037534009899e-01 2.39706182034527e-05
1.78571428571429e-01 6.15027789071570e-01 2.77786967109710e-05
1.92857142857143e-01 6.15016946410257e-01 3.18668392950158e-05
2.07142857142857e-01 6.15004960984804e-01 3.59421496327755e-05
2.21428571428571e-01 6.14992001948672e-01 3.99261092772853e-05
2.35714285714286e-01 6.14978064805211e-01 4.40404826624514e-05
2.50000000000000e-01 6.14963144649677e-01 4.82814814173752e-05
2.64285714285714e-01 6.14947236114251e-01 5.26460056015837e-05
2.78571428571429e-01 6.14930333331751e-01 5.71315148286981e-05
2.92857142857143e-01 6.14912429926849e-01 6.17340848232243e-05
3.07142857142857e-01 6.14893520114624e-01 6.70405941563197e-05
3.21428571428571e-01 6.14873263982761e-01 7.44186927827952e-05
3.35714285714286e-01 6.14850893133664e-01 8.43621317778869e-05
3.50000000000000e-01 6.14825839073059e-01 9.63413050771585e-05
3.64285714285714e-01 6.14797692424071e-01 1.09909089940372e-04
3.78571428571429e-01 6.14766170860237e-01 1.24686769547514e-04
3.92857142857143e-01 6.14731093756672e-01 1.40351662634657e-04
4.07142857142857e-01 6.14692362535295e-01 1.57072283408669e-04
4.21428571428571e-01 6.14649743740543e-01 1.76233483503482e-04
4.35714285714286e-01 6.14602450448707e-01 1.98544254117636e-04
4.50000000000000e-01 6.14549905316873e-01 2.23344292133591e-04
4.64285714285714e-01 6.14491698939349e-01 2.50082524925280e-04
4.78571428571429e-01 6.14427555829922e-01 2.78301122760164e-04
4.92857142857143e-01 6.14357306569222e-01 3.07621476996519e-04
5.07142857142857e-01 6.14280865213930e-01 3.37515247955092e-04
5.21428571428571e-01 6.14198336402558e-01 3.67940821215880e-04
5.35714285714286e-01 6.14109652800602e-01 3.99030693541291e-04
5.50000000000000e-01 6.14014829892387e-01 4.30449143921599e-04
5.64285714285714e-01 6.13913948841345e-01 4.61916440962515e-04
5.78571428571429e-01 6.13807142114868e-01 4.93201769620450e-04
5.92857142857143e-01 6.13694581432865e-01 5.24116695780330e-04
6.07142857142857e-01 6.13576467832102e-01 5.59466534624777e-04
6.21428571428571e-01 6.13450863915657e-01 6.07798315050739e-04
6.35714285714286e-01 6.13314332378236e-01 6.71148176243420e-04
6.50000000000000e-01 6.13164218259522e-01 7.46520870103523e-04
6.64285714285714e-01 6.12998518077519e-01 8.31357730491416e-04
6.78571428571429e-01 6.12815769949658e-01 9.23474952570154e-04
6.92857142857143e-01 6.12614961352102e-01 1.02101014254383e-03
7.07142857142857e-01 6.12395451835297e-01 1.13051698502929e-03
7.21428571428571e-01 6.12153608960412e-01 1.26563345746505e-03
7.35714285714286e-01 6.11883379524675e-01 1.42951004238896e-03
7.50000000000000e-01 6.11580078451614e-01 1.61639264991921e-03
7.64285714285714e-01 6.11240192339812e-01 1.82123385705657e-03
7.78571428571429e-01 6.10861209434004e-01 2.03961042067759e-03
7.92857142857143e-01 6.10441472622214e-01 2.26764921125367e-03
8.07142857142857e-01 6.09980052639673e-01 2.49774013102055e-03
8.21428571428571e-01 6.09478266444693e-01 2.71955645865413e-03
8.35714285714286e-01 6.08939109484085e-01 2.92874852057894e-03
8.50000000000000e-01 6.08365438555284e-01 3.12567439321568e-03
8.64285714285714e-01 6.07759971541511e-01 3.31072428880266e-03
8.78571428571429e-01 6.07125286734846e-01 3.48432127281683e-03
8.92857142857143e-01 6.06463821986639e-01 3.64692080860476e-03
9.07142857142857e-01 6.05777873930460e-01 3.80276844914954e-03
9.21428571428571e-01 6.05068217816730e-01 3.95935584108531e-03
9.35714285714286e-01 6.04334350093353e-01 4.11967592795912e-03
9.50000000000000e-01 6.03575949217377e-01 4.28279426987432e-03
9.64285714285714e-01 6.02792856647244e-01 4.44785585108147e-03
9.78571428571429e-01 6.01985058705741e-01 4.61408373018722e-03
9.92857142857143e-01 6.01152669410010e-01 4.78077633257845e-03
1.00714285714286e+00 6.00295914574735e-01 4.98267768919172e-03
1.02142857142857e+00 5.99402489875149e-01 5.27857368176143e-03
1.03571428571429e+00 5.98452263092519e-01 5.68444202541741e-03
1.05000000000000e+00 5.97428103680663e-01 6.18529243911672e-03
1.06428571428571e+00 5.96315654239488e-01 6.76705992346208e-03
1.07857142857143e+00 5.95103104658186e-01 7.41663456102715e-03
1.09285714285714e+00 5.93780969001936e-01 8.12188817561644e-03
1.10714285714286e+00 5.92341865460353e-01 8.88545077827477e-03
1.12142857142857e+00 5.90774922513416e-01 9.70476223189670e-03
1.13571428571429e+00 5.89073652935082e-01 1.05650092092786e-02
1.15000000000000e+00 5.87232998713592e-01 1.14583543353462e-02
1.16428571428571e+00 5.85249198924319e-01 1.23775890020342e-02
1.17857142857143e+00 5.83119662575588e-01 1.33161233821379e-02
1.19285714285714e+00 5.80842846906133e-01 1.42679723810285e-02
1.20714285714286e+00 5.78418141467925e-01 1.52533890889271e-02
1.22142857142857e+00 5.75835473041083e-01 1.62698191497806e-02
1.23571428571429e+00 5.73094757401373e-01 1.72915746197239e-02
1.25000000000000e+00 5.70196075239620e-01 1.83172741402512e-02
1.26428571428571e+00 5.67139738716771e-01 1.93451384243930e-02
1.27857142857143e+00 5.63926350083763e-01 2.03730324417811e-02
1.29285714285714e+00 5.60556852914269e-01 2.13985053397764e-02
1.30714285714286e+00 5.57032576505544e-01 2.24189228381467e-02
1.32142857142857e+00 5.53356158677944e-01 2.34544462415272e-02
1.33571428571429e+00 5.49522525664316e-01 2.45242590348880e-02
1.35000000000000e+00 5.45527306112812e-01 2.56239143225857e-02
1.36428571428571e+00 5.41366884310345e-01 2.67486502837249e-02
1.37857142857143e+00 5.37038427947426e-01 2.78935448625555e-02
1.39285714285714e+00 5.32539891994142e-01 2.90536625983198e-02
1.40714285714286e+00 5.27870000461254e-01 3.02260467805854e-02
1.42142857142857e+00 5.23027624396743e-01 3.14098422610166e-02
1.43571428571429e+00 5.18011734243886e-01 3.26024929156683e-02
1.45000000000000e+00 5.12821977370947e-01 3.37996208461199e-02
1.46428571428571e+00 5.07458661615408e-01 3.49969370962989e-02
1.47857142857143e+00 5.01922730891311e-01 3.61902909337732e-02
1.49285714285714e+00 4.96215734499083e-01 3.73757097397502e-02
1.50714285714286e+00 4.90339791574770e-01 3.85793582129656e-02
1.52142857142857e+00 4.84285150226551e-01 3.97899319686508e-02
1.53571428571429e+00 4.78057115968063e-01 4.09706842660724e-02
1.55000000000000e+00 4.71660279312427e-01 4.21253702636486e-02
1.56428571428571e+00 4.65098701302974e-01 4.32566350276022e-02
1.57857142857143e+00 4.58376080570086e-01 4.43661205292024e-02
1.59285714285714e+00 4.51495902582251e-01 4.54545699041820e-02
1.60714285714286e+00 4.44461571844612e-01 4.66510884953281e-02
1.62142857142857e+00 4.37229434400210e-01 4.80476538315275e-02
1.63571428571429e+00 4.29774256656833e-01 4.95987686900751e-02
1.65000000000000e+00 4.22073742641952e-01 5.12850753839036e-02
1.66428571428571e+00 4.14108577992640e-01 5.30870692375802e-02
1.67857142857143e+00 4.05862413059990e-01 5.49855005040628e-02
1.69285714285714e+00 3.97321786968457e-01 5.69617620019917e-02
1.70714285714286e+00 3.88475995212380e-01 5.90118714566824e-02
1.72142857142857e+00 3.79303112987495e-01 6.09768521580586e-02
1.73571428571429e+00 3.69839935220580e-01 6.27011107573718e-02
1.75000000000000e+00 3.60121456488656e-01 6.41971205943970e-02
1.76428571428571e+00 3.50180821603981e-01 6.54776247225658e-02
1.77857142857143e+00 3.40049293929568e-01 6.65555182447813e-02
1.79285714285714e+00 3.29756239674967e-01 6.74437427482934e-02
1.80714285714286e+00 3.19329126482159e-01 6.87560811844465e-02
1.82142857142857e+00 3.08530138960233e-01 7.04193704439023e-02
1.83571428571429e+00 2.97403097350295e-01 7.17728872171718e-02
1.85000000000000e+00 2.85991921756954e-01 7.28251746462686e-02
1.86428571428571e+00 2.74340170009997e-01 7.35873643619943e-02
1.87857142857143e+00 2.62490600575668e-01 7.40729080918865e-02
1.89285714285714e+00 2.50484760664964e-01 7.42973212674831e-02
1.90714285714286e+00 2.38362599528616e-01 7.41313255342776e-02
1.92142857142857e+00 2.26222219708298e-01 7.34503211466681e-02
1.93571428571429e+00 2.14147561541109e-01 7.22822131626186e-02
1.95000000000000e+00 2.02219049805741e-01 7.06608201674572e-02
1.96428571428571e+00 1.90512857739299e-01 6.86229739011509e-02
1.97857142857143e+00 1.79100325508854e-01 6.62074672684097e-02
1.99285714285714e+00 1.68047541169566e-01 6.34540080190533e-02
2.00714285714286e+00 1.57415089447758e-01 6.04351957774728e-02
2.02142857142857e+00 1.47256477715223e-01 5.73328970763629e-02
2.03571428571429e+00 1.37569752439458e-01 5.42842388950439e-02
2.05000000000000e+00 1.28350916559988e-01 5.12995148985866e-02
2.06428571428571e+00 1.19594145298246e-01 4.83875536865530e-02
2.07857142857143e+00 1.11291994369121e-01 4.55558062619707e-02
2.09285714285714e+00 1.03435599881394e-01 4.28104344193529e-02
2.10714285714286e+00 9.60148693604734e-02 4.00641997773223e-02
2.12142857142857e+00 8.90844707679870e-02 3.73682797819498e-02
2.13571428571429e+00 8.26092932715064e-02 3.48692058788582e-02
2.15000000000000e+00 7.65563895354811e-02 3.25546025527454e-02
2.16428571428571e+00 7.08948350804444e-02 3.04129050925188e-02
2.17857142857143e+00 6.55955952032160e-02 2.84333152917798e-02
2.19285714285714e+00 6.06313990978850e-02 2.66057592022147e-02
2.20714285714286e+00 5.59766208340505e-02 2.48764585266530e-02
2.22142857142857e+00 5.16303481348838e-02 2.31998005758552e-02
2.23571428571429e+00 4.75819264485781e-02 2.15829106251720e-02
2.25000000000000e+00 4.38202949346539e-02 2.00277126503554e-02
2.26428571428571e+00 4.03341310379177e-02 1.85353479611812e-02
2.27857142857143e+00 3.71119861073956e-02 1.71062248385915e-02
2.29285714285714e+00 3.41424121120038e-02 1.57400674586218e-02
2.30714285714286e+00 3.14140797152653e-02 1.44455305829570e-02
2.32142857142857e+00 2.89141930878331e-02 1.32473701072294e-02
2.33571428571429e+00 2.66220312802878e-02 1.21570977810685e-02
2.35000000000000e+00 2.45187852205822e-02 1.11648601337583e-02
2.36428571428571e+00 2.25873735526095e-02 1.02617438956313e-02
2.37857142857143e+00 2.08122764566807e-02 9.43968526538190e-03
2.39285714285714e+00 1.91793856553722e-02 8.69138813107345e-03
2.40714285714286e+00 1.76758689894258e-02 8.00354679140601e-03
2.42142857142857e+00 1.62934461439101e-02 7.36358815279287e-03
2.43571428571429e+00 1.50236229975612e-02 6.76763791353359e-03
2.45000000000000e+00 1.38585163361570e-02 6.21256054278628e-03
2.46428571428571e+00 1.27908202335129e-02 5.69538479150023e-03
2.47857142857143e+00 1.18137744114014e-02 5.21329410901369e-03
2.49285714285714e+00 1.09211345530686e-02 4.76361709554598e-03
2.50714285714286e+00 1.01071445444297e-02 4.34653306032087e-03
2.52142857142857e+00 9.36589377717888e-03 3.96621995867662e-03
2.53571428571429e+00 8.69008145063465e-03 3.62350689404453e-03
2.55000000000000e+00 8.07317599016028e-03 3.31449575469944e-03
2.56428571428571e+00 7.50932920214196e-03 3.03571740171013e-03
2.57857142857143e+00 6.99330040474070e-03 2.78408251231569e-03
2.59285714285714e+00 6.52038933274526e-03 2.55683826382063e-03
2.60714285714286e+00 6.08637676443621e-03 2.35040848631315e-03
2.62142857142857e+00 5.68815705318881e-03 2.16212617590431e-03
2.63571428571429e+00 5.32241924527715e-03 1.99091733627367e-03
2.65000000000000e+00 4.98616621235859e-03 1.83520412187646e-03
2.66428571428571e+00 4.67668224953302e-03 1.69356902267812e-03
2.67857142857143e+00 4.39150411364719e-03 1.56473817572629e-03
2.69285714285714e+00 4.12839512391847e-03 1.44756647493210e-03
2.70714285714286e+00 3.88532199036363e-03 1.33855307575230e-03
2.72142857142857e+00 3.66206130310947e-03 1.23631438867454e-03
2.73571428571429e+00 3.45690525652923e-03 1.14241359670943e-03
2.75000000000000e+00 3.26830346870314e-03 1.05611657194390e-03
2.76428571428571e+00 3.09484731215017e-03 9.76759819559141e-04
2.77857142857143e+00 2.93525587122653e-03 9.03743414142591e-04
2.79285714285714e+00 2.78836335024595e-03 8.36524675697014e-04
2.80714285714286e+00 2.65310777624125e-03 7.73862874593156e-04
2.82142857142857e+00 2.52918294497889e-03 7.16278361037443e-04
2.83571428571429e+00 2.41528742677960e-03 6.65162444843975e-04
2.85000000000000e+00 2.31025794434441e-03 6.19891290634417e-04
2.86428571428571e+00 2.21305325707892e-03 5.79911173472017e-04
2.87857142857143e+00 2.12274026784707e-03 5.44728796674718e-04
2.89285714285714e+00 2.03848204371872e-03 5.13902877899056e-04
2.90714285714286e+00 1.95952748514391e-03 4.86071914263015e-04
2.92142857142857e+00 1.88556560586448e-03 4.59517244097693e-04
2.93571428571429e+00 1.81639763241774e-03 4.33682996416363e-04
2.95000000000000e+00 1.75183327217396e-03 4.08537554000675e-04
2.96428571428571e+00 1.69169038949023e-03 3.84050136269617e-04
2.97857142857143e+00 1.63579466636342e-03 3.60190943454558e-04
2.99285714285714e+00 1.58397924978907e-03 3.36931294494698e-04
3.00714285714286e+00 1.53608438838237e-03 3.15632706521382e-04
3.02142857142857e+00 1.49129266568366e-03 2.96669479948002e-04
3.03571428571429e+00 1.44940075200840e-03 2.78863700936577e-04
3.05000000000000e+00 1.41021915841627e-03 2.62141544643529e-04
3.06428571428571e+00 1.37357114506804e-03 2.46434885602180e-04
3.07857142857143e+00 1.33929172069998e-03 2.31680841741670e-04
3.09285714285714e+00 1.30722672541451e-03 2.17821355762437e-04
3.10714285714286e+00 1.27723198968800e-03 2.04592679930868e-04
3.12142857142857e+00 1.24928223215877e-03 1.92019753561578e-04
3.13571428571429e+00 1.22321986429582e-03 1.80361077068333e-04
3.15000000000000e+00 1.19889795914797e-03 1.69562326611132e-04
3.16428571428571e+00 1.17617939458464e-03 1.59573520801272e-04
3.17857142857143e+00 1.15493607940000e-03 1.50348601811904e-04
3.19285714285714e+00 1.13504825460275e-03 1.41845051818194e-04
3.20714285714286e+00 1.11640386294092e-03 1.34188568276761e-04
3.22142857142857e+00 1.09882060499629e-03 1.27300488662600e-04
3.23571428571429e+00 1.08221748881485e-03 1.20927380260558e-04
3.25000000000000e+00 1.06651799414474e-03 1.15045179384913e-04
3.26428571428571e+00 1.05164977312702e-03 1.09631438169406e-04
3.27857142857143e+00 1.03754437779848e-03 1.04665175137866e-04
3.29285714285714e+00 1.02413701222681e-03 1.00126736661227e-04
3.30714285714286e+00 1.01136630727099e-03 9.60823537529659e-05
3.32142857142857e+00 9.99136407919312e-04 9.24878228219890e-05
3.33571428571429e+00 9.87401262064211e-04 8.92113418670092e-05
3.35000000000000e+00 9.76116860994708e-04 8.62415465027255e-05
3.36428571428571e+00 9.65241129102869e-04 8.35676897294880e-05
3.37857142857143e+00 9.54733822656077e-04 8.11795875498917e-05
3.39285714285714e+00 9.44556437007846e-04 7.90675678861704e-05
3.40714285714286e+00 9.34672121659859e-04 7.71655076512954e-05
3.42142857142857e+00 9.25059982411505e-04 7.53541949021369e-05
3.43571428571429e+00 9.15713849567198e-04 7.35752425123992e-05
3.45000000000000e+00 9.06627760456376e-04 7.18274794965732e-05
3.46428571428571e+00 8.97795953741372e-04 7.01097592258743e-05
3.47857142857143e+00 8.89212863506949e-04 6.84209617523686e-05
3.49285714285714e+00 8.80873113156203e-04 6.67599959913861e-05
3.50714285714286e+00 8.72771509136352e-04 6.51719261858321e-05
3.52142857142857e+00 8.64886403817223e-04 6.36695715696550e-05
3.53571428571429e+00 8.57210083358926e-04 6.22178766913158e-05
3.55000000000000e+00 8.49735125873922e-04 6.08150766378524e-05
3.56428571428571e+00 8.42454390569623e-04 5.94594664298056e-05
3.57857142857143e+00 8.35361007152815e-04 5.81494001713603e-05
3.59285714285714e+00 8.28448365487009e-04 5.68832902432879e-05
3.60714285714286e+00 8.21710105494250e-04 5.56313086741768e-05
3.62142857142857e+00 8.15146873258383e-04 5.43375483771819e-05
3.63571428571429e+00 8.08765672265583e-04 5.29760581143559e-05
3.65000000000000e+00 8.02573206082990e-04 5.15486151228598e-05
3.66428571428571e+00 7.96575888161476e-04 5.00569444654861e-05
3.67857142857143e+00 7.90779851147306e-04 4.85027219953254e-05
3.69285714285714e+00 7.85190955720629e-04 4.68875772428918e-05
3.70714285714286e+00 7.79814798978635e-04 4.52808719910671e-05
3.72142857142857e+00 7.74637234972189e-04 4.37566115347517e-05
3.73571428571429e+00 7.69647086605783e-04 4.23178828788731e-05
3.75000000000000e+00 7.64833502491038e-04 4.09627329570459e-05
3.76428571428571e+00 7.60185944451075e-04 3.96892860877321e-05
3.77857142857143e+00 7.55694175788629e-04 3.84957388613916e-05
3.79285714285714e+00 7.51348250280783e-04 3.73803552395471e-05
3.80714285714286e+00 7.47138501864846e-04 3.63417708696751e-05
3.82142857142857e+00 7.43055464474395e-04 3.53789681913946e-05
3.83571428571429e+00 7.39089868701340e-04 3.44906619435333e-05
3.85000000000000e+00 7.35232702235031e-04 3.36753158557648e-05
3.86428571428571e+00 7.31475201869593e-04 3.29314400564682e-05
3.87857142857143e+00 7.27808846061535e-04 3.22575871652557e-05
3.89285714285714e+00 7.24225348009507e-04 3.16523485516878e-05
3.90714285714286e+00 7.20716649229332e-04 3.11232354109785e-05
3.92142857142857e+00 7.17271658572795e-04 3.06638077825147e-05
3.93571428571429e+00 7.13883966554017e-04 3.02586722076943e-05
3.95000000000000e+00 7.10547322468308e-04 2.99068608948584e-05
3.96428571428571e+00 7.07255630806153e-04 2.96074246037212e-05
3.97857142857143e+00 7.04002947933766e-04 2.93594306227617e-05
3.99285714285714e+00 7.00783479030652e-04 2.91619607204000e-05
4.00714285714286e+00 6.97591575299890e-04 2.90130638640298e-05
4.02142857142857e+00 6.94420776336938e-04 2.88881912478094e-05
4.03571428571429e+00 6.91270903818160e-04 2.87641799691794e-05
4.05000000000000e+00 6.88141781360514e-04 2.86410222986428e-05
4.06428571428571e+00 6.85033234500558e-04 2.85187105462013e-05
4.07857142857143e+00 6.81945090673780e-04 2.83972370603647e-05
4.09285714285714e+00 6.78877179194294e-04 2.82765942269849e-05
4.10714285714286e+00 6.75829331234883e-04 2.81568426287006e-05
4.12142857142857e+00 6.72801365102848e-04 2.80381067211471e-05
4.13571428571429e+00 6.69793087313915e-04 2.79204406141681e-05
4.15000000000000e+00 6.66804306855050e-04 2.78038324325100e-05
4.16428571428571e+00 6.63834835155376e-04 2.76882703797705e-05
4.17857142857143e+00 6.60884486057575e-04 2.75737427365686e-05
4.19285714285714e+00 6.57953075789793e-04 2.74602378585703e-05
4.20714285714286e+00 6.55040422938059e-04 2.73531997383661e-05
4.22142857142857e+00 6.52144631817293e-04 2.72523850094511e-05
4.23571428571429e+00 6.49265588935562e-04 2.71520537936744e-05
4.25000000000000e+00 6.46403181767502e-04 2.70522031256803e-05
4.26428571428571e+00 6.43557298746633e-04 2.69528300354836e-05
4.27857142857143e+00 6.40727829257761e-04 2.68539315484802e-05
4.29285714285714e+00 6.37914663629483e-04 2.67555046854315e-05
4.30714285714286e+00 6.35117693126775e-04 2.66574189784056e-05
4.32142857142857e+00 6.32336836621033e-04 2.65594246664532e-05
4.33571428571429e+00 6.29572038586585e-04 2.64614032365746e-05
4.35000000000000e+00 6.26823243307481e-04 2.63633591633323e-05
4.36428571428571e+00 6.24090394886266e-04 2.62652968440563e-05
4.37857142857143e+00 6.21373437252591e-04 2.61672205997744e-05
4.39285714285714e+00 6.18672314171672e-04 2.60691346759516e-05
4.40714285714286e+00 6.15986969252621e-04 2.59766703640146e-05
4.42142857142857e+00 6.13315655567339e-04 2.58899639907155e-05
4.43571428571429e+00 6.10658301820307e-04 2.58034826343049e-05
4.45000000000000e+00 6.08014836998955e-04 2.57172273129589e-05
4.46428571428571e+00 6.05385190374004e-04 2.56311990147644e-05
4.47857142857143e+00 6.02769291499807e-04 2.55453986976861e-05
4.49285714285714e+00 6.00167070214719e-04 2.54598272891762e-05
4.50714285714286e+00 5.97578456641548e-04 2.53856319817277e-05
