Energy (eV)          EEDF (eV^-(3/2))     First Anisotropy
3.46031746031746e-03 7.94392060161683e-01 3.72533642881945e-04
1.03809523809524e-02 7.90045168191633e-01 6.15545205133461e-04
1.73015873015873e-02 7.85722062306719e-01 8.13613376458711e-04
2.42222222222222e-02 7.81422612321275e-01 9.64712196801399e-04
3.11428571428571e-02 7.77146688817577e-01 1.09124884535165e-03
3.80634920634921e-02 7.72894163055801e-01 1.20167792074005e-03
4.49841269841270e-02 7.68664907002309e-01 1.30036623159039e-03
5.19047619047619e-02 7.64458793325405e-01 1.38994579378720e-03
5.88253968253968e-02 7.60275695383071e-01 1.47215895077684e-03
6.57460317460317e-02 7.56115487241909e-01 1.54823486997757e-03
7.26666666666667e-02 7.51978043649077e-01 1.61908176207026e-03
7.95873015873016e-02 7.47863240037205e-01 1.68539480089878e-03
8.65079365079365e-02 7.43770952520761e-01 1.74772114410350e-03
9.34285714285714e-02 7.39701057887804e-01 1.80650130179584e-03
1.00349206349206e-01 7.35653433609737e-01 1.86209663522546e-03
1.07269841269841e-01 7.31627957815649e-01 1.91480829643447e-03
1.14190476190476e-01 7.27624509314345e-01 1.96489067085788e-03
1.21111111111111e-01 7.23642967573399e-01 2.01256116567181e-03
1.28031746031746e-01 7.19683212719876e-01 2.05800748490412e-03
1.34952380952381e-01 7.15745125566063e-01 2.10139316206643e-03
1.41873015873016e-01 7.11828587516296e-01 2.14286180883168e-03
1.48793650793651e-01 7.07933480654744e-01 2.18254043785306e-03
1.55714285714286e-01 7.04059687710768e-01 2.22054211489618e-03
1.62634920634921e-01 7.00207092055401e-01 2.25696807320999e-03
1.69555555555556e-01 6.96375577697839e-01 2.29190943116479e-03
1.76476190476190e-01 6.92565029281957e-01 2.32544859857740e-03
1.83396825396825e-01 6.88775332082757e-01 2.35766043832404e-03
1.90317460317460e-01 6.85006372003071e-01 2.38861323365608e-03
1.97238095238095e-01 6.81258035570070e-01 2.41836949974772e-03
2.04158730158730e-01 6.77530209931830e-01 2.44698666919356e-03
2.11079365079365e-01 6.73822782853939e-01 2.47451767475135e-03
2.18000000000000e-01 6.70135642716118e-01 2.50101144495357e-03
2.24920634920635e-01 6.66468678525077e-01 2.52651334075676e-03
2.31841269841270e-01 6.62821779861918e-01 2.55106552032483e-03
2.38761904761905e-01 6.59194836928709e-01 2.57470725509589e-03
2.45682539682540e-01 6.55587740528323e-01 2.59747521861131e-03
2.52603174603175e-01 6.52000382061148e-01 2.61940372942570e-03
2.59523809523810e-01 6.48432653521821e-01 2.64052496720203e-03
2.66444444444444e-01 6.44884447495964e-01 2.66086916347451e-03
2.73365079365079e-01 6.41355657156944e-01 2.68046477062881e-03
2.80285714285714e-01 6.37846176262708e-01 2.69933861211677e-03
2.87206349206349e-01 6.34355899152552e-01 2.71751601640785e-03
2.94126984126984e-01 6.30884720743942e-01 2.73502093677448e-03
3.01047619047619e-01 6.27432536529346e-01 2.75187605873725e-03
3.07968253968254e-01 6.23999242573093e-01 2.76810289457334e-03
3.14888888888889e-01 6.20584735518981e-01 2.78372187686921e-03
3.21809523809524e-01 6.17188912554622e-01 2.79875243297168e-03
3.28730158730159e-01 6.13811671441230e-01 2.81321305203637e-03
3.35650793650794e-01 6.10452910499461e-01 2.82712135636660e-03
3.42571428571429e-01 6.07112528606355e-01 2.84049415820363e-03
3.49492063492064e-01 6.03790425192293e-01 2.85334751351858e-03
3.56412698412698e-01 6.00486500237953e-01 2.86569677115978e-03
3.63333333333333e-01 5.97200654271322e-01 2.87755661784733e-03
3.70253968253968e-01 5.93932788364700e-01 2.88894111945166e-03
3.77174603174603e-01 5.90682804131715e-01 2.89986375891459e-03
3.84095238095238e-01 5.87450603724361e-01 2.91033747114776e-03
3.91015873015873e-01 5.84236089830053e-01 2.92037467344107e-03
3.97936507936508e-01 5.81039165676617e-01 2.92998730049314e-03
4.04857142857143e-01 5.77859735005405e-01 2.93918682830512e-03
4.11777777777778e-01 5.74697702092583e-01 2.94798429603048e-03
4.18698412698413e-01 5.71552971738113e-01 2.95639033497839e-03
4.25619047619048e-01 5.68425449262888e-01 2.96441518870151e-03
4.32539682539683e-01 5.65315040505882e-01 2.97206873336226e-03
4.39460317460317e-01 5.62221651821314e-01 2.97936049669699e-03
4.46380952380952e-01 5.59145190075815e-01 2.98629967568406e-03
4.53301587301587e-01 5.56085562645653e-01 2.99289515303860e-03
4.60222222222222e-01 5.53042677413930e-01 2.99915551263071e-03
4.67142857142857e-01 5.50016442767808e-01 3.00508905389710e-03
4.74063492063492e-01 5.47006767595750e-01 3.01070380533885e-03
4.80984126984127e-01 5.44013561284778e-01 3.01600753569159e-03
4.87904761904762e-01 5.41036733723756e-01 3.02100777027235e-03
4.94825396825397e-01 5.38076195282505e-01 3.02571179913010e-03
5.01746031746032e-01 5.35131856827419e-01 3.03012668451424e-03
5.08666666666667e-01 5.32203629712629e-01 3.03425927528899e-03
5.15587301587302e-01 5.29291425777330e-01 3.03811621470053e-03
5.22507936507936e-01 5.26395157343134e-01 3.04170394913746e-03
5.29428571428571e-01 5.23514737211420e-01 3.04502873639592e-03
5.36349206349206e-01 5.20650078660714e-01 3.04809665348095e-03
5.43269841269841e-01 5.17801095444085e-01 3.05091360398491e-03
5.50190476190476e-01 5.14967701786540e-01 3.05348532506611e-03
5.57111111111111e-01 5.12149812382448e-01 3.05581739405065e-03
5.64031746031746e-01 5.09347342392963e-01 3.05791523340607e-03
5.70952380952381e-01 5.06560207448276e-01 3.05978412053810e-03
5.77873015873016e-01 5.03788323630572e-01 3.06142919082478e-03
5.84793650793651e-01 5.01031607486107e-01 3.06285544035122e-03
5.91714285714286e-01 4.98289976017795e-01 3.06406773491203e-03
5.98634920634921e-01 4.95563346682707e-01 3.06507081351681e-03
6.05555555555556e-01 4.92851637389587e-01 3.06586929297766e-03
6.12476190476191e-01 4.90154766496378e-01 3.06646767227610e-03
6.19396825396825e-01 4.87472652807761e-01 3.06687033671925e-03
6.26317460317460e-01 4.84805215572722e-01 3.06708156190161e-03
6.33238095238095e-01 4.82152374482112e-01 3.06710551748669e-03
6.40158730158730e-01 4.79514049666232e-01 3.06694627081141e-03
6.47079365079365e-01 4.76890161692428e-01 3.06660779032696e-03
6.54000000000000e-01 4.74280631562698e-01 3.06609394777667e-03
6.60920634920635e-01 4.71685380715174e-01 3.06540852468296e-03
6.67841269841270e-01 4.69104331010103e-01 3.06455521311013e-03
6.74761904761905e-01 4.66537404739224e-01 3.06353761628285e-03
6.81682539682540e-01 4.63984524619497e-01 3.06235925473578e-03
6.88603174603175e-01 4.61445613790769e-01 3.06102356780869e-03
6.95523809523810e-01 4.58920595813466e-01 3.05953391617089e-03
7.02444444444444e-01 4.56409394666285e-01 3.05789358423996e-03
7.09365079365079e-01 4.53911934743910e-01 3.05610578250015e-03
7.16285714285714e-01 4.51428140854736e-01 3.05417364972887e-03
7.23206349206349e-01 4.48957938218607e-01 3.05210025513486e-03
7.30126984126984e-01 4.46501252464560e-01 3.04988860040901e-03
7.37047619047619e-01 4.44058009628586e-01 3.04754162169490e-03
7.43968253968254e-01 4.41628136151408e-01 3.04506219051418e-03
7.50888888888889e-01 4.39211558879422e-01 3.04245311851038e-03
7.57809523809524e-01 4.36808205052955e-01 3.03971715724467e-03
7.64730158730159e-01 4.34418002313676e-01 3.03685699791055e-03
7.71650793650794e-01 4.32040878699197e-01 3.03387527592648e-03
7.78571428571429e-01 4.29676762640906e-01 3.03077457150456e-03
7.85492063492064e-01 4.27325582961813e-01 3.02755741115590e-03
7.92412698412698e-01 4.24987268874404e-01 3.02422626914223e-03
7.99333333333333e-01 4.22661749978513e-01 3.02078356887410e-03
8.06253968253968e-01 4.20348956259202e-01 3.01723168426094e-03
8.13174603174603e-01 4.18048818084655e-01 3.01357294101403e-03
8.20095238095238e-01 4.15761266204076e-01 3.00980961790200e-03
8.27015873015873e-01 4.13486231745611e-01 3.00594394710357e-03
8.33936507936508e-01 4.11223646216929e-01 3.00197811797267e-03
8.40857142857143e-01 4.08973441495132e-01 2.99791427643398e-03
8.47777777777778e-01 4.06735549832783e-01 2.99375452432771e-03
8.54698412698413e-01 4.04509903853159e-01 2.98950092310162e-03
8.61619047619048e-01 4.02296436548220e-01 2.98515549395081e-03
8.68539682539683e-01 4.00095081276589e-01 2.98072021880667e-03
8.75460317460317e-01 3.97905771761553e-01 2.97619704129427e-03
8.82380952380952e-01 3.95728442089059e-01 2.97158786765732e-03
8.89301587301587e-01 3.93563026705735e-01 2.96689456765446e-03
8.96222222222222e-01 3.91409460416918e-01 2.96211897542955e-03
9.03142857142857e-01 3.89267678384685e-01 2.95726289035166e-03
9.10063492063492e-01 3.87137616125907e-01 2.95232807783011e-03
9.16984126984127e-01 3.85019209510303e-01 2.94731626934304e-03
9.23904761904762e-01 3.82912394760750e-01 2.94222916549714e-03
9.30825396825397e-01 3.80817108444609e-01 2.93706843523569e-03
9.37746031746032e-01 3.78733287478607e-01 2.93183571501042e-03
9.44666666666667e-01 3.76660869124661e-01 2.92653261181096e-03
9.51587301587302e-01 3.74599790987989e-01 2.92116070306262e-03
9.58507936507937e-01 3.72549991015233e-01 2.91572153728465e-03
9.65428571428571e-01 3.70511407492586e-01 2.91021663472966e-03
9.72349206349206e-01 3.68483979043938e-01 2.90464748800353e-03
9.79269841269841e-01 3.66467644629029e-01 2.89901556266843e-03
9.86190476190476e-01 3.64462343541609e-01 2.89332229782972e-03
9.93111111111111e-01 3.62468015407610e-01 2.88756910670449e-03
1.00003174603175e+00 3.60484600183331e-01 2.88175737445726e-03
1.00695238095238e+00 3.58512038161278e-01 2.87588847030431e-03
1.01387301587302e+00 3.56550269935816e-01 2.86996372903923e-03
1.02079365079365e+00 3.54599236462516e-01 2.86398446621828e-03
1.02771428571429e+00 3.52658878982404e-01 2.85795197381307e-03
1.03463492063492e+00 3.50729139095214e-01 2.85186752062380e-03
1.04155555555556e+00 3.48809958683511e-01 2.84573235351184e-03
1.04847619047619e+00 3.46901279984172e-01 2.83954769710043e-03
1.05539682539683e+00 3.45003045514289e-01 2.83331475496760e-03
1.06231746031746e+00 3.43115198140935e-01 2.82703470933797e-03
1.06923809523810e+00 3.41237681008797e-01 2.82070872223814e-03
1.07615873015873e+00 3.39370437608277e-01 2.81433793518118e-03
1.08307936507937e+00 3.37513411704795e-01 2.80792347028544e-03
1.09000000000000e+00 3.35666547405287e-01 2.80146642995325e-03
1.09692063492063e+00 3.33829789089128e-01 2.79496789795608e-03
1.10384126984127e+00 3.32003081473063e-01 2.78842893910679e-03
1.11076190476190e+00 3.30186369543715e-01 2.78185060031282e-03
1.11768253968254e+00 3.28379598620990e-01 2.77523391024363e-03
1.12460317460317e+00 3.26582714292122e-01 2.76857988035311e-03
1.13152380952381e+00 3.24795662473607e-01 2.76188950454313e-03
1.13844444444444e+00 3.23018389346725e-01 2.75516376015631e-03
1.14536507936508e+00 3.21250841418055e-01 2.74840360763677e-03
1.15228571428571e+00 3.19492965456438e-01 2.74160999149430e-03
1.15920634920635e+00 3.17744708552100e-01 2.73478383996225e-03
1.16612698412698e+00 3.16006018055024e-01 2.72792606593567e-03
1.17304761904762e+00 3.14276841632719e-01 2.72103756662679e-03
1.17996825396825e+00 3.12557127209961e-01 2.71411922447673e-03
1.18688888888889e+00 3.10846823025249e-01 2.70717190681077e-03
1.19380952380952e+00 3.09145877571872e-01 2.70019646672490e-03
1.20073015873016e+00 3.07454239653093e-01 2.69319374273919e-03
1.20765079365079e+00 3.05771858324504e-01 2.68616455966186e-03
1.21457142857143e+00 3.04098682947974e-01 2.67910972824224e-03
1.22149206349206e+00 3.02434663135254e-01 2.67203004601157e-03
1.22841269841270e+00 3.00779748800728e-01 2.66492629693523e-03
1.23533333333333e+00 2.99133890106233e-01 2.65779925223263e-03
1.24225396825397e+00 2.97497037512640e-01 2.65064967002980e-03
1.24917460317460e+00 2.95869141725865e-01 2.64347829615786e-03
1.25609523809524e+00 2.94250153747308e-01 2.63628586380655e-03
1.26301587301587e+00 2.92640024821018e-01 2.62907309430214e-03
1.26993650793651e+00 2.91038706483031e-01 2.62184069676186e-03
1.27685714285714e+00 2.89446150509652e-01 2.61458936885295e-03
1.28377777777778e+00 2.87862308965721e-01 2.60731979644777e-03
1.29069841269841e+00 2.86287134153987e-01 2.60003265436430e-03
1.29761904761905e+00 2.84720578662324e-01 2.59272860602308e-03
1.30453968253968e+00 2.83162595314178e-01 2.58540830416872e-03
1.31146031746032e+00 2.81613137214754e-01 2.57807238587396e-03
1.31838095238095e+00 2.80072157713952e-01 2.57072149189121e-03
1.32530158730159e+00 2.78539610405709e-01 2.56335623842882e-03
1.33222222222222e+00 2.77015449160578e-01 2.55597723603371e-03
1.33914285714286e+00 2.75499628079085e-01 2.54858508545515e-03
1.34606349206349e+00 2.73992101535130e-01 2.54118037731382e-03
1.35298412698413e+00 2.72492824130296e-01 2.53376369276021e-03
1.35990476190476e+00 2.71001750736337e-01 2.52633560314539e-03
1.36682539682540e+00 2.69518836450422e-01 2.51889667066503e-03
1.37374603174603e+00 2.68044036636728e-01 2.51144744803201e-03
1.38066666666667e+00 2.66577306882600e-01 2.50398847910593e-03
1.38758730158730e+00 2.65118603039266e-01 2.49652029856769e-03
1.39450793650794e+00 2.63667881178890e-01 2.48904343253511e-03
1.40142857142857e+00 2.62225097634445e-01 2.48155839824004e-03
1.40834920634921e+00 2.60790208957619e-01 2.47406570462997e-03
1.41526984126984e+00 2.59363171957869e-01 2.46656585204815e-03
1.42219047619048e+00 2.57943943661175e-01 2.45905933282162e-03
1.42911111111111e+00 2.56532481348282e-01 2.45154663094384e-03
1.43603174603175e+00 2.55128742514282e-01 2.44402822265044e-03
1.44295238095238e+00 2.53732684906063e-01 2.43650457610364e-03
1.44987301587302e+00 2.52344266482709e-01 2.42897615195613e-03
1.45679365079365e+00 2.50963445452169e-01 2.42144340303866e-03
1.46371428571429e+00 2.49590180232448e-01 2.41390677491102e-03
1.47063492063492e+00 2.48224429487530e-01 2.40636670555305e-03
1.47755555555556e+00 2.46866152089328e-01 2.39882362590409e-03
1.48447619047619e+00 2.45515307152885e-01 2.39127795955600e-03
1.49139682539683e+00 2.44171853999068e-01 2.38373012328186e-03
1.49831746031746e+00 2.42835752189059e-01 2.37618052673240e-03
1.50523809523810e+00 2.41506961487776e-01 2.36862957295298e-03
1.51215873015873e+00 2.40185441897670e-01 2.36107765808294e-03
1.51907936507937e+00 2.38871153622864e-01 2.35352517186235e-03
1.52600000000000e+00 2.37564057102266e-01 2.34597249733429e-03
1.53292063492064e+00 2.36264112974407e-01 2.33842001134093e-03
1.53984126984127e+00 2.34971282109890e-01 2.33086808422898e-03
1.54676190476190e+00 2.33685525576909e-01 2.32331708033616e-03
1.55368253968254e+00 2.32406804673055e-01 2.31576735769924e-03
1.56060317460317e+00 2.31135080891494e-01 2.30821926853042e-03
1.56752380952381e+00 2.29870315952146e-01 2.30067315892866e-03
1.57444444444444e+00 2.28612471768510e-01 2.29312936934698e-03
1.58136507936508e+00 2.27361510478225e-01 2.28558823430701e-03
1.58828571428571e+00 2.26117394410535e-01 2.27805008285619e-03
1.59520634920635e+00 2.24880086116242e-01 2.27051523828555e-03
1.60212698412698e+00 2.23649548335794e-01 2.26298401857859e-03
1.60904761904762e+00 2.22425744028649e-01 2.25545673613146e-03
1.61596825396825e+00 2.21208636341970e-01 2.24793369819340e-03
1.62288888888889e+00 2.19998188639413e-01 2.24041520659027e-03
1.62980952380952e+00 2.18794364470414e-01 2.23290155815596e-03
1.63673015873016e+00 2.17597127598418e-01 2.22539304445928e-03
1.64365079365079e+00 2.16406441970743e-01 2.21788995222680e-03
1.65057142857143e+00 2.15222271746259e-01 2.21039256307302e-03
1.65749206349206e+00 2.14044581265821e-01 2.20290115391559e-03
1.66441269841270e+00 2.12873335079414e-01 2.19541599670791e-03
1.67133333333333e+00 2.11708497917133e-01 2.18793735884636e-03
1.67825396825397e+00 2.10550034715809e-01 2.18046550290660e-03
1.68517460317460e+00 2.09397910590527e-01 2.17300068704275e-03
1.69209523809524e+00 2.08252090860742e-01 2.16554316472662e-03
1.69901587301587e+00 2.07112541022329e-01 2.15809318513990e-03
1.70593650793651e+00 2.05979226773193e-01 2.15065099291610e-03
1.71285714285714e+00 2.04852113985840e-01 2.14321682852526e-03
1.71977777777778e+00 2.03731168732495e-01 2.13579092801930e-03
1.72669841269841e+00 2.02616357258183e-01 2.12837352340937e-03
1.73361904761905e+00 2.01507646005367e-01 2.12096484241429e-03
1.74053968253968e+00 2.00405001587523e-01 2.11356510883102e-03
1.74746031746032e+00 1.99308390813314e-01 2.10617453943122e-03
1.75438095238095e+00 1.98217780666727e-01 2.09879335576052e-03
1.76130158730159e+00 1.97133138306424e-01 2.09142176678883e-03
1.76822222222222e+00 1.96054431082851e-01 2.08405998043943e-03
1.77514285714286e+00 1.94981626513146e-01 2.07670820099359e-03
1.78206349206349e+00 1.93914692304047e-01 2.06936662885137e-03
1.78898412698413e+00 1.92853596327254e-01 2.06203546087716e-03
1.79590476190476e+00 1.91798306641909e-01 2.05471489016313e-03
1.80282539682540e+00 1.90748791470404e-01 2.04740510636878e-03
1.80974603174603e+00 1.89705019220442e-01 2.04010629548742e-03
1.81666666666667e+00 1.88666958461279e-01 2.03281864017928e-03
1.82358730158730e+00 1.87634577945373e-01 2.02554231954105e-03
1.83050793650794e+00 1.86607846585055e-01 2.01827750943304e-03
1.83742857142857e+00 1.85586733473781e-01 2.01102438225160e-03
1.84434920634921e+00 1.84571207863212e-01 2.00378310725020e-03
1.85126984126984e+00 1.83561239184078e-01 1.99655385031512e-03
1.85819047619048e+00 1.82556797023668e-01 1.98933677428089e-03
1.86511111111111e+00 1.81557851146304e-01 1.98213203870802e-03
1.87203174603175e+00 1.80564371471239e-01 1.97493980019355e-03
1.87895238095238e+00 1.79576328092750e-01 1.96776021215163e-03
1.88587301587302e+00 1.78593691258428e-01 1.96059342511819e-03
1.89279365079365e+00 1.77616431388905e-01 1.95343958653428e-03
1.89971428571429e+00 1.76644519056525e-01 1.94629884104599e-03
1.90663492063492e+00 1.75677925004714e-01 1.93917133029033e-03
1.91355555555556e+00 1.74716620127026e-01 1.93205719318957e-03
1.92047619047619e+00 1.73760575486157e-01 1.92495656574002e-03
1.92739682539683e+00 1.72809762293363e-01 1.91786958130140e-03
1.93431746031746e+00 1.71864151927129e-01 1.91079637038809e-03
1.94123809523810e+00 1.70923715912946e-01 1.90373706095370e-03
1.94815873015873e+00 1.69988425941638e-01 1.89669177818492e-03
1.95507936507937e+00 1.69058253849502e-01 1.88966064478119e-03
1.96200000000000e+00 1.68133171636296e-01 1.88264378075129e-03
1.96892063492063e+00 1.67213151445725e-01 1.87564130368804e-03
1.97584126984127e+00 1.66298165583114e-01 1.86865332856754e-03
1.98276190476190e+00 1.65388186496222e-01 1.86167996801949e-03
1.98968253968254e+00 1.64483186792600e-01 1.85472133212853e-03
1.99660317460317e+00 1.63583139220745e-01 1.84777752870014e-03
2.00352380952381e+00 1.62688016687140e-01 1.84084866306481e-03
2.01044444444444e+00 1.61797792237734e-01 1.83393483833925e-03
2.01736507936508e+00 1.60912439074678e-01 1.82703615523296e-03
2.02428571428571e+00 1.60031930538129e-01 1.82015271230513e-03
2.03120634920635e+00 1.59156240122679e-01 1.81328460577378e-03
2.03812698412698e+00 1.58285341459478e-01 1.80643192976828e-03
2.04504761904762e+00 1.57419208332374e-01 1.79959477614091e-03
2.05196825396825e+00 1.56557814660332e-01 1.79277323471527e-03
2.05888888888889e+00 1.55701134513295e-01 1.78596739310025e-03
2.06580952380952e+00 1.54849142094905e-01 1.77917733693430e-03
2.07273015873016e+00 1.54001811758079e-01 1.77240314970189e-03
2.07965079365079e+00 1.53159117988026e-01 1.76564491297372e-03
2.08657142857143e+00 1.52321035417550e-01 1.75890270622513e-03
2.09349206349206e+00 1.51487538810354e-01 1.75217660707262e-03
2.10041269841270e+00 1.50658603076074e-01 1.74546669109502e-03
2.10733333333333e+00 1.49834203253868e-01 1.73877303206585e-03
2.11425396825397e+00 1.49014314527182e-01 1.73209570177648e-03
2.12117460317460e+00 1.48198912207623e-01 1.72543477026504e-03
2.12809523809524e+00 1.47387971749459e-01 1.71879030564168e-03
2.13501587301587e+00 1.46581468733771e-01 1.71216237431383e-03
2.14193650793651e+00 1.45779378882696e-01 1.70555104081388e-03
2.14885714285714e+00 1.44981678043846e-01 1.69895636802050e-03
2.15577777777778e+00 1.44188342204303e-01 1.69237841698865e-03
2.16269841269841e+00 1.43399347475302e-01 1.68581724716739e-03
2.16961904761905e+00 1.42614670105979e-01 1.67927291623210e-03
2.17653968253968e+00 1.41834286468313e-01 1.67274548029873e-03
2.18346031746032e+00 1.41058173070637e-01 1.66623499195035e-03
