Energy (eV)          EEDF (eV^-(3/2))     First Anisotropy
3.52380952380952e-04 1.25712557778913e+02 6.46420462142646e-02
1.05714285714286e-03 1.23666604983151e+02 1.06230910897378e-01
1.76190476190476e-03 1.21653949758564e+02 1.38888338191541e-01
2.46666666666667e-03 1.19674050193962e+02 1.62892924157051e-01
3.17142857142857e-03 1.17726373192637e+02 1.82257327028778e-01
3.87619047619048e-03 1.15810394339895e+02 1.98520806221785e-01
4.58095238095238e-03 1.13925597751145e+02 2.12490921891476e-01
5.28571428571429e-03 1.12071475941509e+02 2.24661839318123e-01
5.99047619047619e-03 1.10247529682162e+02 2.35365551585420e-01
6.69523809523810e-03 1.08453267871884e+02 2.44839672029897e-01
7.40000000000000e-03 1.06688207399659e+02 2.53262257836590e-01
8.10476190476190e-03 1.04951873019145e+02 2.60771480375278e-01
8.80952380952381e-03 1.03243797216666e+02 2.67477547126417e-01
9.51428571428571e-03 1.01563520088969e+02 2.73470332882767e-01
1.02190476190476e-02 9.99105892161037e+01 2.78824482310483e-01
1.09238095238095e-02 9.82845595406943e+01 2.83602946331456e-01
1.16285714285714e-02 9.66849932518569e+01 2.87859507108665e-01
1.23333333333333e-02 9.51114596619304e+01 2.91640627487665e-01
1.30380952380952e-02 9.35635350926410e+01 2.94986835755281e-01
1.37428571428571e-02 9.20408027610228e+01 2.97933782125205e-01
1.44476190476190e-02 9.05428526671965e+01 3.00513058527239e-01
1.51523809523810e-02 8.90692814839739e+01 3.02752844210273e-01
1.58571428571429e-02 8.76196924482477e+01 3.04678420951208e-01
1.65619047619048e-02 8.61936952541882e+01 3.06312589128396e-01
1.72666666666667e-02 8.47909059481363e+01 3.07676007369394e-01
1.79714285714286e-02 8.34109468252226e+01 3.08787472535762e-01
1.86761904761905e-02 8.20534463276687e+01 3.09664152591904e-01
1.93809523809524e-02 8.07180389447443e+01 3.10321781876286e-01
2.00857142857143e-02 7.94043651143521e+01 3.10774826080841e-01
2.07904761904762e-02 7.81120711262144e+01 3.11036622608103e-01
2.14952380952381e-02 7.68408090266357e+01 3.11119500750243e-01
2.22000000000000e-02 7.55902365248148e+01 3.11034885134459e-01
2.29047619047619e-02 7.43600168985292e+01 3.10793385597881e-01
2.36095238095238e-02 7.31498189100698e+01 3.10404875116196e-01
2.43142857142857e-02 7.19593167103076e+01 3.09878557951330e-01
2.50190476190476e-02 7.07881897532601e+01 3.09223029890886e-01
2.57238095238095e-02 6.96361227097830e+01 3.08446331155598e-01
2.64285714285714e-02 6.85028053826668e+01 3.07555993346669e-01
2.71333333333333e-02 6.73879326231153e+01 3.06559081206250e-01
2.78380952380952e-02 6.62912042485836e+01 3.05462229896694e-01
2.85428571428571e-02 6.52123249619525e+01 3.04271678391666e-01
2.92476190476190e-02 6.41510042720193e+01 3.02993299480078e-01
2.99523809523810e-02 6.31069564152822e+01 3.01632626807757e-01
3.06571428571429e-02 6.20799002789950e+01 3.00194879319554e-01
3.13619047619048e-02 6.10695593254819e+01 2.98684983411376e-01
3.20666666666667e-02 6.00756615176762e+01 2.97107593058596e-01
3.27714285714286e-02 5.90979392458733e+01 2.95467108151043e-01
3.34761904761905e-02 5.81361292556763e+01 2.93767691233070e-01
3.41809523809524e-02 5.71899725771141e+01 2.92013282821644e-01
3.48857142857143e-02 5.62592144549124e+01 2.90207615452910e-01
3.55904761904762e-02 5.53436042799010e+01 2.88354226588936e-01
3.62952380952381e-02 5.44428955215359e+01 2.86456470500075e-01
3.70000000000000e-02 5.35568456615205e+01 2.84517529184061e-01
3.77047619047619e-02 5.26852161275858e+01 2.82540422612708e-01
3.84095238095238e-02 5.18277722320655e+01 2.80528018022134e-01
3.91142857142857e-02 5.09842831058440e+01 2.78483038525615e-01
3.98190476190476e-02 5.01545216371659e+01 2.76408071294275e-01
4.05238095238095e-02 4.93382644104852e+01 2.74305575019365e-01
4.12285714285714e-02 4.85352916463103e+01 2.72177886896046e-01
4.19333333333333e-02 4.77453871420276e+01 2.70027229135170e-01
4.26380952380952e-02 4.69683382136885e+01 2.67855715042875e-01
4.33428571428571e-02 4.62039356387434e+01 2.65665354703771e-01
4.40476190476191e-02 4.54519735997081e+01 2.63458060299978e-01
4.47523809523810e-02 4.47122496287469e+01 2.61235651095004e-01
4.54571428571429e-02 4.39845645531569e+01 2.58999858108953e-01
4.61619047619048e-02 4.32687224417414e+01 2.56752328508647e-01
4.68666666666667e-02 4.25645305520543e+01 2.54494629734243e-01
4.75714285714286e-02 4.18717992785040e+01 2.52228253382194e-01
4.82761904761905e-02 4.11903421013008e+01 2.49954618862214e-01
4.89809523809524e-02 4.05199755362365e+01 2.47675076844570e-01
4.96857142857143e-02 3.98605190852806e+01 2.45390912512564e-01
5.03904761904762e-02 3.92117951879809e+01 2.43103348633841e-01
5.10952380952381e-02 3.85736291736545e+01 2.40813548462886e-01
5.18000000000000e-02 3.79458492143574e+01 2.38522618461777e-01
5.25047619047619e-02 3.73282862781521e+01 2.36231610971663e-01
5.32095238095238e-02 3.67207740850191e+01 2.33941526623042e-01
5.39142857142857e-02 3.61231490606391e+01 2.31653316625277e-01
5.46190476190476e-02 3.55352502928400e+01 2.29367885046559e-01
5.53238095238095e-02 3.49569194882710e+01 2.27086090891152e-01
5.60285714285714e-02 3.43880009297817e+01 2.24808750093505e-01
5.67333333333333e-02 3.38283414344944e+01 2.22536637413094e-01
5.74380952380952e-02 3.32777903125600e+01 2.20270488236016e-01
5.81428571428571e-02 3.27361993265837e+01 2.18011000288883e-01
5.88476190476190e-02 3.22034226517116e+01 2.15758835270123e-01
5.95523809523810e-02 3.16793168363677e+01 2.13514620403479e-01
6.02571428571429e-02 3.11637407636280e+01 2.11278949918210e-01
6.09619047619048e-02 3.06565556132255e+01 2.09052386460039e-01
6.16666666666667e-02 3.01576248241721e+01 2.06835462436718e-01
6.23714285714286e-02 2.96668140579889e+01 2.04628681301871e-01
6.30761904761905e-02 2.91839911625355e+01 2.02432518780452e-01
6.37809523809524e-02 2.87090261364277e+01 2.00247424038920e-01
6.44857142857143e-02 2.82417910940338e+01 1.98073820803083e-01
6.51904761904762e-02 2.77821602310418e+01 1.95912108426381e-01
6.58952380952381e-02 2.73300097905854e+01 1.93762662911166e-01
6.66000000000000e-02 2.68852180299227e+01 1.91625837870071e-01
6.73047619047619e-02 2.64476651873986e+01 1.89501965506458e-01
6.80095238095238e-02 2.60172334509838e+01 1.87391357476283e-01
6.87142857142857e-02 2.55938069257563e+01 1.85294305717758e-01
6.94190476190476e-02 2.51772716029669e+01 1.83211083312867e-01
7.01238095238095e-02 2.47675153293412e+01 1.81141945258527e-01
7.08285714285714e-02 2.43644277768825e+01 1.79087129218845e-01
7.15333333333333e-02 2.39679004131654e+01 1.77046856246070e-01
7.22380952380952e-02 2.35778264721134e+01 1.75021331471725e-01
7.29428571428571e-02 2.31941009252516e+01 1.73010744769316e-01
7.36476190476190e-02 2.28166204534277e+01 1.71015271389954e-01
7.43523809523809e-02 2.24452834189930e+01 1.69035072572118e-01
7.50571428571429e-02 2.20799898384357e+01 1.67070296126748e-01
7.57619047619048e-02 2.17206413554610e+01 1.65121076998791e-01
7.64666666666667e-02 2.13671412145077e+01 1.63187537806235e-01
7.71714285714286e-02 2.10193942346967e+01 1.61269789357659e-01
7.78761904761905e-02 2.06773067842033e+01 1.59367931149239e-01
7.85809523809524e-02 2.03407867550466e+01 1.57482051842104e-01
7.92857142857143e-02 2.00097435382891e+01 1.55612229720909e-01
7.99904761904762e-02 1.96840879996399e+01 1.53758533134421e-01
8.06952380952381e-02 1.93637324554553e+01 1.51921020918890e-01
8.14000000000000e-02 1.90485906491296e+01 1.50099742795101e-01
8.21047619047619e-02 1.87385777277206e+01 1.48294739789154e-01
8.28095238095238e-02 1.84336102195579e+01 1.46506044587483e-01
8.35142857142857e-02 1.81336060113065e+01 1.44733681881743e-01
8.42190476190476e-02 1.78384843260133e+01 1.42977668743096e-01
8.49238095238095e-02 1.75481657013579e+01 1.41238014947560e-01
8.56285714285714e-02 1.72625719682572e+01 1.39514723297506e-01
8.63333333333333e-02 1.69816262298180e+01 1.37807789930890e-01
8.70380952380952e-02 1.67052528406325e+01 1.36117204618725e-01
8.77428571428571e-02 1.64333773864102e+01 1.34442951051247e-01
8.84476190476191e-02 1.61659266639421e+01 1.32785007113241e-01
8.91523809523810e-02 1.59028286613904e+01 1.31143345148938e-01
8.98571428571429e-02 1.56440125388986e+01 1.29517932216932e-01
9.05619047619048e-02 1.53894086095186e+01 1.27908730335449e-01
9.12666666666667e-02 1.51389483204466e+01 1.26315696718398e-01
9.19714285714286e-02 1.48925642345653e+01 1.24738784002528e-01
9.26761904761905e-02 1.46501900122863e+01 1.23177940466045e-01
9.33809523809524e-02 1.44117603936880e+01 1.21633110239025e-01
9.40857142857143e-02 1.41772111809440e+01 1.20104233505921e-01
9.47904761904762e-02 1.39464792210379e+01 1.18591246700480e-01
9.54952380952381e-02 1.37195023887589e+01 1.17094082693338e-01
9.62000000000000e-02 1.34962195699747e+01 1.15612670966155e-01
9.69047619047619e-02 1.32765706450865e+01 1.14146937804802e-01
9.76095238095238e-02 1.30604964731145e+01 1.12696806452860e-01
9.83142857142857e-02 1.28479388754974e+01 1.11262197261911e-01
9.90190476190476e-02 1.26388406205212e+01 1.09843027863815e-01
9.97238095238095e-02 1.24331454079092e+01 1.08439213343028e-01
1.00428571428571e-01 1.22307978540607e+01 1.07050666287035e-01
1.01133333333333e-01 1.20317434758531e+01 1.05677296998195e-01
1.01838095238095e-01 1.18359286773564e+01 1.04319013673961e-01
1.02542857142857e-01 1.16433007349061e+01 1.02975722446553e-01
1.03247619047619e-01 1.14538077829071e+01 1.01647327537387e-01
1.03952380952381e-01 1.12673987998689e+01 1.00333731375446e-01
1.04657142857143e-01 1.10840235946673e+01 9.90348347113139e-02
1.05361904761905e-01 1.09036327930315e+01 9.77505367267798e-02
1.06066666666667e-01 1.07261778242495e+01 9.64807351401839e-02
1.06771428571429e-01 1.05516109080900e+01 9.52253263078775e-02
1.07476190476190e-01 1.03798850419377e+01 9.39842053686676e-02
1.08180952380952e-01 1.02109539887568e+01 9.27572661961157e-02
1.08885714285714e-01 1.00447722627602e+01 9.15444015894675e-02
1.09590476190476e-01 9.88129511906808e+00 9.03455034378964e-02
1.10295238095238e-01 9.72047854101672e+00 8.91604626780116e-02
1.11000000000000e-01 9.56227922830665e+00 8.79891694161029e-02
1.11704761904762e-01 9.40665458534395e+00 8.68315130051517e-02
1.12409523809524e-01 9.25356270977142e+00 8.56873821188473e-02
1.13114285714286e-01 9.10296238118655e+00 8.45566648226096e-02
1.13819047619048e-01 8.95481305004256e+00 8.34392486418425e-02
1.14523809523810e-01 8.80907482673027e+00 8.23350206660706e-02
1.15228571428571e-01 8.66570847133071e+00 8.12438674954941e-02
1.15933333333333e-01 8.52467538155212e+00 8.01656753844056e-02
1.16638095238095e-01 8.38593758385287e+00 7.91003303626823e-02
1.17342857142857e-01 8.24945772270485e+00 7.80477181881220e-02
1.18047619047619e-01 8.11519905053543e+00 7.70077244344264e-02
1.18752380952381e-01 7.98312541783309e+00 7.59802345423568e-02
1.19457142857143e-01 7.85320126341369e+00 7.49651338688674e-02
1.20161904761905e-01 7.72539160484627e+00 7.39623077341363e-02
1.20866666666667e-01 7.59966202903356e+00 7.29716414665721e-02
1.21571428571429e-01 7.47597868294617e+00 7.19930204460082e-02
1.22276190476190e-01 7.35430826450756e+00 7.10263301762368e-02
1.22980952380952e-01 7.23461801401303e+00 7.00714562304092e-02
1.23685714285714e-01 7.11687570413759e+00 6.91282843561451e-02
1.24390476190476e-01 7.00104963244501e+00 6.81967005629048e-02
1.25095238095238e-01 6.88710861245130e+00 6.72765910731916e-02
1.25800000000000e-01 6.77502196522777e+00 6.63678423835875e-02
1.26504761904762e-01 6.66475951114038e+00 6.54703412963612e-02
1.27209523809524e-01 6.55629156172407e+00 6.45839749496583e-02
1.27914285714286e-01 6.44958891168910e+00 6.37086308462654e-02
1.28619047619048e-01 6.34462283105736e+00 6.28441968810515e-02
1.29323809523810e-01 6.24136505742669e+00 6.19905613928931e-02
1.30028571428571e-01 6.13978778867061e+00 6.11476131118687e-02
1.30733333333333e-01 6.03986367451277e+00 6.03152412385739e-02
1.31438095238095e-01 5.94156581011433e+00 5.94933355087885e-02
1.32142857142857e-01 5.84486772850856e+00 5.86817861461779e-02
1.32847619047619e-01 5.74974339347459e+00 5.78804839057272e-02
1.33552380952381e-01 5.65616719252703e+00 5.70893200930689e-02
1.34257142857143e-01 5.56411393001955e+00 5.63081865828494e-02
1.34961904761905e-01 5.47355882036132e+00 5.55369758361026e-02
1.35666666666667e-01 5.38447748134322e+00 5.47755809166566e-02
1.36371428571429e-01 5.29684592757283e+00 5.40238955066876e-02
1.37076190476190e-01 5.21064056401631e+00 5.32818139422874e-02
1.37780952380952e-01 5.12583817988919e+00 5.25492311641926e-02
1.38485714285714e-01 5.04241594166634e+00 5.18260427759986e-02
1.39190476190476e-01 4.96035138768367e+00 5.11121450904638e-02
1.39895238095238e-01 4.87962242183724e+00 5.04074350852853e-02
1.40600000000000e-01 4.80020730763383e+00 4.97118104325645e-02
1.41304761904762e-01 4.72208466233820e+00 4.90251695088898e-02
1.42009523809524e-01 4.64523345121590e+00 4.83474114047545e-02
1.42714285714286e-01 4.56963298186959e+00 4.76784359333057e-02
1.43419047619048e-01 4.49526289866758e+00 4.70181436384744e-02
1.44123809523810e-01 4.42210317726293e+00 4.63664358198104e-02
1.44828571428571e-01 4.35013411939863e+00 4.57232144871980e-02
1.45533333333333e-01 4.27933634700631e+00 4.50883824046960e-02
1.46238095238095e-01 4.20969079759352e+00 4.44618431245192e-02
1.46942857142857e-01 4.14117871890694e+00 4.38435009463074e-02
1.47647619047619e-01 4.07378166388333e+00 4.32332609374296e-02
1.48352380952381e-01 4.00748148568256e+00 4.26310289373426e-02
1.49057142857143e-01 3.94226033280143e+00 4.20367115615206e-02
1.49761904761905e-01 3.87810064426735e+00 4.14502162049131e-02
1.50466666666667e-01 3.81498514490987e+00 4.08714510449630e-02
1.51171428571429e-01 3.75289684070928e+00 4.03003250442437e-02
1.51876190476190e-01 3.69181901422095e+00 3.97367479667665e-02
1.52580952380952e-01 3.63173522023005e+00 3.91806303373070e-02
1.53285714285714e-01 3.57262928085008e+00 3.86318834734022e-02
1.53990476190476e-01 3.51448528164630e+00 3.80904195093190e-02
1.54695238095238e-01 3.45728756718898e+00 3.75561513593970e-02
1.55400000000000e-01 3.40102073683811e+00 3.70289927310951e-02
1.56104761904762e-01 3.34566964059667e+00 3.65088581251662e-02
1.56809523809524e-01 3.29121937503156e+00 3.59956628355370e-02
1.57514285714286e-01 3.23765527926081e+00 3.54893229488870e-02
1.58219047619048e-01 3.18496293100604e+00 3.49897553439582e-02
1.58923809523810e-01 3.13312814270927e+00 3.44968777022894e-02
1.59628571428571e-01 3.08213695783928e+00 3.40106084717288e-02
1.60333333333333e-01 3.03197564674986e+00 3.35308668903322e-02
1.61038095238095e-01 2.98263070337172e+00 3.30575730035918e-02
1.61742857142857e-01 2.93408884144477e+00 3.25906476314964e-02
1.62447619047619e-01 2.88633699094077e+00 3.21300123768528e-02
1.63152380952381e-01 2.83936229454419e+00 3.16755896229749e-02
1.63857142857143e-01 2.79315210419029e+00 3.12273025312019e-02
1.64561904761905e-01 2.74769397765971e+00 3.07850750382177e-02
1.65266666666667e-01 2.70297567522831e+00 3.03488318531858e-02
1.65971428571429e-01 2.65898515637158e+00 2.99184984547298e-02
1.66676190476190e-01 2.61571057652271e+00 2.94940010972779e-02
1.67380952380952e-01 2.57314028398410e+00 2.90752667789403e-02
1.68085714285714e-01 2.53126281648436e+00 2.86622232587176e-02
1.68790476190476e-01 2.49006689840157e+00 2.82547990682686e-02
1.69495238095238e-01 2.44954143762280e+00 2.78529234828574e-02
1.70200000000000e-01 2.40967552255758e+00 2.74565265259764e-02
1.70904761904762e-01 2.37045841919986e+00 2.70655389653568e-02
1.71609523809524e-01 2.33187956823793e+00 2.66798923088719e-02
1.72314285714286e-01 2.29392858221127e+00 2.62995188003243e-02
1.73019047619048e-01 2.25659524271369e+00 2.59243514151359e-02
1.73723809523810e-01 2.21986949764203e+00 2.55543238638679e-02
1.74428571428571e-01 2.18374145857149e+00 2.51893705637940e-02
1.75133333333333e-01 2.14820139784436e+00 2.48294266515332e-02
1.75838095238095e-01 2.11323974620268e+00 2.44744279911655e-02
1.76542857142857e-01 2.07884709012671e+00 2.41243111484830e-02
1.77247619047619e-01 2.04501416930027e+00 2.37790133932481e-02
1.77952380952381e-01 2.01173187411745e+00 2.34384726943270e-02
1.78657142857143e-01 1.97899124322973e+00 2.31026277147734e-02
1.79361904761905e-01 1.94678346113320e+00 2.27714178068472e-02
1.80066666666667e-01 1.91509985579494e+00 2.24447830069734e-02
1.80771428571429e-01 1.88393189631804e+00 2.21226640306646e-02
1.81476190476190e-01 1.85327119064463e+00 2.18050022738656e-02
1.82180952380952e-01 1.82310948336183e+00 2.14917397882206e-02
1.82885714285714e-01 1.79343865328002e+00 2.11828192899448e-02
1.83590476190476e-01 1.76425071144750e+00 2.08781841650007e-02
1.84295238095238e-01 1.73553779893158e+00 2.05777784466607e-02
1.85000000000000e-01 1.70729218470248e+00 2.02815468159699e-02
1.85704761904762e-01 1.67950626355172e+00 1.99894345964234e-02
1.86409523809524e-01 1.65217255404444e+00 1.97013877486218e-02
1.87114285714286e-01 1.62528369650502e+00 1.94173528649019e-02
1.87819047619048e-01 1.59883245103541e+00 1.91372771639529e-02
1.88523809523810e-01 1.57281169556581e+00 1.88611084908084e-02
1.89228571428571e-01 1.54721442399055e+00 1.85887952951461e-02
1.89933333333333e-01 1.52203374411915e+00 1.83202866375982e-02
1.90638095238095e-01 1.49726287598509e+00 1.80555321929893e-02
1.91342857142857e-01 1.47289514996474e+00 1.77944822306204e-02
1.92047619047619e-01 1.44892400498159e+00 1.75370876136330e-02
1.92752380952381e-01 1.42534298673967e+00 1.72832997935758e-02
1.93457142857143e-01 1.40214574598562e+00 1.70330708049769e-02
1.94161904761905e-01 1.37932603679928e+00 1.67863532599151e-02
1.94866666666667e-01 1.35687771491185e+00 1.65431003425922e-02
1.95571428571429e-01 1.33479473605160e+00 1.63032658039183e-02
1.96276190476190e-01 1.31307115431637e+00 1.60668039605154e-02
1.96980952380952e-01 1.29170112061560e+00 1.58336696759812e-02
1.97685714285714e-01 1.27067888096510e+00 1.56038183651095e-02
1.98390476190476e-01 1.24999877506965e+00 1.53772059955978e-02
1.99095238095238e-01 1.22965523475447e+00 1.51537890710011e-02
1.99800000000000e-01 1.20964278246601e+00 1.49335246293130e-02
2.00504761904762e-01 1.18995602979702e+00 1.47163702376418e-02
2.01209523809524e-01 1.17058967603578e+00 1.45022839869026e-02
2.01914285714286e-01 1.15153850673883e+00 1.42912244865283e-02
2.02619047619048e-01 1.13279739232700e+00 1.40831508591998e-02
2.03323809523810e-01 1.11436128670423e+00 1.38780227392783e-02
2.04028571428571e-01 1.09622522593408e+00 1.36758002564610e-02
2.04733333333333e-01 1.07838432679640e+00 1.34764440385953e-02
2.05438095238095e-01 1.06083378558057e+00 1.32799152123988e-02
2.06142857142857e-01 1.04356887675560e+00 1.30861753885719e-02
2.06847619047619e-01 1.02658495169783e+00 1.28951866599450e-02
2.07552380952381e-01 1.00987743743922e+00 1.27069115963789e-02
2.08257142857143e-01 9.93441835436076e-01 1.25213132397005e-02
2.08961904761905e-01 9.77273720357828e-01 1.23383550986619e-02
2.09666666666667e-01 9.61368738895492e-01 1.21580011439255e-02
2.10371428571429e-01 9.45722608589521e-01 1.19802158030844e-02
2.11076190476190e-01 9.30331116676744e-01 1.18049639587265e-02
2.11780952380952e-01 9.15190118984357e-01 1.16322109343958e-02
2.12485714285714e-01 9.00295538728218e-01 1.14619224962787e-02
2.13190476190476e-01 8.85643365502065e-01 1.12940648531746e-02
2.13895238095238e-01 8.71229654168386e-01 1.11286046436929e-02
2.14600000000000e-01 8.57050523796180e-01 1.09655089341410e-02
2.15304761904762e-01 8.43102156615998e-01 1.08047452137690e-02
2.16009523809524e-01 8.29380796992009e-01 1.06462813900460e-02
2.16714285714286e-01 8.15882750410787e-01 1.04900857839689e-02
2.17419047619048e-01 8.02604382486550e-01 1.03361271254070e-02
2.18123809523810e-01 7.89542117982588e-01 1.01843745509982e-02
2.18828571428571e-01 7.76692439871853e-01 1.00347975919515e-02
2.19533333333333e-01 7.64051888319477e-01 9.88736617498808e-03
2.20238095238095e-01 7.51617059822556e-01 9.74205062185042e-03
2.20942857142857e-01 7.39384606269676e-01 9.59882163816684e-03
2.21647619047619e-01 7.27351234039425e-01 9.45765031124485e-03
2.22352380952381e-01 7.15513703113578e-01 9.31850810566297e-03
