Energy (eV)          EEDF (eV^-(3/2))     First Anisotropy
1.80000000000000e-02 1.10978397999904e-01 6.20146658954126e-05
5.40000000000000e-02 1.10128198161388e-01 1.02355684291897e-04
9.00000000000000e-02 1.09284511660426e-01 1.34993590586588e-04
1.26000000000000e-01 1.08447288598658e-01 1.59711391544507e-04
1.62000000000000e-01 1.07616479460004e-01 1.80262328855877e-04
1.98000000000000e-01 1.06792035107725e-01 1.98067088586660e-04
2.34000000000000e-01 1.05973906781519e-01 2.13861680480500e-04
2.70000000000000e-01 1.05162046094632e-01 2.28091032583992e-04
3.06000000000000e-01 1.04356405030999e-01 2.41050539124134e-04
3.42000000000000e-01 1.03556935942404e-01 2.52949196229700e-04
3.78000000000000e-01 1.02763591545661e-01 2.63941873898994e-04
4.14000000000000e-01 1.01976324919819e-01 2.74147456318600e-04
4.50000000000000e-01 1.01195089503385e-01 2.83659783332230e-04
4.86000000000000e-01 1.00419839091573e-01 2.92554620087019e-04
5.22000000000000e-01 9.96505278335668e-02 3.00894294660650e-04
5.58000000000000e-01 9.88871102298134e-02 3.08730896270582e-04
5.94000000000000e-01 9.81295411293283e-02 3.16108547699515e-04
6.30000000000000e-01 9.73777757270267e-02 3.23065061386985e-04
6.66000000000000e-01 9.66317695610733e-02 3.29633172965909e-04
7.02000000000000e-01 9.58914785102525e-02 3.35841477661155e-04
7.38000000000000e-01 9.51568587913593e-02 3.41715153072733e-04
7.74000000000000e-01 9.44278669566094e-02 3.47276525371532e-04
8.10000000000000e-01 9.37044598910700e-02 3.52545518711921e-04
8.46000000000000e-01 9.29865948101092e-02 3.57540016192947e-04
8.82000000000000e-01 9.22742292568663e-02 3.62276152890367e-04
9.18000000000000e-01 9.15673210997404e-02 3.66768556061013e-04
9.54000000000000e-01 9.08658285298985e-02 3.71030543792556e-04
9.90000000000000e-01 9.01697100588032e-02 3.75074290623723e-04
1.02600000000000e+00 8.94789245157584e-02 3.78910966659031e-04
1.06200000000000e+00 8.87934310454748e-02 3.82550855225780e-04
1.09800000000000e+00 8.81131891056531e-02 3.86003453017993e-04
1.13400000000000e+00 8.74381584645868e-02 3.89277555838990e-04
1.17000000000000e+00 8.67682991987824e-02 3.92381332418435e-04
1.20600000000000e+00 8.61035716905980e-02 3.95322388289386e-04
1.24200000000000e+00 8.54439366259006e-02 3.98107821329823e-04
1.27800000000000e+00 8.47893549917409e-02 4.00744270274475e-04
1.31400000000000e+00 8.41397880740455e-02 4.03237957266063e-04
1.35000000000000e+00 8.34951974553278e-02 4.05594725327352e-04
1.38600000000000e+00 8.28555450124155e-02 4.07820071484525e-04
1.42200000000000e+00 8.22207929141960e-02 4.09919176150443e-04
1.45800000000000e+00 8.15909036193789e-02 4.11896929277966e-04
1.49400000000000e+00 8.09658398742758e-02 4.13757953712485e-04
1.53000000000000e+00 8.03455647105967e-02 4.15506626106680e-04
1.56600000000000e+00 7.97300414432640e-02 4.17147095705840e-04
1.60200000000000e+00 7.91192336682424e-02 4.18683301266751e-04
1.63800000000000e+00 7.85131052603862e-02 4.20118986335225e-04
1.67400000000000e+00 7.79116203713026e-02 4.21457713075874e-04
1.71000000000000e+00 7.73147434272315e-02 4.22702874821022e-04
1.74600000000000e+00 7.67224391269414e-02 4.23857707483215e-04
1.78200000000000e+00 7.61346724396419e-02 4.24925299956797e-04
1.81800000000000e+00 7.55514086029118e-02 4.25908603617789e-04
1.85400000000000e+00 7.49726131206427e-02 4.26810441017535e-04
1.89000000000000e+00 7.43982517609993e-02 4.27633513853877e-04
1.92600000000000e+00 7.38282905543948e-02 4.28380410293193e-04
1.96200000000000e+00 7.32626957914815e-02 4.29053611708094e-04
1.99800000000000e+00 7.27014340211572e-02 4.29655498887961e-04
2.03400000000000e+00 7.21444720485870e-02 4.30188357772872e-04
2.07000000000000e+00 7.15917769332401e-02 4.30654384756010e-04
2.10600000000000e+00 7.10433159869411e-02 4.31055691594233e-04
2.14200000000000e+00 7.04990567719372e-02 4.31394309962561e-04
2.17800000000000e+00 6.99589670989796e-02 4.31672195684381e-04
2.21400000000000e+00 6.94230150254197e-02 4.31891232665845e-04
2.25000000000000e+00 6.88911688533198e-02 4.32053236559824e-04
2.28600000000000e+00 6.83633971275785e-02 4.32159958182498e-04
2.32200000000000e+00 6.78396686340705e-02 4.32213086703300e-04
2.35800000000000e+00 6.73199523978001e-02 4.32214252626541e-04
2.39400000000000e+00 6.68042176810695e-02 4.32165030581735e-04
2.43000000000000e+00 6.62924339816610e-02 4.32066941937867e-04
2.46600000000000e+00 6.57845710310326e-02 4.31921457255217e-04
2.50200000000000e+00 6.52805987925281e-02 4.31729998587320e-04
2.53800000000000e+00 6.47804874596008e-02 4.31493941644528e-04
2.57400000000000e+00 6.42842074540502e-02 4.31214617829349e-04
2.61000000000000e+00 6.37917294242730e-02 4.30893316153116e-04
2.64600000000000e+00 6.33030242435270e-02 4.30531285042576e-04
2.68200000000000e+00 6.28180630082084e-02 4.30129734044242e-04
2.71800000000000e+00 6.23368170361426e-02 4.29689835433767e-04
2.75400000000000e+00 6.18592578648876e-02 4.29212725736806e-04
2.79000000000000e+00 6.13853572500506e-02 4.28699507167631e-04
2.82600000000000e+00 6.09150871636178e-02 4.28151248990932e-04
2.86200000000000e+00 6.04484197922966e-02 4.27568988811920e-04
2.89800000000000e+00 5.99853275358705e-02 4.26953733799497e-04
2.93400000000000e+00 5.95257830055670e-02 4.26306461846783e-04
2.97000000000000e+00 5.90697590224373e-02 4.25628122673136e-04
3.00600000000000e+00 5.86172286157494e-02 4.24919638871154e-04
3.04200000000000e+00 5.81681650213927e-02 4.24181906902281e-04
3.07800000000000e+00 5.77225416802950e-02 4.23415798044084e-04
3.11400000000000e+00 5.72803322368517e-02 4.22622159292184e-04
3.15000000000000e+00 5.68415105373674e-02 4.21801814219621e-04
3.18600000000000e+00 5.64060506285085e-02 4.20955563795944e-04
3.22200000000000e+00 5.59739267557689e-02 4.20084187168646e-04
3.25800000000000e+00 5.55451133619461e-02 4.19188442409107e-04
3.29400000000000e+00 5.51195850856304e-02 4.18269067224855e-04
3.33000000000000e+00 5.46973167597043e-02 4.17326779640289e-04
3.36600000000000e+00 5.42782834098543e-02 4.16362278647505e-04
3.40200000000000e+00 5.38624602530940e-02 4.15376244828880e-04
3.43800000000000e+00 5.34498226962981e-02 4.14369340952984e-04
3.47400000000000e+00 5.30403463347480e-02 4.13342212545259e-04
3.51000000000000e+00 5.26340069506884e-02 4.12295488434865e-04
3.54600000000000e+00 5.22307805118949e-02 4.11229781278759e-04
3.58200000000000e+00 5.18306431702529e-02 4.10145688064408e-04
3.61800000000000e+00 5.14335712603469e-02 4.09043790592180e-04
3.65400000000000e+00 5.10395412980609e-02 4.07924655938370e-04
3.69000000000000e+00 5.06485299791896e-02 4.06788836899922e-04
3.72600000000000e+00 5.02605141780599e-02 4.05636872421694e-04
3.76200000000000e+00 4.98754709461636e-02 4.04469288007264e-04
3.79800000000000e+00 4.94933775107993e-02 4.03286596113899e-04
3.83400000000000e+00 4.91142112737268e-02 4.02089296532518e-04
3.87000000000000e+00 4.87379498098292e-02 4.00877876753511e-04
3.90600000000000e+00 4.83645708657878e-02 3.99652812318887e-04
3.94200000000000e+00 4.79940523587651e-02 3.98414567161453e-04
3.97800000000000e+00 4.76263723750993e-02 3.97163593931628e-04
4.01400000000000e+00 4.72615091690079e-02 3.95900334312605e-04
4.05000000000000e+00 4.68994411613017e-02 3.94625219324081e-04
4.08600000000000e+00 4.65401469381088e-02 3.93338669615369e-04
4.12200000000000e+00 4.61836052496076e-02 3.92041095748259e-04
4.15800000000000e+00 4.58297950087705e-02 3.90732898469925e-04
4.19400000000000e+00 4.54786952901164e-02 3.89414468976661e-04
4.23000000000000e+00 4.51302853284733e-02 3.88086189168479e-04
4.26600000000000e+00 4.47845445177502e-02 3.86748431895216e-04
4.30200000000000e+00 4.44414524097181e-02 3.85401561194384e-04
4.33800000000000e+00 4.41009887128011e-02 3.84045932521112e-04
4.37400000000000e+00 4.37631332908759e-02 3.82681892970620e-04
4.41000000000000e+00 4.34278661620810e-02 3.81309781493394e-04
4.44600000000000e+00 4.30951674976349e-02 3.79929929103481e-04
4.48200000000000e+00 4.27650176206635e-02 3.78542659080076e-04
4.51800000000000e+00 4.24373970050360e-02 3.77148287162691e-04
4.55400000000000e+00 4.21122862742106e-02 3.75747121740315e-04
4.59000000000000e+00 4.17896662000879e-02 3.74339464034578e-04
4.62600000000000e+00 4.14695177018742e-02 3.72925608277301e-04
4.66200000000000e+00 4.11518218449526e-02 3.71505841882574e-04
4.69800000000000e+00 4.08365598397636e-02 3.70080445613637e-04
4.73400000000000e+00 4.05237130406933e-02 3.68649693744726e-04
4.77000000000000e+00 4.02132629449710e-02 3.67213854218045e-04
4.80600000000000e+00 3.99051911915747e-02 3.65773188796139e-04
4.84200000000000e+00 3.95994795601454e-02 3.64327953209752e-04
4.87800000000000e+00 3.92961099699093e-02 3.62878397301335e-04
4.91400000000000e+00 3.89950644786084e-02 3.61424765164446e-04
4.95000000000000e+00 3.86963252814394e-02 3.59967295279123e-04
4.98600000000000e+00 3.83998747100008e-02 3.58506220643356e-04
5.02200000000000e+00 3.81056952312479e-02 3.57041768900920e-04
5.05800000000000e+00 3.78137694464555e-02 3.55574162465507e-04
5.09400000000000e+00 3.75240800901893e-02 3.54103618641462e-04
5.13000000000000e+00 3.72366100292846e-02 3.52630349741147e-04
5.16600000000000e+00 3.69513422618330e-02 3.51154563199065e-04
5.20200000000000e+00 3.66682599161769e-02 3.49676461682909e-04
5.23800000000000e+00 3.63873462499115e-02 3.48196243201506e-04
5.27400000000000e+00 3.61085846488947e-02 3.46714101209940e-04
5.31000000000000e+00 3.58319586262647e-02 3.45230224711840e-04
5.34600000000000e+00 3.55574518214644e-02 3.43744798358931e-04
5.38200000000000e+00 3.52850479992744e-02 3.42258002547892e-04
5.41800000000000e+00 3.50147310488523e-02 3.40770013514776e-04
5.45400000000000e+00 3.47464849827800e-02 3.39281003426981e-04
5.49000000000000e+00 3.44802939361183e-02 3.37791140472691e-04
5.52600000000000e+00 3.42161421654685e-02 3.36300588948157e-04
5.56200000000000e+00 3.39540140480413e-02 3.34809509342673e-04
5.59800000000000e+00 3.36938940807326e-02 3.33318058421405e-04
5.63400000000000e+00 3.34357668792069e-02 3.31826389306169e-04
5.67000000000000e+00 3.31796171769875e-02 3.30334651554092e-04
5.70600000000000e+00 3.29254298245531e-02 3.28842991234376e-04
5.74200000000000e+00 3.26731897884422e-02 3.27351551003141e-04
5.77800000000000e+00 3.24228821503640e-02 3.25860470176415e-04
5.81400000000000e+00 3.21744921063158e-02 3.24369884801355e-04
5.85000000000000e+00 3.19280049657077e-02 3.22879927725672e-04
5.88600000000000e+00 3.16834061504937e-02 3.21390728665438e-04
5.92200000000000e+00 3.14406811943093e-02 3.19902414271227e-04
5.95800000000000e+00 3.11998157416163e-02 3.18415108192662e-04
5.99400000000000e+00 3.09607955468534e-02 3.16928931141452e-04
6.03000000000000e+00 3.07236064735938e-02 3.15444000952874e-04
6.06600000000000e+00 3.04882344937093e-02 3.13960432645888e-04
6.10200000000000e+00 3.02546656865402e-02 3.12478338481775e-04
6.13800000000000e+00 3.00228862380726e-02 3.10997828021397e-04
6.17400000000000e+00 2.97928824401208e-02 3.09519008181206e-04
6.21000000000000e+00 2.95646406895168e-02 3.08041983287883e-04
6.24600000000000e+00 2.93381474873061e-02 3.06566855131707e-04
6.28200000000000e+00 2.91133894379486e-02 3.05093723018779e-04
6.31800000000000e+00 2.88903532485270e-02 3.03622683822031e-04
6.35400000000000e+00 2.86690257279602e-02 3.02153832031041e-04
6.39000000000000e+00 2.84493937862235e-02 3.00687259800712e-04
6.42600000000000e+00 2.82314444335739e-02 2.99223056998919e-04
6.46200000000000e+00 2.80151647797826e-02 2.97761311253114e-04
6.49800000000000e+00 2.78005420333717e-02 2.96302107995778e-04
6.53400000000000e+00 2.75875635008586e-02 2.94845530508921e-04
6.57000000000000e+00 2.73762165860044e-02 2.93391659967652e-04
6.60600000000000e+00 2.71664887890697e-02 2.91940575482769e-04
6.64200000000000e+00 2.69583677060747e-02 2.90492354142362e-04
6.67800000000000e+00 2.67518410280661e-02 2.89047071052523e-04
6.71400000000000e+00 2.65468965403887e-02 2.87604799377291e-04
6.75000000000000e+00 2.63435221219632e-02 2.86165610377612e-04
6.78600000000000e+00 2.61417057445693e-02 2.84729573449419e-04
6.82200000000000e+00 2.59414354721340e-02 2.83296756161032e-04
6.85800000000000e+00 2.57426994600265e-02 2.81867224289731e-04
6.89400000000000e+00 2.55454859543566e-02 2.80441041857485e-04
6.93000000000000e+00 2.53497832912804e-02 2.79018271165965e-04
6.96600000000000e+00 2.51555798963097e-02 2.77598972830811e-04
7.00200000000000e+00 2.49628642836284e-02 2.76183205815215e-04
7.03800000000000e+00 2.47716250554123e-02 2.74771027462762e-04
7.07400000000000e+00 2.45818509011553e-02 2.73362493529580e-04
7.11000000000000e+00 2.43935305970008e-02 2.71957658215852e-04
7.14600000000000e+00 2.42066530050773e-02 2.70556574196682e-04
7.18200000000000e+00 2.40212070728402e-02 2.69159292652294e-04
7.21800000000000e+00 2.38371818324176e-02 2.67765863297631e-04
7.25400000000000e+00 2.36545663999623e-02 2.66376334411320e-04
7.29000000000000e+00 2.34733499750073e-02 2.64990752864115e-04
7.32600000000000e+00 2.32935218398277e-02 2.63609164146705e-04
7.36200000000000e+00 2.31150713588063e-02 2.62231612396941e-04
7.39800000000000e+00 2.29379879778051e-02 2.60858140426542e-04
7.43400000000000e+00 2.27622612235406e-02 2.59488789747304e-04
7.47000000000000e+00 2.25878807029647e-02 2.58123600596735e-04
7.50600000000000e+00 2.24148361026499e-02 2.56762611963158e-04
7.54200000000000e+00 2.22431171881793e-02 2.55405861610380e-04
7.57800000000000e+00 2.20727138035413e-02 2.54053386101794e-04
7.61400000000000e+00 2.19036158705292e-02 2.52705220824077e-04
7.65000000000000e+00 2.17358133881445e-02 2.51361400010370e-04
7.68600000000000e+00 2.15692964320064e-02 2.50021956763004e-04
7.72200000000000e+00 2.14040551537638e-02 2.48686923075805e-04
7.75800000000000e+00 2.12400797805136e-02 2.47356329855961e-04
7.79400000000000e+00 2.10773606142223e-02 2.46030206945442e-04
7.83000000000000e+00 2.09158880311525e-02 2.44708583142001e-04
7.86600000000000e+00 2.07556524812939e-02 2.43391486219784e-04
7.90200000000000e+00 2.05966444877982e-02 2.42078942949540e-04
7.93800000000000e+00 2.04388546464188e-02 2.40770979118432e-04
7.97400000000000e+00 2.02822736249546e-02 2.39467619549457e-04
8.01000000000000e+00 2.01268921626979e-02 2.38168888120519e-04
8.04600000000000e+00 1.99727010698869e-02 2.36874807783114e-04
8.08200000000000e+00 1.98196912271622e-02 2.35585400580648e-04
8.11800000000000e+00 1.96678535850271e-02 2.34300687666453e-04
8.15400000000000e+00 1.95171791633127e-02 2.33020689321425e-04
8.19000000000000e+00 1.93676590506470e-02 2.31745424971314e-04
8.22600000000000e+00 1.92192844039271e-02 2.30474913203698e-04
8.26200000000000e+00 1.90720464477970e-02 2.29209171784660e-04
8.29800000000000e+00 1.89259364741282e-02 2.27948217675125e-04
8.33400000000000e+00 1.87809458415046e-02 2.26692067046893e-04
8.37000000000000e+00 1.86370659747117e-02 2.25440735298375e-04
8.40600000000000e+00 1.84942883642291e-02 2.24194237070016e-04
8.44200000000000e+00 1.83526045657276e-02 2.22952586259472e-04
8.47800000000000e+00 1.82120061995694e-02 2.21715796036464e-04
8.51400000000000e+00 1.80724849503129e-02 2.20483878857364e-04
8.55000000000000e+00 1.79340325662204e-02 2.19256846479519e-04
8.58600000000000e+00 1.77966408587705e-02 2.18034709975302e-04
8.62200000000000e+00 1.76603017021737e-02 2.16817479745893e-04
8.65800000000000e+00 1.75250070328916e-02 2.15605165534815e-04
8.69400000000000e+00 1.73907488491602e-02 2.14397776441240e-04
8.73000000000000e+00 1.72575192105167e-02 2.13195320933033e-04
8.76600000000000e+00 1.71253102373297e-02 2.11997806859521e-04
8.80200000000000e+00 1.69941141103333e-02 2.10805241464060e-04
8.83800000000000e+00 1.68639230701645e-02 2.09617631396411e-04
8.87400000000000e+00 1.67347294169046e-02 2.08434982724806e-04
8.91000000000000e+00 1.66065255096232e-02 2.07257300947861e-04
8.94600000000000e+00 1.64793037659271e-02 2.06084591006239e-04
8.98200000000000e+00 1.63530566615112e-02 2.04916857294076e-04
9.01800000000000e+00 1.62277767297137e-02 2.03754103670274e-04
9.05400000000000e+00 1.61034565610747e-02 2.02596333469524e-04
9.09000000000000e+00 1.59800888028975e-02 2.01443549513157e-04
9.12600000000000e+00 1.58576661588143e-02 2.00295754119787e-04
9.16200000000000e+00 1.57361813883543e-02 1.99152949115728e-04
9.19800000000000e+00 1.56156273065155e-02 1.98015135845310e-04
9.23400000000000e+00 1.54959967833400e-02 1.96882315180940e-04
9.27000000000000e+00 1.53772827434921e-02 1.95754487532972e-04
9.30600000000000e+00 1.52594781658397e-02 1.94631652859464e-04
9.34200000000000e+00 1.51425760830394e-02 1.93513810675694e-04
9.37800000000000e+00 1.50265695811243e-02 1.92400960063528e-04
9.41400000000000e+00 1.49114517990950e-02 1.91293099680639e-04
9.45000000000000e+00 1.47972159285137e-02 1.90190227769523e-04
9.48600000000000e+00 1.46838552131020e-02 1.89092342166393e-04
9.52200000000000e+00 1.45713629483409e-02 1.87999440309878e-04
9.55800000000000e+00 1.44597324810741e-02 1.86911519249581e-04
9.59400000000000e+00 1.43489572091152e-02 1.85828575654502e-04
9.63000000000000e+00 1.42390305808565e-02 1.84750605821266e-04
9.66600000000000e+00 1.41299460948821e-02 1.83677605682250e-04
9.70200000000000e+00 1.40216972995828e-02 1.82609570813537e-04
9.73800000000000e+00 1.39142777927752e-02 1.81546496442730e-04
9.77400000000000e+00 1.38076812213225e-02 1.80488377456653e-04
9.81000000000000e+00 1.37019012807589e-02 1.79435208408871e-04
9.84600000000000e+00 1.35969317149168e-02 1.78386983527108e-04
9.88200000000000e+00 1.34927663155571e-02 1.77343696720533e-04
9.91800000000000e+00 1.33893989220012e-02 1.76305341586885e-04
9.95400000000000e+00 1.32868234207675e-02 1.75271911419511e-04
9.99000000000000e+00 1.31850337452094e-02 1.74243399214255e-04
1.00260000000000e+01 1.30840238751565e-02 1.73219797676217e-04
1.00620000000000e+01 1.29837878365587e-02 1.72201099226439e-04
1.00980000000000e+01 1.28843197011327e-02 1.71187296008412e-04
1.01340000000000e+01 1.27856135860115e-02 1.70178379894479e-04
1.01700000000000e+01 1.26876636533965e-02 1.69174342492195e-04
1.02060000000000e+01 1.25904641102122e-02 1.68175175150461e-04
1.02420000000000e+01 1.24940092077634e-02 1.67180868965624e-04
1.02780000000000e+01 1.23982932413955e-02 1.66191414787459e-04
1.03140000000000e+01 1.23033105501570e-02 1.65206803225014e-04
1.03500000000000e+01 1.22090555164644e-02 1.64227024652407e-04
1.03860000000000e+01 1.21155225657706e-02 1.63252069214467e-04
1.04220000000000e+01 1.20227061662346e-02 1.62281926832298e-04
1.04580000000000e+01 1.19306008283945e-02 1.61316587208738e-04
1.04940000000000e+01 1.18392011048430e-02 1.60356039833734e-04
1.05300000000000e+01 1.17485015899052e-02 1.59400273989593e-04
1.05660000000000e+01 1.16584969193184e-02 1.58449278756163e-04
1.06020000000000e+01 1.15691817699158e-02 1.57503043015933e-04
1.06380000000000e+01 1.14805508593106e-02 1.56561555459011e-04
1.06740000000000e+01 1.13925989455845e-02 1.55624804588030e-04
1.07100000000000e+01 1.13053208269770e-02 1.54692778722976e-04
1.07460000000000e+01 1.12187113415782e-02 1.53765466005911e-04
1.07820000000000e+01 1.11327653670231e-02 1.52842854405622e-04
1.08180000000000e+01 1.10474778201891e-02 1.51924931722192e-04
1.08540000000000e+01 1.09628436568951e-02 1.51011685591475e-04
1.08900000000000e+01 1.08788578716030e-02 1.50103103489498e-04
1.09260000000000e+01 1.07955154971223e-02 1.49199172736802e-04
1.09620000000000e+01 1.07128116043154e-02 1.48299880502673e-04
1.09980000000000e+01 1.06307413018070e-02 1.47405213809335e-04
1.10340000000000e+01 1.05492997356941e-02 1.46515159536040e-04
1.10700000000000e+01 1.04684820892593e-02 1.45629704423077e-04
1.11060000000000e+01 1.03882835826858e-02 1.44748835075736e-04
1.11420000000000e+01 1.03086994727747e-02 1.43872537968193e-04
1.11780000000000e+01 1.02297250526647e-02 1.43000799447327e-04
1.12140000000000e+01 1.01513556515532e-02 1.42133605736460e-04
1.12500000000000e+01 1.00735866344207e-02 1.41270942939032e-04
1.12860000000000e+01 9.99641340175614e-03 1.40412797042207e-04
1.13220000000000e+01 9.91983138928513e-03 1.39559153920423e-04
1.13580000000000e+01 9.84383606769997e-03 1.38709999338894e-04
