Energy (eV)          EEDF (eV^-(3/2))     First Anisotropy
1.30454545454545e-01 4.64246682931873e-02 5.18925952096261e-05
3.91363636363636e-01 4.49882311731615e-02 8.46483263920099e-05
6.52272727272727e-01 4.35962392086019e-02 1.09020855401389e-04
9.13181818181818e-01 4.22473172111261e-02 1.25957013873972e-04
1.17409090909091e+00 4.09401325464841e-02 1.38829406185463e-04
1.43500000000000e+00 3.96733938051613e-02 1.48963145257600e-04
1.69590909090909e+00 3.84458495320823e-02 1.57068652453984e-04
1.95681818181818e+00 3.72562870107123e-02 1.63589257116764e-04
2.21772727272727e+00 3.61035310378731e-02 1.68828088118102e-04
2.47863636363636e+00 3.49864427727944e-02 1.73005506104304e-04
2.73954545454545e+00 3.39039186119480e-02 1.76288890155038e-04
3.00045454545455e+00 3.28548890987286e-02 1.78809626052033e-04
3.26136363636364e+00 3.18383178668497e-02 1.80673504064779e-04
3.52227272727273e+00 3.08532006165623e-02 1.81967441188133e-04
3.78318181818182e+00 2.98985641224159e-02 1.82764021918910e-04
4.04409090909091e+00 2.89734652717774e-02 1.83124677859004e-04
4.30500000000000e+00 2.80769901331016e-02 1.83101982333844e-04
4.56590909090909e+00 2.72082530511109e-02 1.82741348815533e-04
4.82681818181818e+00 2.63663957778239e-02 1.82082316775763e-04
5.08772727272727e+00 2.55505866184081e-02 1.81159543741542e-04
5.34863636363636e+00 2.47600196117123e-02 1.80003583129112e-04
5.60954545454546e+00 2.39939137340332e-02 1.78641504041832e-04
5.87045454545455e+00 2.32515121275188e-02 1.77097391333883e-04
6.13136363636364e+00 2.25320813524391e-02 1.75392753964543e-04
6.39227272727273e+00 2.18349106626148e-02 1.73546862047144e-04
6.65318181818182e+00 2.11593113032418e-02 1.71577027744358e-04
6.91409090909091e+00 2.05046158304498e-02 1.69498841423493e-04
7.17500000000000e+00 1.98701774519158e-02 1.67326371843089e-04
7.43590909090909e+00 1.92553693870539e-02 1.65072336830735e-04
7.69681818181818e+00 1.86595842503580e-02 1.62748250212426e-04
7.95772727272727e+00 1.80822334487017e-02 1.60364548871097e-04
8.21863636363636e+00 1.75227466007650e-02 1.57930702938329e-04
8.47954545454546e+00 1.69805709735382e-02 1.55455312322913e-04
8.74045454545455e+00 1.64551709362610e-02 1.52946191424816e-04
9.00136363636364e+00 1.59460274312555e-02 1.50410443856173e-04
9.26227272727273e+00 1.54526374611386e-02 1.47854528617598e-04
9.52318181818182e+00 1.49745135918942e-02 1.45284318928171e-04
9.78409090909091e+00 1.45111834713230e-02 1.42705154706602e-04
1.00450000000000e+01 1.40621893623919e-02 1.40121889414417e-04
1.03059090909091e+01 1.36270876926701e-02 1.37538932640129e-04
1.05668181818182e+01 1.32054486106374e-02 1.34960287725677e-04
1.08277272727273e+01 1.27968555670905e-02 1.32389585745513e-04
1.10886363636364e+01 1.24009049013738e-02 1.29830116992283e-04
1.13495454545455e+01 1.20172054425916e-02 1.27284858895982e-04
1.16104545454545e+01 1.16453781231602e-02 1.24756501558563e-04
1.18713636363636e+01 1.12850556043074e-02 1.22247470998536e-04
1.21322727272727e+01 1.09358819131883e-02 1.19759950353009e-04
1.23931818181818e+01 1.05975120911989e-02 1.17295899249530e-04
1.26540909090909e+01 1.02696118531823e-02 1.14857071529490e-04
1.29150000000000e+01 9.95185725717884e-03 1.12445031288034e-04
1.31759090909091e+01 9.64393438671529e-03 1.10061168399137e-04
1.34368181818182e+01 9.34553903353303e-03 1.07706711789253e-04
1.36977272727273e+01 9.05637640439085e-03 1.05382741589419e-04
1.39586363636364e+01 8.77616082731612e-03 1.03090201412010e-04
1.42195454545455e+01 8.50461546938157e-03 1.00829908812326e-04
1.44804545454545e+01 8.24147206321435e-03 9.86025651548607e-05
1.47413636363636e+01 7.98647064196298e-03 9.64087647233480e-05
1.50022727272727e+01 7.73935928247798e-03 9.42490031411974e-05
1.52631818181818e+01 7.49989385642493e-03 9.21236851603482e-05
1.55240909090909e+01 7.26783778910335e-03 9.00331318687200e-05
1.57850000000000e+01 7.04296182572792e-03 8.79775872358774e-05
1.60459090909091e+01 6.82504380628681e-03 8.59572246958421e-05
1.63068181818182e+01 6.61386844192405e-03 8.39721526127129e-05
1.65677272727273e+01 6.40922710649686e-03 8.20224193147099e-05
1.68286363636364e+01 6.21091762901450e-03 8.01080184625163e-05
1.70895454545455e+01 6.01874409390795e-03 7.82288934823064e-05
1.73504545454545e+01 5.83251664747938e-03 7.63849418193492e-05
1.76113636363636e+01 5.65205131033831e-03 7.45760188879412e-05
1.78722727272727e+01 5.47716979564766e-03 7.28019417411832e-05
1.81331818181818e+01 5.30769933298671e-03 7.10624924811350e-05
1.83940909090909e+01 5.14347249766641e-03 6.93574214270154e-05
1.86550000000000e+01 4.98432704532579e-03 6.76864499753938e-05
1.89159090909091e+01 4.83010575245279e-03 6.60492735955703e-05
1.91768181818182e+01 4.68065625857892e-03 6.44455641980946e-05
1.94377272727273e+01 4.53583091830055e-03 6.28749723130565e-05
1.96986363636364e+01 4.39548665454639e-03 6.13371295684889e-05
1.99595454545455e+01 4.25948481722773e-03 5.98316506349679e-05
2.02204545454545e+01 4.12769104626205e-03 5.83581351215744e-05
2.04813636363636e+01 3.99997513883382e-03 5.69161693364333e-05
2.07422727272727e+01 3.87621092076583e-03 5.55053279216288e-05
2.10031818181818e+01 3.75627612186686e-03 5.41251753709987e-05
2.12640909090909e+01 3.64005225513754e-03 5.27752674380332e-05
2.15250000000000e+01 3.52742449971369e-03 5.14551523861643e-05
2.17859090909091e+01 3.41828158792666e-03 5.01643723698039e-05
2.20468181818182e+01 3.31251569385746e-03 4.89024644407455e-05
2.23077272727273e+01 3.21002232837147e-03 4.76689614644399e-05
2.25686363636364e+01 3.11070023535790e-03 4.64633932665357e-05
2.28295454545455e+01 3.01445129169604e-03 4.52852874578289e-05
2.30904545454545e+01 2.92118041031665e-03 4.41341702548914e-05
2.33513636363636e+01 2.83079544626213e-03 4.30095672372033e-05
2.36122727272727e+01 2.74320710565522e-03 4.19110040452946e-05
2.38731818181818e+01 2.65832885748237e-03 4.08380070237760e-05
2.41340909090909e+01 2.57607684810728e-03 3.97901038124904e-05
2.43950000000000e+01 2.49636981842952e-03 3.87668238525204e-05
2.46559090909091e+01 2.41912902391574e-03 3.77676989974114e-05
2.49168181818182e+01 2.34427815585550e-03 3.67922638923981e-05
2.51777272727273e+01 2.27174326694700e-03 3.58400563095490e-05
2.54386363636364e+01 2.20145269791001e-03 3.49106176508051e-05
2.56995454545455e+01 2.13333700669163e-03 3.40034932510973e-05
2.59604545454545e+01 2.06732889986252e-03 3.31182326915137e-05
2.62213636363636e+01 2.00336316613549e-03 3.22543900823742e-05
2.64822727272727e+01 1.94137661194213e-03 3.14115243184177e-05
2.67431818181818e+01 1.88130799900170e-03 3.05891993079667e-05
2.70040909090909e+01 1.82309798382211e-03 2.97869841775905e-05
2.72650000000000e+01 1.76668905907282e-03 2.90044534293441e-05
2.75259090909091e+01 1.71202549696765e-03 2.82411871774487e-05
2.77868181818182e+01 1.65905329360798e-03 2.74967712381471e-05
2.80477272727273e+01 1.60772011624693e-03 2.67707971979885e-05
2.83086363636364e+01 1.55797525137799e-03 2.60628626020077e-05
2.85695454545455e+01 1.50976955463366e-03 2.53725710151536e-05
2.88304545454545e+01 1.46305540223439e-03 2.46995320970986e-05
2.90913636363636e+01 1.41778664393946e-03 2.40433616631987e-05
2.93522727272727e+01 1.37391855745429e-03 2.34036817327141e-05
2.96131818181818e+01 1.33140780424776e-03 2.27801205652119e-05
2.98740909090909e+01 1.29021238673689e-03 2.21723126858788e-05
3.01350000000000e+01 1.25029160679622e-03 2.15798988840037e-05
3.03959090909091e+01 1.21160602567650e-03 2.10025262697668e-05
3.06568181818182e+01 1.17411742465665e-03 2.04398482367666e-05
3.09177272727273e+01 1.13778876768094e-03 1.98915244143462e-05
3.11786363636364e+01 1.10258416463530e-03 1.93572207047306e-05
3.14395454545455e+01 1.06846883589050e-03 1.88366092387410e-05
3.17004545454545e+01 1.03540907794236e-03 1.83293683442053e-05
3.19613636363636e+01 1.00337223011497e-03 1.78351825085566e-05
3.22222727272727e+01 9.72326642294529e-04 1.73537423361849e-05
3.24831818181818e+01 9.42241643661180e-04 1.68847445009951e-05
3.27440909090909e+01 9.13087512388434e-04 1.64278916945152e-05
3.30050000000000e+01 8.84835446280130e-04 1.59828925587521e-05
3.32659090909091e+01 8.57457534397073e-04 1.55494616612343e-05
3.35268181818182e+01 8.30926729233970e-04 1.51273194089338e-05
3.37877272727273e+01 8.05216820253330e-04 1.47161919577807e-05
3.40486363636364e+01 7.80302407904340e-04 1.43158111819084e-05
3.43095454545455e+01 7.56158878529922e-04 1.39259145901085e-05
3.45704545454545e+01 7.32762380050206e-04 1.35462452530303e-05
3.48313636363636e+01 7.10089798398317e-04 1.31765517285133e-05
3.50922727272727e+01 6.88118734685470e-04 1.28165879853360e-05
3.53531818181818e+01 6.66827483072402e-04 1.24661133255996e-05
3.56140909090909e+01 6.46195009325553e-04 1.21248923058981e-05
3.58750000000000e+01 6.26200930036752e-04 1.17926946498552e-05
3.61359090909091e+01 6.06825492538709e-04 1.14692951909441e-05
3.63968181818182e+01 5.88049555228629e-04 1.11544737753945e-05
3.66577272727273e+01 5.69854568823624e-04 1.08480151636055e-05
3.69186363636364e+01 5.52222557978722e-04 1.05497089735413e-05
3.71795454545455e+01 5.35136103528519e-04 1.02593495896715e-05
3.74404545454545e+01 5.18578325278282e-04 9.97673608051736e-06
3.77013636363636e+01 5.02532865327496e-04 9.70167211619119e-06
3.79622727272727e+01 4.86983871909506e-04 9.43396588606573e-06
3.82231818181818e+01 4.71915983731065e-04 9.17343001666963e-06
3.84840909090909e+01 4.57314314796476e-04 8.91988148986589e-06
3.87450000000000e+01 4.43164439701293e-04 8.67314155621251e-06
3.90059090909091e+01 4.29452379415690e-04 8.43303566996277e-06
3.92668181818182e+01 4.16164587367905e-04 8.19939339786121e-06
3.95277272727273e+01 4.03287936169930e-04 7.97204832785417e-06
3.97886363636364e+01 3.90809704611495e-04 7.75083800728685e-06
4.00495454545455e+01 3.78717565092425e-04 7.53560385849643e-06
4.03104545454545e+01 3.66999571443851e-04 7.32619110108995e-06
4.05713636363636e+01 3.55644147126228e-04 7.12244867500945e-06
4.08322727272727e+01 3.44640073792590e-04 6.92422916444354e-06
4.10931818181818e+01 3.33976480205608e-04 6.73138872262156e-06
4.13540909090909e+01 3.23642831497575e-04 6.54378699750100e-06
4.16150000000000e+01 3.13628918762719e-04 6.36128705483563e-06
4.18759090909091e+01 3.03924848994356e-04 6.18375531666598e-06
4.21368181818182e+01 2.94521035241279e-04 6.01106148253487e-06
4.23977272727273e+01 2.85408187208178e-04 5.84307845123865e-06
4.26586363636364e+01 2.76577302053054e-04 5.67968226328525e-06
4.29195454545455e+01 2.68019655493054e-04 5.52075202846694e-06
4.31804545454545e+01 2.59726793185508e-04 5.36616985852522e-06
4.34413636363636e+01 2.51690522375625e-04 5.21582080086117e-06
4.37022727272727e+01 2.43902903802673e-04 5.06959277331194e-06
4.39631818181818e+01 2.36356243856536e-04 4.92737649999869e-06
4.42240909090909e+01 2.29043086976983e-04 4.78906544823663e-06
4.44850000000000e+01 2.21956208288104e-04 4.65455576408449e-06
4.47459090909091e+01 2.15088606475768e-04 4.52374621886706e-06
4.50068181818182e+01 2.08433496824456e-04 4.39653814427443e-06
4.52677272727273e+01 2.01984304561878e-04 4.27283536821226e-06
4.55286363636364e+01 1.95734658347386e-04 4.15254416519662e-06
4.57895454545455e+01 1.89678383977555e-04 4.03557319691771e-06
4.60504545454545e+01 1.83809498286503e-04 3.92183345663241e-06
4.63113636363636e+01 1.78122203234950e-04 3.81123821460391e-06
4.65722727272727e+01 1.72610880182180e-04 3.70370296458909e-06
4.68331818181818e+01 1.67270084335227e-04 3.59914537136629e-06
4.70940909090909e+01 1.62094539369802e-04 3.49748521928607e-06
4.73550000000000e+01 1.57079132217662e-04 3.39864436017143e-06
4.76159090909091e+01 1.52218908025317e-04 3.30254666901786e-06
4.78768181818182e+01 1.47509065228165e-04 3.20911799212077e-06
4.81377272727273e+01 1.42944950838411e-04 3.11828609597077e-06
4.83986363636364e+01 1.38522055837503e-04 3.02998062636961e-06
4.86595454545455e+01 1.34236010721540e-04 2.94413306103794e-06
4.89204545454545e+01 1.30082581184515e-04 2.86067666507569e-06
4.91813636363636e+01 1.26057663935122e-04 2.77954644735925e-06
4.94422727272727e+01 1.22157282643006e-04 2.70067911786800e-06
4.97031818181818e+01 1.18377584010426e-04 2.62401304592703e-06
4.99640909090909e+01 1.14714833965478e-04 2.54948821934730e-06
5.02250000000000e+01 1.11165413973093e-04 2.47704620330670e-06
5.04859090909091e+01 1.07725817466893e-04 2.40663010477121e-06
5.07468181818182e+01 1.04392646364387e-04 2.33818453188691e-06
5.10077272727273e+01 1.01162607730937e-04 2.27165555406747e-06
5.12686363636364e+01 9.80325105194093e-05 2.20699066926713e-06
5.15295454545455e+01 9.49992624176445e-05 2.14413876693787e-06
5.17904545454546e+01 9.20598667934740e-05 2.08305009309770e-06
5.20513636363636e+01 8.92114197342590e-05 2.02367621618833e-06
5.23122727272727e+01 8.64511071780403e-05 1.96596999371148e-06
5.25731818181818e+01 8.37762021334426e-05 1.90988553963047e-06
5.28340909090909e+01 8.11840619856018e-05 1.85537819251941e-06
5.30950000000000e+01 7.86721258854507e-05 1.80240448365866e-06
5.33559090909091e+01 7.62379122242737e-05 1.75092210906489e-06
5.36168181818182e+01 7.38790161682837e-05 1.70088989817607e-06
5.38777272727273e+01 7.15931072969009e-05 1.65226778312718e-06
5.41386363636364e+01 6.93779272956621e-05 1.60501677308063e-06
5.43995454545455e+01 6.72312877251678e-05 1.55909892569093e-06
5.46604545454545e+01 6.51510678590607e-05 1.51447732012345e-06
5.49213636363636e+01 6.31352125888972e-05 1.47111603071427e-06
5.51822727272727e+01 6.11817303938524e-05 1.42898010126037e-06
5.54431818181818e+01 5.92886913732378e-05 1.38803551992741e-06
5.57040909090909e+01 5.74542253398970e-05 1.34824919476004e-06
5.59650000000000e+01 5.56765199725947e-05 1.30958892923946e-06
5.62259090909091e+01 5.39538190285883e-05 1.27202340063433e-06
5.64868181818182e+01 5.22844205993393e-05 1.23552213612437e-06
5.67477272727273e+01 5.06666754386039e-05 1.20005548940689e-06
5.70086363636364e+01 4.90989853298723e-05 1.16559462086079e-06
5.72695454545455e+01 4.75798015074454e-05 1.13211147580585e-06
5.75304545454545e+01 4.61076231263645e-05 1.09957876390157e-06
5.77913636363636e+01 4.46809957796831e-05 1.06796993905388e-06
5.80522727272727e+01 4.32985100616194e-05 1.03725917982004e-06
5.83131818181818e+01 4.19588001751630e-05 1.00742137030073e-06
5.85740909090909e+01 4.06605425827653e-05 9.78432081507092e-07
5.88350000000000e+01 3.94024546987787e-05 9.50267552817107e-07
5.90959090909091e+01 3.81832936243836e-05 9.22904675415102e-07
5.93568181818182e+01 3.70018549134693e-05 8.96320974247052e-07
5.96177272727273e+01 3.58569713890908e-05 8.70494590360471e-07
5.98786363636364e+01 3.47475119882129e-05 8.45404265749253e-07
6.01395454545455e+01 3.36723806442998e-05 8.21029326931966e-07
6.04004545454546e+01 3.26305152044806e-05 7.97349669362825e-07
6.06613636363636e+01 3.16208863802167e-05 7.74345742238035e-07
6.09222727272727e+01 3.06424967304408e-05 7.51998533689219e-07
6.11831818181818e+01 2.96943796761551e-05 7.30289556354901e-07
6.14440909090909e+01 2.87755985455207e-05 7.09200833320165e-07
6.17050000000000e+01 2.78852456484928e-05 6.88714884156806e-07
6.19659090909091e+01 2.70224413814575e-05 6.68814712371250e-07
6.22268181818182e+01 2.61863333540461e-05 6.49483791862885e-07
6.24877272727273e+01 2.53760955513290e-05 6.30706053683102e-07
6.27486363636364e+01 2.45909275163079e-05 6.12465874559123e-07
6.30095454545455e+01 2.38300535591215e-05 5.94748064575178e-07
6.32704545454545e+01 2.30927219907195e-05 5.77537855460660e-07
6.35313636363636e+01 2.23782043802472e-05 5.60820889181966e-07
6.37922727272727e+01 2.16857948354088e-05 5.44583206831304e-07
6.40531818181818e+01 2.10148093050959e-05 5.28811237805241e-07
6.43140909090909e+01 2.03645849035941e-05 5.13491789265248e-07
6.45750000000000e+01 1.97344792556989e-05 4.98612035694086e-07
6.48359090909091e+01 1.91238698630218e-05 4.84159509451581e-07
6.50968181818182e+01 1.85321534861655e-05 4.70122090670517e-07
6.53577272727273e+01 1.79587455516710e-05 4.56487997384303e-07
6.56186363636364e+01 1.74030795735104e-05 4.43245776898560e-07
6.58795454545455e+01 1.68646065934398e-05 4.30384296602112e-07
6.61404545454545e+01 1.63427946386671e-05 4.17892735219343e-07
6.64013636363636e+01 1.58371281963013e-05 4.05760574293544e-07
6.66622727272727e+01 1.53471077040631e-05 3.93977589895833e-07
6.69231818181818e+01 1.48722490567527e-05 3.82533844553952e-07
6.71840909090909e+01 1.44120831279885e-05 3.71419679395034e-07
6.74450000000000e+01 1.39661553067439e-05 3.60625706372796e-07
6.77059090909091e+01 1.35340250488517e-05 3.50142801204185e-07
6.79668181818182e+01 1.31152654398534e-05 3.39962095865961e-07
6.82277272727273e+01 1.27094627752058e-05 3.30074971268094e-07
6.84886363636364e+01 1.23162161509001e-05 3.20473050804330e-07
6.87495454545455e+01 1.19351370673969e-05 3.11148193529799e-07
6.90104545454546e+01 1.15658490458167e-05 3.02092487659056e-07
6.92713636363636e+01 1.12079872560059e-05 2.93298244238332e-07
6.95322727272727e+01 1.08611981561103e-05 2.84757990987817e-07
6.97931818181818e+01 1.05251391433017e-05 2.76464466309560e-07
7.00540909090909e+01 1.01994782153101e-05 2.68410613456463e-07
7.03150000000000e+01 9.88389364242983e-06 2.60589574772147e-07
7.05759090909091e+01 9.57807365009922e-06 2.52994686434539e-07
7.08368181818182e+01 9.28171610958336e-06 2.45619472906025e-07
7.10977272727273e+01 8.99452824082814e-06 2.38457641517332e-07
7.13586363636364e+01 8.71622632275922e-06 2.31503077670232e-07
7.16195454545455e+01 8.44653541298589e-06 2.24749839792218e-07
7.18804545454546e+01 8.18518907617769e-06 2.18192154523422e-07
7.21413636363636e+01 7.93192912084518e-06 2.11824412034094e-07
7.24022727272727e+01 7.68650534426557e-06 2.05641161469417e-07
7.26631818181818e+01 7.44867528530017e-06 1.99637106518282e-07
7.29240909090909e+01 7.21820398486010e-06 1.93807101102626e-07
7.31850000000000e+01 6.99486375378355e-06 1.88146145124428e-07
7.34459090909091e+01 6.77843394818494e-06 1.82649380570369e-07
7.37068181818182e+01 6.56870075058610e-06 1.77312087420890e-07
7.39677272727273e+01 6.36545695958809e-06 1.72129679659717e-07
7.42286363636364e+01 6.16850178486151e-06 1.67097701720130e-07
7.44895454545455e+01 5.97764064877997e-06 1.62211824766366e-07
7.47504545454545e+01 5.79268499419139e-06 1.57467843143127e-07
7.50113636363636e+01 5.61345209813687e-06 1.52861670922401e-07
7.52722727272727e+01 5.43976489133369e-06 1.48389338545143e-07
7.55331818181818e+01 5.27145178324345e-06 1.44046989555275e-07
7.57940909090909e+01 5.10834649255289e-06 1.39830877423448e-07
7.60550000000000e+01 4.95028788289980e-06 1.35737362416673e-07
7.63159090909091e+01 4.79711980387924e-06 1.31762908721924e-07
7.65768181818182e+01 4.64869093617301e-06 1.27904081439455e-07
7.68377272727273e+01 4.50485464267549e-06 1.24157543651158e-07
7.70986363636364e+01 4.36546882341588e-06 1.20520053797251e-07
7.73595454545455e+01 4.23039577517357e-06 1.16988462943495e-07
7.76204545454545e+01 4.09950205543723e-06 1.13559712169925e-07
7.78813636363636e+01 3.97265835057307e-06 1.10230830031795e-07
7.81422727272727e+01 3.84973934807240e-06 1.06998930090880e-07
7.84031818181818e+01 3.73062361275172e-06 1.03861208515236e-07
7.86640909090909e+01 3.61519346678346e-06 1.00814941745491e-07
7.89250000000000e+01 3.50333487343874e-06 9.78574841970518e-08
7.91859090909091e+01 3.39493732456177e-06 9.49862661426613e-08
7.94468181818182e+01 3.28989373098311e-06 9.21987915082262e-08
7.97077272727273e+01 3.18810031714502e-06 8.94926357244488e-08
7.99686363636364e+01 3.08945651843483e-06 8.68654437962014e-08
8.02295454545455e+01 2.99386488183432e-06 8.43149282992924e-08
8.04904545454546e+01 2.90123096964316e-06 8.18388674649654e-08
8.07513636363636e+01 2.81146326618108e-06 7.94351033177879e-08
8.10122727272727e+01 2.72447308737711e-06 7.71015398655326e-08
8.12731818181818e+01 2.64017449315595e-06 7.48361413396308e-08
8.15340909090909e+01 2.55848420253535e-06 7.26369304847603e-08
8.17950000000000e+01 2.47932151135047e-06 7.05019868761980e-08
8.20559090909091e+01 2.40260821261582e-06 6.84294453652559e-08
8.23168181818182e+01 2.32826851898060e-06 6.64174944670398e-08
