Energy (eV)          EEDF (eV^-(3/2))     First Anisotropy
1.36046511627907e-02 1.81062064260481e-01 1.03427387001466e-04
4.08139534883721e-02 1.79609198383217e-01 1.70676581736663e-04
6.80232558139535e-02 1.78167990489919e-01 2.25017421756875e-04
9.52325581395349e-02 1.76738347040247e-01 2.66121469820365e-04
1.22441860465116e-01 1.75320175241910e-01 3.00254843987327e-04
1.49651162790698e-01 1.73913383033281e-01 3.29790687502688e-04
1.76860465116279e-01 1.72517879114859e-01 3.55959075110552e-04
2.04069767441860e-01 1.71133572906143e-01 3.79503976577659e-04
2.31279069767442e-01 1.69760374548440e-01 4.00919566265759e-04
2.58488372093023e-01 1.68398194917731e-01 4.20555651048986e-04
2.85697674418605e-01 1.67046945597582e-01 4.38671571027119e-04
3.12906976744186e-01 1.65706538876994e-01 4.55466500229400e-04
3.40116279069767e-01 1.64376887758269e-01 4.71097729133857e-04
3.67325581395349e-01 1.63057905936659e-01 4.85692312904656e-04
3.94534883720930e-01 1.61749507796711e-01 4.99354820819249e-04
4.21744186046512e-01 1.60451608417165e-01 5.12172684064724e-04
4.48953488372093e-01 1.59164123554352e-01 5.24219996349024e-04
4.76162790697674e-01 1.57886969637936e-01 5.35560281698596e-04
5.03372093023256e-01 1.56620063773907e-01 5.46248558803518e-04
5.30581395348837e-01 1.55363323730390e-01 5.56332908485662e-04
5.57790697674419e-01 1.54116667933118e-01 5.65855681531116e-04
5.85000000000000e-01 1.52880015467138e-01 5.74854447194607e-04
6.12209302325581e-01 1.51653286064292e-01 5.83362746053713e-04
6.39418604651163e-01 1.50436400100522e-01 5.91410693812700e-04
6.66627906976744e-01 1.49229278588927e-01 5.99025471670593e-04
6.93837209302326e-01 1.48031843180100e-01 6.06231729141368e-04
7.21046511627907e-01 1.46844016151405e-01 6.13051917516984e-04
7.48255813953488e-01 1.45665720402324e-01 6.19506566115311e-04
7.75465116279070e-01 1.44496879454220e-01 6.25614516113025e-04
8.02674418604651e-01 1.43337417440463e-01 6.31393118388694e-04
8.29883720930233e-01 1.42187259101834e-01 6.36858400252368e-04
8.57093023255814e-01 1.41046329785831e-01 6.42025209863635e-04
8.84302325581395e-01 1.39914555437508e-01 6.46907340617116e-04
9.11511627906977e-01 1.38791862594945e-01 6.51517637212837e-04
9.38720930232558e-01 1.37678178388196e-01 6.55868089440317e-04
9.65930232558140e-01 1.36573430530737e-01 6.59969914130908e-04
9.93139534883721e-01 1.35477547315001e-01 6.63833626222997e-04
1.02034883720930e+00 1.34390457606702e-01 6.67469099913157e-04
1.04755813953488e+00 1.33312090852163e-01 6.70885626638451e-04
1.07476744186047e+00 1.32242377057052e-01 6.74091965272463e-04
1.10197674418605e+00 1.31181246788665e-01 6.77096385002566e-04
1.12918604651163e+00 1.30128631162195e-01 6.79906701142780e-04
1.15639534883721e+00 1.29084461864593e-01 6.82530313360657e-04
1.18360465116279e+00 1.28048671121259e-01 6.84974240300440e-04
1.21081395348837e+00 1.27021191701371e-01 6.87245143407251e-04
1.23802325581395e+00 1.26001956913657e-01 6.89349355529708e-04
1.26523255813953e+00 1.24990900594061e-01 6.91292900177223e-04
1.29244186046512e+00 1.23987957125597e-01 6.93081515380433e-04
1.31965116279070e+00 1.22993061409531e-01 6.94720675630218e-04
1.34686046511628e+00 1.22006148869521e-01 6.96215606477427e-04
1.37406976744186e+00 1.21027155440333e-01 6.97571298192215e-04
1.40127906976744e+00 1.20056017585220e-01 6.98792522964022e-04
1.42848837209302e+00 1.19092672269909e-01 6.99883850877162e-04
1.45569767441860e+00 1.18137056965922e-01 7.00849659539266e-04
1.48290697674419e+00 1.17189109640184e-01 7.01694143243589e-04
1.51011627906977e+00 1.16248768770325e-01 7.02421325828741e-04
1.53732558139535e+00 1.15315973321057e-01 7.03035072729323e-04
1.56453488372093e+00 1.14390662746825e-01 7.03539096304933e-04
1.59174418604651e+00 1.13472776987937e-01 7.03936966411453e-04
1.61895348837209e+00 1.12562256461056e-01 7.04232114891029e-04
1.64616279069767e+00 1.11659042072272e-01 7.04427844886881e-04
1.67337209302326e+00 1.10763075196082e-01 7.04527339656564e-04
1.70058139534884e+00 1.09874297677424e-01 7.04533666459159e-04
1.72779069767442e+00 1.08992651822823e-01 7.04449780436714e-04
1.75500000000000e+00 1.08118080412025e-01 7.04278532044631e-04
1.78220930232558e+00 1.07250526678691e-01 7.04022674132307e-04
1.80941860465116e+00 1.06389934311988e-01 7.03684864499918e-04
1.83662790697674e+00 1.05536247448321e-01 7.03267668534564e-04
1.86383720930233e+00 1.04689410681726e-01 7.02773565278071e-04
1.89104651162791e+00 1.03849369046065e-01 7.02204953243919e-04
1.91825581395349e+00 1.03016068016249e-01 7.01564152046181e-04
1.94546511627907e+00 1.02189453500496e-01 7.00853404158313e-04
1.97267441860465e+00 1.01369471849635e-01 7.00074879969327e-04
1.99988372093023e+00 1.00556069840638e-01 6.99230682654679e-04
2.02709302325581e+00 9.97491946775342e-02 6.98322848318007e-04
2.05430232558140e+00 9.89487939880106e-02 6.97353350460104e-04
2.08151162790698e+00 9.81548158162183e-02 6.96324100094743e-04
2.10872093023256e+00 9.73672086308708e-02 6.95236949854556e-04
2.13593023255814e+00 9.65859213102859e-02 6.94093697972876e-04
2.16313953488372e+00 9.58109031429941e-02 6.92896088708049e-04
2.19034883720930e+00 9.50421038209655e-02 6.91645812942227e-04
2.21755813953488e+00 9.42794734469034e-02 6.90344511727776e-04
2.24476744186047e+00 9.35229625203183e-02 6.88993779740375e-04
2.27197674418605e+00 9.27725219379155e-02 6.87595165388976e-04
2.29918604651163e+00 9.20281029872057e-02 6.86150171106239e-04
2.32639534883721e+00 9.12896573530873e-02 6.84660256450835e-04
2.35360465116279e+00 9.05571371048504e-02 6.83126841138805e-04
2.38081395348837e+00 8.98304946963764e-02 6.81551304233537e-04
2.40802325581395e+00 8.91096829630772e-02 6.79934986982267e-04
2.43523255813954e+00 8.83946551159116e-02 6.78279192095521e-04
2.46244186046512e+00 8.76853647471651e-02 6.76585186399503e-04
2.48965116279070e+00 8.69817658185207e-02 6.74854203439278e-04
2.51686046511628e+00 8.62838126610848e-02 6.73087443173296e-04
2.54406976744186e+00 8.55914599697227e-02 6.71286071844670e-04
2.57127906976744e+00 8.49046628082921e-02 6.69451224354639e-04
2.59848837209302e+00 8.42233765984611e-02 6.67584006598013e-04
2.62569767441860e+00 8.35475571195992e-02 6.65685495046480e-04
2.65290697674419e+00 8.28771605034064e-02 6.63756736504065e-04
2.68011627906977e+00 8.22121432386599e-02 6.61798750247883e-04
2.70732558139535e+00 8.15524621607119e-02 6.59812530139747e-04
2.73453488372093e+00 8.08980744512680e-02 6.57799043548483e-04
2.76174418604651e+00 8.02489376356217e-02 6.55759233350323e-04
2.78895348837209e+00 7.96050095776041e-02 6.53694016962224e-04
2.81616279069767e+00 7.89662484837729e-02 6.51604288233603e-04
2.84337209302326e+00 7.83326128937012e-02 6.49490919316812e-04
2.87058139534884e+00 7.77040616796517e-02 6.47354760112652e-04
2.89779069767442e+00 7.70805540417713e-02 6.45196637874037e-04
2.92500000000000e+00 7.64620495118990e-02 6.43017358936061e-04
2.95220930232558e+00 7.58485079444157e-02 6.40817710430707e-04
2.97941860465116e+00 7.52398895158372e-02 6.38598459697508e-04
3.00662790697674e+00 7.46361547202402e-02 6.36360353845913e-04
3.03383720930233e+00 7.40372643727259e-02 6.34104121346277e-04
3.06104651162791e+00 7.34431796007870e-02 6.31830473609250e-04
3.08825581395349e+00 7.28538618438316e-02 6.29540104374407e-04
3.11546511627907e+00 7.22692728488257e-02 6.27233689243927e-04
3.14267441860465e+00 7.16893746734448e-02 6.24911887152330e-04
3.16988372093023e+00 7.11141296779192e-02 6.22575341826994e-04
3.19709302325581e+00 7.05435005245012e-02 6.20224680695676e-04
3.22430232558140e+00 6.99774501750512e-02 6.17860516282254e-04
3.25151162790698e+00 6.94159418869191e-02 6.15483445219326e-04
3.27872093023256e+00 6.88589392157362e-02 6.13094049579985e-04
3.30593023255814e+00 6.83064060078223e-02 6.10692898204443e-04
3.33313953488372e+00 6.77583063996003e-02 6.08280546076876e-04
3.36034883720930e+00 6.72146048136660e-02 6.05857533832622e-04
3.38755813953488e+00 6.66752659613307e-02 6.03424388998437e-04
3.41476744186047e+00 6.61402548354314e-02 6.00981627229211e-04
3.44197674418605e+00 6.56095367097060e-02 5.98529751686105e-04
3.46918604651163e+00 6.50830771350386e-02 5.96069252539401e-04
3.49639534883721e+00 6.45608419417762e-02 5.93600608126765e-04
3.52360465116279e+00 6.40427972329142e-02 5.91124286109202e-04
3.55081395348837e+00 6.35289093834385e-02 5.88640742453972e-04
3.57802325581395e+00 6.30191450381510e-02 5.86150422544050e-04
3.60523255813954e+00 6.25134711081118e-02 5.83653760255047e-04
3.63244186046512e+00 6.20118547726934e-02 5.81151179017556e-04
3.65965116279070e+00 6.15142634732090e-02 5.78643092879126e-04
3.68686046511628e+00 6.10206649122289e-02 5.76129905903811e-04
3.71406976744186e+00 6.05310270501774e-02 5.73612011683086e-04
3.74127906976744e+00 6.00453181072044e-02 5.71089794333440e-04
3.76848837209302e+00 5.95635065571343e-02 5.68563629494278e-04
3.79569767441860e+00 5.90855611267617e-02 5.66033883738504e-04
3.82290697674419e+00 5.86114507925943e-02 5.63500914089366e-04
3.85011627906977e+00 5.81411447825569e-02 5.60965068959015e-04
3.87732558139535e+00 5.76746125702421e-02 5.58426689088021e-04
3.90453488372093e+00 5.72118238741883e-02 5.55886106624343e-04
3.93174418604651e+00 5.67527486559193e-02 5.53343646027813e-04
3.95895348837209e+00 5.62973571168537e-02 5.50799623230691e-04
3.98616279069767e+00 5.58456196998138e-02 5.48254346506062e-04
4.01337209302326e+00 5.53975070836327e-02 5.45708117337738e-04
4.04058139534884e+00 5.49529901824224e-02 5.43161229864565e-04
4.06779069767442e+00 5.45120401426109e-02 5.40613970419858e-04
4.09500000000000e+00 5.40746283443166e-02 5.38066618351186e-04
4.12220930232558e+00 5.36407263962143e-02 5.35519446842334e-04
4.14941860465116e+00 5.32103061347950e-02 5.32972722372232e-04
4.17662790697674e+00 5.27833396215260e-02 5.30426704264606e-04
4.20383720930233e+00 5.23597991440998e-02 5.27881645463193e-04
4.23104651162791e+00 5.19396572115457e-02 5.25337793309455e-04
4.25825581395349e+00 5.15228865534831e-02 5.22795389016510e-04
4.28546511627907e+00 5.11094601173980e-02 5.20254667229713e-04
4.31267441860465e+00 5.06993510697784e-02 5.17715856760809e-04
4.33988372093023e+00 5.02925327914552e-02 5.15179181324281e-04
4.36709302325581e+00 4.98889788768538e-02 5.12644858743014e-04
4.39430232558140e+00 4.94886631322830e-02 5.10113101658745e-04
4.42151162790698e+00 4.90915595733445e-02 5.07584116805221e-04
4.44872093023256e+00 4.86976424259351e-02 5.05058105692128e-04
4.47593023255814e+00 4.83068861218615e-02 5.02535265292118e-04
4.50313953488372e+00 4.79192652980935e-02 5.00015787552147e-04
4.53034883720930e+00 4.75347547942776e-02 4.97499858982596e-04
4.55755813953488e+00 4.71533296536452e-02 4.94987661306399e-04
4.58476744186046e+00 4.67749651188291e-02 4.92479372111223e-04
4.61197674418605e+00 4.63996366311184e-02 4.89975164376351e-04
4.63918604651163e+00 4.60273198280701e-02 4.87475206073513e-04
4.66639534883721e+00 4.56579905443323e-02 4.84979660783457e-04
4.69360465116279e+00 4.52916248076510e-02 4.82488688315904e-04
4.72081395348837e+00 4.49281988381271e-02 4.80002444005481e-04
4.74802325581395e+00 4.45676890466767e-02 4.77521079310426e-04
4.77523255813954e+00 4.42100720327565e-02 4.75044741167118e-04
4.80244186046512e+00 4.38553245850862e-02 4.72573572566904e-04
4.82965116279070e+00 4.35034236778820e-02 4.70107713136397e-04
4.85686046511628e+00 4.31543464701230e-02 4.67647298700232e-04
4.88406976744186e+00 4.28080703033660e-02 4.65192460910601e-04
4.91127906976744e+00 4.24645727023972e-02 4.62743327796214e-04
4.93848837209302e+00 4.21238313716333e-02 4.60300024314720e-04
4.96569767441860e+00 4.17858241943937e-02 4.57862671930096e-04
4.99290697674419e+00 4.14505292308005e-02 4.55431388253684e-04
5.02011627906977e+00 4.11179247183651e-02 4.53006287567077e-04
5.04732558139535e+00 4.07879890685484e-02 4.50587481348346e-04
5.07453488372093e+00 4.04607008660397e-02 4.48175077650092e-04
5.10174418604651e+00 4.01360388673686e-02 4.45769181608227e-04
5.12895348837209e+00 3.98139819989044e-02 4.43369894870447e-04
5.15616279069767e+00 3.94945093573655e-02 4.40977316086984e-04
5.18337209302326e+00 3.91776002065695e-02 4.38591541404571e-04
5.21058139534884e+00 3.88632339767248e-02 4.36212664077225e-04
5.23779069767442e+00 3.85513902625054e-02 4.33840774134475e-04
5.26500000000000e+00 3.82420488235079e-02 4.31475958849229e-04
5.29220930232558e+00 3.79351895811419e-02 4.29118303209013e-04
5.31941860465116e+00 3.76307926179301e-02 4.26767889540193e-04
5.34662790697674e+00 3.73288381756574e-02 4.24424797187095e-04
5.37383720930233e+00 3.70293066557777e-02 4.22089102958417e-04
5.40104651162791e+00 3.67321786164388e-02 4.19760881577054e-04
5.42825581395349e+00 3.64374347717918e-02 4.17440205317354e-04
5.45546511627907e+00 3.61450559902099e-02 4.15127143694869e-04
5.48267441860465e+00 3.58550232946508e-02 4.12821763892689e-04
5.50988372093023e+00 3.55673178598076e-02 4.10524131190700e-04
5.53709302325581e+00 3.52819210114296e-02 4.08234308437296e-04
5.56430232558140e+00 3.49988142251115e-02 4.05952356464825e-04
5.59151162790698e+00 3.47179791245932e-02 4.03678333603006e-04
5.61872093023256e+00 3.44393974820698e-02 4.01412296079990e-04
5.64593023255814e+00 3.41630512154935e-02 3.99154298426784e-04
5.67313953488372e+00 3.38889223879100e-02 3.96904393143861e-04
5.70034883720930e+00 3.36169932058211e-02 3.94662630415306e-04
5.72755813953488e+00 3.33472460194577e-02 3.92429058492087e-04
5.75476744186047e+00 3.30796633201953e-02 3.90203724078486e-04
5.78197674418605e+00 3.28142277399008e-02 3.87986672010628e-04
5.80918604651163e+00 3.25509220493568e-02 3.85777944980308e-04
5.83639534883721e+00 3.22897291584999e-02 3.83577583901446e-04
5.86360465116279e+00 3.20306321139441e-02 3.81385628279568e-04
5.89081395348837e+00 3.17736140983390e-02 3.79202115745913e-04
5.91802325581395e+00 3.15186584292797e-02 3.77027082415164e-04
5.94523255813954e+00 3.12657485578022e-02 3.74860562455833e-04
5.97244186046512e+00 3.10148680685814e-02 3.72702588435723e-04
5.99965116279070e+00 3.07660006775835e-02 3.70553191670431e-04
6.02686046511628e+00 3.05191302314403e-02 3.68412401928084e-04
6.05406976744186e+00 3.02742407060003e-02 3.66280247175148e-04
6.08127906976744e+00 3.00313162064982e-02 3.64156753906928e-04
6.10848837209302e+00 2.97903409653043e-02 3.62041947481112e-04
6.13569767441860e+00 2.95512993413102e-02 3.59935851832992e-04
6.16290697674419e+00 2.93141758185334e-02 3.57838489230092e-04
6.19011627906977e+00 2.90789550062608e-02 3.55749880588484e-04
6.21732558139535e+00 2.88456216368902e-02 3.53670045792077e-04
6.24453488372093e+00 2.86141605653282e-02 3.51599003281772e-04
6.27174418604651e+00 2.83845567680083e-02 3.49536770364628e-04
6.29895348837209e+00 2.81567953415573e-02 3.47483362834592e-04
6.32616279069767e+00 2.79308615029090e-02 3.45438795271185e-04
6.35337209302326e+00 2.77067405872554e-02 3.43403081341002e-04
6.38058139534884e+00 2.74844180474612e-02 3.41376233536326e-04
6.40779069767442e+00 2.72638794527789e-02 3.39358262949360e-04
6.43500000000000e+00 2.70451104889411e-02 3.37349179558284e-04
6.46220930232558e+00 2.68280969561942e-02 3.35348992516051e-04
6.48941860465116e+00 2.66128247687256e-02 3.33357709898379e-04
6.51662790697674e+00 2.63992799534249e-02 3.31375338485882e-04
6.54383720930233e+00 2.61874486499571e-02 3.29401884038069e-04
6.57104651162791e+00 2.59773171088753e-02 3.27437351570108e-04
6.59825581395349e+00 2.57688716910599e-02 3.25481745109772e-04
6.62546511627907e+00 2.55620988665246e-02 3.23535067487240e-04
6.65267441860465e+00 2.53569852144719e-02 3.21597320597748e-04
6.67988372093023e+00 2.51535174214813e-02 3.19668505666594e-04
6.70709302325581e+00 2.49516822809605e-02 3.17748622900311e-04
6.73430232558140e+00 2.47514666922892e-02 3.15837671743522e-04
6.76151162790698e+00 2.45528576596775e-02 3.13935650556244e-04
6.78872093023256e+00 2.43558422922007e-02 3.12042556862226e-04
6.81593023255814e+00 2.41604078020776e-02 3.10158387599739e-04
6.84313953488372e+00 2.39665415041382e-02 3.08283138898501e-04
6.87034883720930e+00 2.37742308147231e-02 3.06416805886436e-04
6.89755813953488e+00 2.35834632517036e-02 3.04559382927657e-04
6.92476744186047e+00 2.33942264328282e-02 3.02710863862994e-04
6.95197674418605e+00 2.32065080752024e-02 3.00871241794934e-04
6.97918604651163e+00 2.30202959942273e-02 2.99040508901121e-04
7.00639534883721e+00 2.28355781036066e-02 2.97218656662620e-04
7.03360465116279e+00 2.26523424137584e-02 2.95405676094550e-04
7.06081395348837e+00 2.24705770313064e-02 2.93601557438142e-04
7.08802325581395e+00 2.22902701583090e-02 2.91806290384165e-04
7.11523255813954e+00 2.21114100912437e-02 2.90019863787928e-04
7.14244186046512e+00 2.19339852209997e-02 2.88242265885357e-04
7.16965116279070e+00 2.17579840313669e-02 2.86473484511336e-04
7.19686046511628e+00 2.15833950985427e-02 2.84713506902229e-04
7.22406976744186e+00 2.14102070901539e-02 2.82962319524476e-04
7.25127906976744e+00 2.12384087652370e-02 2.81219908281846e-04
7.27848837209302e+00 2.10679889727873e-02 2.79486258724905e-04
7.30569767441860e+00 2.08989366512770e-02 2.77761355860687e-04
7.33290697674419e+00 2.07312408277113e-02 2.76045183987313e-04
7.36011627906977e+00 2.05648906176000e-02 2.74337726892831e-04
7.38732558139535e+00 2.03998752235620e-02 2.72638968056238e-04
7.41453488372093e+00 2.02361839348556e-02 2.70948890375582e-04
7.44174418604651e+00 2.00738061266839e-02 2.69267476362793e-04
7.46895348837209e+00 1.99127312592915e-02 2.67594707891722e-04
7.49616279069767e+00 1.97529488779246e-02 2.65930566386612e-04
7.52337209302326e+00 1.95944486115035e-02 2.64275033012600e-04
7.55058139534884e+00 1.94372201721678e-02 2.62628088500871e-04
7.57779069767442e+00 1.92812533544043e-02 2.60989712996560e-04
7.60500000000000e+00 1.91265380350005e-02 2.59359886239629e-04
7.63220930232558e+00 1.89730641717672e-02 2.57738587747731e-04
7.65941860465116e+00 1.88208218030953e-02 2.56125796647652e-04
7.68662790697674e+00 1.86698010471144e-02 2.54521491528583e-04
7.71383720930233e+00 1.85199921016392e-02 2.52925650615767e-04
7.74104651162791e+00 1.83713852429413e-02 2.51338251946044e-04
7.76825581395349e+00 1.82239708253167e-02 2.49759273205360e-04
7.79546511627907e+00 1.80777392802742e-02 2.48188691587237e-04
7.82267441860465e+00 1.79326811164753e-02 2.46626483959472e-04
7.84988372093023e+00 1.77887869185533e-02 2.45072627032704e-04
7.87709302325581e+00 1.76460473466913e-02 2.43527097128947e-04
7.90430232558140e+00 1.75044531360166e-02 2.41989870344979e-04
7.93151162790698e+00 1.73639950958238e-02 2.40460922337667e-04
7.95872093023256e+00 1.72246641095077e-02 2.38940228482065e-04
7.98593023255814e+00 1.70864511334382e-02 2.37427764031323e-04
8.01313953488372e+00 1.69493471965528e-02 2.35923503967402e-04
8.04034883720930e+00 1.68133433996065e-02 2.34427422870864e-04
8.06755813953488e+00 1.66784309151000e-02 2.32939495072716e-04
8.09476744186047e+00 1.65446009861974e-02 2.31459694808035e-04
8.12197674418605e+00 1.64118449263288e-02 2.29987996071986e-04
8.14918604651163e+00 1.62801541184667e-02 2.28524372494256e-04
8.17639534883721e+00 1.61495200150496e-02 2.27068797484883e-04
8.20360465116279e+00 1.60199341369409e-02 2.25621244381836e-04
8.23081395348837e+00 1.58913880730414e-02 2.24181686246293e-04
8.25802325581395e+00 1.57638734797441e-02 2.22750096005691e-04
8.28523255813954e+00 1.56373820802410e-02 2.21326446263763e-04
8.31244186046512e+00 1.55119056644422e-02 2.19910709438902e-04
8.33965116279070e+00 1.53874360879839e-02 2.18502857904248e-04
8.36686046511628e+00 1.52639652718534e-02 2.17102863855413e-04
8.39406976744186e+00 1.51414852017213e-02 2.15710699194890e-04
8.42127906976744e+00 1.50199879278562e-02 2.14326335665048e-04
8.44848837209302e+00 1.48994655641706e-02 2.12949744982729e-04
8.47569767441860e+00 1.47799102878557e-02 2.11580898711684e-04
8.50290697674419e+00 1.46613143387363e-02 2.10219768151049e-04
8.53011627906977e+00 1.45436700191835e-02 2.08866324463190e-04
8.55732558139535e+00 1.44269696931953e-02 2.07520538803048e-04
8.58453488372093e+00 1.43112057860422e-02 2.06182382136940e-04
