Energy (eV)          EEDF (eV^-(3/2))     First Anisotropy
4.96153846153846e-03 9.47459459867176e-01 5.62853016404164e-04
1.48846153846154e-02 9.39103670311191e-01 9.28453193345821e-04
2.48076923076923e-02 9.30821571751505e-01 1.22307761199156e-03
3.47307692307692e-02 9.22612514258175e-01 1.44533853156694e-03
4.46538461538462e-02 9.14475853704878e-01 1.62941415119594e-03
5.45769230769231e-02 9.06410951606695e-01 1.78826403940732e-03
6.45000000000000e-02 8.98417175113178e-01 1.92861313355411e-03
7.44230769230769e-02 8.90493896945144e-01 2.05453325619700e-03
8.43461538461538e-02 8.82640495379509e-01 2.16873201462688e-03
9.42692307692308e-02 8.74856354162933e-01 2.27312807737279e-03
1.04192307692308e-01 8.67140862477155e-01 2.36914541241941e-03
1.14115384615385e-01 8.59493414897574e-01 2.45787878862685e-03
1.24038461538462e-01 8.51913411319845e-01 2.54019365726021e-03
1.33961538461538e-01 8.44400256945875e-01 2.61678981534351e-03
1.43884615384615e-01 8.36953362222578e-01 2.68824379653674e-03
1.53807692307692e-01 8.29572142796649e-01 2.75503812002674e-03
1.63730769230769e-01 8.22256019468152e-01 2.81758208638458e-03
1.73653846153846e-01 8.15004418145101e-01 2.87622694238325e-03
1.83576923076923e-01 8.07816769798444e-01 2.93127718355911e-03
1.93500000000000e-01 8.00692510417421e-01 2.98299913598427e-03
2.03423076923077e-01 7.93631081000080e-01 3.03162759817892e-03
2.13346153846154e-01 7.86631927403062e-01 3.07737103149253e-03
2.23269230769231e-01 7.79694500406732e-01 3.12041568111154e-03
2.33192307692308e-01 7.72818255635067e-01 3.16092890525570e-03
2.43115384615385e-01 7.66002653512942e-01 3.19906186674603e-03
2.53038461538462e-01 7.59247159223799e-01 3.23495174391717e-03
2.62961538461538e-01 7.52551242667683e-01 3.26872356029481e-03
2.72884615384615e-01 7.45914378419547e-01 3.30049171105637e-03
2.82807692307692e-01 7.39336045688248e-01 3.33036124611011e-03
2.92730769230769e-01 7.32815728275561e-01 3.35842895604850e-03
3.02653846153846e-01 7.26352914535675e-01 3.38478429707464e-03
3.12576923076923e-01 7.19947097335048e-01 3.40951018349714e-03
3.22500000000000e-01 7.13597774012615e-01 3.43268366801194e-03
3.32423076923077e-01 7.07304446359079e-01 3.45437654047363e-03
3.42346153846154e-01 7.01066620520795e-01 3.47465583730745e-03
3.52269230769231e-01 6.94883807018902e-01 3.49358428611897e-03
3.62192307692308e-01 6.88755520691318e-01 3.51122070816121e-03
3.72115384615385e-01 6.82681280654670e-01 3.52762036362237e-03
3.82038461538462e-01 6.76660610266562e-01 3.54283525937796e-03
3.91961538461538e-01 6.70693037088172e-01 3.55691442221223e-03
4.01884615384615e-01 6.64778092847141e-01 3.56990414217728e-03
4.11807692307692e-01 6.58915313400914e-01 3.58184819007571e-03
4.21730769230769e-01 6.53104238700278e-01 3.59278801240742e-03
4.31653846153846e-01 6.47344412753254e-01 3.60276290658994e-03
4.41576923076923e-01 6.41635383589326e-01 3.61181017890433e-03
4.51500000000000e-01 6.35976703223966e-01 3.61996528536401e-03
4.61423076923077e-01 6.30367927635460e-01 3.62726196669613e-03
4.71346153846154e-01 6.24808616693714e-01 3.63373236197198e-03
4.81269230769231e-01 6.19298334162518e-01 3.63940711165992e-03
4.91192307692308e-01 6.13836647652893e-01 3.64431546094514e-03
5.01115384615385e-01 6.08423128589158e-01 3.64848534690323e-03
5.11038461538462e-01 6.03057352175308e-01 3.65194348013468e-03
5.20961538461538e-01 5.97738897361671e-01 3.65471541968160e-03
5.30884615384615e-01 5.92467346811856e-01 3.65682564189197e-03
5.40807692307692e-01 5.87242286870044e-01 3.65829760384980e-03
5.50730769230769e-01 5.82063307528508e-01 3.65915380190070e-03
5.60653846153846e-01 5.76930002395440e-01 3.65941582572136e-03
5.70576923076923e-01 5.71841968663060e-01 3.65910440836599e-03
5.80500000000000e-01 5.66798807076010e-01 3.65823947118482e-03
5.90423076923077e-01 5.61800121908337e-01 3.65684017133753e-03
6.00346153846154e-01 5.56845520907234e-01 3.65492493883475e-03
6.10269230769231e-01 5.51934615287740e-01 3.65251151078010e-03
6.20192307692308e-01 5.47067019693652e-01 3.64961697067216e-03
6.30115384615385e-01 5.42242352167275e-01 3.64625777928559e-03
6.40038461538462e-01 5.37460234119459e-01 3.64244980496250e-03
6.49961538461538e-01 5.32720290299887e-01 3.63820835195456e-03
6.59884615384615e-01 5.28022148767619e-01 3.63354818696183e-03
6.69807692307692e-01 5.23365440861931e-01 3.62848356402272e-03
6.79730769230769e-01 5.18749801173370e-01 3.62302824788264e-03
6.89653846153846e-01 5.14174867515086e-01 3.61719553594626e-03
6.99576923076923e-01 5.09640280894409e-01 3.61099827892928e-03
7.09500000000000e-01 5.05145685484680e-01 3.60444889911723e-03
7.19423076923077e-01 5.00690728603395e-01 3.59755941227995e-03
7.29346153846154e-01 4.96275060666147e-01 3.59034144255211e-03
7.39269230769231e-01 4.91898335177764e-01 3.58280623631942e-03
7.49192307692308e-01 4.87560208698869e-01 3.57496468132664e-03
7.59115384615385e-01 4.83260340818926e-01 3.56682732003265e-03
7.69038461538462e-01 4.78998394129532e-01 3.55840436342281e-03
7.78961538461538e-01 4.74774034197939e-01 3.54970570409622e-03
7.88884615384615e-01 4.70586929540804e-01 3.54074092867013e-03
7.98807692307692e-01 4.66436751598195e-01 3.53151932955294e-03
8.08730769230769e-01 4.62323174707796e-01 3.52204991612640e-03
8.18653846153846e-01 4.58245876079361e-01 3.51234142536648e-03
8.28576923076923e-01 4.54204535769374e-01 3.50240233194501e-03
8.38500000000000e-01 4.50198836655954e-01 3.49224085686901e-03
8.48423076923077e-01 4.46228464418544e-01 3.48186497957503e-03
8.58346153846154e-01 4.42293107499378e-01 3.47128244467733e-03
8.68269230769231e-01 4.38392457093038e-01 3.46050076828333e-03
8.78192307692308e-01 4.34526207117503e-01 3.44952724894381e-03
8.88115384615385e-01 4.30694054190141e-01 3.43836897421222e-03
8.98038461538462e-01 4.26895697603891e-01 3.42703282787730e-03
9.07961538461538e-01 4.23130839303678e-01 3.41552549687634e-03
9.17884615384615e-01 4.19399183863013e-01 3.40385347790335e-03
9.27807692307692e-01 4.15700438460823e-01 3.39202308373356e-03
9.37730769230769e-01 4.12034312858467e-01 3.38004044927886e-03
9.47653846153846e-01 4.08400519376965e-01 3.36791153738502e-03
9.57576923076923e-01 4.04798772874420e-01 3.35564214438832e-03
9.67500000000000e-01 4.01228790723645e-01 3.34323790463408e-03
9.77423076923077e-01 3.97690292793525e-01 3.33070429802733e-03
9.87346153846154e-01 3.94183001416319e-01 3.31804665329940e-03
9.97269230769231e-01 3.90706641376687e-01 3.30527015183299e-03
1.00719230769231e+00 3.87260939883095e-01 3.29237983464645e-03
1.01711538461538e+00 3.83845626546653e-01 3.27938059521841e-03
1.02703846153846e+00 3.80460433402250e-01 3.26627720810763e-03
1.03696153846154e+00 3.77105094782917e-01 3.25307432013017e-03
1.04688461538462e+00 3.73779347397263e-01 3.23977642976293e-03
1.05680769230769e+00 3.70482930306564e-01 3.22638793608609e-03
1.06673076923077e+00 3.67215584811856e-01 3.21291312000141e-03
1.07665384615385e+00 3.63977054526537e-01 3.19935612577817e-03
1.08657692307692e+00 3.60767085354056e-01 3.18572100773032e-03
1.09650000000000e+00 3.57585425380640e-01 3.17201171194960e-03
1.10642307692308e+00 3.54431824943396e-01 3.15823206509575e-03
1.11634615384615e+00 3.51306036581242e-01 3.14438579222025e-03
1.12626923076923e+00 3.48207815042510e-01 3.13047653241406e-03
1.13619230769231e+00 3.45136917184103e-01 3.11650782827209e-03
1.14611538461538e+00 3.42093102034521e-01 3.10248310860443e-03
1.15603846153846e+00 3.39076130773057e-01 3.08840573061060e-03
1.16596153846154e+00 3.36085766633736e-01 3.07427896278995e-03
1.17588461538462e+00 3.33121774964456e-01 3.06010596816768e-03
1.18580769230769e+00 3.30183923206877e-01 3.04588984463066e-03
1.19573076923077e+00 3.27271980804824e-01 3.03163360838732e-03
1.20565384615385e+00 3.24385719259923e-01 3.01734017773236e-03
1.21557692307692e+00 3.21524912111993e-01 3.00301241165214e-03
1.22550000000000e+00 3.18689334851763e-01 2.98865309379445e-03
1.23542307692308e+00 3.15878764973199e-01 2.97426492240940e-03
1.24534615384615e+00 3.13092981932574e-01 2.95985052476803e-03
1.25526923076923e+00 3.10331767152758e-01 2.94541246980502e-03
1.26519230769231e+00 3.07594903940876e-01 2.93095325869086e-03
1.27511538461538e+00 3.04882177536894e-01 2.91647530972835e-03
1.28503846153846e+00 3.02193375095310e-01 2.90198099346552e-03
1.29496153846154e+00 2.99528285606513e-01 2.88747261779041e-03
1.30488461538462e+00 2.96886699942485e-01 2.87295241330737e-03
1.31480769230769e+00 2.94268410839078e-01 2.85842256700802e-03
1.32473076923077e+00 2.91673212820845e-01 2.84388520786751e-03
1.33465384615385e+00 2.89100902244126e-01 2.82934239271123e-03
1.34457692307692e+00 2.86551277279772e-01 2.81479613851974e-03
1.35450000000000e+00 2.84024137841335e-01 2.80024840848886e-03
1.36442307692308e+00 2.81519285625680e-01 2.78570110316109e-03
1.37434615384615e+00 2.79036524078538e-01 2.77115607230423e-03
1.38426923076923e+00 2.76575658396509e-01 2.75661512531827e-03
1.39419230769231e+00 2.74136495459146e-01 2.74208002293011e-03
1.40411538461538e+00 2.71718843866760e-01 2.72755246408539e-03
1.41403846153846e+00 2.69322513924254e-01 2.71303411546504e-03
1.42396153846154e+00 2.66947317576122e-01 2.69852659855766e-03
1.43388461538462e+00 2.64593068442076e-01 2.68403147697810e-03
1.44380769230769e+00 2.62259581801387e-01 2.66955028482576e-03
1.45373076923077e+00 2.59946674530618e-01 2.65508451419838e-03
1.46365384615385e+00 2.57654165137279e-01 2.64063560294130e-03
1.47357692307692e+00 2.55381873744566e-01 2.62620496190402e-03
1.48350000000000e+00 2.53129622031748e-01 2.61179396286291e-03
1.49342307692308e+00 2.50897233265949e-01 2.59740393076545e-03
1.50334615384615e+00 2.48684532272924e-01 2.58303615363806e-03
1.51326923076923e+00 2.46491345437519e-01 2.56869189126369e-03
1.52319230769231e+00 2.44317500647165e-01 2.55437236791919e-03
1.53311538461538e+00 2.42162827321516e-01 2.54007876102561e-03
1.54303846153846e+00 2.40027156398158e-01 2.52581222613681e-03
1.55296153846154e+00 2.37910320278436e-01 2.51157388574904e-03
1.56288461538462e+00 2.35812152855426e-01 2.49736481832363e-03
1.57280769230769e+00 2.33732489500083e-01 2.48318608233001e-03
1.58273076923077e+00 2.31671167009255e-01 2.46903870543747e-03
1.59265384615385e+00 2.29628023632151e-01 2.45492367391141e-03
1.60257692307692e+00 2.27602899056833e-01 2.44084195575338e-03
1.61250000000000e+00 2.25595634360369e-01 2.42679449024806e-03
1.62242307692308e+00 2.23606072033857e-01 2.41278218120689e-03
1.63234615384615e+00 2.21634055957489e-01 2.39880590530663e-03
1.64226923076923e+00 2.19679431399953e-01 2.38486651939029e-03
1.65219230769231e+00 2.17742044971110e-01 2.37096485413864e-03
1.66211538461538e+00 2.15821744645351e-01 2.35710170424895e-03
1.67203846153846e+00 2.13918379748954e-01 2.34327784970321e-03
1.68196153846154e+00 2.12031800914624e-01 2.32949404608565e-03
1.69188461538462e+00 2.10161860103589e-01 2.31575101508327e-03
1.70180769230769e+00 2.08308410593314e-01 2.30204946497235e-03
1.71173076923077e+00 2.06471306933835e-01 2.28839008126519e-03
1.72165384615385e+00 2.04650404968672e-01 2.27477351753255e-03
1.73157692307692e+00 2.02845561822868e-01 2.26120041514182e-03
1.74150000000000e+00 2.01056635861043e-01 2.24767139421019e-03
1.75142307692308e+00 1.99283486707200e-01 2.23418704772806e-03
1.76134615384615e+00 1.97525975223336e-01 2.22074794862348e-03
1.77126923076923e+00 1.95783963508156e-01 2.20735465594714e-03
1.78119230769231e+00 1.94057314857182e-01 2.19400770936532e-03
1.79111538461538e+00 1.92345893781274e-01 2.18070762065819e-03
1.80103846153846e+00 1.90649565995407e-01 2.16745489189922e-03
1.81096153846154e+00 1.88968198380323e-01 2.15425000707245e-03
1.82088461538462e+00 1.87301659000050e-01 2.14109342384840e-03
1.83080769230769e+00 1.85649817091010e-01 2.12798559111133e-03
1.84073076923077e+00 1.84012543025126e-01 2.11492694085935e-03
1.85065384615385e+00 1.82389708326426e-01 2.10191788025661e-03
1.86057692307692e+00 1.80781185660430e-01 2.08895880853523e-03
1.87050000000000e+00 1.79186848798681e-01 2.07605010915927e-03
1.88042307692308e+00 1.77606572634466e-01 2.06319214471598e-03
1.89034615384615e+00 1.76040233164411e-01 2.05038526293184e-03
1.90026923076923e+00 1.74487707486737e-01 2.03762980193945e-03
1.91019230769231e+00 1.72948873767487e-01 2.02492608548752e-03
1.92011538461538e+00 1.71423611255244e-01 2.01227441557529e-03
1.93003846153846e+00 1.69911800271180e-01 1.99967508804517e-03
1.93996153846154e+00 1.68413322176541e-01 1.98712838531970e-03
1.94988461538462e+00 1.66928059386587e-01 1.97463456927489e-03
1.95980769230769e+00 1.65455895360926e-01 1.96219389628502e-03
1.96973076923077e+00 1.63996714572202e-01 1.94980661020241e-03
1.97965384615385e+00 1.62550402519317e-01 1.93747293546828e-03
1.98957692307692e+00 1.61116845718010e-01 1.92519309163123e-03
1.99950000000000e+00 1.59695931670721e-01 1.91296728655412e-03
2.00942307692308e+00 1.58287548879126e-01 1.90079571197140e-03
2.01934615384615e+00 1.56891586828218e-01 1.88867854863377e-03
2.02926923076923e+00 1.55507935984308e-01 1.87661597081205e-03
2.03919230769231e+00 1.54136487766296e-01 1.86460814212967e-03
2.04911538461538e+00 1.52777134557407e-01 1.85265520917514e-03
2.05903846153846e+00 1.51429769696354e-01 1.84075731491451e-03
2.06896153846154e+00 1.50094287449658e-01 1.82891459239181e-03
2.07888461538462e+00 1.48770583022770e-01 1.81712715854731e-03
2.08880769230769e+00 1.47458552551480e-01 1.80539512716673e-03
2.09873076923077e+00 1.46158093075244e-01 1.79371860279066e-03
2.10865384615385e+00 1.44869102547733e-01 1.78209767473661e-03
2.11857692307692e+00 1.43591479828464e-01 1.77053242960335e-03
2.12850000000000e+00 1.42325124657102e-01 1.75902294537566e-03
2.13842307692308e+00 1.41069937663467e-01 1.74756928755887e-03
2.14834615384615e+00 1.39825820353735e-01 1.73617151359298e-03
2.15826923076923e+00 1.38592675108302e-01 1.72482967671715e-03
2.16819230769231e+00 1.37370405157258e-01 1.71354382234207e-03
2.17811538461538e+00 1.36158914589758e-01 1.70231398250452e-03
2.18803846153846e+00 1.34958108346176e-01 1.69114018743274e-03
2.19796153846154e+00 1.33767892194456e-01 1.68002246007635e-03
2.20788461538462e+00 1.32588172738993e-01 1.66896081073816e-03
2.21780769230769e+00 1.31418857413007e-01 1.65795524824682e-03
2.22773076923077e+00 1.30259854455734e-01 1.64700577466611e-03
2.23765384615385e+00 1.29111072920855e-01 1.63611238010206e-03
2.24757692307692e+00 1.27972422669062e-01 1.62527505349741e-03
2.25750000000000e+00 1.26843814346071e-01 1.61449377750971e-03
2.26742307692308e+00 1.25725159390612e-01 1.60376852514579e-03
2.27734615384615e+00 1.24616370022454e-01 1.59309926355958e-03
2.28726923076923e+00 1.23517359240207e-01 1.58248595737747e-03
2.29719230769231e+00 1.22428040800320e-01 1.57192856553829e-03
2.30711538461538e+00 1.21348329224578e-01 1.56142703647366e-03
2.31703846153846e+00 1.20278139793125e-01 1.55098131810180e-03
2.32696153846154e+00 1.19217388524194e-01 1.54059135307252e-03
2.33688461538462e+00 1.18165992181218e-01 1.53025707410041e-03
2.34680769230769e+00 1.17123868266043e-01 1.51997841362365e-03
2.35673076923077e+00 1.16090934999370e-01 1.50975529920381e-03
2.36665384615385e+00 1.15067111327495e-01 1.49958764901021e-03
2.37657692307692e+00 1.14052316915705e-01 1.48947538115602e-03
2.38650000000000e+00 1.13046472129403e-01 1.47941840924359e-03
2.39642307692308e+00 1.12049498040504e-01 1.46941663943204e-03
2.40634615384615e+00 1.11061316417004e-01 1.45946997371264e-03
2.41626923076923e+00 1.10081849720796e-01 1.44957831277691e-03
2.42619230769231e+00 1.09111021089637e-01 1.43974155326185e-03
2.43611538461538e+00 1.08148754343137e-01 1.42995958355679e-03
2.44603846153846e+00 1.07194973976564e-01 1.42023229245474e-03
2.45596153846154e+00 1.06249605143423e-01 1.41055956501471e-03
2.46588461538462e+00 1.05312573661138e-01 1.40094127850032e-03
2.47580769230769e+00 1.04383806005029e-01 1.39137731074482e-03
2.48573076923077e+00 1.03463229291482e-01 1.38186753614689e-03
2.49565384615385e+00 1.02550771283347e-01 1.37241182173980e-03
2.50557692307692e+00 1.01646360384068e-01 1.36301003528032e-03
2.51550000000000e+00 1.00749925621433e-01 1.35366204137009e-03
2.52542307692308e+00 9.98613966527024e-02 1.34436769889855e-03
2.53534615384615e+00 9.89807037554957e-02 1.33512686387354e-03
2.54526923076923e+00 9.81077778256766e-02 1.32593939189995e-03
2.55519230769231e+00 9.72425503618150e-02 1.31680513577674e-03
2.56511538461538e+00 9.63849534699861e-02 1.30772394184456e-03
2.57503846153846e+00 9.55349198582568e-02 1.29869565748726e-03
2.58496153846154e+00 9.46923828216751e-02 1.28972012752788e-03
2.59488461538462e+00 9.38572762468199e-02 1.28079719069050e-03
2.60480769230769e+00 9.30295346064386e-02 1.27192668685598e-03
2.61473076923077e+00 9.22090929449417e-02 1.26310845357317e-03
2.62465384615385e+00 9.13958868827214e-02 1.25434232263375e-03
2.63457692307692e+00 9.05898526109274e-02 1.24562812709095e-03
2.64450000000000e+00 8.97909268774544e-02 1.23696569787952e-03
2.65442307692308e+00 8.89990469910385e-02 1.22835486158396e-03
2.66434615384615e+00 8.82141508132994e-02 1.21979544288902e-03
2.67426923076923e+00 8.74361767567057e-02 1.21128726672578e-03
2.68419230769231e+00 8.66650637711654e-02 1.20283015617345e-03
2.69411538461538e+00 8.59007513478639e-02 1.19442392927536e-03
2.70403846153846e+00 8.51431795143592e-02 1.18606840555278e-03
2.71396153846154e+00 8.43922888216199e-02 1.17776340286242e-03
2.72388461538462e+00 8.36480203476621e-02 1.16950873431122e-03
2.73380769230769e+00 8.29103156927793e-02 1.16130421455886e-03
2.74373076923077e+00 8.21791169670101e-02 1.15314965677513e-03
2.75365384615385e+00 8.14543667935897e-02 1.14504486965235e-03
2.76357692307692e+00 8.07360083043027e-02 1.13698966350413e-03
2.77350000000000e+00 8.00239851273702e-02 1.12898384731681e-03
2.78342307692308e+00 7.93182413907228e-02 1.12102722680016e-03
2.79334615384615e+00 7.86187217150352e-02 1.11311960651206e-03
2.80326923076923e+00 7.79253712117961e-02 1.10526079171945e-03
2.81319230769231e+00 7.72381354717100e-02 1.09745058656511e-03
2.82311538461538e+00 7.65569605677629e-02 1.08968879128923e-03
2.83303846153846e+00 7.58817930508582e-02 1.08197520789276e-03
2.84296153846154e+00 7.52125799386011e-02 1.07430963739497e-03
2.85288461538462e+00 7.45492687182021e-02 1.06669187714082e-03
2.86280769230769e+00 7.38918073422324e-02 1.05912172628235e-03
2.87273076923077e+00 7.32401442177753e-02 1.05159898312250e-03
2.88265384615385e+00 7.25942282091799e-02 1.04412344250711e-03
2.89257692307692e+00 7.19540086339271e-02 1.03669490113071e-03
2.90250000000000e+00 7.13194352521384e-02 1.02931315496213e-03
2.91242307692308e+00 7.06904582691862e-02 1.02197799754057e-03
2.92234615384615e+00 7.00670283295896e-02 1.01468922182039e-03
2.93226923076923e+00 6.94490965151983e-02 1.00744662178699e-03
2.94219230769231e+00 6.88366143351436e-02 1.00024999085389e-03
2.95211538461538e+00 6.82295337282817e-02 9.93099119436043e-04
2.96203846153846e+00 6.76278070593105e-02 9.85993799879719e-04
2.97196153846154e+00 6.70313871090473e-02 9.78933824067053e-04
2.98188461538462e+00 6.64402270767415e-02 9.71918981063813e-04
2.99180769230769e+00 6.58542805762979e-02 9.64949061892202e-04
3.00173076923077e+00 6.52735016268680e-02 9.58023857210211e-04
3.01165384615385e+00 6.46978446550429e-02 9.51143155033079e-04
3.02157692307692e+00 6.41272644911736e-02 9.44306745354069e-04
3.03150000000000e+00 6.35617163602704e-02 9.37514417894979e-04
3.04142307692308e+00 6.30011558840787e-02 9.30765960615778e-04
3.05134615384615e+00 6.24455390757227e-02 9.24061161318239e-04
3.06126923076923e+00 6.18948223380092e-02 9.17399809050726e-04
3.07119230769231e+00 6.13489624547065e-02 9.10781692705663e-04
3.08111538461538e+00 6.08079165924852e-02 9.04206598898530e-04
3.09103846153846e+00 6.02716422974632e-02 8.97674316263413e-04
3.10096153846154e+00 5.97400974867642e-02 8.91184633359138e-04
3.11088461538462e+00 5.92132404503539e-02 8.84737336612952e-04
3.12080769230769e+00 5.86910298476790e-02 8.78332214480272e-04
3.13073076923077e+00 5.81734246994950e-02 8.71969055415879e-04
