Energy (eV)          EEDF (eV^-(3/2))     First Anisotropy
2.13934426229508e-02 5.40578168833120e-02 2.59562840725990e-05
6.41803278688525e-02 5.37530008103551e-02 4.28845311196478e-05
1.06967213114754e-01 5.34499035052654e-02 5.66742756501782e-05
1.49754098360656e-01 5.31485152756952e-02 6.71881760950975e-05
1.92540983606557e-01 5.28488264862041e-02 7.59881837650984e-05
2.35327868852459e-01 5.25508275536612e-02 8.36637898355141e-05
2.78114754098361e-01 5.22545089493531e-02 9.05195361923451e-05
3.20901639344262e-01 5.19598611974025e-02 9.67390204321427e-05
3.63688524590164e-01 5.16668748774304e-02 1.02443807218769e-04
4.06475409836066e-01 5.13755406210152e-02 1.07719675321896e-04
4.49262295081967e-01 5.10858491126182e-02 1.12630018878683e-04
4.92049180327869e-01 5.07977910886482e-02 1.17223372278270e-04
5.34836065573771e-01 5.05113573390121e-02 1.21537944232254e-04
5.77622950819672e-01 5.02265387048662e-02 1.25604502958645e-04
6.20409836065574e-01 4.99433260790299e-02 1.29448293775956e-04
6.63196721311475e-01 4.96617104052531e-02 1.33090360154924e-04
7.05983606557377e-01 4.93816826792497e-02 1.36548481554049e-04
7.48770491803279e-01 4.91032339470298e-02 1.39837856201993e-04
7.91557377049180e-01 4.88263553051000e-02 1.42971608946618e-04
8.34344262295082e-01 4.85510378998431e-02 1.45961176376534e-04
8.77131147540984e-01 4.82772729282551e-02 1.48816603922584e-04
9.19918032786885e-01 4.80050516366079e-02 1.51546778361266e-04
9.62704918032787e-01 4.77343653205365e-02 1.54159611997558e-04
1.00549180327869e+00 4.74652053244912e-02 1.56662190602748e-04
1.04827868852459e+00 4.71975630412148e-02 1.59060892729622e-04
1.09106557377049e+00 4.69314299151435e-02 1.61361489037077e-04
1.13385245901639e+00 4.66667974340604e-02 1.63569222470461e-04
1.17663934426229e+00 4.64036571386638e-02 1.65688876061405e-04
1.21942622950820e+00 4.61420006126643e-02 1.67724829655256e-04
1.26221311475410e+00 4.58818194917077e-02 1.69681107688308e-04
1.30500000000000e+00 4.56231054543208e-02 1.71561419976354e-04
1.34778688524590e+00 4.53658502300570e-02 1.73369196435614e-04
1.39057377049180e+00 4.51100455911682e-02 1.75107617093265e-04
1.43336065573770e+00 4.48556833600809e-02 1.76779637879184e-04
1.47614754098361e+00 4.46027554016979e-02 1.78388013165809e-04
1.51893442622951e+00 4.43512536302928e-02 1.79935315296771e-04
1.56172131147541e+00 4.41011700023606e-02 1.81423951824398e-04
1.60450819672131e+00 4.38524965230037e-02 1.82856180546901e-04
1.64729508196721e+00 4.36052252392659e-02 1.84234122903299e-04
1.69008196721311e+00 4.33593482460690e-02 1.85559775726085e-04
1.73286885245902e+00 4.31148576799763e-02 1.86835022062639e-04
1.77565573770492e+00 4.28717457233515e-02 1.88061639430232e-04
1.81844262295082e+00 4.26300046040221e-02 1.89241309815095e-04
1.86122950819672e+00 4.23896265908801e-02 1.90375626129162e-04
1.90401639344262e+00 4.21506039990868e-02 1.91466099193169e-04
1.94680327868852e+00 4.19129291845422e-02 1.92514163882634e-04
1.98959016393443e+00 4.16765945487654e-02 1.93521184587176e-04
2.03237704918033e+00 4.14415925336789e-02 1.94488460251567e-04
2.07516393442623e+00 4.12079156261953e-02 1.95417228862943e-04
2.11795081967213e+00 4.09755563532862e-02 1.96308671623379e-04
2.16073770491803e+00 4.07445072863026e-02 1.97163916669737e-04
2.20352459016393e+00 4.05147610363035e-02 1.97984042556458e-04
2.24631147540984e+00 4.02863102581337e-02 1.98770081363397e-04
2.28909836065574e+00 4.00591476459897e-02 1.99523021625505e-04
2.33188524590164e+00 3.98332659372751e-02 2.00243810948090e-04
2.37467213114754e+00 3.96086579083848e-02 2.00933358488827e-04
2.41745901639344e+00 3.93853163783568e-02 2.01592537173210e-04
2.46024590163934e+00 3.91632342048565e-02 2.02222185811298e-04
2.50303278688525e+00 3.89424042876413e-02 2.02823110985980e-04
2.54581967213115e+00 3.87228195647301e-02 2.03396088869395e-04
2.58860655737705e+00 3.85044730156949e-02 2.03941866841530e-04
2.63139344262295e+00 3.82873576580020e-02 2.04461165247813e-04
2.67418032786885e+00 3.80714665493345e-02 2.04954678033491e-04
2.71696721311475e+00 3.78567927873302e-02 2.05423075238250e-04
2.75975409836066e+00 3.76433295069306e-02 2.05867003472675e-04
2.80254098360656e+00 3.74310698833675e-02 2.06287087241907e-04
2.84532786885246e+00 3.72200071288104e-02 2.06683930056689e-04
2.88811475409836e+00 3.70101344952148e-02 2.07058115414058e-04
2.93090163934426e+00 3.68014452711080e-02 2.07410207773232e-04
2.97368852459016e+00 3.65939327843079e-02 2.07740753414187e-04
3.01647540983607e+00 3.63875903988392e-02 2.08050281298438e-04
3.05926229508197e+00 3.61824115175307e-02 2.08339303823716e-04
3.10204918032787e+00 3.59783895790538e-02 2.08608317586413e-04
3.14483606557377e+00 3.57755180604066e-02 2.08857804047371e-04
3.18762295081967e+00 3.55737904740661e-02 2.09088230209735e-04
3.23040983606557e+00 3.53732003703666e-02 2.09300049208337e-04
3.27319672131147e+00 3.51737413347598e-02 2.09493700914747e-04
3.31598360655738e+00 3.49754069900929e-02 2.09669612460731e-04
3.35877049180328e+00 3.47781909939700e-02 2.09828198780000e-04
3.40155737704918e+00 3.45820870409371e-02 2.09969863074535e-04
3.44434426229508e+00 3.43870888599383e-02 2.10094997301448e-04
3.48713114754098e+00 3.41931902164129e-02 2.10203982589720e-04
3.52991803278689e+00 3.40003849098418e-02 2.10297189824470e-04
3.57270491803279e+00 3.38086667752254e-02 2.10374979436972e-04
3.61549180327869e+00 3.36180296828619e-02 2.10437702672366e-04
3.65827868852459e+00 3.34284675365422e-02 2.10485701361084e-04
3.70106557377049e+00 3.32399742754833e-02 2.10519308388291e-04
3.74385245901639e+00 3.30525438720446e-02 2.10538848037240e-04
3.78663934426229e+00 3.28661703335877e-02 2.10544636275586e-04
3.82942622950820e+00 3.26808477002690e-02 2.10536981067935e-04
3.87221311475410e+00 3.24965700468291e-02 2.10516182634601e-04
3.91500000000000e+00 3.23133314804582e-02 2.10482533736873e-04
3.95778688524590e+00 3.21311261425185e-02 2.10436319911248e-04
4.00057377049180e+00 3.19499482064797e-02 2.10377819730496e-04
4.04336065573770e+00 3.17697918795775e-02 2.10307305016250e-04
4.08614754098361e+00 3.15906514008147e-02 2.10225041078345e-04
4.12893442622951e+00 3.14125210425600e-02 2.10131286908140e-04
4.17172131147541e+00 3.12353951086122e-02 2.10026295398479e-04
4.21450819672131e+00 3.10592679357413e-02 2.09910313519841e-04
4.25729508196721e+00 3.08841338918125e-02 2.09783582522953e-04
4.30008196721311e+00 3.07099873772734e-02 2.09646338099438e-04
4.34286885245902e+00 3.05368228233348e-02 2.09498810687036e-04
4.38565573770492e+00 3.03646346930139e-02 2.09341225143317e-04
4.42844262295082e+00 3.01934174809407e-02 2.09173801625362e-04
4.47122950819672e+00 3.00231657120049e-02 2.08996755265720e-04
4.51401639344262e+00 2.98538739427397e-02 2.08810296423767e-04
4.55680327868852e+00 2.96855367596137e-02 2.08614630840378e-04
4.59959016393443e+00 2.95181487803675e-02 2.08409959755780e-04
4.64237704918033e+00 2.93517046523557e-02 2.08196480053337e-04
4.68516393442623e+00 2.91861990538385e-02 2.07974384367830e-04
4.72795081967213e+00 2.90216266923716e-02 2.07743861219276e-04
4.77073770491803e+00 2.88579823060542e-02 2.07505095112576e-04
4.81352459016393e+00 2.86952606619656e-02 2.07258266662233e-04
4.85631147540984e+00 2.85334565573718e-02 2.07003552684220e-04
4.89909836065574e+00 2.83725648182061e-02 2.06741126312474e-04
4.94188524590164e+00 2.82125803002361e-02 2.06471157083608e-04
4.98467213114754e+00 2.80534978875865e-02 2.06193811045833e-04
5.02745901639344e+00 2.78953124938694e-02 2.05909250837246e-04
5.07024590163934e+00 2.77380190607464e-02 2.05617635787876e-04
5.11303278688525e+00 2.75816125590233e-02 2.05319121992021e-04
5.15581967213115e+00 2.74260879872516e-02 2.05013862403975e-04
5.19860655737705e+00 2.72714403727879e-02 2.04702006905081e-04
5.24139344262295e+00 2.71176647704335e-02 2.04383702489081e-04
5.28418032786885e+00 2.69647562631716e-02 2.04059092941686e-04
5.32696721311475e+00 2.68127099619991e-02 2.03728319496665e-04
5.36975409836066e+00 2.66615210049039e-02 2.03391520522071e-04
5.41254098360656e+00 2.65111845578578e-02 2.03048831674640e-04
5.45532786885246e+00 2.63616958135299e-02 2.02700385977338e-04
5.49811475409836e+00 2.62130499922488e-02 2.02346313870738e-04
5.54090163934426e+00 2.60652423407498e-02 2.01986743286124e-04
5.58368852459016e+00 2.59182681331072e-02 2.01621799693264e-04
5.62647540983606e+00 2.57721226695142e-02 2.01251606169512e-04
5.66926229508197e+00 2.56268012771866e-02 2.00876283444214e-04
5.71204918032787e+00 2.54822993091741e-02 2.00495949964083e-04
5.75483606557377e+00 2.53386121452368e-02 2.00110721934581e-04
5.79762295081967e+00 2.51957351906861e-02 1.99720713381743e-04
5.84040983606557e+00 2.50536638772358e-02 1.99326036190790e-04
5.88319672131148e+00 2.49123936618712e-02 1.98926800164746e-04
5.92598360655738e+00 2.47719200276753e-02 1.98523113060413e-04
5.96877049180328e+00 2.46322384827263e-02 1.98115080644007e-04
6.01155737704918e+00 2.44933445608992e-02 1.97702806724726e-04
6.05434426229508e+00 2.43552338207900e-02 1.97286393207578e-04
6.09713114754098e+00 2.42179018464945e-02 1.96865940124766e-04
6.13991803278688e+00 2.40813442465585e-02 1.96441545764228e-04
6.18270491803279e+00 2.39455566545152e-02 1.96013306385120e-04
6.22549180327869e+00 2.38105347287372e-02 1.95581316734620e-04
6.26827868852459e+00 2.36762741516412e-02 1.95145669770216e-04
6.31106557377049e+00 2.35427706304208e-02 1.94706456767274e-04
6.35385245901639e+00 2.34100198960498e-02 1.94263767363622e-04
6.39663934426229e+00 2.32780177039940e-02 1.93817689584268e-04
6.43942622950820e+00 2.31467598332380e-02 1.93368309883822e-04
6.48221311475410e+00 2.30162420869771e-02 1.92915713169653e-04
6.52500000000000e+00 2.28864602916666e-02 1.92459982842429e-04
6.56778688524590e+00 2.27574102976946e-02 1.92001200817759e-04
6.61057377049180e+00 2.26290879784535e-02 1.91539447564965e-04
6.65336065573770e+00 2.25014892309934e-02 1.91074802127361e-04
6.69614754098361e+00 2.23746099751157e-02 1.90607342159256e-04
6.73893442622951e+00 2.22484461540081e-02 1.90137143944989e-04
6.78172131147541e+00 2.21229937333587e-02 1.89664282434383e-04
6.82450819672131e+00 2.19982487019744e-02 1.89188831260557e-04
6.86729508196721e+00 2.18742070709139e-02 1.88710862773881e-04
6.91008196721311e+00 2.17508648740899e-02 1.88230448058667e-04
6.95286885245902e+00 2.16282181674217e-02 1.87747657031875e-04
6.99565573770492e+00 2.15062630292470e-02 1.87262558193772e-04
7.03844262295082e+00 2.13849955601896e-02 1.86775219055255e-04
7.08122950819672e+00 2.12644118825137e-02 1.86285705894604e-04
7.12401639344262e+00 2.11445081406918e-02 1.85794083840295e-04
7.16680327868852e+00 2.10252805005979e-02 1.85300416900367e-04
7.20959016393443e+00 2.09067251500602e-02 1.84804767975750e-04
7.25237704918033e+00 2.07888382980720e-02 1.84307198888473e-04
7.29516393442623e+00 2.06716161753294e-02 1.83807770394194e-04
7.33795081967213e+00 2.05550550334599e-02 1.83306542209296e-04
7.38073770491803e+00 2.04391511455459e-02 1.82803573022676e-04
7.42352459016393e+00 2.03239008053698e-02 1.82298920521812e-04
7.46631147540984e+00 2.02093003279233e-02 1.81792641403817e-04
7.50909836065574e+00 2.00953460486693e-02 1.81284791400492e-04
7.55188524590164e+00 1.99820343240380e-02 1.80775425288754e-04
7.59467213114754e+00 1.98693615307042e-02 1.80264596914772e-04
7.63745901639344e+00 1.97573240660703e-02 1.79752359203708e-04
7.68024590163934e+00 1.96459183475594e-02 1.79238764183004e-04
7.72303278688525e+00 1.95351408130858e-02 1.78723862991538e-04
7.76581967213115e+00 1.94249879203623e-02 1.78207705902023e-04
7.80860655737705e+00 1.93154561473595e-02 1.77690342329682e-04
7.85139344262295e+00 1.92065419916272e-02 1.77171820909110e-04
7.89418032786885e+00 1.90982419706048e-02 1.76652189280883e-04
7.93696721311475e+00 1.89905526215052e-02 1.76131494443542e-04
7.97975409836066e+00 1.88834705007938e-02 1.75609782545467e-04
8.02254098360656e+00 1.87769921846231e-02 1.75087098949472e-04
8.06532786885246e+00 1.86711142681849e-02 1.74563488252577e-04
8.10811475409836e+00 1.85658333661332e-02 1.74038994292952e-04
8.15090163934426e+00 1.84611461119505e-02 1.73513660169049e-04
8.19368852459016e+00 1.83570491583599e-02 1.72987528246077e-04
8.23647540983606e+00 1.82535391767036e-02 1.72460640174489e-04
8.27926229508197e+00 1.81506128573455e-02 1.71933036896051e-04
8.32204918032787e+00 1.80482669090621e-02 1.71404758661755e-04
8.36483606557377e+00 1.79464980594348e-02 1.70875845037522e-04
8.40762295081967e+00 1.78453030542534e-02 1.70346334921502e-04
8.45040983606557e+00 1.77446786578981e-02 1.69816266549428e-04
8.49319672131148e+00 1.76446216527557e-02 1.69285677511335e-04
8.53598360655738e+00 1.75451288395917e-02 1.68754604756628e-04
8.57877049180328e+00 1.74461970369782e-02 1.68223084610269e-04
8.62155737704918e+00 1.73478230816568e-02 1.67691152777487e-04
8.66434426229508e+00 1.72500038279778e-02 1.67158844359449e-04
8.70713114754098e+00 1.71527361482546e-02 1.66626193857741e-04
8.74991803278689e+00 1.70560169322133e-02 1.66093235236033e-04
8.79270491803279e+00 1.69598430872301e-02 1.65560001737936e-04
8.83549180327869e+00 1.68642115382276e-02 1.65026526180258e-04
8.87827868852459e+00 1.67691192272507e-02 1.64492840775338e-04
8.92106557377049e+00 1.66745631138024e-02 1.63958977182903e-04
8.96385245901639e+00 1.65805401743170e-02 1.63424966524146e-04
9.00663934426229e+00 1.64870474024887e-02 1.62890839385211e-04
9.04942622950820e+00 1.63940818087550e-02 1.62356625830872e-04
9.09221311475410e+00 1.63016404206164e-02 1.61822355407823e-04
9.13500000000000e+00 1.62097202821311e-02 1.61288057157871e-04
9.17778688524590e+00 1.61183184542263e-02 1.60753759621052e-04
9.22057377049180e+00 1.60274320142024e-02 1.60219490848468e-04
9.26336065573770e+00 1.59370580560374e-02 1.59685278405151e-04
9.30614754098361e+00 1.58471936899001e-02 1.59151149382563e-04
9.34893442622951e+00 1.57578360424476e-02 1.58617130401244e-04
9.39172131147541e+00 1.56689822563476e-02 1.58083247622926e-04
9.43450819672131e+00 1.55806294905689e-02 1.57549526753068e-04
9.47729508196721e+00 1.54927749199124e-02 1.57015993052580e-04
9.52008196721311e+00 1.54054157352951e-02 1.56482671340184e-04
9.56286885245902e+00 1.53185491432901e-02 1.55949586043828e-04
9.60565573770492e+00 1.52321723663137e-02 1.55416761042668e-04
9.64844262295082e+00 1.51462826425333e-02 1.54884219917667e-04
9.69122950819672e+00 1.50608772255108e-02 1.54351985797448e-04
9.73401639344262e+00 1.49759533844711e-02 1.53820081401536e-04
9.77680327868852e+00 1.48915084038625e-02 1.53288529051044e-04
9.81959016393442e+00 1.48075395836183e-02 1.52757350670461e-04
9.86237704918033e+00 1.47240442387256e-02 1.52226567798007e-04
9.90516393442623e+00 1.46410196994809e-02 1.51696201587295e-04
9.94795081967213e+00 1.45584633110666e-02 1.51166272817442e-04
9.99073770491803e+00 1.44763724338010e-02 1.50636801710240e-04
1.00335245901639e+01 1.43947444431261e-02 1.50107808568680e-04
1.00763114754098e+01 1.43135767284742e-02 1.49579313222453e-04
1.01190983606557e+01 1.42328666944870e-02 1.49051334772918e-04
1.01618852459016e+01 1.41526117604405e-02 1.48523892199536e-04
1.02046721311475e+01 1.40728093601624e-02 1.47997004137960e-04
1.02474590163934e+01 1.39934569419503e-02 1.47470688885081e-04
1.02902459016393e+01 1.39145519684905e-02 1.46944964054353e-04
1.03330327868852e+01 1.38360919175327e-02 1.46419847636040e-04
1.03758196721311e+01 1.37580742795291e-02 1.45895357296626e-04
1.04186065573770e+01 1.36804965598461e-02 1.45371509671002e-04
1.04613934426230e+01 1.36033562779161e-02 1.44848321439417e-04
1.05041803278689e+01 1.35266509671583e-02 1.44325808972753e-04
1.05469672131148e+01 1.34503781749006e-02 1.43803988337146e-04
1.05897540983607e+01 1.33745354623010e-02 1.43282874967153e-04
1.06325409836066e+01 1.32991204049759e-02 1.42762484670037e-04
1.06753278688525e+01 1.32241305907926e-02 1.42242832961675e-04
1.07181147540984e+01 1.31495636219325e-02 1.41723934395539e-04
1.07609016393443e+01 1.30754171140975e-02 1.41205803582807e-04
1.08036885245902e+01 1.30016886964336e-02 1.40688454856130e-04
1.08464754098361e+01 1.29283760114554e-02 1.40171902273849e-04
1.08892622950820e+01 1.28554767149711e-02 1.39656159309701e-04
1.09320491803279e+01 1.27829884766675e-02 1.39141239804760e-04
1.09748360655738e+01 1.27109089780443e-02 1.38627157337600e-04
1.10176229508197e+01 1.26392359143409e-02 1.38113924587965e-04
1.10604098360656e+01 1.25679669937923e-02 1.37601554303472e-04
1.11031967213115e+01 1.24970999375561e-02 1.37090058980738e-04
1.11459836065574e+01 1.24266324796398e-02 1.36579450568757e-04
1.11887704918033e+01 1.23565623674517e-02 1.36069741378060e-04
1.12315573770492e+01 1.22868873598495e-02 1.35560943479019e-04
1.12743442622951e+01 1.22176052289566e-02 1.35053068093972e-04
1.13171311475410e+01 1.21487137594590e-02 1.34546126520326e-04
1.13599180327869e+01 1.20802107485338e-02 1.34040129825938e-04
1.14027049180328e+01 1.20120940057793e-02 1.33535088852360e-04
1.14454918032787e+01 1.19443613531448e-02 1.33031013933310e-04
1.14882786885246e+01 1.18770106254450e-02 1.32527915756819e-04
1.15310655737705e+01 1.18100396685307e-02 1.32025804794331e-04
1.15738524590164e+01 1.17434463409882e-02 1.31524690723810e-04
1.16166393442623e+01 1.16772285134786e-02 1.31024583305354e-04
1.16594262295082e+01 1.16113840686690e-02 1.30525492091884e-04
1.17022131147541e+01 1.15459109011662e-02 1.30027426432120e-04
1.17450000000000e+01 1.14808069174486e-02 1.29530395203393e-04
1.17877868852459e+01 1.14160700363462e-02 1.29034407629533e-04
1.18305737704918e+01 1.13516981873257e-02 1.28539472738935e-04
1.18733606557377e+01 1.12876893120803e-02 1.28045598816909e-04
1.19161475409836e+01 1.12240413639096e-02 1.27552794236481e-04
1.19589344262295e+01 1.11607523076532e-02 1.27061067183701e-04
1.20017213114754e+01 1.10978201196272e-02 1.26570425660384e-04
1.20445081967213e+01 1.10352427875584e-02 1.26080877230256e-04
1.20872950819672e+01 1.09730183110328e-02 1.25592429795248e-04
1.21300819672131e+01 1.09111446998865e-02 1.25105091080893e-04
1.21728688524590e+01 1.08496199756946e-02 1.24618868116352e-04
1.22156557377049e+01 1.07884421711878e-02 1.24133768022825e-04
1.22584426229508e+01 1.07276093301894e-02 1.23649797752745e-04
1.23012295081967e+01 1.06671195075535e-02 1.23166964092346e-04
1.23440163934426e+01 1.06069707691019e-02 1.22685273420313e-04
1.23868032786885e+01 1.05471611920440e-02 1.22204732444919e-04
1.24295901639344e+01 1.04876888634651e-02 1.21725347715200e-04
1.24723770491803e+01 1.04285518817218e-02 1.21247125127110e-04
1.25151639344262e+01 1.03697483558933e-02 1.20770070671967e-04
1.25579508196721e+01 1.03112764057213e-02 1.20294190188748e-04
1.26007377049180e+01 1.02531341615497e-02 1.19819489133245e-04
1.26435245901639e+01 1.01953197647203e-02 1.19345973282944e-04
1.26863114754098e+01 1.01378313661407e-02 1.18873648269512e-04
1.27290983606557e+01 1.00806671276044e-02 1.18402519106371e-04
1.27718852459016e+01 1.00238252212697e-02 1.17932590904493e-04
1.28146721311475e+01 9.96730382960132e-03 1.17463868635409e-04
1.28574590163934e+01 9.91110114531285e-03 1.16996357133162e-04
1.29002459016393e+01 9.85521537130857e-03 1.16530060874939e-04
1.29430327868852e+01 9.79964472105357e-03 1.16064984650595e-04
1.29858196721311e+01 9.74438741722815e-03 1.15601133118388e-04
1.30286065573770e+01 9.68944169296540e-03 1.15138510356015e-04
1.30713934426230e+01 9.63480579136126e-03 1.14677120540661e-04
1.31141803278689e+01 9.58047796541800e-03 1.14216967723620e-04
1.31569672131148e+01 9.52645647798899e-03 1.13758055832136e-04
1.31997540983607e+01 9.47273960172284e-03 1.13300388460899e-04
1.32425409836066e+01 9.41932561940985e-03 1.12843969508155e-04
1.32853278688525e+01 9.36621282271650e-03 1.12388802753431e-04
1.33281147540984e+01 9.31339951334705e-03 1.11934891430786e-04
1.33709016393443e+01 9.26088400258185e-03 1.11482238874949e-04
1.34136885245902e+01 9.20866461122327e-03 1.11030848307112e-04
1.34564754098361e+01 9.15673966954240e-03 1.10580722836652e-04
1.34992622950820e+01 9.10510751722542e-03 1.10131865262740e-04
