Energy (eV)          EEDF (eV^-(3/2))     First Anisotropy
1.09574468085106e-03 6.86089957108997e+00 3.58552230651717e-03
3.28723404255319e-03 6.81087061690180e+00 5.91902843592464e-03
5.47872340425532e-03 6.76120646858108e+00 7.80931776877815e-03
7.67021276595745e-03 6.71190446591210e+00 9.24266740924209e-03
9.86170212765958e-03 6.66296196826015e+00 1.04358516068450e-02
1.20531914893617e-02 6.61437635417679e+00 1.14708795979488e-02
1.42446808510638e-02 6.56614502111050e+00 1.23902156166495e-02
1.64361702127660e-02 6.51826538602112e+00 1.32195169451447e-02
1.86276595744681e-02 6.47073488406877e+00 1.39758093574893e-02
2.08191489361702e-02 6.42355096942199e+00 1.46711328611420e-02
2.30106382978723e-02 6.37671111502867e+00 1.53144049834580e-02
2.52021276595745e-02 6.33021281182979e+00 1.59124678147535e-02
2.73936170212766e-02 6.28405356944199e+00 1.64707194611902e-02
2.95851063829787e-02 6.23823091531087e+00 1.69935162139779e-02
3.17765957446809e-02 6.19274239507376e+00 1.74844400358236e-02
3.39680851063830e-02 6.14758557239820e+00 1.79464830997645e-02
3.61595744680851e-02 6.10275802845261e+00 1.83821787868087e-02
3.83510638297872e-02 6.05825736228387e+00 1.87936971757550e-02
4.05425531914894e-02 6.01408119022668e+00 1.91829161637900e-02
4.27340425531915e-02 5.97022714610681e+00 1.95514753921842e-02
4.49255319148936e-02 5.92669288109671e+00 1.99008179533006e-02
4.71170212765957e-02 5.88347606331020e+00 2.02322229803515e-02
4.93085106382979e-02 5.84057437795721e+00 2.05468315048605e-02
5.15000000000000e-02 5.79798552720723e+00 2.08456672978664e-02
5.36914893617021e-02 5.75570722982474e+00 2.11296537065639e-02
5.58829787234043e-02 5.71373722135941e+00 2.13996274874954e-02
5.80744680851064e-02 5.67207325373173e+00 2.16563502495528e-02
6.02659574468085e-02 5.63071309532530e+00 2.19005179509235e-02
6.24574468085106e-02 5.58965453085911e+00 2.21327689487213e-02
6.46489361702128e-02 5.54889536108058e+00 2.23536907430266e-02
6.68404255319149e-02 5.50843340283634e+00 2.25638257129406e-02
6.90319148936170e-02 5.46826648894789e+00 2.27636760897862e-02
7.12234042553192e-02 5.42839246792791e+00 2.29537081716049e-02
7.34148936170213e-02 5.38880920408397e+00 2.31343559992278e-02
7.56063829787234e-02 5.34951457719566e+00 2.33060245554829e-02
7.77978723404255e-02 5.31050648255342e+00 2.34690925246715e-02
7.99893617021277e-02 5.27178283084091e+00 2.36239147748287e-02
8.21808510638298e-02 5.23334154788513e+00 2.37708244840694e-02
8.43723404255319e-02 5.19518057472554e+00 2.39101350466696e-02
8.65638297872341e-02 5.15729786733124e+00 2.40421417664478e-02
8.87553191489362e-02 5.11969139661819e+00 2.41671233332159e-02
9.09468085106383e-02 5.08235914833673e+00 2.42853431968912e-02
9.31382978723404e-02 5.04529912284787e+00 2.43970507496864e-02
9.53297872340426e-02 5.00850933513228e+00 2.45024823862522e-02
9.75212765957447e-02 4.97198781468044e+00 2.46018625063723e-02
9.97127659574468e-02 4.93573260528082e+00 2.46954043893320e-02
1.01904255319149e-01 4.89974176492287e+00 2.47833109088933e-02
1.04095744680851e-01 4.86401336608654e+00 2.48657753410512e-02
1.06287234042553e-01 4.82854549506581e+00 2.49429820886744e-02
1.08478723404255e-01 4.79333625181693e+00 2.50151070445478e-02
1.10670212765957e-01 4.75838375075488e+00 2.50823182709913e-02
1.12861702127660e-01 4.72368611973469e+00 2.51447766370005e-02
1.15053191489362e-01 4.68924149999296e+00 2.52026359913508e-02
1.17244680851064e-01 4.65504804687456e+00 2.52560437673632e-02
1.19436170212766e-01 4.62110392863165e+00 2.53051413260411e-02
1.21627659574468e-01 4.58740732740611e+00 2.53500642620698e-02
1.23819148936170e-01 4.55395643832350e+00 2.53909429088406e-02
1.26010638297872e-01 4.52074946943045e+00 2.54279023790292e-02
1.28202127659574e-01 4.48778464233199e+00 2.54610629771052e-02
1.30393617021277e-01 4.45506019134947e+00 2.54905405826868e-02
1.32585106382979e-01 4.42257436345785e+00 2.55164466430670e-02
1.34776595744681e-01 4.39032541886975e+00 2.55388885231606e-02
1.36968085106383e-01 4.35831163025182e+00 2.55579698317837e-02
1.39159574468085e-01 4.32653128265995e+00 2.55737903799113e-02
1.41351063829787e-01 4.29498267407744e+00 2.55864465182238e-02
1.43542553191489e-01 4.26366411448344e+00 2.55960312718450e-02
1.45734042553192e-01 4.23257392658810e+00 2.56026344581336e-02
1.47925531914894e-01 4.20171044512488e+00 2.56063429850562e-02
1.50117021276596e-01 4.17107201678410e+00 2.56072407699565e-02
1.52308510638298e-01 4.14065700069160e+00 2.56054089815414e-02
1.54500000000000e-01 4.11046376774474e+00 2.56009262677202e-02
1.56691489361702e-01 4.08049070054666e+00 2.55938686607712e-02
1.58882978723404e-01 4.05073619384894e+00 2.55843097923121e-02
1.61074468085106e-01 4.02119865392776e+00 2.55723210959460e-02
1.63265957446809e-01 3.99187649851811e+00 2.55579717030438e-02
1.65457446808511e-01 3.96276815722440e+00 2.55413286352447e-02
1.67648936170213e-01 3.93387207093356e+00 2.55224569865795e-02
1.69840425531915e-01 3.90518669174858e+00 2.55014198129330e-02
1.72031914893617e-01 3.87671048337057e+00 2.54782783357270e-02
1.74223404255319e-01 3.84844192039708e+00 2.54530919866619e-02
1.76414893617021e-01 3.82037948885005e+00 2.54259184435980e-02
1.78606382978723e-01 3.79252168563802e+00 2.53968138184446e-02
1.80797872340426e-01 3.76486701849094e+00 2.53658325391239e-02
1.82989361702128e-01 3.73741400630344e+00 2.53330274996100e-02
1.85180851063830e-01 3.71016117862611e+00 2.52984502024269e-02
1.87372340425532e-01 3.68310707560118e+00 2.52621506393978e-02
1.89563829787234e-01 3.65625024828247e+00 2.52241774295708e-02
1.91755319148936e-01 3.62958925815405e+00 2.51845779505008e-02
1.93946808510638e-01 3.60312267706590e+00 2.51433982188338e-02
1.96138297872340e-01 3.57684908753312e+00 2.51006830435682e-02
1.98329787234043e-01 3.55076708215944e+00 2.50564760436615e-02
2.00521276595745e-01 3.52487526405506e+00 2.50108196593127e-02
2.02712765957447e-01 3.49917224639239e+00 2.49637552961129e-02
2.04904255319149e-01 3.47365665234321e+00 2.49153232056301e-02
2.07095744680851e-01 3.44832711534930e+00 2.48655625989743e-02
2.09287234042553e-01 3.42318227870018e+00 2.48145117552233e-02
2.11478723404255e-01 3.39822079547145e+00 2.47622079036530e-02
2.13670212765957e-01 3.37344132877799e+00 2.47086873299025e-02
2.15861702127660e-01 3.34884255137268e+00 2.46539854774485e-02
2.18053191489362e-01 3.32442314558506e+00 2.45981368318383e-02
2.20244680851064e-01 3.30018180355904e+00 2.45411750427326e-02
2.22436170212766e-01 3.27611722677203e+00 2.44831329286297e-02
2.24627659574468e-01 3.25222812637055e+00 2.44240424766562e-02
2.26819148936170e-01 3.22851322279775e+00 2.43639349587908e-02
2.29010638297872e-01 3.20497124573360e+00 2.43028408188664e-02
2.31202127659574e-01 3.18160093431110e+00 2.42407897630594e-02
2.33393617021277e-01 3.15840103676096e+00 2.41778108466844e-02
2.35585106382979e-01 3.13537031035297e+00 2.41139323637884e-02
2.37776595744681e-01 3.11250752159901e+00 2.40491819326773e-02
2.39968085106383e-01 3.08981144591404e+00 2.39835865779568e-02
2.42159574468085e-01 3.06728086755823e+00 2.39171726228152e-02
2.44351063829787e-01 3.04491457982794e+00 2.38499657897468e-02
2.46542553191489e-01 3.02271138464976e+00 2.37819911989096e-02
2.48734042553192e-01 3.00067009285314e+00 2.37132733624316e-02
2.50925531914894e-01 2.97878952385454e+00 2.36438362811144e-02
2.53117021276596e-01 2.95706850560089e+00 2.35737033404239e-02
2.55308510638298e-01 2.93550587474413e+00 2.35028973850641e-02
2.57500000000000e-01 2.91410047633888e+00 2.34314407907730e-02
2.59691489361702e-01 2.89285116378721e+00 2.33593553631068e-02
2.61882978723404e-01 2.87175679900284e+00 2.32866624084502e-02
2.64074468085106e-01 2.85081625212190e+00 2.32133828023300e-02
2.66265957446809e-01 2.83002840144857e+00 2.31395368909926e-02
2.68457446808511e-01 2.80939213360991e+00 2.30651445590269e-02
2.70648936170213e-01 2.78890634327892e+00 2.29902252945542e-02
2.72840425531915e-01 2.76856993312093e+00 2.29147980935557e-02
2.75031914893617e-01 2.74838181393978e+00 2.28388815411787e-02
2.77223404255319e-01 2.72834090434648e+00 2.27624938064875e-02
2.79414893617021e-01 2.70844613097084e+00 2.26856526339266e-02
2.81606382978723e-01 2.68869642820209e+00 2.26083754219203e-02
2.83797872340426e-01 2.66909073813693e+00 2.25306791310523e-02
2.85989361702128e-01 2.64962801071350e+00 2.24525803442349e-02
2.88180851063830e-01 2.63030720346241e+00 2.23740953247353e-02
2.90372340425532e-01 2.61112728145592e+00 2.22952399270229e-02
2.92563829787234e-01 2.59208721743435e+00 2.22160296543524e-02
2.94755319148936e-01 2.57318599156725e+00 2.21364797143529e-02
2.96946808510638e-01 2.55442259140335e+00 2.20566049324827e-02
2.99138297872340e-01 2.53579601199006e+00 2.19764198220559e-02
3.01329787234043e-01 2.51730525558820e+00 2.18959385777870e-02
3.03521276595745e-01 2.49894933184721e+00 2.18151750665044e-02
3.05712765957447e-01 2.48072725758084e+00 2.17341428950882e-02
3.07904255319149e-01 2.46263805671867e+00 2.16528553275879e-02
3.10095744680851e-01 2.44468076041589e+00 2.15713253369470e-02
3.12287234042553e-01 2.42685440683766e+00 2.14895656549767e-02
3.14478723404255e-01 2.40915804111164e+00 2.14075886919335e-02
3.16670212765957e-01 2.39159071543183e+00 2.13254065861976e-02
3.18861702127660e-01 2.37415148885116e+00 2.12430312522859e-02
3.21053191489362e-01 2.35683942723495e+00 2.11604743028212e-02
3.23244680851064e-01 2.33965360335913e+00 2.10777471094630e-02
3.25436170212766e-01 2.32259309666298e+00 2.09948607960210e-02
3.27627659574468e-01 2.30565699339510e+00 2.09118262290807e-02
3.29819148936170e-01 2.28884438641825e+00 2.08286540772788e-02
3.32010638297872e-01 2.27215437516417e+00 2.07453547366653e-02
3.34202127659575e-01 2.25558606572400e+00 2.06619383756157e-02
3.36393617021277e-01 2.23913857066038e+00 2.05784149783222e-02
3.38585106382979e-01 2.22281100896325e+00 2.04947942723807e-02
3.40776595744681e-01 2.20660250613543e+00 2.04110857720409e-02
3.42968085106383e-01 2.19051219401167e+00 2.03272988200746e-02
3.45159574468085e-01 2.17453921071531e+00 2.02434425175259e-02
3.47351063829787e-01 2.15868270073933e+00 2.01595257771273e-02
3.49542553191489e-01 2.14294181473097e+00 2.00755573163954e-02
3.51734042553192e-01 2.12731570961392e+00 1.99915456485349e-02
3.53925531914894e-01 2.11180354841756e+00 1.99074991345144e-02
3.56117021276596e-01 2.09640450023497e+00 1.98234259159037e-02
3.58308510638298e-01 2.08111774029777e+00 1.97393339541799e-02
3.60500000000000e-01 2.06594244981143e+00 1.96552310688610e-02
3.62691489361702e-01 2.05087781591427e+00 1.95711248723435e-02
3.64882978723404e-01 2.03592303174826e+00 1.94870228078273e-02
3.67074468085106e-01 2.02107729630029e+00 1.94029321860849e-02
3.69265957446809e-01 2.00633981436195e+00 1.93188601222358e-02
3.71457446808511e-01 1.99170979659666e+00 1.92348135723183e-02
3.73648936170213e-01 1.97718645938660e+00 1.91507993687961e-02
3.75840425531915e-01 1.96276902479321e+00 1.90668241592072e-02
3.78031914893617e-01 1.94845672062090e+00 1.89828944516249e-02
3.80223404255319e-01 1.93424878023528e+00 1.88990166080858e-02
3.82414893617021e-01 1.92014444266098e+00 1.88151968361288e-02
3.84606382978723e-01 1.90614295243685e+00 1.87314412332130e-02
3.86797872340426e-01 1.89224355957781e+00 1.86477557280744e-02
3.88989361702128e-01 1.87844551963363e+00 1.85641461141682e-02
3.91180851063830e-01 1.86474809354919e+00 1.84806180821309e-02
3.93372340425532e-01 1.85115054762706e+00 1.83971771628724e-02
3.95563829787234e-01 1.83765215358334e+00 1.83138287598801e-02
3.97755319148936e-01 1.82425218841266e+00 1.82305781805942e-02
3.99946808510638e-01 1.81094993435153e+00 1.81474305811810e-02
4.02138297872340e-01 1.79774467893130e+00 1.80643910068468e-02
4.04329787234043e-01 1.78463571481824e+00 1.79814643856137e-02
4.06521276595745e-01 1.77162233989609e+00 1.78986555204134e-02
4.08712765957447e-01 1.75870385713824e+00 1.78159691285237e-02
4.10904255319149e-01 1.74587957457232e+00 1.77334097887742e-02
4.13095744680851e-01 1.73314880532915e+00 1.76509819711648e-02
4.15287234042553e-01 1.72051086751911e+00 1.75686900656505e-02
4.17478723404255e-01 1.70796508419759e+00 1.74865383308914e-02
4.19670212765958e-01 1.69551078341133e+00 1.74045309229021e-02
4.21861702127660e-01 1.68314729807905e+00 1.73226719228995e-02
4.24053191489362e-01 1.67087396595749e+00 1.72409652875541e-02
4.26244680851064e-01 1.65869012968543e+00 1.71594148848616e-02
4.28436170212766e-01 1.64659513664259e+00 1.70780244883186e-02
4.30627659574468e-01 1.63458833901944e+00 1.69967977695892e-02
4.32819148936170e-01 1.62266909370404e+00 1.69157383336329e-02
4.35010638297872e-01 1.61083676224916e+00 1.68348496711443e-02
4.37202127659575e-01 1.59909071091309e+00 1.67541351848794e-02
4.39393617021277e-01 1.58743031055003e+00 1.66735982152645e-02
4.41585106382979e-01 1.57585493657804e+00 1.65932419942202e-02
4.43776595744681e-01 1.56436396901771e+00 1.65130696706524e-02
4.45968085106383e-01 1.55295679238612e+00 1.64330843352424e-02
4.48159574468085e-01 1.54163279566548e+00 1.63532889756109e-02
4.50351063829787e-01 1.53039137233980e+00 1.62736865083278e-02
4.52542553191489e-01 1.51923192026987e+00 1.61942797734952e-02
4.54734042553192e-01 1.50815384175261e+00 1.61150715279858e-02
4.56925531914894e-01 1.49715654342043e+00 1.60360644768141e-02
4.59117021276596e-01 1.48623943621089e+00 1.59572612302648e-02
4.61308510638298e-01 1.47540193540059e+00 1.58786643273545e-02
4.63500000000000e-01 1.46464346050786e+00 1.58002762586875e-02
4.65691489361702e-01 1.45396343526298e+00 1.57220994248165e-02
4.67882978723404e-01 1.44336128764042e+00 1.56441361589820e-02
4.70074468085106e-01 1.43283644976458e+00 1.55663887492508e-02
4.72265957446809e-01 1.42238835788063e+00 1.54888593980722e-02
4.74457446808511e-01 1.41201645238516e+00 1.54115502443039e-02
4.76648936170213e-01 1.40172017773488e+00 1.53344633846767e-02
4.78840425531915e-01 1.39149898241807e+00 1.52576008345059e-02
4.81031914893617e-01 1.38135231898368e+00 1.51809645554316e-02
4.83223404255319e-01 1.37127964393392e+00 1.51045564505397e-02
4.85414893617021e-01 1.36128041777242e+00 1.50283783583028e-02
4.87606382978723e-01 1.35135410491745e+00 1.49524320797932e-02
4.89797872340426e-01 1.34150017367441e+00 1.48767193411095e-02
4.91989361702128e-01 1.33171809626266e+00 1.48012418137101e-02
4.94180851063830e-01 1.32200734873146e+00 1.47260011342251e-02
4.96372340425532e-01 1.31236741093304e+00 1.46509988679493e-02
4.98563829787234e-01 1.30279776654808e+00 1.45762365285536e-02
5.00755319148936e-01 1.29329790300427e+00 1.45017155973044e-02
5.02946808510638e-01 1.28386731144989e+00 1.44274374875916e-02
5.05138297872340e-01 1.27450548677805e+00 1.43534035698033e-02
5.07329787234043e-01 1.26521192753105e+00 1.42796151668304e-02
5.09521276595745e-01 1.25598613594143e+00 1.42060735485118e-02
5.11712765957447e-01 1.24682761785443e+00 1.41327799560567e-02
5.13904255319149e-01 1.23773588270251e+00 1.40597355681090e-02
5.16095744680851e-01 1.22871044352779e+00 1.39869415189656e-02
5.18287234042553e-01 1.21975081690684e+00 1.39143989163425e-02
5.20478723404255e-01 1.21085652292578e+00 1.38421088083976e-02
5.22670212765957e-01 1.20202708520156e+00 1.37700722014063e-02
5.24861702127660e-01 1.19326203080904e+00 1.36982900769985e-02
5.27053191489362e-01 1.18456089025663e+00 1.36267633601095e-02
5.29244680851064e-01 1.17592319750647e+00 1.35554929413229e-02
5.31436170212766e-01 1.16734848988903e+00 1.34844796727388e-02
5.33627659574468e-01 1.15883630813817e+00 1.34137243628910e-02
5.35819148936170e-01 1.15038619632176e+00 1.33432277986969e-02
5.38010638297872e-01 1.14199770181804e+00 1.32729907147816e-02
5.40202127659575e-01 1.13367037533439e+00 1.32030138098350e-02
5.42393617021277e-01 1.12540377083991e+00 1.31332977625720e-02
5.44585106382979e-01 1.11719744554245e+00 1.30638432019149e-02
5.46776595744681e-01 1.10905095990626e+00 1.29946507228709e-02
5.48968085106383e-01 1.10096387758674e+00 1.29257209020221e-02
5.51159574468085e-01 1.09293576540780e+00 1.28570542685428e-02
5.53351063829787e-01 1.08496619337874e+00 1.27886513242987e-02
5.55542553191489e-01 1.07705473461786e+00 1.27205125400591e-02
5.57734042553192e-01 1.06920096538241e+00 1.26526383508456e-02
5.59925531914894e-01 1.06140446500636e+00 1.25850291756857e-02
5.62117021276596e-01 1.05366481587857e+00 1.25176853898748e-02
5.64308510638298e-01 1.04598160345837e+00 1.24506073396741e-02
5.66500000000000e-01 1.03835441621512e+00 1.23837953566690e-02
5.68691489361702e-01 1.03078284560694e+00 1.23172497307976e-02
5.70882978723404e-01 1.02326648609539e+00 1.22509707246293e-02
5.73074468085106e-01 1.01580493508687e+00 1.21849585873024e-02
5.75265957446809e-01 1.00839779291175e+00 1.21192135282988e-02
5.77457446808511e-01 1.00104466283836e+00 1.20537357313045e-02
5.79648936170213e-01 9.93745151016045e-01 1.19885253677499e-02
5.81840425531915e-01 9.86498866454765e-01 1.19235825713073e-02
5.84031914893617e-01 9.79305421038343e-01 1.18589074554709e-02
5.86223404255319e-01 9.72164429458116e-01 1.17945001101737e-02
5.88414893617021e-01 9.65075509237420e-01 1.17303605976494e-02
5.90606382978723e-01 9.58038280677301e-01 1.16664889697192e-02
5.92797872340426e-01 9.51052366836807e-01 1.16028852433739e-02
5.94989361702128e-01 9.44117393545222e-01 1.15395494136315e-02
5.97180851063830e-01 9.37232989349343e-01 1.14764814660950e-02
5.99372340425532e-01 9.30398785494205e-01 1.14136813532068e-02
6.01563829787234e-01 9.23614415934663e-01 1.13511490067382e-02
6.03755319148936e-01 9.16879517284207e-01 1.12888843499895e-02
6.05946808510638e-01 9.10193728796075e-01 1.12268872746961e-02
6.08138297872341e-01 9.03556692374242e-01 1.11651576568841e-02
6.10329787234043e-01 8.96968052513864e-01 1.11036953537746e-02
6.12521276595745e-01 8.90427456322225e-01 1.10425002000038e-02
6.14712765957447e-01 8.83934553469881e-01 1.09815720232216e-02
6.16904255319149e-01 8.77488996172445e-01 1.09209106219734e-02
6.19095744680851e-01 8.71090439200704e-01 1.08605157772932e-02
6.21287234042553e-01 8.64738539833162e-01 1.08003872640290e-02
6.23478723404255e-01 8.58432957838218e-01 1.07405248293288e-02
6.25670212765957e-01 8.52173355483742e-01 1.06809282039061e-02
6.27861702127660e-01 8.45959397490973e-01 1.06215971130482e-02
6.30053191489362e-01 8.39790751017068e-01 1.05625312556845e-02
6.32244680851064e-01 8.33667085664174e-01 1.05037303187065e-02
6.34436170212766e-01 8.27588073425897e-01 1.04451939741357e-02
6.36627659574468e-01 8.21553388705228e-01 1.03869218756682e-02
6.38819148936170e-01 8.15562708270515e-01 1.03289136727681e-02
6.41010638297872e-01 8.09615711238634e-01 1.02711689906176e-02
6.43202127659575e-01 8.03712079083325e-01 1.02136874405780e-02
6.45393617021277e-01 7.97851495592415e-01 1.01564686304206e-02
6.47585106382979e-01 7.92033646851347e-01 1.00995121448199e-02
6.49776595744681e-01 7.86258221251064e-01 1.00428175555228e-02
6.51968085106383e-01 7.80524909446435e-01 9.98638443129178e-03
6.54159574468085e-01 7.74833404340132e-01 9.93021231892694e-03
6.56351063829787e-01 7.69183401090085e-01 9.87430075620490e-03
6.58542553191489e-01 7.63574597061312e-01 9.81864926928845e-03
6.60734042553192e-01 7.58006691841252e-01 9.76325736957446e-03
6.62925531914894e-01 7.52479387200048e-01 9.70812456643325e-03
6.65117021276596e-01 7.46992387074990e-01 9.65325034902430e-03
6.67308510638298e-01 7.41545397577363e-01 9.59863419574622e-03
6.69500000000000e-01 7.36138126953833e-01 9.54427558348399e-03
6.71691489361702e-01 7.30770285571233e-01 9.49017396991281e-03
6.73882978723404e-01 7.25441585923021e-01 9.43632880268940e-03
6.76074468085106e-01 7.20151742591741e-01 9.38273952843896e-03
6.78265957446809e-01 7.14900472234136e-01 9.32940557553568e-03
6.80457446808511e-01 7.09687493587238e-01 9.27632636303555e-03
6.82648936170213e-01 7.04512527431883e-01 9.22350130941926e-03
6.84840425531915e-01 6.99375296578120e-01 9.17092981583349e-03
6.87031914893617e-01 6.94275525870974e-01 9.11861127746972e-03
6.89223404255319e-01 6.89212942148266e-01 9.06654508125695e-03
6.91414893617021e-01 6.84187274253165e-01 9.01473060305690e-03
