Energy (eV)          EEDF (eV^-(3/2))     First Anisotropy
1.75438596491228e-03 6.14911092259920e-01 4.48017328669571e-08
5.26315789473684e-03 6.14911053378780e-01 1.43234291810910e-07
8.77192982456140e-03 6.14910948516032e-01 3.60036082592556e-07
1.22807017543860e-02 6.14910773152956e-01 6.41760945869869e-07
1.57894736842105e-02 6.14910525851181e-01 9.62261019803887e-07
1.92982456140351e-02 6.14910213543544e-01 1.29352618646406e-06
2.28070175438597e-02 6.14909844569704e-01 1.62918463827806e-06
2.63157894736842e-02 6.14909423267310e-01 1.97761759134930e-06
2.98245614035088e-02 6.14908950405712e-01 2.33854935760497e-06
3.33333333333333e-02 6.14908428809928e-01 2.70579188904995e-06
3.68421052631579e-02 6.14907860692097e-01 3.08691062050499e-06
4.03508771929825e-02 6.14907244853198e-01 3.49270371882838e-06
4.38596491228070e-02 6.14906579066693e-01 3.92709892233404e-06
4.73684210526316e-02 6.14905860884171e-01 4.38975893953833e-06
5.08771929824561e-02 6.14905088472218e-01 4.86547275121431e-06
5.43859649122807e-02 6.14904264670370e-01 5.34825294522990e-06
5.78947368421053e-02 6.14903389297495e-01 5.85109680911349e-06
6.14035087719298e-02 6.14902460703257e-01 6.37887921999752e-06
6.49122807017544e-02 6.14901477213609e-01 6.93269306068169e-06
6.84210526315790e-02 6.14900436972063e-01 7.51206283279609e-06
7.19298245614035e-02 6.14899338567449e-01 8.09065736871309e-06
7.54385964912281e-02 6.14898187750811e-01 8.66748192016029e-06
7.89473684210526e-02 6.14896983005661e-01 9.26761027324499e-06
8.24561403508772e-02 6.14895722868214e-01 9.89127391063270e-06
8.59649122807018e-02 6.14894405851624e-01 1.05390100978169e-05
8.94736842105263e-02 6.14893030436829e-01 1.12109729968178e-05
9.29824561403509e-02 6.14891595178106e-01 1.19070959892262e-05
9.64912280701754e-02 6.14890098646556e-01 1.26276050949580e-05
1.00000000000000e-01 6.14888539406031e-01 1.33556064085600e-05
1.03508771929825e-01 6.14886920253789e-01 1.40709842740218e-05
1.07017543859649e-01 6.14885244504158e-01 1.47864594160994e-05
1.10526315789474e-01 6.14883511566609e-01 1.55178594702973e-05
1.14035087719298e-01 6.14881720840440e-01 1.62652681273843e-05
1.17543859649123e-01 6.14879871714350e-01 1.70287735087595e-05
1.21052631578947e-01 6.14877963567326e-01 1.78084622428321e-05
1.24561403508772e-01 6.14875995769390e-01 1.86044198045293e-05
1.28070175438597e-01 6.14873967682229e-01 1.94167307851384e-05
1.31578947368421e-01 6.14871878659730e-01 2.02454791332203e-05
1.35087719298246e-01 6.14869728048438e-01 2.10907483512137e-05
1.38596491228070e-01 6.14867515187940e-01 2.19526216525964e-05
1.42105263157895e-01 6.14865239411194e-01 2.28311821030229e-05
1.45614035087719e-01 6.14862900044817e-01 2.37265127319095e-05
1.49122807017544e-01 6.14860496409317e-01 2.46386966268977e-05
1.52631578947368e-01 6.14858027819303e-01 2.55678170099180e-05
1.56140350877193e-01 6.14855493583665e-01 2.65139573010496e-05
1.59649122807018e-01 6.14852893005715e-01 2.74772011727338e-05
1.63157894736842e-01 6.14850225383325e-01 2.84576325991049e-05
1.66666666666667e-01 6.14847490009032e-01 2.94553358808618e-05
1.70175438596491e-01 6.14844686170133e-01 3.04703956011874e-05
1.73684210526316e-01 6.14841813148776e-01 3.15028932545824e-05
1.77192982456140e-01 6.14838870222663e-01 3.25528944417579e-05
1.80701754385965e-01 6.14835856667449e-01 3.36204038226292e-05
1.84210526315789e-01 6.14832771765491e-01 3.47053077826418e-05
1.87719298245614e-01 6.14829614818156e-01 3.58072778700136e-05
1.91228070175439e-01 6.14826385170935e-01 3.69257160830750e-05
1.94736842105263e-01 6.14823082233841e-01 3.80599252658214e-05
1.98245614035088e-01 6.14819705474646e-01 3.92093833173525e-05
2.01754385964912e-01 6.14816254390964e-01 4.02996925405496e-05
2.05263157894737e-01 6.14812742146657e-01 4.13274728167493e-05
2.08771929824561e-01 6.14809168590463e-01 4.23639415167050e-05
2.12280701754386e-01 6.14805533648338e-01 4.34085738114422e-05
2.15789473684211e-01 6.14801837245538e-01 4.44612985724455e-05
2.19298245614035e-01 6.14798079306498e-01 4.55220479739119e-05
2.22807017543860e-01 6.14794259754723e-01 4.65907573323144e-05
2.26315789473684e-01 6.14790378512693e-01 4.76673649643984e-05
2.29824561403509e-01 6.14786435501776e-01 4.87518120537603e-05
2.33333333333333e-01 6.14782430642148e-01 4.98440425333579e-05
2.36842105263158e-01 6.14778363852714e-01 5.09440029619803e-05
2.40350877192982e-01 6.14774235051051e-01 5.20516424201097e-05
2.43859649122807e-01 6.14770044153341e-01 5.31669124072035e-05
2.47368421052632e-01 6.14765791074316e-01 5.42897667432512e-05
2.50877192982456e-01 6.14761475727211e-01 5.54201614754760e-05
2.54385964912281e-01 6.14757098023714e-01 5.65580547882408e-05
2.57894736842105e-01 6.14752657873927e-01 5.77034069234199e-05
2.61403508771930e-01 6.14748155186329e-01 5.88561801022657e-05
2.64912280701754e-01 6.14743589867739e-01 6.00163384429760e-05
2.68421052631579e-01 6.14738961823285e-01 6.11838478916897e-05
2.71929824561404e-01 6.14734270956378e-01 6.23586755969232e-05
2.75438596491228e-01 6.14729517168771e-01 6.35407872681894e-05
2.78947368421053e-01 6.14724700360923e-01 6.47301377970230e-05
2.82456140350877e-01 6.14719820433460e-01 6.59266545232220e-05
2.85964912280702e-01 6.14714877289993e-01 6.71302112665516e-05
2.89473684210526e-01 6.14709870842337e-01 6.83406033304200e-05
2.92982456140351e-01 6.14704801016792e-01 6.95575684613367e-05
2.96491228070175e-01 6.14699667755903e-01 7.07808627915461e-05
3.00000000000000e-01 6.14694471013366e-01 7.20075566359567e-05
3.03508771929825e-01 6.14689211521272e-01 7.32832713414857e-05
3.07017543859649e-01 6.14683883025554e-01 7.47060124930118e-05
3.10526315789474e-01 6.14678471906997e-01 7.63202909272673e-05
3.14035087719298e-01 6.14672965462187e-01 7.81162221640707e-05
3.17543859649123e-01 6.14667351852350e-01 8.00843385855909e-05
3.21052631578947e-01 6.14661620055396e-01 8.22155688431789e-05
3.24561403508772e-01 6.14655759820818e-01 8.45012192626280e-05
3.28070175438597e-01 6.14649761627274e-01 8.69329562709042e-05
3.31578947368421e-01 6.14643616642654e-01 8.95027897616508e-05
3.35087719298246e-01 6.14637316686477e-01 9.22030573193209e-05
3.38596491228070e-01 6.14630854194481e-01 9.50264092915303e-05
3.42105263157895e-01 6.14624222185237e-01 9.79657946067854e-05
3.45614035087719e-01 6.14617414228688e-01 1.01014447322209e-04
3.49122807017544e-01 6.14610424416475e-01 1.04165873851893e-04
3.52631578947368e-01 6.14603247333939e-01 1.07413840825389e-04
3.56140350877193e-01 6.14595878033700e-01 1.10752363559819e-04
3.59649122807018e-01 6.14588312010720e-01 1.14175695083939e-04
3.63157894736842e-01 6.14580545178748e-01 1.17678315706430e-04
3.66666666666667e-01 6.14572573848070e-01 1.21254923073854e-04
3.70175438596491e-01 6.14564394704493e-01 1.24900422687629e-04
3.73684210526316e-01 6.14556004789477e-01 1.28609918364731e-04
3.77192982456140e-01 6.14547401481427e-01 1.32378701565403e-04
3.80701754385965e-01 6.14538582478213e-01 1.36202235762578e-04
3.84210526315790e-01 6.14529545781424e-01 1.40076139079773e-04
3.87719298245614e-01 6.14520289682004e-01 1.43996161978105e-04
3.91228070175439e-01 6.14510812748158e-01 1.47958172716270e-04
3.94736842105263e-01 6.14501113813497e-01 1.51958180659831e-04
3.98245614035088e-01 6.14491191962430e-01 1.55992375530303e-04
4.01754385964912e-01 6.14481046513830e-01 1.59991170452100e-04
4.05263157894737e-01 6.14470687273874e-01 1.64061856390011e-04
4.08771929824561e-01 6.14460099891228e-01 1.68374047725635e-04
4.12280701754386e-01 6.14449270878962e-01 1.72915916102193e-04
4.15789473684211e-01 6.14438187672956e-01 1.77675317383762e-04
4.19298245614035e-01 6.14426838583859e-01 1.82640620713927e-04
4.22807017543860e-01 6.14415212751443e-01 1.87800688337714e-04
4.26315789473684e-01 6.14403300101206e-01 1.93144856325294e-04
4.29824561403509e-01 6.14391091303121e-01 1.98662916140223e-04
4.33333333333333e-01 6.14378577732395e-01 2.04345096996382e-04
4.36842105263158e-01 6.14365751432157e-01 2.10182048972161e-04
4.40350877192982e-01 6.14352605077955e-01 2.16164826837910e-04
4.43859649122807e-01 6.14339131943973e-01 2.22284874550107e-04
4.47368421052632e-01 6.14325325870890e-01 2.28534010394968e-04
4.50877192982456e-01 6.14311181235283e-01 2.34904412761947e-04
4.54385964912281e-01 6.14296692920499e-01 2.41388606485156e-04
4.57894736842105e-01 6.14281856288931e-01 2.47979449762791e-04
4.61403508771930e-01 6.14266667155608e-01 2.54670121620379e-04
4.64912280701754e-01 6.14251121763054e-01 2.61454109859470e-04
4.68421052631579e-01 6.14235216757333e-01 2.68325199515598e-04
4.71929824561404e-01 6.14218949165239e-01 2.75277461610616e-04
4.75438596491228e-01 6.14202316372578e-01 2.82305241748522e-04
4.78947368421053e-01 6.14185316103555e-01 2.89403147170228e-04
4.82456140350877e-01 6.14167946401388e-01 2.96566031876798e-04
4.85964912280702e-01 6.14150205610214e-01 3.03788979243821e-04
4.89473684210526e-01 6.14132092358459e-01 3.11067287189464e-04
4.92982456140351e-01 6.14113605543100e-01 3.18396468129777e-04
4.96491228070175e-01 6.14094744313552e-01 3.25772264599456e-04
5.00000000000000e-01 6.14075508054581e-01 3.33135420446355e-04
5.03508771929825e-01 6.14055903507652e-01 3.40435701379002e-04
5.07017543859649e-01 6.14035936579987e-01 3.47742774331333e-04
5.10526315789474e-01 6.14015605176378e-01 3.55116106858378e-04
5.14035087719298e-01 6.13994907584032e-01 3.62549324977821e-04
5.17543859649123e-01 6.13973842452934e-01 3.70036313199169e-04
5.21052631578947e-01 6.13952408776964e-01 3.77571206636231e-04
5.24561403508772e-01 6.13930605875824e-01 3.85148382779752e-04
5.28070175438596e-01 6.13908433377717e-01 3.92762453574113e-04
5.31578947368421e-01 6.13885891202775e-01 4.00408257748556e-04
5.35087719298246e-01 6.13862979547171e-01 4.08080853431888e-04
5.38596491228070e-01 6.13839698867909e-01 4.15775511009739e-04
5.42105263157895e-01 6.13816049868258e-01 4.23487706241024e-04
5.45614035087719e-01 6.13792033483783e-01 4.31213113583731e-04
5.49122807017544e-01 6.13767650868987e-01 4.38947599734957e-04
5.52631578947368e-01 6.13742903384497e-01 4.46687217415573e-04
5.56140350877193e-01 6.13717792584797e-01 4.54428199342241e-04
5.59649122807018e-01 6.13692320206480e-01 4.62166952406776e-04
5.63157894736842e-01 6.13666488156984e-01 4.69900052029649e-04
5.66666666666667e-01 6.13640298503817e-01 4.77624236719648e-04
5.70175438596491e-01 6.13613753464222e-01 4.85336402789740e-04
5.73684210526316e-01 6.13586855395291e-01 4.93033598999629e-04
5.77192982456140e-01 6.13559606784515e-01 5.00713020731636e-04
5.80701754385965e-01 6.13532010240817e-01 5.08372002215337e-04
5.84210526315790e-01 6.13504068486224e-01 5.16008007605629e-04
5.87719298245614e-01 6.13475784348136e-01 5.23618621697615e-04
5.91228070175439e-01 6.13447160752231e-01 5.31201544009927e-04
5.94736842105263e-01 6.13418200715558e-01 5.38754598790408e-04
5.98245614035088e-01 6.13388907338447e-01 5.46275748933801e-04
6.01754385964912e-01 6.13359283796230e-01 5.53923484882434e-04
6.05263157894737e-01 6.13329316077457e-01 5.62157466130661e-04
6.08771929824561e-01 6.13298958098236e-01 5.71403972360844e-04
6.12280701754386e-01 6.13268150650040e-01 5.81761223010663e-04
6.15789473684211e-01 6.13236837926330e-01 5.93174515960150e-04
6.19298245614035e-01 6.13204967374594e-01 6.05591206230023e-04
6.22807017543860e-01 6.13172489554628e-01 6.18960630447671e-04
6.26315789473684e-01 6.13139358002781e-01 6.33234034208026e-04
6.29824561403509e-01 6.13105529101912e-01 6.48364502185711e-04
6.33333333333333e-01 6.13070961956800e-01 6.64306890830982e-04
6.36842105263158e-01 6.13035618274793e-01 6.81017763515010e-04
6.40350877192982e-01 6.12999462251455e-01 6.98455328030436e-04
6.43859649122807e-01 6.12962460461023e-01 7.16579376362729e-04
6.47368421052632e-01 6.12924581751448e-01 7.35351226633414e-04
6.50877192982456e-01 6.12885797143852e-01 7.54733667145433e-04
6.54385964912281e-01 6.12846079736193e-01 7.74690902434177e-04
6.57894736842105e-01 6.12805404610978e-01 7.95188501259660e-04
6.61403508771930e-01 6.12763748746854e-01 8.16193346469283e-04
6.64912280701754e-01 6.12721090933909e-01 8.37673586653666e-04
6.68421052631579e-01 6.12677411692528e-01 8.59598589535421e-04
6.71929824561403e-01 6.12632693195673e-01 8.81938896910896e-04
6.75438596491228e-01 6.12586919194431e-01 9.04666180895855e-04
6.78947368421053e-01 6.12540074946743e-01 9.27753200757406e-04
6.82456140350877e-01 6.12492147149245e-01 9.51173759909316e-04
6.85964912280702e-01 6.12443123872171e-01 9.74902662625825e-04
6.89473684210526e-01 6.12392994497317e-01 9.98915674672568e-04
6.92982456140351e-01 6.12341749658522e-01 1.02318949594098e-03
6.96491228070175e-01 6.12289381183797e-01 1.04770173408181e-03
7.00000000000000e-01 6.12235882039913e-01 1.07237284624022e-03
7.03508771929825e-01 6.12181252790530e-01 1.09733946454355e-03
7.07017543859649e-01 6.12125473379740e-01 1.12337291292595e-03
7.10526315789474e-01 6.12068466423123e-01 1.15130788534111e-03
7.14035087719298e-01 6.12010128164652e-01 1.18136152121422e-03
7.17543859649123e-01 6.11950360619003e-01 1.21343257262374e-03
7.21052631578947e-01 6.11889071359425e-01 1.24742295109901e-03
7.24561403508772e-01 6.11826173312959e-01 1.28323763434512e-03
7.28070175438597e-01 6.11761584562740e-01 1.32078457582136e-03
7.31578947368421e-01 6.11695228157138e-01 1.35997461696479e-03
7.35087719298246e-01 6.11627031925502e-01 1.40072140188180e-03
7.38596491228070e-01 6.11556928300281e-01 1.44294129441491e-03
7.42105263157895e-01 6.11484854145307e-01 1.48655329748072e-03
7.45614035087719e-01 6.11410750590039e-01 1.53147897458646e-03
7.49122807017544e-01 6.11334562869567e-01 1.57764237350658e-03
7.52631578947368e-01 6.11256240170182e-01 1.62496995202307e-03
7.56140350877193e-01 6.11175735480332e-01 1.67339050567389e-03
7.59649122807018e-01 6.11093005446778e-01 1.72283509747416e-03
7.63157894736842e-01 6.11008010235789e-01 1.77323698952363e-03
7.66666666666667e-01 6.10920713399196e-01 1.82453157646469e-03
7.70175438596491e-01 6.10831081745154e-01 1.87665632071052e-03
7.73684210526316e-01 6.10739085213464e-01 1.92955068925069e-03
7.77192982456140e-01 6.10644696755300e-01 1.98315609159039e-03
7.80701754385965e-01 6.10547892217266e-01 2.03741581762261e-03
7.84210526315789e-01 6.10448650229758e-01 2.09227497533465e-03
7.87719298245614e-01 6.10346952099570e-01 2.14768043154539e-03
7.91228070175439e-01 6.10242781706343e-01 2.20358075699881e-03
7.94736842105263e-01 6.10136125402701e-01 2.25992618914058e-03
7.98245614035088e-01 6.10026971916270e-01 2.31666859880520e-03
8.01754385964912e-01 6.09915312254930e-01 2.37371863375220e-03
8.05263157894737e-01 6.09801143689435e-01 2.43072710970484e-03
8.08771929824561e-01 6.09684490380130e-01 2.48718564532444e-03
8.12280701754386e-01 6.09565397593467e-01 2.54287150418233e-03
8.15789473684211e-01 6.09443910109377e-01 2.59778902279858e-03
8.19298245614035e-01 6.09320072221514e-01 2.65194264586761e-03
8.22807017543860e-01 6.09193927737256e-01 2.70533692998417e-03
8.26315789473684e-01 6.09065519977512e-01 2.75797654676960e-03
8.29824561403509e-01 6.08934891776343e-01 2.80986628550534e-03
8.33333333333333e-01 6.08802085480442e-01 2.86101105532778e-03
8.36842105263158e-01 6.08667142948479e-01 2.91141588708585e-03
8.40350877192983e-01 6.08530105550330e-01 2.96108593485486e-03
8.43859649122807e-01 6.08391014166218e-01 3.01002647713599e-03
8.47368421052632e-01 6.08249909185761e-01 3.05824291778555e-03
8.50877192982456e-01 6.08106830506968e-01 3.10574078665087e-03
8.54385964912281e-01 6.07961817535167e-01 3.15252573999117e-03
8.57894736842105e-01 6.07814909181900e-01 3.19860356065378e-03
8.61403508771930e-01 6.07666143863788e-01 3.24398015804913e-03
8.64912280701754e-01 6.07515559501364e-01 3.28866156793487e-03
8.68421052631579e-01 6.07363193517911e-01 3.33265395200748e-03
8.71929824561404e-01 6.07209082838280e-01 3.37596359725911e-03
8.75438596491228e-01 6.07053263887735e-01 3.41859691486769e-03
8.78947368421053e-01 6.06895772590832e-01 3.46056043816310e-03
8.82456140350877e-01 6.06736644370406e-01 3.50186081856997e-03
8.85964912280702e-01 6.06575914146817e-01 3.54250482219099e-03
8.89473684210526e-01 6.06413616337211e-01 3.58249933101554e-03
8.92982456140351e-01 6.06249784854544e-01 3.62185134525926e-03
8.96491228070175e-01 6.06084453106543e-01 3.66056799840687e-03
9.00000000000000e-01 6.05917653993101e-01 3.69865888346876e-03
9.03508771929825e-01 6.05749419695166e-01 3.73637971325975e-03
9.07017543859649e-01 6.05579759638406e-01 3.77420437565908e-03
9.10526315789474e-01 6.05408662985775e-01 3.81233458342788e-03
9.14035087719298e-01 6.05236120960018e-01 3.85074017204498e-03
9.17543859649123e-01 6.05062125507223e-01 3.88940584651022e-03
9.21052631578947e-01 6.04886669279024e-01 3.92831660216402e-03
9.24561403508772e-01 6.04709745614949e-01 3.96745772493034e-03
9.28070175438596e-01 6.04531348524944e-01 4.00681479142172e-03
9.31578947368421e-01 6.04351472672048e-01 4.04637366885911e-03
9.35087719298246e-01 6.04170113355257e-01 4.08612051482835e-03
9.38596491228070e-01 6.03987266492547e-01 4.12604177683426e-03
9.42105263157895e-01 6.03802928604090e-01 4.16612419166038e-03
9.45614035087719e-01 6.03617096795659e-01 4.20635478457239e-03
9.49122807017544e-01 6.03429768742214e-01 4.24672086833132e-03
9.52631578947368e-01 6.03240942671697e-01 4.28721004205585e-03
9.56140350877193e-01 6.03050617349018e-01 4.32781018992875e-03
9.59649122807018e-01 6.02858792060252e-01 4.36850947972947e-03
9.63157894736842e-01 6.02665466597040e-01 4.40929636125041e-03
9.66666666666667e-01 6.02470641241201e-01 4.45015956455685e-03
9.70175438596491e-01 6.02274316749561e-01 4.49108809802948e-03
9.73684210526316e-01 6.02076494339006e-01 4.53207124583902e-03
9.77192982456140e-01 6.01877175671801e-01 4.57309856382482e-03
9.80701754385965e-01 6.01676362841280e-01 4.61415987174528e-03
9.84210526315790e-01 6.01474058358154e-01 4.65524524144984e-03
9.87719298245614e-01 6.01270265137600e-01 4.69634498610643e-03
9.91228070175439e-01 6.01064986486800e-01 4.73744967173437e-03
9.94736842105263e-01 6.00858226090944e-01 4.77855014761267e-03
9.98245614035088e-01 6.00649987997868e-01 4.81963757036550e-03
1.00175438596491e+00 6.00440276601910e-01 4.86246092502434e-03
1.00526315789474e+00 6.00228932470728e-01 4.91001687767572e-03
1.00877192982456e+00 6.00015701149410e-01 4.96440893920016e-03
1.01228070175439e+00 5.99800255098495e-01 5.02637625871009e-03
1.01578947368421e+00 5.99582278531916e-01 5.09567898050316e-03
1.01929824561404e+00 5.99361467209356e-01 5.17208040815602e-03
1.02280701754386e+00 5.99137528229435e-01 5.25534703070941e-03
1.02631578947368e+00 5.98910179823632e-01 5.34524855014070e-03
1.02982456140351e+00 5.98679151150883e-01 5.44155790949784e-03
1.03333333333333e+00 5.98444182092811e-01 5.54405132141428e-03
1.03684210526316e+00 5.98205023049553e-01 5.65250829662652e-03
1.04035087719298e+00 5.97961434736190e-01 5.76671167232584e-03
1.04385964912281e+00 5.97713187979737e-01 5.88644764032640e-03
1.04736842105263e+00 5.97460063516720e-01 6.01150577486726e-03
1.05087719298246e+00 5.97201851791303e-01 6.14167905998867e-03
1.05438596491228e+00 5.96938352753995e-01 6.27676391632977e-03
1.05789473684211e+00 5.96669375660932e-01 6.41656022732127e-03
1.06140350877193e+00 5.96394738873742e-01 6.56087136474227e-03
1.06491228070175e+00 5.96114269660001e-01 6.70950421345651e-03
1.06842105263158e+00 5.95827803994318e-01 6.86226919531853e-03
1.07192982456140e+00 5.95535186360033e-01 7.01898029221159e-03
1.07543859649123e+00 5.95236269551581e-01 7.17945506812146e-03
1.07894736842105e+00 5.94930914477524e-01 7.34351469020765e-03
1.08245614035088e+00 5.94618989964290e-01 7.51098394876718e-03
1.08596491228070e+00 5.94300372560640e-01 7.68169127605331e-03
1.08947368421053e+00 5.93974946342900e-01 7.85546876359077e-03
1.09298245614035e+00 5.93642602721016e-01 8.03215217777281e-03
1.09649122807018e+00 5.93303240245476e-01 8.21158097380200e-03
1.10000000000000e+00 5.92956764415159e-01 8.39496861398763e-03
1.10350877192982e+00 5.92602952512600e-01 8.58381004992735e-03
1.10701754385965e+00 5.92241563962843e-01 8.77706424605223e-03
