Energy (eV)          EEDF (eV^-(3/2))     First Anisotropy
1.00781250000000e-03 4.95739999078977e+00 2.25144331413938e-03
3.02343750000000e-03 4.93061986115104e+00 3.72023775103847e-03
5.03906250000000e-03 4.90398439913565e+00 4.91766969686491e-03
7.05468750000000e-03 4.87749282325216e+00 5.83135628604129e-03
9.07031250000000e-03 4.85114435622234e+00 6.59669094168469e-03
1.10859375000000e-02 4.82493822496548e+00 7.26475470418818e-03
1.31015625000000e-02 4.79887366057673e+00 7.86192848356531e-03
1.51171875000000e-02 4.77294989830475e+00 8.40411142790219e-03
1.71328125000000e-02 4.74716617752935e+00 8.90182750866335e-03
1.91484375000000e-02 4.72152174173923e+00 9.36250037520912e-03
2.11640625000000e-02 4.69601583850977e+00 9.79161472915163e-03
2.31796875000000e-02 4.67064771948098e+00 1.01933683603783e-02
2.51953125000000e-02 4.64541664033554e+00 1.05710649636692e-02
2.72109375000000e-02 4.62032186077697e+00 1.09273640680746e-02
2.92265625000000e-02 4.59536264450791e+00 1.12644471475579e-02
3.12421875000000e-02 4.57053825920849e+00 1.15841320417191e-02
3.32578125000000e-02 4.54584797651491e+00 1.18879541609494e-02
3.52734375000000e-02 4.52129107199798e+00 1.21772255981284e-02
3.72890625000000e-02 4.49686682514194e+00 1.24530791065140e-02
3.93046875000000e-02 4.47257451932330e+00 1.27165014450106e-02
4.13203125000000e-02 4.44841344178979e+00 1.29683590862458e-02
4.33359375000000e-02 4.42438288363946e+00 1.32094183312427e-02
4.53515625000000e-02 4.40048213979990e+00 1.34403612561987e-02
4.73671875000000e-02 4.37671050900752e+00 1.36617985052859e-02
4.93828125000000e-02 4.35306729378702e+00 1.38742796633810e-02
5.13984375000000e-02 4.32955180043086e+00 1.40783017484143e-02
5.34140625000000e-02 4.30616333897897e+00 1.42743162259132e-02
5.54296875000000e-02 4.28290122319847e+00 1.44627348499559e-02
5.74453125000000e-02 4.25976477056355e+00 1.46439345631954e-02
5.94609375000000e-02 4.23675330223544e+00 1.48182616358335e-02
6.14765625000000e-02 4.21386614304248e+00 1.49860351840065e-02
6.34921875000000e-02 4.19110262146033e+00 1.51475501783187e-02
6.55078125000000e-02 4.16846206959228e+00 1.53030800305641e-02
6.75234375000000e-02 4.14594382314959e+00 1.54528788291749e-02
6.95390625000000e-02 4.12354722143207e+00 1.55971832803879e-02
7.15546875000000e-02 4.10127160730866e+00 1.57362144014482e-02
7.35703125000000e-02 4.07911632719815e+00 1.58701790037635e-02
7.55859375000000e-02 4.05708073105003e+00 1.59992709972402e-02
7.76015625000000e-02 4.03516417232537e+00 1.61236725416543e-02
7.96171875000000e-02 4.01336600797788e+00 1.62435550666057e-02
8.16328125000000e-02 3.99168559843506e+00 1.63590801780733e-02
8.36484375000000e-02 3.97012230757940e+00 1.64704004667438e-02
8.56640625000000e-02 3.94867550272973e+00 1.65776602309282e-02
8.76796875000000e-02 3.92734455462265e+00 1.66809961249358e-02
8.96953125000000e-02 3.90612883739408e+00 1.67805377421816e-02
9.17109375000000e-02 3.88502772856089e+00 1.68764081409539e-02
9.37265625000000e-02 3.86404060900263e+00 1.69687243196608e-02
9.57421875000000e-02 3.84316686294339e+00 1.70575976474106e-02
9.77578125000000e-02 3.82240587793369e+00 1.71431342550187e-02
9.97734375000000e-02 3.80175704483254e+00 1.72254353908403e-02
1.01789062500000e-01 3.78121975778957e+00 1.73045977452614e-02
1.03804687500000e-01 3.76079341422723e+00 1.73807137471992e-02
1.05820312500000e-01 3.74047741482314e+00 1.74538718355352e-02
1.07835937500000e-01 3.72027116349248e+00 1.75241567080647e-02
1.09851562500000e-01 3.70017406737051e+00 1.75916495502184e-02
1.11867187500000e-01 3.68018553679518e+00 1.76564282455547e-02
1.13882812500000e-01 3.66030498528984e+00 1.77185675697979e-02
1.15898437500000e-01 3.64053182954598e+00 1.77781393699802e-02
1.17914062500000e-01 3.62086548940619e+00 1.78352127300828e-02
1.19929687500000e-01 3.60130538784708e+00 1.78898541244238e-02
1.21945312500000e-01 3.58185095096238e+00 1.79421275598912e-02
1.23960937500000e-01 3.56250160794607e+00 1.79920947080106e-02
1.25976562500000e-01 3.54325679107569e+00 1.80398150277434e-02
1.27992187500000e-01 3.52411593569560e+00 1.80853458798030e-02
1.30007812500000e-01 3.50507848020051e+00 1.81287426332080e-02
1.32023437500000e-01 3.48614386601891e+00 1.81700587647191e-02
1.34039062500000e-01 3.46731153759674e+00 1.82093459517449e-02
1.36054687500000e-01 3.44858094238106e+00 1.82466541592328e-02
1.38070312500000e-01 3.42995153080387e+00 1.82820317210269e-02
1.40085937500000e-01 3.41142275626594e+00 1.83155254161351e-02
1.42101562500000e-01 3.39299407512082e+00 1.83471805402824e-02
1.44117187500000e-01 3.37466494665885e+00 1.83770409731097e-02
1.46132812500000e-01 3.35643483309131e+00 1.84051492413529e-02
1.48148437500000e-01 3.33830319953466e+00 1.84315465782959e-02
1.50164062500000e-01 3.32026951399482e+00 1.84562729797621e-02
1.52179687500000e-01 3.30233324735155e+00 1.84793672568925e-02
1.54195312500000e-01 3.28449387334297e+00 1.85008670859431e-02
1.56210937500000e-01 3.26675086855009e+00 1.85208090553105e-02
1.58226562500000e-01 3.24910371238145e+00 1.85392287099692e-02
1.60242187500000e-01 3.23155188705786e+00 1.85561605934983e-02
1.62257812500000e-01 3.21409487759717e+00 1.85716382878612e-02
1.64273437500000e-01 3.19673217179923e+00 1.85856944510889e-02
1.66289062500000e-01 3.17946326023081e+00 1.85983608529958e-02
1.68304687500000e-01 3.16228763621065e+00 1.86096684090654e-02
1.70320312500000e-01 3.14520479579462e+00 1.86196472126115e-02
1.72335937500000e-01 3.12821423776091e+00 1.86283265653279e-02
1.74351562500000e-01 3.11131546359536e+00 1.86357350063345e-02
1.76367187500000e-01 3.09450797747679e+00 1.86419003397959e-02
1.78382812500000e-01 3.07779128626248e+00 1.86468496612115e-02
1.80398437500000e-01 3.06116489947367e+00 1.86506093824534e-02
1.82414062500000e-01 3.04462832928124e+00 1.86532052556276e-02
1.84429687500000e-01 3.02818109049129e+00 1.86546623958181e-02
1.86445312500000e-01 3.01182270053101e+00 1.86550053027887e-02
1.88460937500000e-01 2.99555267943444e+00 1.86542578817080e-02
1.90476562500000e-01 2.97937054982844e+00 1.86524434629303e-02
1.92492187500000e-01 2.96327583691866e+00 1.86495848209055e-02
1.94507812500000e-01 2.94726806847561e+00 1.86457041922599e-02
1.96523437500000e-01 2.93134677482081e+00 1.86408232930925e-02
1.98539062500000e-01 2.91551148881301e+00 1.86349633355281e-02
2.00554687500000e-01 2.89976174583448e+00 1.86281450435665e-02
2.02570312500000e-01 2.88409708377737e+00 1.86203886682715e-02
2.04585937500000e-01 2.86851704303018e+00 1.86117140023262e-02
2.06601562500000e-01 2.85302116646422e+00 1.86021403939927e-02
2.08617187500000e-01 2.83760899942028e+00 1.85916867605027e-02
2.10632812500000e-01 2.82228008969520e+00 1.85803716009130e-02
2.12648437500000e-01 2.80703398752867e+00 1.85682130084461e-02
2.14664062500000e-01 2.79187024559000e+00 1.85552286823525e-02
2.16679687500000e-01 2.77678841896500e+00 1.85414359393052e-02
2.18695312500000e-01 2.76178806514294e+00 1.85268517243506e-02
2.20710937500000e-01 2.74686874400355e+00 1.85114926214527e-02
2.22726562500000e-01 2.73203001780411e+00 1.84953748636337e-02
2.24742187500000e-01 2.71727145116660e+00 1.84785143427336e-02
2.26757812500000e-01 2.70259261106496e+00 1.84609266188117e-02
2.28773437500000e-01 2.68799306681234e+00 1.84426269292017e-02
2.30789062500000e-01 2.67347239004848e+00 1.84236301972395e-02
2.32804687500000e-01 2.65903015472715e+00 1.84039510406753e-02
2.34820312500000e-01 2.64466593710365e+00 1.83836037797880e-02
2.36835937500000e-01 2.63037931572236e+00 1.83626024452138e-02
2.38851562500000e-01 2.61616987140439e+00 1.83409607854995e-02
2.40867187500000e-01 2.60203718723528e+00 1.83186922743950e-02
2.42882812500000e-01 2.58798084855275e+00 1.82958101178967e-02
2.44898437500000e-01 2.57400044293457e+00 1.82723272610497e-02
2.46914062500000e-01 2.56009556018641e+00 1.82482563945238e-02
2.48929687500000e-01 2.54626579232985e+00 1.82236099609685e-02
2.50945312500000e-01 2.53251073359037e+00 1.81984001611582e-02
2.52960937500000e-01 2.51882998038550e+00 1.81726389599338e-02
2.54976562500000e-01 2.50522313131290e+00 1.81463380919557e-02
2.56992187500000e-01 2.49168978713865e+00 1.81195090672682e-02
2.59007812500000e-01 2.47822955078552e+00 1.80921631766875e-02
2.61023437500000e-01 2.46484202732130e+00 1.80643114970207e-02
2.63039062500000e-01 2.45152682394722e+00 1.80359648961184e-02
2.65054687500000e-01 2.43828354998644e+00 1.80071340377712e-02
2.67070312500000e-01 2.42511181687256e+00 1.79778293864557e-02
2.69085937500000e-01 2.41201123813826e+00 1.79480612119353e-02
2.71101562500000e-01 2.39898142940391e+00 1.79178395937210e-02
2.73117187500000e-01 2.38602200836634e+00 1.78871744253988e-02
2.75132812500000e-01 2.37313259478760e+00 1.78560754188281e-02
2.77148437500000e-01 2.36031281048378e+00 1.78245521082138e-02
2.79164062500000e-01 2.34756227931396e+00 1.77926138540594e-02
2.81179687500000e-01 2.33488062716916e+00 1.77602698470112e-02
2.83195312500000e-01 2.32226748196133e+00 1.77275291115799e-02
2.85210937500000e-01 2.30972247361249e+00 1.76944005097656e-02
2.87226562500000e-01 2.29724523404381e+00 1.76608927445777e-02
2.89242187500000e-01 2.28483539716487e+00 1.76270143634491e-02
2.91257812500000e-01 2.27249259886286e+00 1.75927737615635e-02
2.93273437500000e-01 2.26021647699195e+00 1.75581791850868e-02
2.95289062500000e-01 2.24800667136262e+00 1.75232387343048e-02
2.97304687500000e-01 2.23586282373113e+00 1.74879603666822e-02
2.99320312500000e-01 2.22378457778898e+00 1.74523518998382e-02
3.01335937500000e-01 2.21177157915248e+00 1.74164210144343e-02
3.03351562500000e-01 2.19982347535233e+00 1.73801752569923e-02
3.05367187500000e-01 2.18793991582327e+00 1.73436220426358e-02
3.07382812500000e-01 2.17612055189384e+00 1.73067686577564e-02
3.09398437500000e-01 2.16436503677612e+00 1.72696222626154e-02
3.11414062500000e-01 2.15267302555553e+00 1.72321898938736e-02
3.13429687500000e-01 2.14104417518076e+00 1.71944784670545e-02
3.15445312500000e-01 2.12947814445367e+00 1.71564947789489e-02
3.17460937500000e-01 2.11797459401929e+00 1.71182455099590e-02
3.19476562500000e-01 2.10653318635588e+00 1.70797372263777e-02
3.21492187500000e-01 2.09515358576498e+00 1.70409763826132e-02
3.23507812500000e-01 2.08383545836162e+00 1.70019693233595e-02
3.25523437500000e-01 2.07257847206447e+00 1.69627222857117e-02
3.27539062500000e-01 2.06138229658613e+00 1.69232414012319e-02
3.29554687500000e-01 2.05024660342343e+00 1.68835326979631e-02
3.31570312500000e-01 2.03917106584780e+00 1.68436021023886e-02
3.33585937500000e-01 2.02815535889565e+00 1.68034554413532e-02
3.35601562500000e-01 2.01719915935889e+00 1.67630984439360e-02
3.37617187500000e-01 2.00630214577540e+00 1.67225367432745e-02
3.39632812500000e-01 1.99546399841961e+00 1.66817758783483e-02
3.41648437500000e-01 1.98468439929314e+00 1.66408212957250e-02
3.43664062500000e-01 1.97396303211543e+00 1.65996783512555e-02
3.45679687500000e-01 1.96329958231451e+00 1.65583523117381e-02
3.47695312500000e-01 1.95269373701774e+00 1.65168483565461e-02
3.49710937500000e-01 1.94214518504261e+00 1.64751715792078e-02
3.51726562500000e-01 1.93165361688766e+00 1.64333269889585e-02
3.53742187500000e-01 1.92121872472335e+00 1.63913195122590e-02
3.55757812500000e-01 1.91084020238308e+00 1.63491539942736e-02
3.57773437500000e-01 1.90051774535416e+00 1.63068352003180e-02
3.59789062500000e-01 1.89025105076889e+00 1.62643678172787e-02
3.61804687500000e-01 1.88003981739569e+00 1.62217564549917e-02
3.63820312500000e-01 1.86988374563023e+00 1.61790056476013e-02
3.65835937500000e-01 1.85978253748667e+00 1.61361198548852e-02
3.67851562500000e-01 1.84973589658891e+00 1.60931034635480e-02
3.69867187500000e-01 1.83974352816188e+00 1.60499607884894e-02
3.71882812500000e-01 1.82980513902291e+00 1.60066960740454e-02
3.73898437500000e-01 1.81992043757309e+00 1.59633134952064e-02
3.75914062500000e-01 1.81008913378878e+00 1.59198171587994e-02
3.77929687500000e-01 1.80031093921304e+00 1.58762111046548e-02
3.79945312500000e-01 1.79058556694719e+00 1.58324993067475e-02
3.81960937500000e-01 1.78091273164241e+00 1.57886856743086e-02
3.83976562500000e-01 1.77129214949132e+00 1.57447740529207e-02
3.85992187500000e-01 1.76172353821970e+00 1.57007682255873e-02
3.88007812500000e-01 1.75220661707818e+00 1.56566719137795e-02
3.90023437500000e-01 1.74274110683404e+00 1.56124887784627e-02
3.92039062500000e-01 1.73332672976295e+00 1.55682224211033e-02
3.94054687500000e-01 1.72396320964089e+00 1.55238763846535e-02
3.96070312500000e-01 1.71465027173600e+00 1.54794541545163e-02
3.98085937500000e-01 1.70538764280055e+00 1.54349591594934e-02
4.00101562500000e-01 1.69617505106289e+00 1.53903947727118e-02
4.02117187500000e-01 1.68701222621951e+00 1.53457643125326e-02
4.04132812500000e-01 1.67789889942709e+00 1.53010710434429e-02
4.06148437500000e-01 1.66883480329461e+00 1.52563181769303e-02
4.08164062500000e-01 1.65981967187551e+00 1.52115088723381e-02
4.10179687500000e-01 1.65085324065990e+00 1.51666462377075e-02
4.12195312500000e-01 1.64193524656677e+00 1.51217333306009e-02
4.14210937500000e-01 1.63306542793630e+00 1.50767731589088e-02
4.16226562500000e-01 1.62424352452215e+00 1.50317686816446e-02
4.18242187500000e-01 1.61546927748387e+00 1.49867228097225e-02
4.20257812500000e-01 1.60674242937927e+00 1.49416384067174e-02
4.22273437500000e-01 1.59806272415686e+00 1.48965182896165e-02
4.24289062500000e-01 1.58942990714837e+00 1.48513652295551e-02
4.26304687500000e-01 1.58084372506127e+00 1.48061819525350e-02
4.28320312500000e-01 1.57230392597130e+00 1.47609711401336e-02
4.30335937500000e-01 1.56381025931513e+00 1.47157354301979e-02
4.32351562500000e-01 1.55536247588299e+00 1.46704774175254e-02
4.34367187500000e-01 1.54696032781133e+00 1.46251996545343e-02
4.36382812500000e-01 1.53860356857560e+00 1.45799046519213e-02
4.38398437500000e-01 1.53029195298296e+00 1.45345948793059e-02
4.40414062500000e-01 1.52202523716514e+00 1.44892727658640e-02
4.42429687500000e-01 1.51380317857124e+00 1.44439407009505e-02
4.44445312500000e-01 1.50562553596064e+00 1.43986010347092e-02
4.46460937500000e-01 1.49749206939592e+00 1.43532560786746e-02
4.48476562500000e-01 1.48940254023581e+00 1.43079081063603e-02
4.50492187500000e-01 1.48135671112819e+00 1.42625593538381e-02
4.52507812500000e-01 1.47335434600312e+00 1.42172120203068e-02
4.54523437500000e-01 1.46539521006594e+00 1.41718682686505e-02
4.56539062500000e-01 1.45747906979036e+00 1.41265302259901e-02
4.58554687500000e-01 1.44960569291159e+00 1.40811999842198e-02
4.60570312500000e-01 1.44177484841957e+00 1.40358796005406e-02
4.62585937500000e-01 1.43398630655216e+00 1.39905710979777e-02
4.64601562500000e-01 1.42623983878841e+00 1.39452764658960e-02
4.66617187500000e-01 1.41853521784184e+00 1.38999976605011e-02
4.68632812500000e-01 1.41087221765379e+00 1.38547366053338e-02
4.70648437500000e-01 1.40325061338680e+00 1.38094951917610e-02
4.72664062500000e-01 1.39567018141796e+00 1.37642752794490e-02
4.74679687500000e-01 1.38813069933240e+00 1.37190786968349e-02
4.76695312500000e-01 1.38063194591675e+00 1.36739072415891e-02
4.78710937500000e-01 1.37317370115263e+00 1.36287626810711e-02
4.80726562500000e-01 1.36575574621024e+00 1.35836467527743e-02
4.82742187500000e-01 1.35837786344188e+00 1.35385611647663e-02
4.84757812500000e-01 1.35103983637560e+00 1.34935075961224e-02
4.86773437500000e-01 1.34374144970886e+00 1.34484876973498e-02
4.88789062500000e-01 1.33648248930217e+00 1.34035030908052e-02
4.90804687500000e-01 1.32926274217286e+00 1.33585553711061e-02
4.92820312500000e-01 1.32208199648878e+00 1.33136461055374e-02
4.94835937500000e-01 1.31494004156212e+00 1.32687768344477e-02
4.96851562500000e-01 1.30783666784322e+00 1.32239490716406e-02
4.98867187500000e-01 1.30077166691440e+00 1.31791643047612e-02
5.00882812500000e-01 1.29374483148388e+00 1.31344239956764e-02
5.02898437500000e-01 1.28675595537968e+00 1.30897295808446e-02
5.04914062500000e-01 1.27980483354357e+00 1.30450824716841e-02
5.06929687500000e-01 1.27289126202504e+00 1.30004840549363e-02
5.08945312500000e-01 1.26601503797534e+00 1.29559356930186e-02
5.10960937500000e-01 1.25917595964155e+00 1.29114387243763e-02
5.12976562500000e-01 1.25237382636057e+00 1.28669944638256e-02
5.14992187500000e-01 1.24560843855335e+00 1.28226042028931e-02
5.17007812500000e-01 1.23887959771894e+00 1.27782692101508e-02
5.19023437500000e-01 1.23218710642871e+00 1.27339907315419e-02
5.21039062500000e-01 1.22553076832056e+00 1.26897699907060e-02
5.23054687500000e-01 1.21891038809315e+00 1.26456081892984e-02
5.25070312500000e-01 1.21232577150014e+00 1.26015065073012e-02
5.27085937500000e-01 1.20577672534455e+00 1.25574661033329e-02
5.29101562500000e-01 1.19926305747304e+00 1.25134881149524e-02
5.31117187500000e-01 1.19278457677031e+00 1.24695736589587e-02
5.33132812500000e-01 1.18634109315346e+00 1.24257238316853e-02
5.35148437500000e-01 1.17993241756643e+00 1.23819397092897e-02
5.37164062500000e-01 1.17355836197446e+00 1.23382223480399e-02
5.39179687500000e-01 1.16721873935855e+00 1.22945727845959e-02
5.41195312500000e-01 1.16091336371000e+00 1.22509920362856e-02
5.43210937500000e-01 1.15464205002492e+00 1.22074811013798e-02
5.45226562500000e-01 1.14840461429884e+00 1.21640409593602e-02
5.47242187500000e-01 1.14220087352129e+00 1.21206725711837e-02
5.49257812500000e-01 1.13603064567041e+00 1.20773768795441e-02
5.51273437500000e-01 1.12989374970766e+00 1.20341548091283e-02
5.53289062500000e-01 1.12379000557245e+00 1.19910072668720e-02
5.55304687500000e-01 1.11771923417692e+00 1.19479351422078e-02
5.57320312500000e-01 1.11168125740063e+00 1.19049393073085e-02
5.59335937500000e-01 1.10567589808536e+00 1.18620206173318e-02
5.61351562500000e-01 1.09970298002991e+00 1.18191799106607e-02
5.63367187500000e-01 1.09376232798492e+00 1.17764180091352e-02
5.65382812500000e-01 1.08785376764774e+00 1.17337357182849e-02
5.67398437500000e-01 1.08197712565733e+00 1.16911338275578e-02
5.69414062500000e-01 1.07613222958913e+00 1.16486131105471e-02
5.71429687500000e-01 1.07031890795003e+00 1.16061743252112e-02
5.73445312500000e-01 1.06453699017334e+00 1.15638182140907e-02
5.75460937500000e-01 1.05878630661380e+00 1.15215455045263e-02
5.77476562500000e-01 1.05306668854254e+00 1.14793569088707e-02
5.79492187500000e-01 1.04737796814221e+00 1.14372531246958e-02
5.81507812500000e-01 1.04171997850199e+00 1.13952348350010e-02
5.83523437500000e-01 1.03609255361275e+00 1.13533027084179e-02
5.85539062500000e-01 1.03049552836212e+00 1.13114573994074e-02
5.87554687500000e-01 1.02492873852969e+00 1.12696995484585e-02
5.89570312500000e-01 1.01939202078219e+00 1.12280297822841e-02
5.91585937500000e-01 1.01388521266865e+00 1.11864487140108e-02
5.93601562500000e-01 1.00840815261571e+00 1.11449569433705e-02
5.95617187500000e-01 1.00296067992280e+00 1.11035550568851e-02
5.97632812500000e-01 9.97542634757485e-01 1.10622436280523e-02
5.99648437500000e-01 9.92153858150753e-01 1.10210232175271e-02
6.01664062500000e-01 9.86794191992342e-01 1.09798943732978e-02
6.03679687500000e-01 9.81463479026113e-01 1.09388576308641e-02
6.05695312500000e-01 9.76161562845434e-01 1.08979135134126e-02
6.07710937500000e-01 9.70888287888588e-01 1.08570625319860e-02
6.09726562500000e-01 9.65643499434211e-01 1.08163051856518e-02
6.11742187500000e-01 9.60427043596753e-01 1.07756419616729e-02
6.13757812500000e-01 9.55238767321959e-01 1.07350733356680e-02
6.15773437500000e-01 9.50078518382383e-01 1.06945997717737e-02
6.17789062500000e-01 9.44946145372920e-01 1.06542217228078e-02
6.19804687500000e-01 9.39841497706361e-01 1.06139396304240e-02
6.21820312500000e-01 9.34764425608979e-01 1.05737539252692e-02
6.23835937500000e-01 9.29714780116130e-01 1.05336650271365e-02
6.25851562500000e-01 9.24692413067887e-01 1.04936733451151e-02
6.27867187500000e-01 9.19697177104690e-01 1.04537792777423e-02
6.29882812500000e-01 9.14728925663022e-01 1.04139832131489e-02
6.31898437500000e-01 9.09787512971110e-01 1.03742855292039e-02
6.33914062500000e-01 9.04872794044647e-01 1.03346865936585e-02
6.35929687500000e-01 8.99984624682540e-01 1.02951867642879e-02
