Energy (eV)          EEDF (eV^-(3/2))     First Anisotropy
3.23913043478261e-03 1.40039188342755e+00 7.63340374981395e-04
9.71739130434783e-03 1.38992761880144e+00 1.26001841862129e-03
1.61956521739130e-02 1.37954154718847e+00 1.66211318279253e-03
2.26739130434783e-02 1.36923308426167e+00 1.96682561904439e-03
2.91521739130435e-02 1.35900165010466e+00 2.22032964679028e-03
3.56304347826087e-02 1.34884666916590e+00 2.44009826181510e-03
4.21086956521739e-02 1.33876757012612e+00 2.63518124219700e-03
4.85869565217391e-02 1.32876378596849e+00 2.81104788859846e-03
5.50652173913043e-02 1.31883475391262e+00 2.97132842420349e-03
6.15434782608696e-02 1.30897991540078e+00 3.11859064294039e-03
6.80217391304348e-02 1.29919871601295e+00 3.25473685032734e-03
7.45000000000000e-02 1.28949060548978e+00 3.38122696202760e-03
8.09782608695652e-02 1.27985503769636e+00 3.49921306343541e-03
8.74565217391304e-02 1.27029147055331e+00 3.60962510685384e-03
9.39347826086956e-02 1.26079936604442e+00 3.71322792814749e-03
1.00413043478261e-01 1.25137819018343e+00 3.81066057187239e-03
1.06891304347826e-01 1.24202741294580e+00 3.90246422060321e-03
1.13369565217391e-01 1.23274650828731e+00 3.98910254873432e-03
1.19847826086957e-01 1.22353495409467e+00 4.07097688754655e-03
1.26326086956522e-01 1.21439223215579e+00 4.14843772309314e-03
1.32804347826087e-01 1.20531782819902e+00 4.22179360049588e-03
1.39282608695652e-01 1.19631123165552e+00 4.29131806490182e-03
1.45760869565217e-01 1.18737193584327e+00 4.35725516713525e-03
1.52239130434783e-01 1.17849943786625e+00 4.41982392131213e-03
1.58717391304348e-01 1.16969323858572e+00 4.47922189598232e-03
1.65195652173913e-01 1.16095284259314e+00 4.53562816416112e-03
1.71673913043478e-01 1.15227775818176e+00 4.58920573671784e-03
1.78152173913043e-01 1.14366749736664e+00 4.64010361451368e-03
1.84630434782609e-01 1.13512157571214e+00 4.68845848380739e-03
1.91108695652174e-01 1.12663951245194e+00 4.73439614806344e-03
1.97586956521739e-01 1.11822083041213e+00 4.77803277622690e-03
2.04065217391304e-01 1.10986505598430e+00 4.81947594865263e-03
2.10543478260870e-01 1.10157171909892e+00 4.85882556292722e-03
2.17021739130435e-01 1.09334035319917e+00 4.89617461769279e-03
2.23500000000000e-01 1.08517049521443e+00 4.93160988902935e-03
2.29978260869565e-01 1.07706168556901e+00 4.96521254094162e-03
2.36456521739130e-01 1.06901346805090e+00 4.99705863693556e-03
2.42934782608696e-01 1.06102538989285e+00 5.02721958920169e-03
2.49413043478261e-01 1.05309700171079e+00 5.05576258056711e-03
2.55891304347826e-01 1.04522785747854e+00 5.08275091946581e-03
2.62369565217391e-01 1.03741751450280e+00 5.10824436056499e-03
2.68847826086957e-01 1.02966553339832e+00 5.13229939106716e-03
2.75326086956522e-01 1.02197147806306e+00 5.15496948273442e-03
2.81804347826087e-01 1.01433491568029e+00 5.17630533518246e-03
2.88282608695652e-01 1.00675541661355e+00 5.19635507441078e-03
2.94760869565217e-01 9.99232554464083e-01 5.21516443114482e-03
3.01239130434783e-01 9.91765906019346e-01 5.23277692364944e-03
3.07717391304348e-01 9.84355051229082e-01 5.24923400691496e-03
3.14195652173913e-01 9.76999573181907e-01 5.26457521243322e-03
3.20673913043478e-01 9.69699058081748e-01 5.27883827181240e-03
3.27152173913043e-01 9.62453095246205e-01 5.29205924454661e-03
3.33630434782609e-01 9.55261277017862e-01 5.30427261674768e-03
3.40108695652174e-01 9.48123198807624e-01 5.31551139095910e-03
3.46586956521739e-01 9.41038459049634e-01 5.32580718750014e-03
3.53065217391304e-01 9.34006659178653e-01 5.33519032298111e-03
3.59543478260870e-01 9.27027403607652e-01 5.34368988627797e-03
3.66021739130435e-01 9.20100299705618e-01 5.35133380869269e-03
3.72500000000000e-01 9.13224957775420e-01 5.35814892550444e-03
3.78978260869565e-01 9.06400991049474e-01 5.36416104605535e-03
3.85456521739130e-01 8.99628015614722e-01 5.36939500271437e-03
3.91934782608696e-01 8.92905650444814e-01 5.37387469580966e-03
3.98413043478261e-01 8.86233517360569e-01 5.37762315198967e-03
4.04891304347826e-01 8.79611241008664e-01 5.38066256555850e-03
4.11369565217391e-01 8.73038448840578e-01 5.38301434022859e-03
4.17847826086957e-01 8.66514771091627e-01 5.38469912811584e-03
4.24326086956522e-01 8.60039840760145e-01 5.38573686323702e-03
4.30804347826087e-01 8.53613293601403e-01 5.38614680445890e-03
4.37282608695652e-01 8.47234768063032e-01 5.38594756148763e-03
4.43760869565217e-01 8.40903905309172e-01 5.38515711881176e-03
4.50239130434783e-01 8.34620349185318e-01 5.38379287287869e-03
4.56717391304348e-01 8.28383746198249e-01 5.38187165545613e-03
4.63195652173913e-01 8.22193745496213e-01 5.37940975848114e-03
4.69673913043478e-01 8.16049998849156e-01 5.37642295482946e-03
4.76152173913043e-01 8.09952160641598e-01 5.37292652833485e-03
4.82630434782609e-01 8.03899887815461e-01 5.36893528923942e-03
4.89108695652174e-01 7.97892839888826e-01 5.36446358842497e-03
4.95586956521739e-01 7.91930678923986e-01 5.35952534412235e-03
5.02065217391304e-01 7.86013069508418e-01 5.35413405672434e-03
5.08543478260870e-01 7.80139678735922e-01 5.34830282538539e-03
5.15021739130435e-01 7.74310176187915e-01 5.34204436375914e-03
5.21500000000000e-01 7.68524233914829e-01 5.33537101255554e-03
5.27978260869565e-01 7.62781526428246e-01 5.32829476082154e-03
5.34456521739130e-01 7.57081730650558e-01 5.32082725459097e-03
5.40934782608696e-01 7.51424525929090e-01 5.31297980480954e-03
5.47413043478261e-01 7.45809594007208e-01 5.30476340676377e-03
5.53891304347826e-01 7.40236619006391e-01 5.29618874917205e-03
5.60369565217391e-01 7.34705287408496e-01 5.28726622516901e-03
5.66847826086956e-01 7.29215288038109e-01 5.27800594278109e-03
5.73326086956522e-01 7.23766312045039e-01 5.26841773277907e-03
5.79804347826087e-01 7.18358052896020e-01 5.25851116460732e-03
5.86282608695652e-01 7.12990206330007e-01 5.24829555116895e-03
5.92760869565217e-01 7.07662470368741e-01 5.23777995315068e-03
5.99239130434783e-01 7.02374545290460e-01 5.22697319386836e-03
6.05717391304348e-01 6.97126133613017e-01 5.21588386498124e-03
6.12195652173913e-01 6.91916940077183e-01 5.20452033407000e-03
6.18673913043478e-01 6.86746671630021e-01 5.19289074995897e-03
6.25152173913043e-01 6.81615037416369e-01 5.18100305550806e-03
6.31630434782609e-01 6.76521748738369e-01 5.16886499034536e-03
6.38108695652174e-01 6.71466519063523e-01 5.15648409327648e-03
6.44586956521739e-01 6.66449064000418e-01 5.14386771437918e-03
6.51065217391304e-01 6.61469101282712e-01 5.13102301886514e-03
6.57543478260870e-01 6.56526350753261e-01 5.11795699270631e-03
6.64021739130435e-01 6.51620534348374e-01 5.10467644804459e-03
6.70500000000000e-01 6.46751376082152e-01 5.09118802663652e-03
6.76978260869565e-01 6.41918602037912e-01 5.07749821014100e-03
6.83456521739130e-01 6.37121940331793e-01 5.06361332137407e-03
6.89934782608696e-01 6.32361121118602e-01 5.04953952533587e-03
6.96413043478261e-01 6.27635876569529e-01 5.03528283906971e-03
7.02891304347826e-01 6.22945940857078e-01 5.02084913412391e-03
7.09369565217391e-01 6.18291050140119e-01 5.00624414067167e-03
7.15847826086957e-01 6.13670942549047e-01 4.99147345148613e-03
7.22326086956522e-01 6.09085358171049e-01 4.97654252417487e-03
7.28804347826087e-01 6.04534039041546e-01 4.96145668967889e-03
7.35282608695652e-01 6.00016729111342e-01 4.94622115261277e-03
7.41760869565217e-01 5.95533174250695e-01 4.93084099143865e-03
7.48239130434783e-01 5.91083122228819e-01 4.91532116669723e-03
7.54717391304348e-01 5.86666322699683e-01 4.89966652255690e-03
7.61195652173913e-01 5.82282527187947e-01 4.88388178990653e-03
7.67673913043478e-01 5.77931489074972e-01 4.86797158788307e-03
7.74152173913043e-01 5.73612963590363e-01 4.85194043117819e-03
7.80630434782609e-01 5.69326707781836e-01 4.83579272987119e-03
7.87108695652174e-01 5.65072480518030e-01 4.81953278912937e-03
7.93586956521739e-01 5.60850042469413e-01 4.80316481633909e-03
8.00065217391304e-01 5.56659156094807e-01 4.78669292211879e-03
8.06543478260870e-01 5.52499585628033e-01 4.77012112276253e-03
8.13021739130435e-01 5.48371097064652e-01 4.75345334261200e-03
8.19500000000000e-01 5.44273458148792e-01 4.73669341501602e-03
8.25978260869565e-01 5.40206438364871e-01 4.71984508858508e-03
8.32456521739130e-01 5.36169808910175e-01 4.70291202664728e-03
8.38934782608696e-01 5.32163342696543e-01 4.68589780660103e-03
8.45413043478261e-01 5.28186814332699e-01 4.66880592606036e-03
8.51891304347826e-01 5.24240000111575e-01 4.65163980343543e-03
8.58369565217391e-01 5.20322677997728e-01 4.63440277983648e-03
8.64847826086957e-01 5.16434627614853e-01 4.61709812092469e-03
8.71326086956522e-01 5.12575630233378e-01 4.59972901748458e-03
8.77804347826087e-01 5.08745468762400e-01 4.58229859084927e-03
8.84282608695652e-01 5.04943927724672e-01 4.56480989212569e-03
8.90760869565217e-01 5.01170793257368e-01 4.54726590133721e-03
8.97239130434783e-01 4.97425853095729e-01 4.52966953278491e-03
9.03717391304348e-01 4.93708896561109e-01 4.51202363533175e-03
9.10195652173913e-01 4.90019714549144e-01 4.49433099390877e-03
9.16673913043478e-01 4.86358099517974e-01 4.47659432985486e-03
9.23152173913043e-01 4.82723845480393e-01 4.45881630574324e-03
9.29630434782609e-01 4.79116747980719e-01 4.44099952448784e-03
9.36108695652174e-01 4.75536604094911e-01 4.42314652837950e-03
9.42586956521739e-01 4.71983212415257e-01 4.40525980387487e-03
9.49065217391304e-01 4.68456373039035e-01 4.38734178170508e-03
9.55543478260869e-01 4.64955887557271e-01 4.36939483811397e-03
9.62021739130435e-01 4.61481559043584e-01 4.35142129606690e-03
9.68500000000000e-01 4.58033192043100e-01 4.33342342539350e-03
9.74978260869565e-01 4.54610592564867e-01 4.31540344705296e-03
9.81456521739130e-01 4.51213568060648e-01 4.29736353215999e-03
9.87934782608696e-01 4.47841927424454e-01 4.27930580095333e-03
9.94413043478261e-01 4.44495480978309e-01 4.26123232704329e-03
1.00089130434783e+00 4.41174040461584e-01 4.24314513249612e-03
1.00736956521739e+00 4.37877419036199e-01 4.22504621227660e-03
1.01384782608696e+00 4.34605431200241e-01 4.20693749808963e-03
1.02032608695652e+00 4.31357892913751e-01 4.18882086893308e-03
1.02680434782609e+00 4.28134621480250e-01 4.17069818490633e-03
1.03328260869565e+00 4.24935435568441e-01 4.15257125419129e-03
1.03976086956522e+00 4.21760155202005e-01 4.13444184396721e-03
1.04623913043478e+00 4.18608601749478e-01 4.11631168128144e-03
1.05271739130435e+00 4.15480597914176e-01 4.09818245387708e-03
1.05919565217391e+00 4.12375967724269e-01 4.08005581101634e-03
1.06567391304348e+00 4.09294536522861e-01 4.06193336429836e-03
1.07215217391304e+00 4.06236130958155e-01 4.04381668843454e-03
1.07863043478261e+00 4.03200578973712e-01 4.02570733063674e-03
1.08510869565217e+00 4.00187709771854e-01 4.00760678533094e-03
1.09158695652174e+00 3.97197353885371e-01 3.98951651232628e-03
1.09806521739130e+00 3.94229343086080e-01 3.97143795518023e-03
1.10454347826087e+00 3.91283510402867e-01 3.95337251528412e-03
1.11102173913043e+00 3.88359690112290e-01 3.93532156146929e-03
1.11750000000000e+00 3.85457717729259e-01 3.91728643067357e-03
1.12397826086957e+00 3.82577429997769e-01 3.89926842858710e-03
1.13045652173913e+00 3.79718664881732e-01 3.88126883027949e-03
1.13693478260870e+00 3.76881261555864e-01 3.86328888082549e-03
1.14341304347826e+00 3.74065060396632e-01 3.84532979591338e-03
1.14989130434783e+00 3.71269902973270e-01 3.82739276243355e-03
1.15636956521739e+00 3.68495632038871e-01 3.80947894666655e-03
1.16284782608696e+00 3.65742091498601e-01 3.79158947187773e-03
1.16932608695652e+00 3.63009126470215e-01 3.77372543425578e-03
1.17580434782609e+00 3.60296583205553e-01 3.75588791903173e-03
1.18228260869565e+00 3.57604309105320e-01 3.73807797753037e-03
1.18876086956522e+00 3.54932152710504e-01 3.72029663556272e-03
1.19523913043478e+00 3.52279963693853e-01 3.70254489393764e-03
1.20171739130435e+00 3.49647592851406e-01 3.68482372894635e-03
1.20819565217391e+00 3.47034892094123e-01 3.66713409284667e-03
1.21467391304348e+00 3.44441714439550e-01 3.64947691434834e-03
1.22115217391304e+00 3.41867914003536e-01 3.63185309907149e-03
1.22763043478261e+00 3.39313345992039e-01 3.61426353680394e-03
1.23410869565217e+00 3.36777866673067e-01 3.59670908140987e-03
1.24058695652174e+00 3.34261333428725e-01 3.57919056501730e-03
1.24706521739130e+00 3.31763604686639e-01 3.56170881237296e-03
1.25354347826087e+00 3.29284539932322e-01 3.54426462027066e-03
1.26002173913043e+00 3.26823999701262e-01 3.52685876499916e-03
1.26650000000000e+00 3.24381845571084e-01 3.50949200274474e-03
1.27297826086957e+00 3.21957940153751e-01 3.49216506998038e-03
1.27945652173913e+00 3.19552147087842e-01 3.47487868384468e-03
1.28593478260870e+00 3.17164331030890e-01 3.45763354252197e-03
1.29241304347826e+00 3.14794357651759e-01 3.44043032561255e-03
1.29889130434783e+00 3.12442093623087e-01 3.42326969449118e-03
1.30536956521739e+00 3.10107406613787e-01 3.40615229868818e-03
1.31184782608696e+00 3.07790165264495e-01 3.38907875804001e-03
1.31832608695652e+00 3.05490239231849e-01 3.37204967521184e-03
1.32480434782609e+00 3.03207499129132e-01 3.35506564837202e-03
1.33128260869565e+00 3.00941816536453e-01 3.33812725292206e-03
1.33776086956522e+00 2.98693063993529e-01 3.32123504805256e-03
1.34423913043478e+00 2.96461114992505e-01 3.30438957705924e-03
1.35071739130435e+00 2.94245843970835e-01 3.28759136764231e-03
1.35719565217391e+00 2.92047126304233e-01 3.27084093220702e-03
1.36367391304348e+00 2.89864838299658e-01 3.25413876816528e-03
1.37015217391304e+00 2.87698857188347e-01 3.23748535822107e-03
1.37663043478261e+00 2.85549061118916e-01 3.22088117606080e-03
1.38310869565217e+00 2.83415329135559e-01 3.20432667031013e-03
1.38958695652174e+00 2.81297541216371e-01 3.18782227573307e-03
1.39606521739130e+00 2.79195578221166e-01 3.17136842457012e-03
1.40254347826087e+00 2.77109321900016e-01 3.15496553012136e-03
1.40902173913043e+00 2.75038654886607e-01 3.13861399259702e-03
1.41550000000000e+00 2.72983460691626e-01 3.12231419937011e-03
1.42197826086957e+00 2.70943623696214e-01 3.10606652522205e-03
1.42845652173913e+00 2.68919029145459e-01 3.08987133258180e-03
1.43493478260870e+00 2.66909563141948e-01 3.07372897176620e-03
1.44141304347826e+00 2.64915112639350e-01 3.05763978121519e-03
1.44789130434783e+00 2.62935565436065e-01 3.04160408771849e-03
1.45436956521739e+00 2.60970810168904e-01 3.02562221144692e-03
1.46084782608696e+00 2.59020736293904e-01 3.00969445166507e-03
1.46732608695652e+00 2.57085234119136e-01 2.99382109665864e-03
1.47380434782609e+00 2.55164194759247e-01 2.97800243378881e-03
1.48028260869565e+00 2.53257510142517e-01 2.96223873487496e-03
1.48676086956522e+00 2.51365073004781e-01 2.94653026137015e-03
1.49323913043478e+00 2.49486776883390e-01 2.93087726456394e-03
1.49971739130435e+00 2.47622516111221e-01 2.91527998577376e-03
1.50619565217391e+00 2.45772185810744e-01 2.89973865653747e-03
1.51267391304348e+00 2.43935681888114e-01 2.88425349880815e-03
1.51915217391304e+00 2.42112901027314e-01 2.86882472513730e-03
1.52563043478261e+00 2.40303740684348e-01 2.85345254318011e-03
1.53210869565217e+00 2.38508099070115e-01 2.83813714282770e-03
1.53858695652174e+00 2.36725875178961e-01 2.82287870511576e-03
1.54506521739130e+00 2.34956968748496e-01 2.80767741124927e-03
1.55154347826087e+00 2.33201280265528e-01 2.79253342943912e-03
1.55802173913043e+00 2.31458710960468e-01 2.77744691953954e-03
1.56450000000000e+00 2.29729162801769e-01 2.76241803321260e-03
1.57097826086957e+00 2.28012538490414e-01 2.74744691408639e-03
1.57745652173913e+00 2.26308741454439e-01 2.73253369791071e-03
1.58393478260870e+00 2.24617675843508e-01 2.71767851271389e-03
1.59041304347826e+00 2.22939246523516e-01 2.70288147895529e-03
1.59689130434783e+00 2.21273359071235e-01 2.68814270967312e-03
1.60336956521739e+00 2.19619919769006e-01 2.67346231448451e-03
1.60984782608696e+00 2.17978835589596e-01 2.65884038810043e-03
1.61632608695652e+00 2.16350014220761e-01 2.64427701824918e-03
1.62280434782609e+00 2.14733364030062e-01 2.62977229370541e-03
1.62928260869565e+00 2.13128794069774e-01 2.61532629254384e-03
1.63576086956522e+00 2.11536214071768e-01 2.60093908625699e-03
1.64223913043478e+00 2.09955534442434e-01 2.58661073988834e-03
1.64871739130435e+00 2.08386666257635e-01 2.57234131215745e-03
1.65519565217391e+00 2.06829521257714e-01 2.55813085558657e-03
1.66167391304348e+00 2.05284011842524e-01 2.54397941662856e-03
1.66815217391304e+00 2.03750051066503e-01 2.52988703578731e-03
1.67463043478261e+00 2.02227552633776e-01 2.51585375121083e-03
1.68110869565217e+00 2.00716430884603e-01 2.50187958832860e-03
1.68758695652174e+00 1.99216600816837e-01 2.48796456698117e-03
1.69406521739130e+00 1.97727978054690e-01 2.47410870864516e-03
1.70054347826087e+00 1.96250478852863e-01 2.46031202583626e-03
1.70702173913043e+00 1.94784020091837e-01 2.44657452580981e-03
1.71350000000000e+00 1.93328519273190e-01 2.43289621066885e-03
1.71997826086957e+00 1.91883894514962e-01 2.41927707746968e-03
1.72645652173913e+00 1.90450064547045e-01 2.40571711832430e-03
1.73293478260870e+00 1.89026948706615e-01 2.39221632050399e-03
1.73941304347826e+00 1.87614466933590e-01 2.37877466654066e-03
1.74589130434783e+00 1.86212539766132e-01 2.36539213432441e-03
1.75236956521739e+00 1.84821088336168e-01 2.35206870030299e-03
1.75884782608696e+00 1.83440034357362e-01 2.33880433021621e-03
1.76532608695652e+00 1.82069300143648e-01 2.32559898545336e-03
1.77180434782609e+00 1.80708808581773e-01 2.31245262949725e-03
1.77828260869565e+00 1.79358483134704e-01 2.29936521845014e-03
1.78476086956522e+00 1.78018247837323e-01 2.28633670432947e-03
1.79123913043478e+00 1.76688027292151e-01 2.27336703515600e-03
1.79771739130435e+00 1.75367746665105e-01 2.26045615503711e-03
1.80419565217391e+00 1.74057331681296e-01 2.24760400425071e-03
1.81067391304348e+00 1.72756708620846e-01 2.23481051933095e-03
1.81715217391304e+00 1.71465804314737e-01 2.22207563314812e-03
1.82363043478261e+00 1.70184546140703e-01 2.20939927778933e-03
1.83010869565217e+00 1.68912862012409e-01 2.19678137618569e-03
1.83658695652174e+00 1.67650680395708e-01 2.18422184784436e-03
1.84306521739130e+00 1.66397930284182e-01 2.17172061465973e-03
1.84954347826087e+00 1.65154541201996e-01 2.15927759235287e-03
1.85602173913043e+00 1.63920443199942e-01 2.14689269343961e-03
1.86250000000000e+00 1.62695566851496e-01 2.13456582730312e-03
1.86897826086957e+00 1.61479843248916e-01 2.12229690026403e-03
1.87545652173913e+00 1.60273203999366e-01 2.11008581564870e-03
1.88193478260870e+00 1.59075581221068e-01 2.09793247385864e-03
1.88841304347826e+00 1.57886907539482e-01 2.08583677243794e-03
1.89489130434783e+00 1.56707116083519e-01 2.07379860613881e-03
1.90136956521739e+00 1.55536140481776e-01 2.06181786949287e-03
1.90784782608696e+00 1.54373914852904e-01 2.04989444931171e-03
1.91432608695652e+00 1.53220373819707e-01 2.03802822980960e-03
1.92080434782609e+00 1.52075452487548e-01 2.02621909779769e-03
1.92728260869565e+00 1.50939086446706e-01 2.01446693501733e-03
1.93376086956522e+00 1.49811211768757e-01 2.00277162078971e-03
1.94023913043478e+00 1.48691765002973e-01 1.99113303207539e-03
1.94671739130435e+00 1.47580683172754e-01 1.97955104352967e-03
1.95319565217391e+00 1.46477903772085e-01 1.96802552755828e-03
1.95967391304348e+00 1.45383364762022e-01 1.95655635437551e-03
1.96615217391304e+00 1.44297004567200e-01 1.94514339205728e-03
1.97263043478261e+00 1.43218762072369e-01 1.93378650886099e-03
1.97910869565217e+00 1.42148576613721e-01 1.92248556643974e-03
1.98558695652174e+00 1.41086387991277e-01 1.91124042446870e-03
1.99206521739130e+00 1.40032136449604e-01 1.90005094533736e-03
1.99854347826087e+00 1.38985762679784e-01 1.88891698721245e-03
2.00502173913043e+00 1.37947207816078e-01 1.87783840642918e-03
2.01150000000000e+00 1.36916413432615e-01 1.86681505753974e-03
2.01797826086957e+00 1.35893321540103e-01 1.85584679336017e-03
2.02445652173913e+00 1.34877874582569e-01 1.84493346501584e-03
2.03093478260870e+00 1.33870015434121e-01 1.83407492198801e-03
2.03741304347826e+00 1.32869687395734e-01 1.82327101215930e-03
2.04389130434783e+00 1.31876834192060e-01 1.81252158185690e-03
