Energy (eV)          EEDF (eV^-(3/2))     First Anisotropy
6.16666666666667e-01 3.03497941888665e-02 6.23822512380312e-05
1.85000000000000e+00 2.70459422750735e-02 9.77325514651254e-05
3.08333333333333e+00 2.41017447654642e-02 1.15751520327162e-04
4.31666666666667e+00 2.14780500150967e-02 1.22980352169068e-04
5.55000000000000e+00 1.91399683703540e-02 1.24649660613043e-04
6.78333333333333e+00 1.70564082358330e-02 1.22994226288434e-04
8.01666666666667e+00 1.51996626274152e-02 1.19259138017946e-04
9.25000000000000e+00 1.35450407144440e-02 1.14222901070051e-04
1.04833333333333e+01 1.20705394874857e-02 1.08402517017576e-04
1.17166666666667e+01 1.07565511685653e-02 1.02152934439160e-04
1.29500000000000e+01 9.58560246585985e-03 9.57220790913647e-05
1.41833333333333e+01 8.54212220432233e-03 8.92841425635561e-05
1.54166666666667e+01 7.61223428946093e-03 8.29610350841799e-05
1.66500000000000e+01 6.78357315720124e-03 7.68368655962870e-05
1.78833333333333e+01 6.04511934446965e-03 7.09680572810349e-05
1.91166666666667e+01 5.38705296613186e-03 6.53906028297484e-05
2.03500000000000e+01 4.80062311620963e-03 6.01253712649037e-05
2.15833333333333e+01 4.27803150258064e-03 5.51820472398016e-05
2.28166666666667e+01 3.81232875348707e-03 5.05620892012656e-05
2.40500000000000e+01 3.39732199685514e-03 4.62609679819951e-05
2.52833333333333e+01 3.02749250994444e-03 4.22698693685642e-05
2.65166666666667e+01 2.69792233639831e-03 3.85769936348966e-05
2.77500000000000e+01 2.40422888259004e-03 3.51685477236773e-05
2.89833333333333e+01 2.14250663938543e-03 3.20295012211499e-05
3.02166666666667e+01 1.90927524982901e-03 2.91441605848716e-05
3.14500000000000e+01 1.70143322454123e-03 2.64966020806156e-05
3.26833333333333e+01 1.51621669904577e-03 2.40709945877807e-05
3.39166666666667e+01 1.35116268190232e-03 2.18518370231385e-05
3.51500000000000e+01 1.20407630011739e-03 1.98241290147201e-05
3.63833333333333e+01 1.07300161231976e-03 1.79734894776710e-05
3.76166666666667e+01 9.56195599942877e-04 1.62862350379102e-05
3.88500000000000e+01 8.52104987487507e-04 1.47494272915200e-05
4.00833333333333e+01 7.59345587451848e-04 1.33508960443660e-05
4.13166666666667e+01 6.76683894246672e-04 1.20792444718143e-05
4.25500000000000e+01 6.03020680360400e-04 1.09238406088885e-05
4.37833333333333e+01 5.37376379086845e-04 9.87479868549639e-06
4.50166666666667e+01 4.78878058799178e-04 8.92295327515734e-06
4.62500000000000e+01 4.26747814274746e-04 8.05982839904876e-06
4.74833333333333e+01 3.80292422281125e-04 7.27760328137731e-06
4.87166666666667e+01 3.38894123458655e-04 6.56907620905780e-06
4.99500000000000e+01 3.02002407081063e-04 5.92762748918761e-06
5.11833333333333e+01 2.69126690477580e-04 5.34718227528860e-06
5.24166666666667e+01 2.39829795507485e-04 4.82217393318453e-06
5.36500000000000e+01 2.13722134787847e-04 4.34750835767333e-06
5.48833333333333e+01 1.90456531037272e-04 3.91852954239165e-06
5.61166666666667e+01 1.69723600474844e-04 3.53098667242440e-06
5.73500000000000e+01 1.51247638519816e-04 3.18100286129134e-06
5.85833333333333e+01 1.34782953524176e-04 2.86504560371274e-06
5.98166666666667e+01 1.20110599674211e-04 2.57989901330064e-06
6.10500000000000e+01 1.07035465374440e-04 2.32263783008000e-06
6.22833333333333e+01 9.53836786891102e-05 2.09060316244121e-06
6.35166666666667e+01 8.50002952667626e-05 1.88137993854807e-06
6.47500000000000e+01 7.57472378415225e-05 1.69277599462435e-06
6.59833333333333e+01 6.75014601059039e-05 1.52280272213808e-06
6.72166666666667e+01 6.01533104907862e-05 1.36965721036670e-06
6.84500000000000e+01 5.36050739869341e-05 1.23170579438578e-06
6.96833333333333e+01 4.77696727474762e-05 1.10746892010500e-06
7.09166666666667e+01 4.25695081604739e-05 9.95607252494431e-07
7.21500000000000e+01 3.79354289216156e-05 8.94908938893488e-07
7.33833333333333e+01 3.38058114716470e-05 8.04277943740833e-07
7.46166666666667e+01 3.01257405492641e-05 7.22723383980724e-07
7.58500000000000e+01 2.68462789141601e-05 6.49349787108505e-07
7.70833333333333e+01 2.39238165875224e-05 5.83348199048022e-07
7.83166666666667e+01 2.13194909422113e-05 5.23988079852108e-07
7.95500000000000e+01 1.89986698984288e-05 4.70609921828642e-07
8.07833333333333e+01 1.69304913917971e-05 4.22618529719833e-07
8.20166666666667e+01 1.50874529803435e-05 3.79476911258015e-07
8.32500000000000e+01 1.34450461109963e-05 3.40700725161520e-07
8.44833333333333e+01 1.19814302086409e-05 3.05853238041440e-07
8.57166666666667e+01 1.06771422474908e-05 2.74540748522105e-07
8.69500000000000e+01 9.51483792777544e-06 2.46408436724914e-07
8.81833333333333e+01 8.47906103387461e-06 2.21136600936671e-07
8.94166666666667e+01 7.55603790259902e-06 1.98437248559426e-07
9.06500000000000e+01 6.73349425836535e-06 1.78051008813201e-07
9.18833333333333e+01 6.00049199170922e-06 1.59744337623093e-07
9.31166666666667e+01 5.34728370776665e-06 1.43306989145041e-07
9.43500000000000e+01 4.76518310365450e-06 1.28549728967368e-07
9.55833333333333e+01 4.24644945928806e-06 1.15302266358755e-07
9.68166666666667e+01 3.78418470366753e-06 1.03411385971137e-07
9.80500000000000e+01 3.37224168315696e-06 9.27392600290689e-08
9.92833333333333e+01 3.00514241752228e-06 8.31619238470131e-08
1.00516666666667e+02 2.67800525539208e-06 7.45678997498812e-08
1.01750000000000e+02 2.38647995808457e-06 6.68569553963736e-08
1.02983333333333e+02 2.12668984669544e-06 5.99389827431651e-08
1.04216666666667e+02 1.89518025928871e-06 5.37329875286625e-08
1.05450000000000e+02 1.68887260268960e-06 4.81661784038004e-08
1.06683333333333e+02 1.50502341508567e-06 4.31731444627497e-08
1.07916666666667e+02 1.34118788899551e-06 3.86951151365815e-08
1.09150000000000e+02 1.19518735468780e-06 3.46792932532970e-08
1.10383333333333e+02 1.06508030941892e-06 3.10782533531080e-08
1.11616666666667e+02 9.49136603113206e-07 2.78494005870205e-08
1.12850000000000e+02 8.45814427051555e-07 2.49544834327838e-08
1.14083333333333e+02 7.53739811714146e-07 2.23591543971161e-08
1.15316666666667e+02 6.71688358328447e-07 2.00325751640863e-08
1.16550000000000e+02 5.98568954233985e-07 1.79470612257541e-08
1.17783333333333e+02 5.33409263826211e-07 1.60777617098628e-08
1.19016666666667e+02 4.75342800218827e-07 1.44023717398964e-08
1.20250000000000e+02 4.23597400935803e-07 1.29008736944771e-08
1.21483333333333e+02 3.77484960080039e-07 1.15553042250602e-08
1.22716666666667e+02 3.36392279125094e-07 1.03495450372959e-08
1.23950000000000e+02 2.99772911392180e-07 9.26913478271245e-09
1.25183333333333e+02 2.67139895667557e-07 8.30109976354196e-09
1.26416666666667e+02 2.38059281434140e-07 7.43380196461791e-09
1.27650000000000e+02 2.12144357368758e-07 6.65680247812304e-09
1.28883333333333e+02 1.89050509037891e-07 5.96073864450773e-09
1.30116666666667e+02 1.68470636794460e-07 5.33721380684192e-09
1.31350000000000e+02 1.50131071398080e-07 4.77869827094851e-09
1.32583333333333e+02 1.33787934887740e-07 4.27844024969823e-09
1.33816666666667e+02 1.19223897891942e-07 3.83038597601620e-09
1.35050000000000e+02 1.06245289192250e-07 3.42910796169150e-09
1.36283333333333e+02 9.46795203706110e-08 3.06974051333221e-09
1.37516666666667e+02 8.43727910038786e-08 2.74792190428056e-09
1.38750000000000e+02 7.51880431574322e-08 2.45974246016079e-09
1.39983333333333e+02 6.70031388490401e-08 2.20169791253249e-09
1.41216666666667e+02 5.97092360479333e-08 1.97064757860619e-09
1.42450000000000e+02 5.32093411089222e-08 1.76377682896620e-09
1.43683333333333e+02 4.74170189926055e-08 1.57856337498732e-09
1.44916666666667e+02 4.22552439833851e-08 1.41274705168194e-09
1.46150000000000e+02 3.76553752744792e-08 1.26430270641291e-09
1.47383333333333e+02 3.35562442113479e-08 1.13141585411982e-09
1.48616666666667e+02 2.99033409615582e-08 1.01246086169091e-09
1.49850000000000e+02 2.66480895555510e-08 9.05981379710823e-10
1.51083333333333e+02 2.37472019434052e-08 8.10672775941594e-10
1.52316666666667e+02 2.11621024130131e-08 7.25366397104858e-10
1.53550000000000e+02 1.88584145499728e-08 6.49015455350561e-10
1.54783333333333e+02 1.68055041139017e-08 5.80682361775074e-10
1.56016666666667e+02 1.49760717076592e-08 5.19527380485465e-10
1.57250000000000e+02 1.33457897083907e-08 4.64798456196701e-10
1.58483333333333e+02 1.18929787684233e-08 4.15822087018035e-10
1.59716666666667e+02 1.05983195533088e-08 3.71995150296646e-10
1.60950000000000e+02 9.44459580462981e-09 3.32777575455584e-10
1.62183333333333e+02 8.41646540487713e-09 2.97685771173317e-10
1.63416666666667e+02 7.50025637875430e-09 2.66286739898700e-10
1.64650000000000e+02 6.68378506344782e-09 2.38192803237428e-10
1.65883333333333e+02 5.95619409492038e-09 2.13056871373880e-10
1.67116666666667e+02 5.30780804108555e-09 1.90568207857594e-10
1.68350000000000e+02 4.73000472423408e-09 1.70448634666175e-10
1.69583333333333e+02 4.21510056654045e-09 1.52449129365710e-10
1.70816666666667e+02 3.75624842382957e-09 1.36346779057107e-10
1.72050000000000e+02 3.34734652280117e-09 1.21942051445015e-10
1.73283333333333e+02 2.98295732189160e-09 1.09056348322236e-10
1.74516666666667e+02 2.65823520977164e-09 9.75298158777134e-11
1.75750000000000e+02 2.36886206187165e-09 8.72193832872209e-11
1.76983333333333e+02 2.11098981952169e-09 7.79970045997790e-11
1.78216666666667e+02 1.88118932327318e-09 6.97480853903948e-11
1.79450000000000e+02 1.67640470741589e-09 6.23700736529155e-11
1.80683333333333e+02 1.49391276416200e-09 5.57711969541674e-11
1.81916666666667e+02 1.33128673376542e-09 4.98693324456719e-11
1.83150000000000e+02 1.18636403034218e-09 4.45909949782839e-11
1.84383333333333e+02 1.05721748455987e-09 3.98704303903963e-11
1.85616666666667e+02 9.42129718457093e-10 3.56488042819682e-11
1.86850000000000e+02 8.39570305585440e-10 3.18734756735048e-11
1.88083333333333e+02 7.48175419925609e-10 2.84973462565877e-11
1.89316666666667e+02 6.66729701339056e-10 2.54782782394664e-11
1.90550000000000e+02 5.94150092208758e-10 2.27785731746616e-11
1.91783333333333e+02 5.29471435306342e-10 2.03645050917852e-11
1.93016666666667e+02 4.71833640250382e-10 1.82059028863990e-11
1.94250000000000e+02 4.20470244985116e-10 1.62757764998886e-11
1.95483333333333e+02 3.74698223624132e-10 1.45499820955777e-11
1.96716666666667e+02 3.33908904350309e-10 1.30069225896999e-11
1.97950000000000e+02 2.97559874577542e-10 1.16272796157400e-11
1.99183333333333e+02 2.65167768126814e-10 1.03937734803305e-11
2.00416666666667e+02 2.36301837964035e-10 9.29094848627446e-12
2.01650000000000e+02 2.10578227626430e-10 8.30498080984989e-12
2.02883333333333e+02 1.87654866823951e-10 7.42350646274790e-12
2.04116666666667e+02 1.67226922965196e-10 6.63546744828846e-12
2.05350000000000e+02 1.49022747147111e-10 5.93097409500763e-12
2.06583333333333e+02 1.32800261854881e-10 5.30118179620362e-12
2.07816666666667e+02 1.18343742077302e-10 4.73818079459458e-12
2.09050000000000e+02 1.05460946355157e-10 4.23489756638887e-12
2.10283333333333e+02 9.39805604150445e-11 3.78500653463038e-12
2.11516666666667e+02 8.37499192147077e-11 3.38285113267583e-12
2.12750000000000e+02 7.46329766364292e-11 3.02337318187531e-12
2.13983333333333e+02 6.65084963881894e-11 2.70204967304781e-12
2.15216666666667e+02 5.92684399305931e-11 2.41483624759964e-12
2.16450000000000e+02 5.28165296645103e-11 2.15811663620818e-12
2.17683333333333e+02 4.70669686612103e-11 1.92865740271828e-12
2.18916666666667e+02 4.19432998233805e-11 1.72356748709626e-12
2.20150000000000e+02 3.73773890781787e-11 1.54026201601690e-12
2.21383333333333e+02 3.33085193510522e-11 1.37642991378194e-12
2.22616666666667e+02 2.96825832118105e-11 1.23000494989994e-12
2.23850000000000e+02 2.64513632981165e-11 1.09913984286343e-12
2.25083333333333e+02 2.35718911354871e-11 9.82183085477062e-13
2.26316666666667e+02 2.10058757855514e-11 8.77658230551069e-13
2.27550000000000e+02 1.87191946143050e-11 7.84245364645608e-13
2.28783333333333e+02 1.66814395394527e-11 7.00764530283676e-13
2.30016666666667e+02 1.48655126937352e-11 6.26160909124955e-13
2.31250000000000e+02 1.32472660504879e-11 5.59491571243238e-13
2.32483333333333e+02 1.18051803102674e-11 4.99913619028807e-13
2.33716666666667e+02 1.05200787581352e-11 4.46673591153381e-13
2.34950000000000e+02 9.37487223292818e-12 3.99097987199040e-13
2.36183333333333e+02 8.35433188055059e-12 3.56584790248026e-13
2.37416666666667e+02 7.44488665527221e-12 3.18595890901114e-13
2.38650000000000e+02 6.63444283890557e-12 2.84650313023605e-13
2.39883333333333e+02 5.91222322201058e-12 2.54318153438743e-13
2.41116666666667e+02 5.26862379875147e-12 2.27215166341890e-13
2.42350000000000e+02 4.69508604374453e-12 2.02997921142983e-13
2.43583333333333e+02 4.18398310321589e-12 1.81359470954919e-13
2.44816666666667e+02 3.72851838021109e-12 1.62025482099191e-13
2.46050000000000e+02 3.32263514712910e-12 1.44750773660983e-13
2.47283333333333e+02 2.96093600505888e-12 1.29316222200310e-13
2.48516666666667e+02 2.63861111413317e-12 1.15525996051381e-13
2.49750000000000e+02 2.35137422787970e-12 1.03205082780175e-13
2.50983333333333e+02 2.09540569590626e-12 9.21970777053647e-14
2.52216666666667e+02 1.86730167365649e-12 8.23622079994235e-14
2.53450000000000e+02 1.66402885502326e-12 7.35755663361188e-14
2.54683333333333e+02 1.48288413627809e-12 6.57255311440279e-14
2.55916666666667e+02 1.32145867261908e-12 5.87123552134110e-14
2.57150000000000e+02 1.17760584322092e-12 5.24469040555389e-14
2.58383333333333e+02 1.04941270605557e-12 4.68495276206580e-14
2.59616666666667e+02 9.35174561280576e-13 4.18490523044027e-14
2.60850000000000e+02 8.33372280656024e-13 3.73818799549035e-14
2.62083333333333e+02 7.42652106586677e-13 3.33911821673097e-14
2.63316666666667e+02 6.61807651035353e-13 2.98261805089841e-14
2.64550000000000e+02 5.89763851940719e-13 2.66415031847755e-14
2.65783333333333e+02 5.25562677328997e-13 2.37966097748186e-14
2.67016666666667e+02 4.68350386230755e-13 2.12552773481749e-14
2.68250000000000e+02 4.17366174913059e-13 1.89851411749335e-14
2.69483333333333e+02 3.71932059912615e-13 1.69572840603281e-14
2.70716666666667e+02 3.31443862789042e-13 1.51458695091482e-14
2.71950000000000e+02 2.95363175257949e-13 1.35278138813940e-14
2.73183333333333e+02 2.63210199578626e-13 1.20824932712727e-14
2.74416666666667e+02 2.34557368607351e-13 1.07914816816707e-14
2.75650000000000e+02 2.09023659659616e-13 9.63831703955541e-15
2.76883333333333e+02 1.86269527769394e-13 8.60829200500751e-15
2.78116666666667e+02 1.65992390702441e-13 7.68826712221603e-15
2.79350000000000e+02 1.47922604973843e-13 6.86650384664982e-15
2.80583333333333e+02 1.31819880198331e-13 6.13251527295667e-15
2.81816666666667e+02 1.17470083906154e-13 5.47693281048923e-15
2.83050000000000e+02 1.04682393839439e-13 4.89138704668289e-15
2.84283333333333e+02 9.32867604464803e-14 4.36840124548076e-15
2.85516666666667e+02 8.31316457008894e-14 3.90129622747897e-15
2.86750000000000e+02 7.40820078303367e-14 3.48410537605883e-15
2.87983333333333e+02 6.60175055652134e-14 3.11149866129675e-15
2.89216666666667e+02 5.88308979370381e-14 2.77871478579865e-15
2.90450000000000e+02 5.24266181053523e-14 2.48150055651924e-15
2.91683333333333e+02 4.67195025338394e-14 2.21605669176866e-15
2.92916666666667e+02 4.16336585532216e-14 1.97898942318832e-15
2.94150000000000e+02 3.71014550828501e-14 1.76726725354632e-15
2.95383333333333e+02 3.30626232894140e-14 1.57818230613052e-15
2.96616666666667e+02 2.94634551793061e-14 1.40931580829289e-15
2.97850000000000e+02 2.62560893494727e-14 1.25850725324365e-15
2.99083333333333e+02 2.33978745382817e-14 1.12382683758452e-15
3.00316666666667e+02 2.08508024821617e-14 1.00355084778521e-15
3.01550000000000e+02 1.85810024536258e-14 8.96139670451877e-16
3.02783333333333e+02 1.65582908566260e-14 8.00218139276443e-16
3.04016666666667e+02 1.47557698682766e-14 7.14557985246286e-16
3.05250000000000e+02 1.31494697320032e-14 6.38062158242111e-16
3.06483333333333e+02 1.17180300135399e-14 5.69750815253196e-16
3.07716666666667e+02 1.04424155661067e-14 5.08748808511572e-16
3.08950000000000e+02 9.30566338734512e-15 4.54274508211697e-16
3.10183333333333e+02 8.29265704940050e-15 4.05629813788086e-16
3.11416666666667e+02 7.38992569203056e-15 3.62191234721251e-16
3.12650000000000e+02 6.58546487755499e-15 3.23401922996273e-16
3.13883333333333e+02 5.86857695871338e-15 2.88764553090020e-16
3.15116666666667e+02 5.22972882931289e-15 2.57834964507773e-16
3.16350000000000e+02 4.66042514631351e-15 2.30216482838130e-16
3.17583333333333e+02 4.15309536077241e-15 2.05554845089625e-16
3.18816666666667e+02 3.70099305026050e-15 1.83533668648459e-16
3.20050000000000e+02 3.29810620028028e-15 1.63870403959689e-16
3.21283333333333e+02 2.93907725791345e-15 1.46312718009677e-16
3.22516666666667e+02 2.61913189098873e-15 1.30635265314735e-16
3.23750000000000e+02 2.33401549576050e-15 1.16636803725105e-16
3.24983333333333e+02 2.07993662018335e-15 1.04137617320815e-16
3.26216666666667e+02 1.85351654791986e-15 9.29772155028344e-17
3.27450000000000e+02 1.65174436589925e-15 8.30122778555111e-17
3.28683333333333e+02 1.47193692589456e-15 7.41148178934259e-17
3.29916666666667e+02 1.31170316593559e-15 6.61705436469289e-17
3.31150000000000e+02 1.16891231237994e-15 5.90773934065441e-17
3.32383333333333e+02 1.04166554537655e-15 5.27442274649023e-17
3.33616666666667e+02 9.28270749703524e-16 4.70896601278966e-17
3.34850000000000e+02 8.27220011911214e-16 4.20410165477167e-17
3.36083333333333e+02 7.37169568434592e-16 3.75334007234745e-17
3.37316666666667e+02 6.56921937167496e-16 3.35088634496270e-17
3.38550000000000e+02 5.85409992570932e-16 2.99156592066371e-17
3.39783333333333e+02 5.21682775280432e-16 2.67075822648119e-17
3.41016666666667e+02 4.64892846908865e-16 2.38433739986424e-17
3.42250000000000e+02 4.14285020269424e-16 2.12861935713728e-17
3.43483333333333e+02 3.69186317067079e-16 1.90031450582057e-17
3.44716666666667e+02 3.28997019096235e-16 1.69648553008013e-17
3.45950000000000e+02 2.93182692809682e-16 1.51450969082068e-17
3.47183333333333e+02 2.61267082541275e-16 1.35204514661606e-17
3.48416666666667e+02 2.32825777582738e-16 1.20700088848772e-17
3.49650000000000e+02 2.07480568105598e-16 1.07750989073871e-17
3.50883333333333e+02 1.84894415811265e-16 9.61905126087190e-18
3.52116666666667e+02 1.64766972223387e-16 8.58698154908980e-18
3.53350000000000e+02 1.46830584468938e-16 7.66560005276757e-18
3.54583333333333e+02 1.30846736089642e-16 6.84304093248921e-18
3.55816666666667e+02 1.16602875409769e-16 6.10870976519217e-18
3.57050000000000e+02 1.03909588894696e-16 5.45314739665530e-18
3.58283333333333e+02 9.25980823714498e-17 4.86790832553925e-18
3.59516666666667e+02 8.25179365157768e-17 4.34545214414017e-18
3.60750000000000e+02 7.35351064855915e-17 3.87904659911781e-18
3.61983333333333e+02 6.55301394220146e-17 3.46268100139343e-18
3.63216666666667e+02 5.83965860438060e-17 3.09098893396239e-18
3.64450000000000e+02 5.20395850216228e-17 2.75917923460281e-18
3.65683333333333e+02 4.63746015327061e-17 2.46297434853597e-18
3.66916666666667e+02 4.13263031719128e-17 2.19855530178622e-18
3.68150000000000e+02 3.68275581371928e-17 1.96251256686213e-18
3.69383333333333e+02 3.28185425254077e-17 1.85264059030580e-18
