Energy (eV)          EEDF (eV^-(3/2))     First Anisotropy
3.41000000000000e-01 3.51049537570657e-02 5.71252010349472e-05
1.02300000000000e+00 3.27614373911194e-02 9.14888992330210e-05
1.70500000000000e+00 3.05743681464384e-02 1.13476007041889e-04
2.38700000000000e+00 2.85333020158432e-02 1.26258681764931e-04
3.06900000000000e+00 2.66284922071942e-02 1.34018512998277e-04
3.75100000000000e+00 2.48508425991105e-02 1.38486230949594e-04
4.43300000000000e+00 2.31918643038646e-02 1.40624733764753e-04
5.11500000000000e+00 2.16436351300265e-02 1.41049454149736e-04
5.79700000000000e+00 2.01987617512776e-02 1.40186362193606e-04
6.47900000000000e+00 1.88503444007362e-02 1.38345622868498e-04
7.16100000000000e+00 1.75919439222007e-02 1.35760952197388e-04
7.84300000000000e+00 1.64175510209652e-02 1.32612743743488e-04
8.52500000000000e+00 1.53215575673731e-02 1.29042648264400e-04
9.20700000000000e+00 1.42987298160701e-02 1.25163275997454e-04
9.88900000000000e+00 1.33441834130723e-02 1.21064935281087e-04
1.05710000000000e+01 1.24533600712972e-02 1.16820477009719e-04
1.12530000000000e+01 1.16220058031765e-02 1.12488877066903e-04
1.19350000000000e+01 1.08461506064042e-02 1.08117948139792e-04
1.26170000000000e+01 1.01220895058105e-02 1.03746432948525e-04
1.32990000000000e+01 9.44636486083295e-03 9.94056467224941e-05
1.39810000000000e+01 8.81574985409445e-03 9.51207839839237e-05
1.46630000000000e+01 8.22723308224127e-03 9.09119705539766e-05
1.53450000000000e+01 7.67800417545740e-03 8.67951189752325e-05
1.60270000000000e+01 7.16544037698292e-03 8.27826300444917e-05
1.67090000000000e+01 6.68709401854922e-03 7.88839723389589e-05
1.73910000000000e+01 6.24068083192194e-03 7.51061639265945e-05
1.80730000000000e+01 5.82406904073518e-03 7.14541748786144e-05
1.87550000000000e+01 5.43526918052684e-03 6.79312650982591e-05
1.94370000000000e+01 5.07242459836222e-03 6.45392689124664e-05
2.01190000000000e+01 4.73380258667817e-03 6.12788355488355e-05
2.08010000000000e+01 4.41778610900915e-03 5.81496328370866e-05
2.14830000000000e+01 4.12286607808242e-03 5.51505200903908e-05
2.21650000000000e+01 3.84763414940772e-03 5.22796950366814e-05
2.28470000000000e+01 3.59077599594846e-03 4.95348188106462e-05
2.35290000000000e+01 3.35106503175838e-03 4.69131223304470e-05
2.42110000000000e+01 3.12735655461226e-03 4.44114968300549e-05
2.48930000000000e+01 2.91858227965941e-03 4.20265708690740e-05
2.55750000000000e+01 2.72374523799638e-03 3.97547757748798e-05
2.62570000000000e+01 2.54191501579791e-03 3.75924011699290e-05
2.69390000000000e+01 2.37222331127118e-03 3.55356419871594e-05
2.76210000000000e+01 2.21385978821639e-03 3.35806381683992e-05
2.83030000000000e+01 2.06606820639291e-03 3.17235080667220e-05
2.89850000000000e+01 1.92814281021233e-03 2.99603764274757e-05
2.96670000000000e+01 1.79942495851296e-03 2.82873976993082e-05
3.03490000000000e+01 1.67929997932196e-03 2.67007753219541e-05
3.10310000000000e+01 1.56719423458549e-03 2.51967775486158e-05
3.17130000000000e+01 1.46257238084984e-03 2.37717502848964e-05
3.23950000000000e+01 1.36493481281249e-03 2.24221273612939e-05
3.30770000000000e+01 1.27381527753514e-03 2.11444386005256e-05
3.37590000000000e+01 1.18877864792568e-03 1.99353159929763e-05
3.44410000000000e+01 1.10941884485683e-03 1.87914982521952e-05
3.51230000000000e+01 1.03535689799873e-03 1.77098339866006e-05
3.58050000000000e+01 9.66239136105435e-04 1.66872836925808e-05
3.64870000000000e+01 9.01735498113157e-04 1.57209207473088e-05
3.71690000000000e+01 8.41537956985274e-04 1.48079315562470e-05
3.78510000000000e+01 7.85359048777382e-04 1.39456149900025e-05
3.85330000000000e+01 7.32930499898185e-04 1.31313812275012e-05
3.92150000000000e+01 6.84001946010907e-04 1.23627501070190e-05
3.98970000000000e+01 6.38339736457549e-04 1.16373490731392e-05
4.05790000000000e+01 5.95725818496716e-04 1.09529107959429e-05
4.12610000000000e+01 5.55956696026838e-04 1.03072705284578e-05
4.19430000000000e+01 5.18842457822369e-04 9.69836325939726e-06
4.26250000000000e+01 4.84205870642416e-04 9.12422071036175e-06
4.33070000000000e+01 4.51881532881121e-04 8.58296821979178e-06
4.39890000000000e+01 4.21715084718149e-04 8.07282154994262e-06
4.46710000000000e+01 3.93562470997508e-04 7.59208364788677e-06
4.53530000000000e+01 3.67289253314676e-04 7.13914138694372e-06
4.60350000000000e+01 3.42769968027024e-04 6.71246231091158e-06
4.67170000000000e+01 3.19887527121808e-04 6.31059139995707e-06
4.73990000000000e+01 2.98532659080675e-04 5.93214787394996e-06
4.80810000000000e+01 2.78603387070614e-04 5.57582204635002e-06
4.87630000000000e+01 2.60004541969535e-04 5.24037223942007e-06
4.94450000000000e+01 2.42647307901011e-04 4.92462176950942e-06
5.01270000000000e+01 2.26448798107945e-04 4.62745600938837e-06
5.08090000000000e+01 2.11331659139826e-04 4.34781953308555e-06
5.14910000000000e+01 1.97223701463420e-04 4.08471334735717e-06
5.21730000000000e+01 1.84057554732943e-04 3.83719221277643e-06
5.28550000000000e+01 1.71770346073510e-04 3.60436205644977e-06
5.35370000000000e+01 1.60303399841553e-04 3.38537747752490e-06
5.42190000000000e+01 1.49601957428458e-04 3.17943934593758e-06
5.49010000000000e+01 1.39614915769396e-04 2.98579249423317e-06
5.55830000000000e+01 1.30294583308624e-04 2.80372350178430e-06
5.62650000000000e+01 1.21596452255923e-04 2.63255857029252e-06
5.69470000000000e+01 1.13478986046600e-04 2.47166148910254e-06
5.76290000000000e+01 1.05903420990123e-04 2.32043168856086e-06
5.83110000000000e+01 9.88335811601770e-05 2.17830237940992e-06
5.89930000000000e+01 9.22357056421843e-05 2.04473877601601e-06
5.96750000000000e+01 8.60782873133365e-05 1.91923640107846e-06
6.03570000000000e+01 8.03319223852564e-05 1.80131946935332e-06
6.10390000000000e+01 7.49691699908048e-05 1.69053934784205e-06
6.17210000000000e+01 6.99644211445102e-05 1.58647308983998e-06
6.24030000000000e+01 6.52937764508633e-05 1.48872204020688e-06
6.30850000000000e+01 6.09349319764913e-05 1.39691050920996e-06
6.37670000000000e+01 5.68670727412111e-05 1.31068451229386e-06
6.44490000000000e+01 5.30707733193468e-05 1.22971057315185e-06
6.51310000000000e+01 4.95279050766473e-05 1.15367458750305e-06
6.58130000000000e+01 4.62215495998274e-05 1.08228074502236e-06
6.64950000000000e+01 4.31359179053314e-05 1.01525050691916e-06
6.71770000000000e+01 4.02562750415109e-05 9.52321636717256e-07
6.78590000000000e+01 3.75688697241673e-05 8.93247281850837e-07
6.85410000000000e+01 3.50608686694447e-05 8.37795103757104e-07
6.92230000000000e+01 3.27202953104891e-05 7.85746454215915e-07
6.99050000000000e+01 3.05359726052267e-05 7.36895595758631e-07
7.05870000000000e+01 2.84974696621471e-05 6.91048964041907e-07
7.12690000000000e+01 2.65950519292118e-05 6.48024470156626e-07
7.19510000000000e+01 2.48196347080235e-05 6.07650840917085e-07
7.26330000000000e+01 2.31627397712693e-05 5.69766995250298e-07
7.33150000000000e+01 2.16164548762718e-05 5.34221454879657e-07
7.39970000000000e+01 2.01733959813118e-05 5.00871787570624e-07
7.46790000000000e+01 1.88266719842914e-05 4.69584081278480e-07
7.53610000000000e+01 1.75698518153539e-05 4.40232447609154e-07
7.60430000000000e+01 1.63969337263149e-05 4.12698553073573e-07
7.67250000000000e+01 1.53023166302525e-05 3.86871176683670e-07
7.74070000000000e+01 1.42807733543928e-05 3.62645792504013e-07
7.80890000000000e+01 1.33274256785634e-05 3.39924175837018e-07
7.87710000000000e+01 1.24377210400160e-05 3.18614031781510e-07
7.94530000000000e+01 1.16074107933748e-05 2.98628644964312e-07
8.01350000000000e+01 1.08325299218947e-05 2.79886549302249e-07
8.08170000000000e+01 1.01093781031444e-05 2.62311216707629e-07
8.14990000000000e+01 9.43450203869451e-06 2.45830763703792e-07
8.21810000000000e+01 8.80467896343156e-06 2.30377674968736e-07
8.28630000000000e+01 8.21690125574675e-06 2.15888542874252e-07
8.35450000000000e+01 7.66836207510944e-06 2.02303822135275e-07
8.42270000000000e+01 7.15644195843909e-06 1.89567598729530e-07
8.49090000000000e+01 6.67869631126886e-06 1.77627372290858e-07
8.55910000000000e+01 6.23284373396710e-06 1.66433851221097e-07
8.62730000000000e+01 5.81675512727008e-06 1.55940759804924e-07
8.69550000000000e+01 5.42844352510144e-06 1.46104656649878e-07
8.76370000000000e+01 5.06605460612636e-06 1.36884763809718e-07
8.83190000000000e+01 4.72785783873003e-06 1.28242805983660e-07
8.90010000000000e+01 4.41223821713451e-06 1.20142859216646e-07
8.96830000000000e+01 4.11768854919115e-06 1.12551208556901e-07
9.03650000000000e+01 3.84280225902024e-06 1.05436214156601e-07
9.10470000000000e+01 3.58626667012779e-06 9.87681853295748e-08
9.17290000000000e+01 3.34685673692421e-06 9.25192621066551e-08
9.24110000000000e+01 3.12342919471067e-06 8.66633038546240e-08
9.30930000000000e+01 2.91491710019732e-06 8.11757845487877e-08
9.37750000000000e+01 2.72032473648239e-06 7.60336943120012e-08
9.44570000000000e+01 2.53872285816193e-06 7.12154468546194e-08
9.51390000000000e+01 2.36924425386358e-06 6.67007924703512e-08
9.58210000000000e+01 2.21107960501435e-06 6.24707362624304e-08
9.65030000000000e+01 2.06347362106631e-06 5.85074612929137e-08
9.71850000000000e+01 1.92572143272466e-06 5.47942563653390e-08
9.78670000000000e+01 1.79716522595465e-06 5.13154481674752e-08
9.85490000000000e+01 1.67719110069356e-06 4.80563375164854e-08
9.92310000000000e+01 1.56522613926687e-06 4.50031394635847e-08
9.99130000000000e+01 1.46073567050955e-06 4.21429270292300e-08
1.00595000000000e+02 1.36322071652753e-06 3.94635783530643e-08
1.01277000000000e+02 1.27221560990673e-06 3.69537270553010e-08
1.01959000000000e+02 1.18728576999121e-06 3.46027156180111e-08
1.02641000000000e+02 1.10802562761116e-06 3.24005516058956e-08
1.03323000000000e+02 1.03405668835077e-06 3.03378665566291e-08
1.04005000000000e+02 9.65025725107327e-07 2.84058773807748e-08
1.04687000000000e+02 9.00603091310423e-07 2.65963501206265e-08
1.05369000000000e+02 8.40481146746305e-07 2.49015659261669e-08
1.06051000000000e+02 7.84372788470138e-07 2.33142891146609e-08
1.06733000000000e+02 7.32010079790794e-07 2.18277371882596e-08
1.07415000000000e+02 6.83142970781072e-07 2.04355526914021e-08
1.08097000000000e+02 6.37538104203382e-07 1.91317767967905e-08
1.08779000000000e+02 5.94977701148739e-07 1.79108245152985e-08
1.09461000000000e+02 5.55258521067642e-07 1.67674614313836e-08
1.10143000000000e+02 5.18190891226610e-07 1.56967818714239e-08
1.10825000000000e+02 4.83597800955705e-07 1.46941884179102e-08
1.11507000000000e+02 4.51314056361754e-07 1.37553726876233e-08
1.12189000000000e+02 4.21185491470746e-07 1.28762972968109e-08
1.12871000000000e+02 3.93068232032329e-07 1.20531789409892e-08
1.13553000000000e+02 3.66828008470828e-07 1.12824725213338e-08
1.14235000000000e+02 3.42339514701882e-07 1.05608562537030e-08
1.14917000000000e+02 3.19485809752828e-07 9.88521770018743e-09
1.15599000000000e+02 2.98157759329379e-07 9.25264066669444e-09
1.16281000000000e+02 2.78253514661864e-07 8.66039291348352e-09
1.16963000000000e+02 2.59678026142354e-07 8.10591462877284e-09
1.17645000000000e+02 2.42342589430124e-07 7.58680761855307e-09
1.18327000000000e+02 2.26164421857945e-07 7.10082516858081e-09
1.19009000000000e+02 2.11066267116399e-07 6.64586253719274e-09
1.19691000000000e+02 1.96976026328458e-07 6.21994804009106e-09
1.20373000000000e+02 1.83826413752569e-07 5.82123469061171e-09
1.21055000000000e+02 1.71554635470117e-07 5.44799236120595e-09
1.21737000000000e+02 1.60102089522884e-07 5.09860043395283e-09
1.22419000000000e+02 1.49414086068567e-07 4.77154090988273e-09
1.23101000000000e+02 1.39439586217982e-07 4.46539194873605e-09
1.23783000000000e+02 1.30130958306830e-07 4.17882181251497e-09
1.24465000000000e+02 1.21443750438140e-07 3.91058318781602e-09
1.25147000000000e+02 1.13336478209176e-07 3.65950786346253e-09
1.25829000000000e+02 1.05770426609164e-07 3.42450174139498e-09
1.26511000000000e+02 9.87094651418138e-08 3.20454016012967e-09
1.27193000000000e+02 9.21198752897794e-08 2.99866351136666e-09
1.27875000000000e+02 8.59701894971546e-08 2.80597313152142e-09
1.28557000000000e+02 8.02310409010799e-08 2.62562745107589e-09
1.29239000000000e+02 7.48750230948812e-08 2.45683838569814e-09
1.29921000000000e+02 6.98765592530599e-08 2.29886795406856e-09
1.30603000000000e+02 6.52117799931631e-08 2.15102510828020e-09
1.31285000000000e+02 6.08584093912793e-08 2.01266276355282e-09
1.31967000000000e+02 5.67956586068477e-08 1.88317501481994e-09
1.32649000000000e+02 5.30041266088007e-08 1.76199452851721e-09
1.33331000000000e+02 4.94657075289738e-08 1.64859009862298e-09
1.34013000000000e+02 4.61635042003636e-08 1.54246435667978e-09
1.34695000000000e+02 4.30817474673489e-08 1.44315162616242e-09
1.35377000000000e+02 4.02057208825539e-08 1.35021591215567e-09
1.36059000000000e+02 3.75216904307550e-08 1.26324901786569e-09
1.36741000000000e+02 3.50168389442389e-08 1.18186878001580e-09
1.37423000000000e+02 3.26792048964222e-08 1.10571741567126e-09
1.38105000000000e+02 3.04976252814518e-08 1.03445997350156e-09
1.38787000000000e+02 2.84616823070159e-08 9.67782882924042e-10
1.39469000000000e+02 2.65616536458060e-08 9.05392594980809e-10
1.40151000000000e+02 2.47884660080633e-08 8.47014309184217e-10
1.40833000000000e+02 2.31336518135020e-08 7.92390780925849e-10
1.41515000000000e+02 2.15893087557036e-08 7.41281204381061e-10
1.42197000000000e+02 2.01480620658889e-08 6.93460166157763e-10
1.42879000000000e+02 1.88030292958623e-08 6.48716665234944e-10
1.43561000000000e+02 1.75477874519569e-08 6.06853195015010e-10
1.44243000000000e+02 1.63763423230329e-08 5.67684883575166e-10
1.44925000000000e+02 1.52830998560592e-08 5.31038688448213e-10
1.45607000000000e+02 1.42628394425879e-08 4.96752642492902e-10
1.46289000000000e+02 1.33106889885555e-08 4.64675147629572e-10
1.46971000000000e+02 1.24221016483591e-08 4.34664313418980e-10
1.47653000000000e+02 1.15928341121065e-08 4.06587337651772e-10
1.48335000000000e+02 1.08189263423531e-08 3.80319926293898e-10
1.49017000000000e+02 1.00966826635625e-08 3.55745750299956e-10
1.49699000000000e+02 9.42265411398584e-09 3.32755936962766e-10
1.50381000000000e+02 8.79362197568436e-09 3.11248593614084e-10
1.51063000000000e+02 8.20658240404505e-09 2.91128361628800e-10
1.51745000000000e+02 7.65873208339052e-09 2.72305998813787e-10
1.52427000000000e+02 7.14745484018336e-09 2.54697988383386e-10
1.53109000000000e+02 6.67030914989844e-09 2.38226172836783e-10
1.53791000000000e+02 6.22501647790438e-09 2.22817411158652e-10
1.54473000000000e+02 5.80945039867770e-09 2.08403257864028e-10
1.55155000000000e+02 5.42162644139027e-09 1.94919662501583e-10
1.55837000000000e+02 5.05969261337916e-09 1.82306688316991e-10
1.56519000000000e+02 4.72192055624527e-09 1.70508248859997e-10
1.57201000000000e+02 4.40669729234810e-09 1.59471861395635e-10
1.57883000000000e+02 4.11251752228324e-09 1.49148416052028e-10
1.58565000000000e+02 3.83797643656044e-09 1.39491959704710e-10
1.59247000000000e+02 3.58176300715556e-09 1.30459493660619e-10
1.59929000000000e+02 3.34265372690127e-09 1.22010784264194e-10
1.60611000000000e+02 3.11950676681991e-09 1.14108185603546e-10
1.61293000000000e+02 2.91125652349768e-09 1.06716473546704e-10
1.61975000000000e+02 2.71690853046228e-09 9.98026903867221e-11
1.62657000000000e+02 2.53553470926369e-09 9.33359994201173e-11
1.63339000000000e+02 2.36626893758070e-09 8.72875488259342e-11
1.64021000000000e+02 2.20830291318917e-09 8.16303442528419e-11
1.64703000000000e+02 2.06088229404122e-09 7.63391295592669e-11
1.65385000000000e+02 1.92330309602267e-09 7.13902751867740e-11
1.66067000000000e+02 1.79490833118701e-09 6.67616736799084e-11
1.66749000000000e+02 1.67508487041220e-09 6.24326418966159e-11
1.67431000000000e+02 1.56326051549845e-09 5.83838294823227e-11
1.68113000000000e+02 1.45890126672515e-09 5.45971332078803e-11
1.68795000000000e+02 1.36150877281871e-09 5.10556167969903e-11
1.69477000000000e+02 1.27061795115401e-09 4.77434358925383e-11
1.70159000000000e+02 1.18579476682505e-09 4.46457678335565e-11
1.70841000000000e+02 1.10663415997909e-09 4.17487459354245e-11
1.71523000000000e+02 1.03275811151671e-09 3.90393979854847e-11
1.72205000000000e+02 9.63813837920662e-10 3.65055886845704e-11
1.72887000000000e+02 8.99472106593400e-10 3.41359657821082e-11
1.73569000000000e+02 8.39425663658263e-10 3.19199096685385e-11
1.74251000000000e+02 7.83387766716640e-10 2.98474862038446e-11
1.74933000000000e+02 7.31090815554485e-10 2.79094025750868e-11
1.75615000000000e+02 6.82285074259342e-10 2.60969659890454e-11
1.76297000000000e+02 6.36737478645542e-10 2.44020450184397e-11
1.76979000000000e+02 5.94230523292633e-10 2.28170334317735e-11
1.77661000000000e+02 5.54561222882256e-10 2.13348163477070e-11
1.78343000000000e+02 5.17540142873499e-10 1.99487385650059e-11
1.79025000000000e+02 4.82990494887868e-10 1.86525749286343e-11
1.79707000000000e+02 4.50747292484030e-10 1.74405026014626e-11
1.80389000000000e+02 4.20656563290862e-10 1.63070751193994e-11
1.81071000000000e+02 3.92574613736474e-10 1.52471981155691e-11
1.81753000000000e+02 3.66367342862018e-10 1.42561066064647e-11
1.82435000000000e+02 3.41909601943537e-10 1.33293437398543e-11
1.83117000000000e+02 3.19084596863797e-10 1.24627409106273e-11
1.83799000000000e+02 2.97783330380251e-10 1.16523991567707e-11
1.84481000000000e+02 2.77904081625741e-10 1.08946717532828e-11
1.85163000000000e+02 2.59351920356414e-10 1.01861479270930e-11
1.85845000000000e+02 2.42038253627180e-10 9.52363762098260e-12
1.86527000000000e+02 2.25880402729960e-10 8.90415723911101e-12
1.87209000000000e+02 2.10801208374440e-10 8.32491631107049e-12
1.87891000000000e+02 1.96728662225952e-10 7.78330501543189e-12
1.88573000000000e+02 1.83595563040925e-10 7.27688250752907e-12
1.89255000000000e+02 1.71339195757859e-10 6.80336599976981e-12
1.89937000000000e+02 1.59901032011357e-10 6.36062054607736e-12
1.90619000000000e+02 1.49226450639063e-10 5.94664948517024e-12
1.91301000000000e+02 1.39264476846848e-10 5.55958550029242e-12
1.91983000000000e+02 1.29967538786649e-10 5.19768225572645e-12
1.92665000000000e+02 1.21291240384546e-10 4.85930657296682e-12
1.93347000000000e+02 1.13194149334256e-10 4.54293111181404e-12
1.94029000000000e+02 1.05637599243633e-10 4.24712752388003e-12
1.94711000000000e+02 9.85855049893585e-11 3.97056004808308e-12
1.95393000000000e+02 9.20041903980755e-11 3.71197951966399e-12
1.96075000000000e+02 8.58622274310917e-11 3.47021776608458e-12
1.96757000000000e+02 8.01302861046939e-11 3.24418236488081e-12
1.97439000000000e+02 7.47809944293971e-11 3.03285174014505e-12
1.98121000000000e+02 6.97888076992893e-11 2.83527057581133e-12
1.98803000000000e+02 6.51298865072829e-11 2.65054552532056e-12
1.99485000000000e+02 6.07819829037536e-11 2.47784119855602e-12
2.00167000000000e+02 5.67243341549363e-11 2.31637640816882e-12
2.00849000000000e+02 5.29375635937368e-11 2.16542065856277e-12
2.01531000000000e+02 4.94035880894875e-11 2.02429086188501e-12
2.02213000000000e+02 4.61055316947856e-11 1.89234826637589e-12
2.02895000000000e+02 4.30276450570440e-11 1.76899558337449e-12
2.03577000000000e+02 4.01552302099218e-11 1.65367430015831e-12
2.04259000000000e+02 3.74745703854840e-11 1.54586216662121e-12
2.04941000000000e+02 3.49728645119211e-11 1.44507084456643e-12
2.05623000000000e+02 3.26381660840324e-11 1.35084370911424e-12
2.06305000000000e+02 3.04593261145587e-11 1.26275379240033e-12
2.06987000000000e+02 2.84259398939370e-11 1.18040186037423e-12
2.07669000000000e+02 2.65282973042369e-11 1.10341461409914e-12
2.08351000000000e+02 2.47573364500108e-11 1.03144300750896e-12
2.09033000000000e+02 2.31046003846293e-11 9.64160674096939e-13
2.09715000000000e+02 2.15621967254551e-11 9.01262455495518e-13
2.10397000000000e+02 2.01227599650036e-11 8.42463025361101e-13
2.11079000000000e+02 1.87794162981141e-11 7.87495602402299e-13
2.11761000000000e+02 1.75257507971675e-11 7.36110746787670e-13
2.12443000000000e+02 1.63557767786033e-11 6.88075234540871e-13
2.13125000000000e+02 1.52639072144477e-11 6.43171004879252e-13
2.13807000000000e+02 1.42449280523358e-11 6.01194175777318e-13
2.14489000000000e+02 1.32939733166195e-11 5.61954123341207e-13
2.15171000000000e+02 1.24065018716617e-11 5.25272620865279e-13
