Energy (eV)          EEDF (eV^-(3/2))     First Anisotropy
4.13636363636364e-02 9.27264694647614e-02 7.38093813690758e-05
1.24090909090909e-01 9.12801735020206e-02 1.21337670555253e-04
2.06818181818182e-01 8.98564360628855e-02 1.58748447272535e-04
2.89545454545455e-01 8.84549052874507e-02 1.86313738897819e-04
3.72272727272727e-01 8.70752348092515e-02 2.08605913465771e-04
4.55000000000000e-01 8.57170836638639e-02 2.27377038590467e-04
5.37727272727273e-01 8.43801162078688e-02 2.43545389855364e-04
6.20454545454545e-01 8.30640020269172e-02 2.57672338880646e-04
7.03181818181818e-01 8.17684158633124e-02 2.70134681852950e-04
7.85909090909091e-01 8.04930375325641e-02 2.81201862163711e-04
8.68636363636364e-01 7.92375518457913e-02 2.91075622146015e-04
9.51363636363636e-01 7.80016485269833e-02 2.99912391242508e-04
1.03409090909091e+00 7.67850221412702e-02 3.07836849991985e-04
1.11681818181818e+00 7.55873720131560e-02 3.14950607795502e-04
1.19954545454545e+00 7.44084021698438e-02 3.21338004535643e-04
1.28227272727273e+00 7.32478212459845e-02 3.27070129439874e-04
1.36500000000000e+00 7.21053424208571e-02 3.32207688299268e-04
1.44772727272727e+00 7.09806833398547e-02 3.36803102132814e-04
1.53045454545455e+00 6.98735660687798e-02 3.40902079768242e-04
1.61318181818182e+00 6.87837169998117e-02 3.44544817467832e-04
1.69590909090909e+00 6.77108667928395e-02 3.47766927030944e-04
1.77863636363636e+00 6.66547503029456e-02 3.50600166640329e-04
1.86136363636364e+00 6.56151065331072e-02 3.53073025490645e-04
1.94409090909091e+00 6.45916785506921e-02 3.55211196287523e-04
2.02681818181818e+00 6.35842134256992e-02 3.57037956734086e-04
2.10954545454545e+00 6.25924621835625e-02 3.58574487691293e-04
2.19227272727273e+00 6.16161797276861e-02 3.59840137343602e-04
2.27500000000000e+00 6.06551247843582e-02 3.60852640815769e-04
2.35772727272727e+00 5.97090598391794e-02 3.61628305839745e-04
2.44045454545455e+00 5.87777510906444e-02 3.62182171989645e-04
2.52318181818182e+00 5.78609683796502e-02 3.62528147048406e-04
2.60590909090909e+00 5.69584851370228e-02 3.62679122857004e-04
2.68863636363636e+00 5.60700783242349e-02 3.62647075788378e-04
2.77136363636364e+00 5.51955283883460e-02 3.62443155375887e-04
2.85409090909091e+00 5.43346191973684e-02 3.62077762189536e-04
2.93681818181818e+00 5.34871379875849e-02 3.61560613406066e-04
3.01954545454545e+00 5.26528753197814e-02 3.60900803394715e-04
3.10227272727273e+00 5.18316250184038e-02 3.60106857122467e-04
3.18500000000000e+00 5.10231841237082e-02 3.59186776370555e-04
3.26772727272727e+00 5.02273528392068e-02 3.58148081117189e-04
3.35045454545455e+00 4.94439344896991e-02 3.56997847580272e-04
3.43318181818182e+00 4.86727354650511e-02 3.55742742436045e-04
3.51590909090909e+00 4.79135651749664e-02 3.54389052523046e-04
3.59863636363636e+00 4.71662359998233e-02 3.52942711806639e-04
3.68136363636364e+00 4.64305632506034e-02 3.51409326694487e-04
3.76409090909091e+00 4.57063651167895e-02 3.49794199294169e-04
3.84681818181818e+00 4.49934626218192e-02 3.48102346497382e-04
3.92954545454545e+00 4.42916795844877e-02 3.46338519433976e-04
4.01227272727273e+00 4.36008425696291e-02 3.44507221066027e-04
4.09500000000000e+00 4.29207808472215e-02 3.42612721379474e-04
4.17772727272727e+00 4.22513263486161e-02 3.40659071443986e-04
4.26045454545455e+00 4.15923136298589e-02 3.38650117101639e-04
4.34318181818182e+00 4.09435798258296e-02 3.36589511619981e-04
4.42590909090909e+00 4.03049646116945e-02 3.34480726538756e-04
4.50863636363636e+00 3.96763101619027e-02 3.32327061800697e-04
4.59136363636364e+00 3.90574611153979e-02 3.30131655816005e-04
4.67409090909091e+00 3.84482645329116e-02 3.27897494999201e-04
4.75681818181818e+00 3.78485698593945e-02 3.25627421049403e-04
4.83954545454545e+00 3.72582288906311e-02 3.23324139278435e-04
4.92227272727273e+00 3.66770957327052e-02 3.20990226217632e-04
5.00500000000000e+00 3.61050267672718e-02 3.18628136007702e-04
5.08772727272727e+00 3.55418806149740e-02 3.16240206450558e-04
5.17045454545455e+00 3.49875181038507e-02 3.13828665248245e-04
5.25318181818182e+00 3.44418022315225e-02 3.11395635869424e-04
5.33590909090909e+00 3.39045981325009e-02 3.08943142408495e-04
5.41863636363636e+00 3.33757730438916e-02 3.06473114219885e-04
5.50136363636364e+00 3.28551962755306e-02 3.03987390796592e-04
5.58409090909091e+00 3.23427391746786e-02 3.01487726508079e-04
5.66681818181818e+00 3.18382750943729e-02 2.98975793839696e-04
5.74954545454545e+00 3.13416793648210e-02 2.96453187645976e-04
5.83227272727273e+00 3.08528292598425e-02 2.93921429040316e-04
5.91500000000000e+00 3.03716039674711e-02 2.91381968519101e-04
5.99772727272727e+00 2.98978845593194e-02 2.88836188975053e-04
6.08045454545455e+00 2.94315539635728e-02 2.86285408995875e-04
6.16318181818182e+00 2.89724969336246e-02 2.83730886001871e-04
6.24590909090909e+00 2.85206000204229e-02 2.81173818718534e-04
6.32863636363636e+00 2.80757515437375e-02 2.78615349575629e-04
6.41136363636364e+00 2.76378415666794e-02 2.76056567391898e-04
6.49409090909091e+00 2.72067618663714e-02 2.73498510037803e-04
6.57681818181818e+00 2.67824059073001e-02 2.70942166009644e-04
6.65954545454546e+00 2.63646688169370e-02 2.68388476864547e-04
6.74227272727273e+00 2.59534473578337e-02 2.65838339438715e-04
6.82500000000000e+00 2.55486399027819e-02 2.63292607528988e-04
6.90772727272727e+00 2.51501464091289e-02 2.60752093540848e-04
6.99045454545455e+00 2.47578683957939e-02 2.58217570410979e-04
7.07318181818182e+00 2.43717089171571e-02 2.55689773450936e-04
7.15590909090909e+00 2.39915725397041e-02 2.53169401712966e-04
7.23863636363636e+00 2.36173653179296e-02 2.50657119335819e-04
7.32136363636364e+00 2.32489947726768e-02 2.48153557152060e-04
7.40409090909091e+00 2.28863698666979e-02 2.45659314312422e-04
7.48681818181818e+00 2.25294009822231e-02 2.43174959084492e-04
7.56954545454546e+00 2.21779999002516e-02 2.40701030357166e-04
7.65227272727273e+00 2.18320797772855e-02 2.38238039001711e-04
7.73500000000000e+00 2.14915551243627e-02 2.35786468834895e-04
7.81772727272727e+00 2.11563417855080e-02 2.33346777577193e-04
7.90045454545455e+00 2.08263569182264e-02 2.30919398049494e-04
7.98318181818182e+00 2.05015189717154e-02 2.28504739327576e-04
8.06590909090909e+00 2.01817476671577e-02 2.26103187537439e-04
8.14863636363636e+00 1.98669639774992e-02 2.23715106650832e-04
8.23136363636364e+00 1.95570901090811e-02 2.21340839504261e-04
8.31409090909091e+00 1.92520494812325e-02 2.18980708846746e-04
8.39681818181818e+00 1.89517667073920e-02 2.16635017746577e-04
8.47954545454546e+00 1.86561675775559e-02 2.14304050570541e-04
8.56227272727273e+00 1.83651790388413e-02 2.11988073861852e-04
8.64500000000000e+00 1.80787291778036e-02 2.09687336913724e-04
8.72772727272727e+00 1.77967472023450e-02 2.07402072348739e-04
8.81045454545455e+00 1.75191634251930e-02 2.05132496898162e-04
8.89318181818182e+00 1.72459092456884e-02 2.02878812157166e-04
8.97590909090909e+00 1.69769171331677e-02 2.00641205063083e-04
9.05863636363636e+00 1.67121206099845e-02 1.98419848381312e-04
9.14136363636364e+00 1.64514542359603e-02 1.96214901377348e-04
9.22409090909091e+00 1.61948535913179e-02 1.94026510519306e-04
9.30681818181818e+00 1.59422552607962e-02 1.91854809675566e-04
9.38954545454546e+00 1.56935968187957e-02 1.89699920775622e-04
9.47227272727273e+00 1.54488168131199e-02 1.87561954396341e-04
9.55500000000000e+00 1.52078547500695e-02 1.85441010110908e-04
9.63772727272727e+00 1.49706510792492e-02 1.83337176847300e-04
9.72045454545455e+00 1.47371471795920e-02 1.81250533411877e-04
9.80318181818182e+00 1.45072853441186e-02 1.79181148998618e-04
9.88590909090909e+00 1.42810087659318e-02 1.77129083481314e-04
9.96863636363636e+00 1.40582615239561e-02 1.75094387715700e-04
1.00513636363636e+01 1.38389885697899e-02 1.73077104119210e-04
1.01340909090909e+01 1.36231357127816e-02 1.71077266454920e-04
1.02168181818182e+01 1.34106496102458e-02 1.69094901265613e-04
1.02995454545455e+01 1.32014777473380e-02 1.67130027690805e-04
1.03822727272727e+01 1.29955684304133e-02 1.65182656799773e-04
1.04650000000000e+01 1.27928707721130e-02 1.63252792799568e-04
1.05477272727273e+01 1.25933346806726e-02 1.61340434032672e-04
1.06304545454545e+01 1.23969108418357e-02 1.59445572501900e-04
1.07131818181818e+01 1.22035507124348e-02 1.57568193356762e-04
1.07959090909091e+01 1.20132065064529e-02 1.55708275992423e-04
1.08786363636364e+01 1.18258311849253e-02 1.53865794955373e-04
1.09613636363636e+01 1.16413784391167e-02 1.52040719484927e-04
1.10440909090909e+01 1.14598026843305e-02 1.50233012694359e-04
1.11268181818182e+01 1.12810590484722e-02 1.48442633880323e-04
1.12095454545455e+01 1.11051033561192e-02 1.46669537712794e-04
1.12922727272727e+01 1.09318921224954e-02 1.44913673761419e-04
1.13750000000000e+01 1.07613825410741e-02 1.43174987426101e-04
1.14577272727273e+01 1.05935324744572e-02 1.41453420701096e-04
1.15404545454545e+01 1.04283004395454e-02 1.39748911751948e-04
1.16231818181818e+01 1.02656456017492e-02 1.38061394463074e-04
1.17059090909091e+01 1.01055277633956e-02 1.36390799287521e-04
1.17886363636364e+01 9.94790735512112e-03 1.34737053943338e-04
1.18713636363636e+01 9.79274542206049e-03 1.33100083009026e-04
1.19540909090909e+01 9.64000361829530e-03 1.31479807229062e-04
1.20368181818182e+01 9.48964419724691e-03 1.29876145348541e-04
1.21195454545455e+01 9.34162999858560e-03 1.28289013427662e-04
1.22022727272727e+01 9.19592444284910e-03 1.26718324429210e-04
1.22850000000000e+01 9.05249152111980e-03 1.25163988942349e-04
1.23677272727273e+01 8.91129578726145e-03 1.23625915773711e-04
1.24504545454545e+01 8.77230234571923e-03 1.22104011578209e-04
1.25331818181818e+01 8.63547684637245e-03 1.20598180467187e-04
1.26159090909091e+01 8.50078547487515e-03 1.19108324671209e-04
1.26986363636364e+01 8.36819494533588e-03 1.17634345080353e-04
1.27813636363636e+01 8.23767248894428e-03 1.16176140893132e-04
1.28640909090909e+01 8.10918584905371e-03 1.14733609031210e-04
1.29468181818182e+01 7.98270327310925e-03 1.13306645604710e-04
1.30295454545455e+01 7.85819350185935e-03 1.11895145335320e-04
1.31122727272727e+01 7.73562576460287e-03 1.10499001201383e-04
1.31950000000000e+01 7.61496977058186e-03 1.09118105004990e-04
1.32777272727273e+01 7.49619570238514e-03 1.07752347832732e-04
1.33604545454545e+01 7.37927420588529e-03 1.06401619737421e-04
1.34431818181818e+01 7.26417638570695e-03 1.05065809402132e-04
1.35259090909091e+01 7.15087379716927e-03 1.03744804660621e-04
1.36086363636364e+01 7.03933844006945e-03 1.02438492919454e-04
1.36913636363636e+01 6.92954274929364e-03 1.01146760856396e-04
1.37740909090909e+01 6.82145959050034e-03 9.98694939290062e-05
1.38568181818182e+01 6.71506225333683e-03 9.86065775500081e-05
1.39395454545455e+01 6.61032444252739e-03 9.73578966033933e-05
1.40222727272727e+01 6.50722027371003e-03 9.61233351414091e-05
1.41050000000000e+01 6.40572426625179e-03 9.49027768314148e-05
1.41877272727273e+01 6.30581133765159e-03 9.36961053171779e-05
1.42704545454545e+01 6.20745679522137e-03 9.25032039465975e-05
1.43531818181818e+01 6.11063633212624e-03 9.13239554855013e-05
1.44359090909091e+01 6.01532602065616e-03 9.01582425284369e-05
1.45186363636364e+01 5.92150230695361e-03 8.90059478302741e-05
1.46013636363636e+01 5.82914200324642e-03 8.78669540487729e-05
1.46840909090909e+01 5.73822228408424e-03 8.67411433329356e-05
1.47668181818182e+01 5.64872068063700e-03 8.56283982691218e-05
1.48495454545455e+01 5.56061507331870e-03 8.45286014759579e-05
1.49322727272727e+01 5.47388368816357e-03 8.34416353469057e-05
1.50150000000000e+01 5.38850509082347e-03 8.23673824039987e-05
1.50977272727273e+01 5.30445818182373e-03 8.13057255824807e-05
1.51804545454545e+01 5.22172218967344e-03 8.02565479990388e-05
1.52631818181818e+01 5.14027666742522e-03 7.92197327090143e-05
1.53459090909091e+01 5.06010148705205e-03 7.81951630320527e-05
1.54286363636364e+01 4.98117683498024e-03 7.71827228137096e-05
1.55113636363636e+01 4.90348320565282e-03 7.61822962066781e-05
1.55940909090909e+01 4.82700139826543e-03 7.51937673264053e-05
1.56768181818182e+01 4.75171251197374e-03 7.42170210148976e-05
1.57595454545455e+01 4.67759793977802e-03 7.32519425020100e-05
1.58422727272727e+01 4.60463936538432e-03 7.22984171874440e-05
1.59250000000000e+01 4.53281875818560e-03 7.13563309218133e-05
1.60077272727273e+01 4.46211836924439e-03 7.04255702317230e-05
1.60904545454545e+01 4.39252072557764e-03 6.95060221231703e-05
1.61731818181818e+01 4.32400862718139e-03 6.85975738761658e-05
1.62559090909091e+01 4.25656514232796e-03 6.77001133037609e-05
1.63386363636364e+01 4.19017360378443e-03 6.68135289591669e-05
1.64213636363636e+01 4.12481760347064e-03 6.59377099503774e-05
1.65040909090909e+01 4.06048098964017e-03 6.50725456522832e-05
1.65868181818182e+01 3.99714786285128e-03 6.42179263248187e-05
1.66695454545455e+01 3.93480257088967e-03 6.33737428299300e-05
1.67522727272727e+01 3.87342970606036e-03 6.25398864473829e-05
1.68350000000000e+01 3.81301410098870e-03 6.17162490987583e-05
1.69177272727273e+01 3.75354082522098e-03 6.09027235259912e-05
1.70004545454545e+01 3.69499518047728e-03 6.00992031249822e-05
1.70831818181818e+01 3.63736269808755e-03 5.93055817721934e-05
1.71659090909091e+01 3.58062913505614e-03 5.85217540312814e-05
1.72486363636364e+01 3.52478047086284e-03 5.77476153175370e-05
1.73313636363636e+01 3.46980290302372e-03 5.69830617411233e-05
1.74140909090909e+01 3.41568284466463e-03 5.62279898665109e-05
1.74968181818182e+01 3.36240692113388e-03 5.54822972138101e-05
1.75795454545455e+01 3.30996196578165e-03 5.47458820223384e-05
1.76622727272727e+01 3.25833501763100e-03 5.40186430952279e-05
1.77450000000000e+01 3.20751331786282e-03 5.33004799783911e-05
1.78277272727273e+01 3.15748430694125e-03 5.25912931024911e-05
1.79104545454545e+01 3.10823562066592e-03 5.18909836423592e-05
1.79931818181818e+01 3.05975508796915e-03 5.11994533707812e-05
1.80759090909091e+01 3.01203072762090e-03 5.05166048237199e-05
1.81586363636364e+01 2.96505074552418e-03 4.98423414311729e-05
1.82413636363636e+01 2.91880353102217e-03 4.91765673847998e-05
1.83240909090909e+01 2.87327765481528e-03 4.85191874369319e-05
1.84068181818182e+01 2.82846186611317e-03 4.78701073079074e-05
1.84895454545455e+01 2.78434508912259e-03 4.72292334885876e-05
1.85722727272727e+01 2.74091642104963e-03 4.65964731093937e-05
1.86550000000000e+01 2.69816512915588e-03 4.59717340836039e-05
1.87377272727273e+01 2.65608064832888e-03 4.53549252204796e-05
1.88204545454545e+01 2.61465257779592e-03 4.47459561066132e-05
1.89031818181818e+01 2.57387067923598e-03 4.41447369827566e-05
1.89859090909091e+01 2.53372487401978e-03 4.35511788761953e-05
1.90686363636364e+01 2.49420524092430e-03 4.29651937050844e-05
1.91513636363636e+01 2.45530201305774e-03 4.23866941667793e-05
1.92340909090909e+01 2.41700557607556e-03 4.18155935699053e-05
1.93168181818182e+01 2.37930646578592e-03 4.12518061658598e-05
1.93995454545455e+01 2.34219536522428e-03 4.06952469838461e-05
1.94822727272727e+01 2.30566310294350e-03 4.01458317205837e-05
1.95650000000000e+01 2.26970065054741e-03 3.96034768552456e-05
1.96477272727273e+01 2.23429912063833e-03 3.90680997397522e-05
1.97304545454545e+01 2.19944976407915e-03 3.85396184987190e-05
1.98131818181818e+01 2.16514396837836e-03 3.80179519257508e-05
1.98959090909091e+01 2.13137325537741e-03 3.75030195896812e-05
1.99786363636364e+01 2.09812927932022e-03 3.69947419178929e-05
2.00613636363636e+01 2.06540382429044e-03 3.64930401021799e-05
2.01440909090909e+01 2.03318880268659e-03 3.59978359584249e-05
2.02268181818182e+01 2.00147625320849e-03 3.55090521967670e-05
2.03095454545455e+01 1.97025833841873e-03 3.50266122837791e-05
2.03922727272727e+01 1.93952734328177e-03 3.45504403496341e-05
2.04750000000000e+01 1.90927567309678e-03 3.40804612804368e-05
2.05577272727273e+01 1.87949585176441e-03 3.36166007903951e-05
2.06404545454545e+01 1.85018051950387e-03 3.31587853374954e-05
2.07231818181818e+01 1.82132243147398e-03 3.27069420362242e-05
2.08059090909091e+01 1.79291445583462e-03 3.22609987429556e-05
2.08886363636364e+01 1.76494957211683e-03 3.18208841225780e-05
2.09713636363636e+01 1.73742086908531e-03 3.13865275691735e-05
2.10540909090909e+01 1.71032154343720e-03 3.09578590887387e-05
2.11368181818182e+01 1.68364489810883e-03 3.05348095196482e-05
2.12195454545455e+01 1.65738434024155e-03 3.01173104174892e-05
2.13022727272727e+01 1.63153337993553e-03 2.97052939769407e-05
2.13850000000000e+01 1.60608562851669e-03 2.92986931060416e-05
2.14677272727273e+01 1.58103479707354e-03 2.88974414839453e-05
2.15504545454545e+01 1.55637469455242e-03 2.85014734898789e-05
2.16331818181818e+01 1.53209922658171e-03 2.81107241297110e-05
2.17159090909091e+01 1.50820239384650e-03 2.77251291046614e-05
2.17986363636364e+01 1.48467829071273e-03 2.73446248646368e-05
2.18813636363636e+01 1.46152110344343e-03 2.69691485414165e-05
2.19640909090909e+01 1.43872510908973e-03 2.65986378506136e-05
2.20468181818182e+01 1.41628467406694e-03 2.62330312717824e-05
2.21295454545455e+01 1.39419425245670e-03 2.58722679521581e-05
2.22122727272727e+01 1.37244838494521e-03 2.55162876409339e-05
2.22950000000000e+01 1.35104169736996e-03 2.51650307490672e-05
2.23777272727273e+01 1.32996889948494e-03 2.48184383955361e-05
2.24604545454545e+01 1.30922478337031e-03 2.44764523475095e-05
2.25431818181818e+01 1.28880422243127e-03 2.41390149585744e-05
2.26259090909091e+01 1.26870217003483e-03 2.38060692240819e-05
2.27086363636364e+01 1.24891365834887e-03 2.34775588238795e-05
2.27913636363636e+01 1.22943379685263e-03 2.31534280660479e-05
2.28740909090909e+01 1.21025777139265e-03 2.28336218049240e-05
2.29568181818182e+01 1.19138084298544e-03 2.25180855883873e-05
2.30395454545455e+01 1.17279834639937e-03 2.22067655773833e-05
2.31222727272727e+01 1.15450568925123e-03 2.18996084906357e-05
2.32050000000000e+01 1.13649835078724e-03 2.15965616528505e-05
2.32877272727273e+01 1.11877188084118e-03 2.12975730317970e-05
2.33704545454545e+01 1.10132189850603e-03 2.10025911879236e-05
2.34531818181818e+01 1.08414409128232e-03 2.07115652223988e-05
2.35359090909091e+01 1.06723421393457e-03 2.04244448217347e-05
2.36186363636364e+01 1.05058808751195e-03 2.01411802920466e-05
2.37013636363636e+01 1.03420159810371e-03 1.98617225116804e-05
2.37840909090909e+01 1.01807069603655e-03 1.95860228626493e-05
2.38668181818182e+01 1.00219139486762e-03 1.93140333511908e-05
2.39495454545455e+01 9.86559770199551e-04 1.90457065404670e-05
2.40322727272727e+01 9.71171958912523e-04 1.87809955040592e-05
2.41150000000000e+01 9.56024158141450e-04 1.85198538648509e-05
2.41977272727273e+01 9.41112624397258e-04 1.82622358247700e-05
2.42804545454545e+01 9.26433672456663e-04 1.80080961223658e-05
2.43631818181818e+01 9.11983674638457e-04 1.77573899891057e-05
2.44459090909091e+01 8.97759059844002e-04 1.75100731853803e-05
2.45286363636364e+01 8.83756312731204e-04 1.72661020279860e-05
2.46113636363636e+01 8.69971972674264e-04 1.70254333502400e-05
2.46940909090909e+01 8.56402633081747e-04 1.67880244446216e-05
2.47768181818182e+01 8.43044940549730e-04 1.65538331615345e-05
2.48595454545455e+01 8.29895593871208e-04 1.63228178530089e-05
2.49422727272727e+01 8.16951343383812e-04 1.60949373335848e-05
2.50250000000000e+01 8.04208990111565e-04 1.58701509116975e-05
2.51077272727273e+01 7.91665385023814e-04 1.56484184135438e-05
2.51904545454545e+01 7.79317428106973e-04 1.54297001473647e-05
2.52731818181818e+01 7.67162067750011e-04 1.52139568666868e-05
2.53559090909091e+01 7.55196299939240e-04 1.50011497993910e-05
2.54386363636364e+01 7.43417167561759e-04 1.47912406697676e-05
2.55213636363636e+01 7.31821759535570e-04 1.45841916649396e-05
2.56040909090909e+01 7.20407210230702e-04 1.43799653868618e-05
2.56868181818182e+01 7.09170698757005e-04 1.41785249332896e-05
2.57695454545455e+01 6.98109448135700e-04 1.39798338506742e-05
2.58522727272727e+01 6.87220724745786e-04 1.37838561012582e-05
2.59350000000000e+01 6.76501837603737e-04 1.35905560884242e-05
2.60177272727273e+01 6.65950137738648e-04 1.33998986758523e-05
2.61004545454545e+01 6.55563017415816e-04 1.32118491574500e-05
