Energy (eV)          EEDF (eV^-(3/2))     First Anisotropy
4.83750000000000e-02 9.10761101781051e-01 1.62667054284250e-03
1.45125000000000e-01 8.35357098142559e-01 2.58358692336127e-03
2.41875000000000e-01 7.66195965168597e-01 3.14942935940517e-03
3.38625000000000e-01 7.02760841256959e-01 3.44399274212530e-03
4.35375000000000e-01 6.44577656964709e-01 3.59284864810688e-03
5.32125000000000e-01 5.91211592147031e-01 3.64883205078788e-03
6.28875000000000e-01 5.42263826417681e-01 3.64151532822608e-03
7.25625000000000e-01 4.97368558646287e-01 3.58975649281746e-03
8.22375000000000e-01 4.56190273218305e-01 3.50648912780614e-03
9.19125000000000e-01 4.18421232627598e-01 3.40098960382003e-03
1.01587500000000e+00 3.83779177663040e-01 3.28010621807551e-03
1.11262500000000e+00 3.52005218001943e-01 3.14899117490998e-03
1.20937500000000e+00 3.22861897446106e-01 3.01156749403293e-03
1.30612500000000e+00 2.96131419341416e-01 2.87084275915202e-03
1.40287500000000e+00 2.71614018919033e-01 2.72912865433005e-03
1.49962500000000e+00 2.49126470394190e-01 2.58819957228836e-03
1.59637500000000e+00 2.28500717665712e-01 2.44941017729171e-03
1.69312500000000e+00 2.09582618383064e-01 2.31378436681271e-03
1.78987500000000e+00 1.92230791994981e-01 2.18208373254751e-03
1.88662500000000e+00 1.76315563170784e-01 2.05486097343014e-03
1.98337500000000e+00 1.61717992698289e-01 1.93250203828075e-03
2.08012500000000e+00 1.48328988615893e-01 1.81525968152721e-03
2.17687500000000e+00 1.36048490936077e-01 1.70328038020295e-03
2.27362500000000e+00 1.24784723867527e-01 1.59662605390556e-03
2.37037500000000e+00 1.14453509947502e-01 1.49529167262034e-03
2.46712500000000e+00 1.04977640958758e-01 1.39921958097163e-03
2.56387500000000e+00 9.62863009297026e-02 1.30831117998359e-03
2.66062500000000e+00 8.83145369056970e-02 1.22243646810338e-03
2.75737500000000e+00 8.10027735364141e-02 1.14144183819346e-03
2.85412500000000e+00 7.42963678516252e-02 1.06515644696560e-03
2.95087500000000e+00 6.81452008981218e-02 9.93397411322494e-04
3.04762500000000e+00 6.25033031859551e-02 9.25974037642922e-04
3.14437500000000e+00 5.73285111448414e-02 8.62691251856297e-04
3.24112500000000e+00 5.25821520233304e-02 8.03352367775870e-04
3.33787500000000e+00 4.82287548758960e-02 7.47761306808706e-04
3.43462500000000e+00 4.42357854780691e-02 6.95724362502053e-04
3.53137500000000e+00 4.05734031885558e-02 6.47051587414305e-04
3.62812500000000e+00 3.72142379412986e-02 6.01557866748896e-04
3.72487500000000e+00 3.41331857008785e-02 5.59063732471930e-04
3.82162500000000e+00 3.13072208526326e-02 5.19395962791604e-04
3.91837500000000e+00 2.87152241254260e-02 4.82388004551967e-04
4.01512500000000e+00 2.63378247610923e-02 4.47880250002402e-04
4.11187500000000e+00 2.41572557510279e-02 4.15720194323310e-04
4.20862500000000e+00 2.21572210580829e-02 3.85762496038071e-04
4.30537500000000e+00 2.03227738314549e-02 3.57868958876876e-04
4.40212500000000e+00 1.86402047044524e-02 3.31908450662434e-04
4.49887500000000e+00 1.70969393403427e-02 3.07756772265391e-04
4.59562500000000e+00 1.56814444606146e-02 2.85296487550638e-04
4.69237500000000e+00 1.43831416533769e-02 2.64416723440147e-04
4.78912500000000e+00 1.31923283177574e-02 2.45012947700794e-04
4.88587500000000e+00 1.21001051534970e-02 2.26986730782641e-04
4.98262500000000e+00 1.10983096538469e-02 2.10245496947927e-04
5.07937500000000e+00 1.01794551047413e-02 1.94702269012852e-04
5.17612500000000e+00 9.33667463436883e-03 1.80275410247749e-04
5.27287500000000e+00 8.56366989500879e-03 1.66888366324686e-04
5.36962500000000e+00 7.85466399361548e-03 1.54469409647027e-04
5.46637500000000e+00 7.20435831938805e-03 1.42951387927537e-04
5.56312500000000e+00 6.60789294568475e-03 1.32271478487430e-04
5.65987500000000e+00 6.06081031035381e-03 1.22370949417297e-04
5.75662500000000e+00 5.55902190305301e-03 1.13194928462783e-04
5.85337500000000e+00 5.09877771060272e-03 1.04692180265333e-04
5.95012500000000e+00 4.67663819202822e-03 9.68148923944807e-05
6.04687500000000e+00 4.28944857385274e-03 8.95184704472989e-05
6.14362500000000e+00 3.93431527354217e-03 8.27613423578265e-05
6.24037500000000e+00 3.60858427490700e-03 7.65047719503232e-05
6.33712500000000e+00 3.30982129385429e-03 7.07126816815114e-05
6.43387500000000e+00 3.03579358626275e-03 6.53514844454436e-05
6.53062500000000e+00 2.78445326202551e-03 6.03899242576703e-05
6.62737500000000e+00 2.55392198056164e-03 5.57989255907089e-05
6.72412500000000e+00 2.34247691342149e-03 5.15514510985195e-05
6.82087500000000e+00 2.14853786908007e-03 4.76223674421012e-05
6.91762500000000e+00 1.97065548369846e-03 4.39883189100438e-05
7.01437500000000e+00 1.80750038959919e-03 4.06276085156840e-05
7.11112500000000e+00 1.65785328050833e-03 3.75200862453885e-05
7.20787500000000e+00 1.52059579931913e-03 3.46470441295357e-05
7.30462500000000e+00 1.39470218027859e-03 3.19911178082563e-05
7.40137500000000e+00 1.27923158313659e-03 2.95361942672516e-05
7.49812500000000e+00 1.17332106196843e-03 2.72673254245135e-05
7.59487500000000e+00 1.07617911612468e-03 2.51706472560558e-05
7.69162500000000e+00 9.87079775112791e-04 2.32333041574304e-05
7.78837500000000e+00 9.05357173204836e-04 2.14433782475225e-05
7.88512500000000e+00 8.30400573225998e-04 1.97898233316160e-05
7.98187500000000e+00 7.61649802335032e-04 1.82624032517557e-05
8.07862500000000e+00 6.98591065686937e-04 1.68516343638166e-05
8.17537500000000e+00 6.40753106692119e-04 1.55487318922562e-05
8.27212500000000e+00 5.87703685176516e-04 1.43455599251435e-05
8.36887500000000e+00 5.39046347122932e-04 1.32345848236141e-05
8.46562500000000e+00 4.94417461852913e-04 1.22088318313097e-05
8.56237500000000e+00 4.53483504507135e-04 1.12618446805476e-05
8.65912500000000e+00 4.15938563515485e-04 1.03876480028793e-05
8.75587500000000e+00 3.81502054429420e-04 9.58071236228508e-06
8.85262500000000e+00 3.49916623031395e-04 8.83592173949502e-06
8.94937500000000e+00 3.20946222050680e-04 8.14854330578237e-06
9.04612500000000e+00 2.94374347112291e-04 7.51419933404814e-06
9.14287500000000e+00 2.70002418735759e-04 6.92884110407695e-06
9.23962500000000e+00 2.47648298291942e-04 6.38872466750244e-06
9.33637500000000e+00 2.27144926827175e-04 5.89038834626751e-06
9.43312500000000e+00 2.08339076582307e-04 5.43063184620856e-06
9.52987500000000e+00 1.91090205876329e-04 5.00649687483534e-06
9.62662500000000e+00 1.75269408796826e-04 4.61524915943187e-06
9.72337500000000e+00 1.60758451847972e-04 4.25436176827602e-06
9.82012500000000e+00 1.47448890356643e-04 3.92149964407842e-06
9.91687500000000e+00 1.35241258033299e-04 3.61450526468862e-06
1.00136250000000e+01 1.24044323630988e-04 3.33138535172095e-06
1.01103750000000e+01 1.13774409147248e-04 3.07029855302713e-06
1.02071250000000e+01 1.04354764473654e-04 2.82954402990361e-06
1.03038750000000e+01 9.57149938195506e-05 2.60755088458128e-06
1.04006250000000e+01 8.77905296234892e-05 2.40286836791881e-06
1.04973750000000e+01 8.05221500207471e-05 2.21415681132312e-06
1.05941250000000e+01 7.38555362608143e-05 2.04017923076346e-06
1.06908750000000e+01 6.77408667673061e-05 1.87979355434499e-06
1.07876250000000e+01 6.21324448065868e-05 1.73194542827560e-06
1.08843750000000e+01 5.69883569825641e-05 1.59566155920898e-06
1.09811250000000e+01 5.22701600054835e-05 1.47004355389039e-06
1.10778750000000e+01 4.79425933938536e-05 1.35426221978060e-06
1.11746250000000e+01 4.39733159624391e-05 1.24755229290000e-06
1.12713750000000e+01 4.03326641270182e-05 1.14920756152948e-06
1.13681250000000e+01 3.69934302196443e-05 1.05857635663774e-06
1.14648750000000e+01 3.39306591576961e-05 9.75057381986493e-07
1.15616250000000e+01 3.11214619471646e-05 8.98095858804464e-07
1.16583750000000e+01 2.85448446264307e-05 8.27179961727852e-07
1.17551250000000e+01 2.61815513721811e-05 7.61837524386439e-07
1.18518750000000e+01 2.40139205949453e-05 7.01632994579915e-07
1.19486250000000e+01 2.20257529488138e-05 6.46164620445017e-07
1.20453750000000e+01 2.02021902689350e-05 5.95061850368255e-07
1.21421250000000e+01 1.85296045320544e-05 5.47982930657890e-07
1.22388750000000e+01 1.69954960102665e-05 5.04612686158913e-07
1.23356250000000e+01 1.55883998568512e-05 4.64660470081822e-07
1.24323750000000e+01 1.42978004260829e-05 4.27858270325742e-07
1.25291250000000e+01 1.31140526867002e-05 3.93958960514056e-07
1.26258750000000e+01 1.20283101417344e-05 3.62734684831115e-07
1.27226250000000e+01 1.10324587160216e-05 3.33975366556447e-07
1.28193750000000e+01 1.01190561173184e-05 3.07487330942462e-07
1.29161250000000e+01 9.28127621785141e-06 2.83092033776978e-07
1.30128750000000e+01 8.51285804064523e-06 2.60624887616763e-07
1.31096250000000e+01 7.80805896938973e-06 2.39934178276303e-07
1.32063750000000e+01 7.16161183216987e-06 2.20880064710280e-07
1.33031250000000e+01 6.56868553833223e-06 2.03333655942088e-07
1.33998750000000e+01 6.02484897431558e-06 1.87176159166798e-07
1.34966250000000e+01 5.52603788862872e-06 1.72298093598120e-07
1.35933750000000e+01 5.06852451849703e-06 1.58598565037538e-07
1.36901250000000e+01 4.64888973118867e-06 1.45984596522230e-07
1.37868750000000e+01 4.26399747182442e-06 1.34370510758851e-07
1.38836250000000e+01 3.91097132671207e-06 1.23677360374727e-07
1.39803750000000e+01 3.58717302705609e-06 1.13832402318352e-07
1.40771250000000e+01 3.29018273239469e-06 1.04768613019099e-07
1.41738750000000e+01 3.01778094641625e-06 9.64242411733285e-08
1.42706250000000e+01 2.76793193000700e-06 8.87423952621121e-08
1.43673750000000e+01 2.53876848757051e-06 8.16706631260594e-08
1.44641250000000e+01 2.32857801292272e-06 7.51607611264207e-08
1.45608750000000e+01 2.13578969047942e-06 6.91682106101018e-08
1.46576250000000e+01 1.95896275608678e-06 6.36520395704684e-08
1.47543750000000e+01 1.79677572976472e-06 5.85745075569528e-08
1.48511250000000e+01 1.64801653989614e-06 5.39008520354587e-08
1.49478750000000e+01 1.51157346505726e-06 4.95990545392784e-08
1.50446250000000e+01 1.38642682579460e-06 4.56396250775455e-08
1.51413750000000e+01 1.27164136425885e-06 4.19954033859064e-08
1.52381250000000e+01 1.16635925474633e-06 3.86413757128326e-08
1.53348750000000e+01 1.06979369291380e-06 3.55545059354731e-08
1.54316250000000e+01 9.81223015756884e-07 3.27135798917851e-08
1.55283750000000e+01 8.99985308409004e-07 3.00990619014510e-08
1.56251250000000e+01 8.25473457455808e-07 2.76929625273198e-08
1.57218750000000e+01 7.57130613797061e-07 2.54787167023002e-08
1.58186250000000e+01 6.94446031148618e-07 2.34410714142206e-08
1.59153750000000e+01 6.36951249084389e-07 2.15659822036037e-08
1.60121250000000e+01 5.84216592093011e-07 1.98405177869411e-08
1.61088750000000e+01 5.35847958485678e-07 1.82527721712830e-08
1.62056250000000e+01 4.91483875157649e-07 1.67917836751029e-08
1.63023750000000e+01 4.50792796192832e-07 1.54474603157643e-08
1.63991250000000e+01 4.13470625123091e-07 1.42105110657990e-08
1.64958750000000e+01 3.79238442325396e-07 1.30723825188661e-08
1.65926250000000e+01 3.47840420572990e-07 1.20252005419436e-08
1.66893750000000e+01 3.19041913162852e-07 1.10617165232340e-08
1.67861250000000e+01 2.92627700331492e-07 1.01752578556607e-08
1.68828750000000e+01 2.68400380853998e-07 9.35968232387130e-09
1.69796250000000e+01 2.46178896806299e-07 8.60933608854679e-09
1.70763750000000e+01 2.25797180465751e-07 7.91901498568701e-09
1.71731250000000e+01 2.07102913237924e-07 7.28392888057423e-09
1.72698750000000e+01 1.89956387334699e-07 6.69966883643625e-09
1.73666250000000e+01 1.74229461696644e-07 6.16217687657812e-09
1.74633750000000e+01 1.59804604356977e-07 5.66771813604307e-09
1.75601250000000e+01 1.46574014090419e-07 5.21285521481296e-09
1.76568750000000e+01 1.34438814782750e-07 4.79442455926925e-09
1.77536250000000e+01 1.23308316500367e-07 4.40951471220243e-09
1.78503750000000e+01 1.13099337737583e-07 4.05544628416906e-09
1.79471250000000e+01 1.03735583776637e-07 3.72975351053348e-09
1.80438750000000e+01 9.51470765146998e-08 3.43016726916929e-09
1.81406250000000e+01 8.72696314968154e-08 3.15459944360606e-09
1.82373750000000e+01 8.00443782464858e-08 2.90112852545027e-09
1.83341250000000e+01 7.34173203091879e-08 2.66798635824845e-09
1.84308750000000e+01 6.73389317208986e-08 2.45354593264746e-09
1.85276250000000e+01 6.17637868859179e-08 2.25631014979409e-09
1.86243750000000e+01 5.66502210979562e-08 2.07490147644792e-09
1.87211250000000e+01 5.19600191674618e-08 1.90805242130369e-09
1.88178750000000e+01 4.76581298282065e-08 1.75459676756913e-09
1.89146250000000e+01 4.37124037888059e-08 1.61346150196027e-09
1.90113750000000e+01 4.00933534715565e-08 1.48365938499057e-09
1.91081250000000e+01 3.67739326430459e-08 1.36428211177569e-09
1.92048750000000e+01 3.37293342896512e-08 1.25449401657975e-09
1.93016250000000e+01 3.09368052273891e-08 1.15352627801916e-09
1.93983750000000e+01 2.83754760606427e-08 1.06067158524056e-09
1.94951250000000e+01 2.60262052189950e-08 9.75279228522254e-10
1.95918750000000e+01 2.38714359066122e-08 8.96750580635835e-10
1.96886250000000e+01 2.18950648951158e-08 8.24534937964639e-10
1.97853750000000e+01 2.00823221793936e-08 7.58125692826215e-10
1.98821250000000e+01 1.84196605969836e-08 6.97056810704028e-10
1.99788750000000e+01 1.68946545861220e-08 6.40899588173635e-10
2.00756250000000e+01 1.54959073258448e-08 5.89259669224791e-10
2.01723750000000e+01 1.42129655641742e-08 5.41774299446176e-10
2.02691250000000e+01 1.30362414978749e-08 4.98109799165495e-10
2.03658750000000e+01 1.19569411199647e-08 4.57959238135490e-10
2.04626250000000e+01 1.09669984994991e-08 4.21040295736056e-10
2.05593750000000e+01 1.00590155024842e-08 3.87093291933337e-10
2.06561250000000e+01 9.22620650343287e-09 3.55879375407095e-10
2.07528750000000e+01 8.46234767437877e-09 3.27178856335521e-10
2.08496250000000e+01 7.76173047236898e-09 3.00789672319426e-10
2.09463750000000e+01 7.11911897783422e-09 2.76525976841989e-10
2.10431250000000e+01 6.52971076501328e-09 2.54216840502182e-10
2.11398750000000e+01 5.98910101200491e-09 2.33705056035300e-10
2.12366250000000e+01 5.49324958223097e-09 2.14846038848052e-10
2.13333750000000e+01 5.03845083130081e-09 1.97506815453055e-10
2.14301250000000e+01 4.62130591363480e-09 1.81565092792960e-10
2.15268750000000e+01 4.23869738188598e-09 1.66908402001861e-10
2.16236250000000e+01 3.88776588933404e-09 1.53433310664868e-10
2.17203750000000e+01 3.56588882114158e-09 1.41044698109240e-10
2.18171250000000e+01 3.27066069477774e-09 1.29655088695583e-10
2.19138750000000e+01 2.99987518313581e-09 1.19184038478125e-10
2.20106250000000e+01 2.75150862599816e-09 1.09557570971882e-10
2.21073750000000e+01 2.52370490662496e-09 1.00707658103990e-10
2.22041250000000e+01 2.31476158044477e-09 9.25717427390142e-11
2.23008750000000e+01 2.12311715218272e-09 8.50922994557816e-11
2.23976250000000e+01 1.94733940634455e-09 7.82164305180782e-11
2.24943750000000e+01 1.78611470384653e-09 7.18954942253975e-11
2.25911250000000e+01 1.63823816480214e-09 6.60847630543087e-11
2.26878750000000e+01 1.50260466409826e-09 6.07431092075921e-11
2.27846250000000e+01 1.37820057246837e-09 5.58327153784242e-11
2.28813750000000e+01 1.26409618134124e-09 5.13188087118964e-11
2.29781250000000e+01 1.15943875485379e-09 4.71694161072266e-11
2.30748750000000e+01 1.06344615710378e-09 4.33551391522821e-11
2.31716250000000e+01 9.75401007016893e-10 3.98489471184674e-11
2.32683750000000e+01 8.94645317145776e-10 3.66259865696172e-11
2.33651250000000e+01 8.20575576335246e-10 3.36634062540992e-11
2.34618750000000e+01 7.52638239504924e-10 3.09401960556928e-11
2.35586250000000e+01 6.90325590843131e-10 2.84370388766927e-11
2.36553750000000e+01 6.33171949496462e-10 2.61361744167610e-11
2.37521250000000e+01 5.80750189399036e-10 2.40212738939433e-11
2.38488750000000e+01 5.32668547233079e-10 2.20773248305419e-11
2.39456250000000e+01 4.88567694665774e-10 2.02905250967327e-11
2.40423750000000e+01 4.48118052982358e-10 1.86481854694000e-11
2.41391250000000e+01 4.11017330046909e-10 1.71386400230976e-11
2.42358750000000e+01 3.76988261183801e-10 1.57511637247286e-11
2.43326250000000e+01 3.45776537096783e-10 1.44758966538580e-11
2.44293750000000e+01 3.17148903340390e-10 1.33037743168685e-11
2.45261250000000e+01 2.90891417140483e-10 1.22264635657687e-11
2.46228750000000e+01 2.66807848536622e-10 1.12363036716598e-11
2.47196250000000e+01 2.44718213897532e-10 1.03262521389238e-11
2.48163750000000e+01 2.24457430850196e-10 9.48983487937535e-12
2.49131250000000e+01 2.05874084570452e-10 8.72110039614343e-12
2.50098750000000e+01 1.88829296215232e-10 8.01457765513035e-12
2.51066250000000e+01 1.73195685039890e-10 7.36523734773025e-12
2.52033750000000e+01 1.58856416444226e-10 6.76845627225771e-12
2.53001250000000e+01 1.45704328832956e-10 6.21998458340130e-12
2.53968750000000e+01 1.33641132765424e-10 5.71591567913146e-12
2.54936250000000e+01 1.22576676409534e-10 5.25265851299615e-12
2.55903750000000e+01 1.12428271810451e-10 4.82691213675929e-12
2.56871250000000e+01 1.03120076939054e-10 4.43564229399493e-12
2.57838750000000e+01 9.45825289020217e-11 4.07605989965361e-12
2.58806250000000e+01 8.67518240777593e-11 3.74560125386700e-12
2.59773750000000e+01 7.95694412930593e-11 3.44190985044370e-12
2.60741250000000e+01 7.29817044770679e-11 3.16281965171933e-12
2.61708750000000e+01 6.69393815241313e-11 2.90633971173572e-12
2.62676250000000e+01 6.13973163677094e-11 2.67064003920798e-12
2.63643750000000e+01 5.63140915157346e-11 2.45403860046191e-12
2.64611250000000e+01 5.16517185254434e-11 2.25498937054808e-12
2.65578750000000e+01 4.73753541045087e-11 2.07207134811854e-12
2.66546250000000e+01 4.34530397168101e-11 1.90397845644014e-12
2.67513750000000e+01 3.98554627468416e-11 1.74951025916069e-12
2.68481250000000e+01 3.65557374378661e-11 1.60756342518618e-12
2.69448750000000e+01 3.35292039667036e-11 1.47712388230765e-12
2.70416250000000e+01 3.07532441535786e-11 1.35725960407292e-12
2.71383750000000e+01 2.82071124297735e-11 1.24711397886456e-12
2.72351250000000e+01 2.58717807998575e-11 1.14589971425325e-12
2.73318750000000e+01 2.37297966398486e-11 1.05289323347328e-12
2.74286250000000e+01 2.17651522685935e-11 9.67429524340623e-13
2.75253750000000e+01 1.99631653176310e-11 8.88897404129037e-13
2.76221250000000e+01 1.83103690055102e-11 8.16735166857487e-13
2.77188750000000e+01 1.67944114965499e-11 7.50426582143946e-13
2.78156250000000e+01 1.54039635919171e-11 6.89497217265063e-13
2.79123750000000e+01 1.41286340631736e-11 6.33511056345880e-13
2.80091250000000e+01 1.29588919955520e-11 5.82067392704699e-13
2.81058750000000e+01 1.18859955606112e-11 5.34797972310065e-13
2.82026250000000e+01 1.09019266859667e-11 4.91364368083296e-13
2.82993750000000e+01 9.99933113386436e-12 4.51455566413479e-13
2.83961250000000e+01 9.17146354078633e-12 4.14785748753866e-13
2.84928750000000e+01 8.41213700735455e-12 3.81092252549751e-13
2.85896250000000e+01 7.71567686180181e-12 3.50133697017864e-13
2.86863750000000e+01 7.07687825147125e-12 3.21688260464933e-13
2.87831250000000e+01 6.49096724541303e-12 2.95552096906788e-13
2.88798750000000e+01 5.95356515738640e-12 2.71537880736535e-13
2.89766250000000e+01 5.46065582264234e-12 2.49473469098006e-13
2.90733750000000e+01 5.00855558393653e-12 2.29200672455203e-13
2.91701250000000e+01 4.59388576246932e-12 2.10574124615806e-13
2.92668750000000e+01 4.21354740801969e-12 1.93460244172259e-13
2.93636250000000e+01 3.86469813957374e-12 1.77736279972563e-13
2.94603750000000e+01 3.54473090337065e-12 1.63289433829249e-13
2.95571250000000e+01 3.25125448961890e-12 1.50016054223280e-13
2.96538750000000e+01 2.98207566227820e-12 1.37820895263675e-13
2.97506250000000e+01 2.73518276835793e-12 1.26616435627070e-13
2.98473750000000e+01 2.50873070423933e-12 1.16322252627481e-13
2.99441250000000e+01 2.30102712667044e-12 1.06864446958224e-13
3.00408750000000e+01 2.11051980538447e-12 9.81751140080153e-14
3.01376250000000e+01 1.93578502282388e-12 9.01918579843413e-14
3.02343750000000e+01 1.77551693427800e-12 8.28573453814996e-14
3.03311250000000e+01 1.62851780891931e-12 7.61188946104970e-14
3.04278750000000e+01 1.49368907880666e-12 6.99280988651789e-14
3.05246250000000e+01 1.37002312896220e-12 6.42404795354074e-14
