Energy (eV)          EEDF (eV^-(3/2))     First Anisotropy
1.99019607843137e-02 7.89066539867096e-02 4.14174268309231e-05
5.97058823529412e-02 7.83741368110076e-02 6.83910828435412e-05
9.95098039215686e-02 7.78452134338872e-02 9.02816990907912e-05
1.39313725490196e-01 7.73198595990048e-02 1.06910787632831e-04
1.79117647058824e-01 7.67980512209755e-02 1.20778511648148e-04
2.18921568627451e-01 7.62797643688576e-02 1.32829970000911e-04
2.58725490196078e-01 7.57649752794283e-02 1.43554163367319e-04
2.98529411764706e-01 7.52536603452555e-02 1.53246332490404e-04
3.38333333333333e-01 7.47457961203898e-02 1.62102251240278e-04
3.78137254901961e-01 7.42413593187241e-02 1.70260264424157e-04
4.17941176470588e-01 7.37403268080983e-02 1.77822763915326e-04
4.57745098039216e-01 7.32426756152490e-02 1.84868254995162e-04
4.97549019607843e-01 7.27483829195277e-02 1.91458630807583e-04
5.37352941176471e-01 7.22574260564569e-02 1.97643803814569e-04
5.77156862745098e-01 7.17697825125818e-02 2.03464786306206e-04
6.16960784313725e-01 7.12854299273340e-02 2.08955813295440e-04
6.56764705882353e-01 7.08043460918597e-02 2.14145851001063e-04
6.96568627450980e-01 7.03265089455703e-02 2.19059694936955e-04
7.36372549019608e-01 6.98518965782484e-02 2.23718787740023e-04
7.76176470588235e-01 6.93804872261672e-02 2.28141839691866e-04
8.15980392156863e-01 6.89122592737549e-02 2.32345307391352e-04
8.55784313725490e-01 6.84471912501269e-02 2.36343768664477e-04
8.95588235294118e-01 6.79852618298894e-02 2.40150219627716e-04
9.35392156862745e-01 6.75264498320915e-02 2.43776313823687e-04
9.75196078431373e-01 6.70707342176772e-02 2.47232555646237e-04
1.01500000000000e+00 6.66180940905673e-02 2.50528459026362e-04
1.05480392156863e+00 6.61685086951942e-02 2.53672678750696e-04
1.09460784313725e+00 6.57219574164772e-02 2.56673119685676e-04
1.13441176470588e+00 6.52784197780283e-02 2.59537029164338e-04
1.17421568627451e+00 6.48378754378739e-02 2.62271072755774e-04
1.21401960784314e+00 6.44003041990656e-02 2.64881401458343e-04
1.25382352941176e+00 6.39656859969895e-02 2.67373709297867e-04
1.29362745098039e+00 6.35340009024433e-02 2.69753280191692e-04
1.33343137254902e+00 6.31052291207086e-02 2.72025030548628e-04
1.37323529411765e+00 6.26793509906823e-02 2.74193545789304e-04
1.41303921568627e+00 6.22563469839509e-02 2.76263112703360e-04
1.45284313725490e+00 6.18361977010023e-02 2.78237745960431e-04
1.49264705882353e+00 6.14188838791485e-02 2.80121213676373e-04
1.53245098039216e+00 6.10043863826870e-02 2.81917060107266e-04
1.57225490196078e+00 6.05926862050469e-02 2.83628623442810e-04
1.61205882352941e+00 6.01837644679389e-02 2.85259053437077e-04
1.65186274509804e+00 5.97776024204835e-02 2.86811327126245e-04
1.69166666666667e+00 5.93741814359591e-02 2.88288261240577e-04
1.73147058823529e+00 5.89734830182114e-02 2.89692525352752e-04
1.77127450980392e+00 5.85754887934360e-02 2.91026653796435e-04
1.81107843137255e+00 5.81801805118251e-02 2.92293054340252e-04
1.85088235294118e+00 5.77875400467329e-02 2.93494017654333e-04
1.89068627450980e+00 5.73975493938534e-02 2.94631725878516e-04
1.93049019607843e+00 5.70101906683773e-02 2.95708258918597e-04
1.97029411764706e+00 5.66254461102797e-02 2.96725601997367e-04
2.01009803921569e+00 5.62432980773168e-02 2.97685652613911e-04
2.04990196078431e+00 5.58637290463079e-02 2.98590225029154e-04
2.08970588235294e+00 5.54867216123238e-02 2.99441055842045e-04
2.12950980392157e+00 5.51122584879058e-02 3.00239808748779e-04
2.16931372549020e+00 5.47403225022638e-02 3.00988079259096e-04
2.20911764705882e+00 5.43708965988200e-02 3.01687397707271e-04
2.24892156862745e+00 5.40039638394927e-02 3.02339233658376e-04
2.28872549019608e+00 5.36395073987918e-02 3.02945000033025e-04
2.32852941176471e+00 5.32775105647744e-02 3.03506055245554e-04
2.36833333333333e+00 5.29179567382842e-02 3.04023706502127e-04
2.40813725490196e+00 5.25608294321904e-02 3.04499212846587e-04
2.44794117647059e+00 5.22061122691823e-02 3.04933786774232e-04
2.48774509803922e+00 5.18537889854081e-02 3.05328597224976e-04
2.52754901960784e+00 5.15038434252892e-02 3.05684772416746e-04
2.56735294117647e+00 5.11562595422754e-02 3.06003400953033e-04
2.60715686274510e+00 5.08110213981081e-02 3.06285534063527e-04
2.64696078431373e+00 5.04681131620955e-02 3.06532187684648e-04
2.68676470588235e+00 5.01275191091156e-02 3.06744343291162e-04
2.72656862745098e+00 4.97892236227365e-02 3.06922950047091e-04
2.76637254901961e+00 4.94532111906177e-02 3.07068926861413e-04
2.80617647058824e+00 4.91194664051072e-02 3.07183162907339e-04
2.84598039215686e+00 4.87879739625316e-02 3.07266519220786e-04
2.88578431372549e+00 4.84587186625007e-02 3.07319829930100e-04
2.92558823529412e+00 4.81316854072082e-02 3.07343903671539e-04
2.96539215686275e+00 4.78068591996466e-02 3.07339523908647e-04
3.00519607843137e+00 4.74842251462280e-02 3.07307450482109e-04
3.04500000000000e+00 4.71637684527592e-02 3.07248421104652e-04
3.08480392156863e+00 4.68454744248872e-02 3.07163151491722e-04
3.12460784313725e+00 4.65293284674273e-02 3.07052336496084e-04
3.16441176470588e+00 4.62153160836951e-02 3.06916651168721e-04
3.20421568627451e+00 4.59034228738691e-02 3.06756750825981e-04
3.24401960784314e+00 4.55936345372715e-02 3.06573272269273e-04
3.28382352941176e+00 4.52859368687426e-02 3.06366834969439e-04
3.32362745098039e+00 4.49803157589891e-02 3.06138041004977e-04
3.36343137254902e+00 4.46767571939353e-02 3.05887475939496e-04
3.40323529411765e+00 4.43752472540849e-02 3.05615709424492e-04
3.44303921568627e+00 4.40757721138802e-02 3.05323295989364e-04
3.48284313725490e+00 4.37783180402181e-02 3.05010774935115e-04
3.52264705882353e+00 4.34828713943940e-02 3.04678671292275e-04
3.56245098039216e+00 4.31894186288790e-02 3.04327496757141e-04
3.60225490196078e+00 4.28979462875708e-02 3.03957749498593e-04
3.64205882352941e+00 4.26084410051795e-02 3.03569914832700e-04
3.68186274509804e+00 4.23208895066144e-02 3.03164465855057e-04
3.72166666666667e+00 4.20352786056099e-02 3.02741863246795e-04
3.76147058823529e+00 4.17515952064349e-02 3.02302556075159e-04
3.80127450980392e+00 4.14698263009576e-02 3.01846982579396e-04
3.84107843137255e+00 4.11899589688333e-02 3.01375569912845e-04
3.88088235294118e+00 4.09119803769130e-02 3.00888734695194e-04
3.92068627450980e+00 4.06358777786557e-02 3.00386883530295e-04
3.96049019607843e+00 4.03616385128530e-02 2.99870412759466e-04
4.00029411764706e+00 4.00892500051368e-02 2.99339709143986e-04
4.04009803921569e+00 3.98186997652961e-02 2.98795150537903e-04
4.07990196078431e+00 3.95499753874127e-02 2.98237105592512e-04
4.11970588235294e+00 3.92830645492907e-02 2.97665934217695e-04
4.15950980392157e+00 3.90179550118949e-02 2.97081987840224e-04
4.19931372549020e+00 3.87546346187875e-02 2.96485609824766e-04
4.23911764705882e+00 3.84930912949571e-02 2.95877135193007e-04
4.27892156862745e+00 3.82333130481220e-02 2.95256891201747e-04
4.31872549019608e+00 3.79752879663076e-02 2.94625197914930e-04
4.35852941176471e+00 3.77190042179289e-02 2.93982367886182e-04
4.39833333333333e+00 3.74644500512491e-02 2.93328706541332e-04
4.43813725490196e+00 3.72116137938409e-02 2.92664512537008e-04
4.47794117647059e+00 3.69604838514923e-02 2.91990077465578e-04
4.51774509803922e+00 3.67110487093641e-02 2.91305686364216e-04
4.55754901960784e+00 3.64632969297586e-02 2.90611618219944e-04
4.59735294117647e+00 3.62172171521678e-02 2.89908145645150e-04
4.63715686274510e+00 3.59727980927516e-02 2.89195535208193e-04
4.67696078431373e+00 3.57300285438222e-02 2.88474047743105e-04
4.71676470588235e+00 3.54888973728198e-02 2.87743938049385e-04
4.75656862745098e+00 3.52493935233422e-02 2.87005455345132e-04
4.79637254901961e+00 3.50115060130856e-02 2.86258843717632e-04
4.83617647058824e+00 3.47752239338624e-02 2.85504341798790e-04
4.87598039215686e+00 3.45405364511003e-02 2.84742183054458e-04
4.91578431372549e+00 3.43074328033470e-02 2.83972595914179e-04
4.95558823529412e+00 3.40759023017765e-02 2.83195804036639e-04
4.99539215686274e+00 3.38459343292400e-02 2.82412026010606e-04
5.03519607843137e+00 3.36175183411646e-02 2.81621475754723e-04
5.07500000000000e+00 3.33906438636739e-02 2.80824362915899e-04
5.11480392156863e+00 3.31653004935760e-02 2.80020892550675e-04
5.15460784313725e+00 3.29414778978872e-02 2.79211265376052e-04
5.19441176470588e+00 3.27191658133584e-02 2.78395678004177e-04
5.23421568627451e+00 3.24983540455842e-02 2.77574322648567e-04
5.27401960784314e+00 3.22790324698048e-02 2.76747387486247e-04
5.31382352941176e+00 3.20611910291627e-02 2.75915057019188e-04
5.35362745098039e+00 3.18448197346708e-02 2.75077511763757e-04
5.39343137254902e+00 3.16299086647546e-02 2.74234928474596e-04
5.43323529411765e+00 3.14164479647976e-02 2.73387480231249e-04
5.47303921568627e+00 3.12044278466893e-02 2.72535336643884e-04
5.51284313725490e+00 3.09938385879966e-02 2.71678663568535e-04
5.55264705882353e+00 3.07846705326655e-02 2.70817623431993e-04
5.59245098039216e+00 3.05769140894221e-02 2.69952375556648e-04
5.63225490196078e+00 3.03705597317207e-02 2.69083075861538e-04
5.67205882352941e+00 3.01655979973078e-02 2.68209877060421e-04
5.71186274509804e+00 2.99620194877878e-02 2.67332928846994e-04
5.75166666666667e+00 2.97598148678426e-02 2.66452377619253e-04
5.79147058823529e+00 2.95589748658600e-02 2.65568366777379e-04
5.83127450980392e+00 2.93594902724440e-02 2.64681037021862e-04
5.87107843137255e+00 2.91613519403499e-02 2.63790526065591e-04
5.91088235294118e+00 2.89645507840649e-02 2.62896968813187e-04
5.95068627450980e+00 2.87690777793919e-02 2.62000497528676e-04
5.99049019607843e+00 2.85749239627131e-02 2.61101241569931e-04
6.03029411764706e+00 2.83820804315531e-02 2.60199327662880e-04
6.07009803921569e+00 2.81905383431893e-02 2.59294880176305e-04
6.10990196078431e+00 2.80002889145761e-02 2.58388020845356e-04
6.14970588235294e+00 2.78113234219414e-02 2.57478868934853e-04
6.18950980392157e+00 2.76236332003879e-02 2.56567541290637e-04
6.22931372549020e+00 2.74372096434950e-02 2.55654152490025e-04
6.26911764705882e+00 2.72520442026306e-02 2.54738814588498e-04
6.30892156862745e+00 2.70681283874465e-02 2.53821637369671e-04
6.34872549019608e+00 2.68854537645952e-02 2.52902728596022e-04
6.38852941176471e+00 2.67040119576429e-02 2.51982193746019e-04
6.42833333333333e+00 2.65237946466864e-02 2.51060136161482e-04
6.46813725490196e+00 2.63447935679708e-02 2.50136657185252e-04
6.50794117647059e+00 2.61670005132392e-02 2.49211855918509e-04
6.54774509803922e+00 2.59904073301773e-02 2.48285829452554e-04
6.58754901960784e+00 2.58150059212125e-02 2.47358673101465e-04
6.62735294117647e+00 2.56407882434200e-02 2.46430480150876e-04
6.66715686274510e+00 2.54677463081545e-02 2.45501341993364e-04
6.70696078431373e+00 2.52958721806838e-02 2.44571348254834e-04
6.74676470588235e+00 2.51251579795729e-02 2.43640586562495e-04
6.78656862745098e+00 2.49555958770836e-02 2.42709142760312e-04
6.82637254901961e+00 2.47871780980492e-02 2.41777101125478e-04
6.86617647058824e+00 2.46198969197754e-02 2.40844544128557e-04
6.90598039215686e+00 2.44537446716857e-02 2.39911552558342e-04
6.94578431372549e+00 2.42887137349702e-02 2.38978205554275e-04
6.98558823529412e+00 2.41247965422363e-02 2.38044580721468e-04
7.02539215686275e+00 2.39619855769310e-02 2.37110753910878e-04
7.06519607843137e+00 2.38002733736922e-02 2.36176799417602e-04
7.10500000000000e+00 2.36396525173056e-02 2.35242790180210e-04
7.14480392156863e+00 2.34801156425999e-02 2.34308797553991e-04
7.18460784313725e+00 2.33216554341092e-02 2.33374891424887e-04
7.22441176470588e+00 2.31642646257375e-02 2.32441140315892e-04
7.26421568627451e+00 2.30079360002117e-02 2.31507611177329e-04
7.30401960784314e+00 2.28526623893965e-02 2.30574369572022e-04
7.34382352941176e+00 2.26984366733156e-02 2.29641479861614e-04
7.38362745098039e+00 2.25452517800430e-02 2.28709004990414e-04
7.42343137254902e+00 2.23931006853790e-02 2.27777006591133e-04
7.46323529411765e+00 2.22419764125283e-02 2.26845545009285e-04
7.50303921568627e+00 2.20918720317798e-02 2.25914679400557e-04
7.54284313725490e+00 2.19427806599925e-02 2.24984467532583e-04
7.58264705882353e+00 2.17946954608734e-02 2.24054965956208e-04
7.62245098039216e+00 2.16476096440662e-02 2.23126230177757e-04
7.66225490196078e+00 2.15015164650406e-02 2.22198314454967e-04
7.70205882352941e+00 2.13564092247834e-02 2.21271271894169e-04
7.74186274509804e+00 2.12122812694907e-02 2.20345154540879e-04
7.78166666666667e+00 2.10691259900808e-02 2.19420013190878e-04
7.82147058823529e+00 2.09269368224424e-02 2.18495897550697e-04
7.86127450980392e+00 2.07857072465782e-02 2.17572856399143e-04
7.90107843137255e+00 2.06454307864926e-02 2.16650937393060e-04
7.94088235294118e+00 2.05061010098941e-02 2.15730187157833e-04
7.98068627450980e+00 2.03677115279013e-02 2.14810651371778e-04
8.02049019607843e+00 2.02302559945788e-02 2.13892374586210e-04
8.06029411764706e+00 2.00937281071611e-02 2.12975400376035e-04
8.10009803921569e+00 1.99581216052455e-02 2.12059771491392e-04
8.13990196078431e+00 1.98234302706791e-02 2.11145529672793e-04
8.17970588235294e+00 1.96896479272729e-02 2.10232715735592e-04
8.21950980392157e+00 1.95567684405196e-02 2.09321369586505e-04
8.25931372549020e+00 1.94247857173118e-02 2.08411530301511e-04
8.29911764705882e+00 1.92936937055056e-02 2.07503235955936e-04
8.33892156862745e+00 1.91634863941172e-02 2.06596523764428e-04
8.37872549019608e+00 1.90341578125701e-02 2.05691430221927e-04
8.41852941176471e+00 1.89057020305814e-02 2.04787990929229e-04
8.45833333333333e+00 1.87781131578899e-02 2.03886240671135e-04
8.49813725490196e+00 1.86513853439860e-02 2.02986213489260e-04
8.53794117647059e+00 1.85255127776969e-02 2.02087942520318e-04
8.57774509803922e+00 1.84004896873628e-02 2.01191460127778e-04
8.61754901960784e+00 1.82763103401263e-02 2.00296798034461e-04
8.65735294117647e+00 1.81529690418198e-02 1.99403987156634e-04
8.69715686274510e+00 1.80304601367033e-02 1.98513057677187e-04
8.73696078431372e+00 1.79087780072063e-02 1.97624039113748e-04
8.77676470588235e+00 1.77879170735323e-02 1.96736960164765e-04
8.81656862745098e+00 1.76678717938170e-02 1.95851848833468e-04
8.85637254901961e+00 1.75486366634575e-02 1.94968732552757e-04
8.89617647058824e+00 1.74302062150002e-02 1.94087638027374e-04
8.93598039215686e+00 1.73125750178894e-02 1.93208591302462e-04
8.97578431372549e+00 1.71957376782186e-02 1.92331617775110e-04
9.01558823529412e+00 1.70796888384833e-02 1.91456742257567e-04
9.05539215686274e+00 1.69644231772086e-02 1.90583988831991e-04
9.09519607843137e+00 1.68499354090874e-02 1.89713380966048e-04
9.13500000000000e+00 1.67362202843531e-02 1.88844941629376e-04
9.17480392156863e+00 1.66232725886685e-02 1.87978693144763e-04
9.21460784313726e+00 1.65110871428862e-02 1.87114657251859e-04
9.25441176470588e+00 1.63996588028113e-02 1.86252855166453e-04
9.29421568627451e+00 1.62889824588475e-02 1.85393307442315e-04
9.33401960784314e+00 1.61790530361195e-02 1.84536034080190e-04
9.37382352941176e+00 1.60698654938809e-02 1.83681054637662e-04
9.41362745098039e+00 1.59614148254042e-02 1.82828388087600e-04
9.45343137254902e+00 1.58536960577503e-02 1.81978052877989e-04
9.49323529411765e+00 1.57467042515412e-02 1.81130066941063e-04
9.53303921568627e+00 1.56404345007333e-02 1.80284447748478e-04
9.57284313725490e+00 1.55348819322830e-02 1.79441212180897e-04
9.61264705882353e+00 1.54300417062536e-02 1.78600376629831e-04
9.65245098039216e+00 1.53259090152609e-02 1.77761957100354e-04
9.69225490196078e+00 1.52224790843640e-02 1.76925969077520e-04
9.73205882352941e+00 1.51197471708472e-02 1.76092427582114e-04
9.77186274509804e+00 1.50177085640014e-02 1.75261347222562e-04
9.81166666666667e+00 1.49163585848065e-02 1.74432742070813e-04
9.85147058823529e+00 1.48156925860259e-02 1.73606625758505e-04
9.89127450980392e+00 1.47157059516820e-02 1.72783011574015e-04
9.93107843137255e+00 1.46163940969490e-02 1.71961912335396e-04
9.97088235294118e+00 1.45177524679428e-02 1.71143340442805e-04
1.00106862745098e+01 1.44197765415121e-02 1.70327307761566e-04
1.00504901960784e+01 1.43224618253189e-02 1.69513826333703e-04
1.00902941176471e+01 1.42258038560015e-02 1.68702907058420e-04
1.01300980392157e+01 1.41297982023326e-02 1.67894560276092e-04
1.01699019607843e+01 1.40344404620267e-02 1.67088796829348e-04
1.02097058823529e+01 1.39397262625066e-02 1.66285626759886e-04
1.02495098039216e+01 1.38456512607058e-02 1.65485060133441e-04
1.02893137254902e+01 1.37522111419657e-02 1.64687105858875e-04
1.03291176470588e+01 1.36594016225609e-02 1.63891772489883e-04
1.03689215686275e+01 1.35672184467625e-02 1.63099069035340e-04
1.04087254901961e+01 1.34756573875619e-02 1.62309004134143e-04
1.04485294117647e+01 1.33847142456129e-02 1.61521585318993e-04
1.04883333333333e+01 1.32943848516502e-02 1.60736819791886e-04
1.05281372549020e+01 1.32046650636700e-02 1.59954715207272e-04
1.05679411764706e+01 1.31155507676210e-02 1.59175278506255e-04
1.06077450980392e+01 1.30270378772170e-02 1.58398516679002e-04
1.06475490196078e+01 1.29391223329288e-02 1.57624435671471e-04
1.06873529411765e+01 1.28518001042743e-02 1.56853041126990e-04
1.07271568627451e+01 1.27650671871415e-02 1.56084339135806e-04
1.07669607843137e+01 1.26789196044407e-02 1.55318335118761e-04
1.08067647058824e+01 1.25933534059228e-02 1.54555034557250e-04
1.08465686274510e+01 1.25083646672200e-02 1.53794441946461e-04
1.08863725490196e+01 1.24239494920141e-02 1.53036561504900e-04
1.09261764705882e+01 1.23401040094945e-02 1.52281397891498e-04
1.09659803921569e+01 1.22568243749734e-02 1.51528955474481e-04
1.10057843137255e+01 1.21741067689631e-02 1.50779237678355e-04
1.10455882352941e+01 1.20919473992553e-02 1.50032247670278e-04
1.10853921568627e+01 1.20103424984785e-02 1.49287989053560e-04
1.11251960784314e+01 1.19292883246854e-02 1.48546464834122e-04
1.11650000000000e+01 1.18487811611824e-02 1.47807678095782e-04
1.12048039215686e+01 1.17688173156503e-02 1.47071631030592e-04
1.12446078431373e+01 1.16893931221142e-02 1.46338325595568e-04
1.12844117647059e+01 1.16105049386223e-02 1.45607764176666e-04
1.13242156862745e+01 1.15321491478012e-02 1.44879948598847e-04
1.13640196078431e+01 1.14543221566904e-02 1.44154880772888e-04
1.14038235294118e+01 1.13770203959043e-02 1.43432561766375e-04
1.14436274509804e+01 1.13002403214999e-02 1.42712992432590e-04
1.14834313725490e+01 1.12239784127701e-02 1.41996174046010e-04
1.15232352941176e+01 1.11482311727679e-02 1.41282107653608e-04
1.15630392156863e+01 1.10729951275001e-02 1.40570793495024e-04
1.16028431372549e+01 1.09982668277190e-02 1.39862231610932e-04
1.16426470588235e+01 1.09240428468008e-02 1.39156422457959e-04
1.16824509803922e+01 1.08503197812462e-02 1.38453365991332e-04
1.17222549019608e+01 1.07770942505262e-02 1.37753062263728e-04
1.17620588235294e+01 1.07043628963114e-02 1.37055510564253e-04
1.18018627450980e+01 1.06321223841723e-02 1.36360710000867e-04
1.18416666666667e+01 1.05603694015611e-02 1.35668660089309e-04
1.18814705882353e+01 1.04891006582852e-02 1.34979359874179e-04
1.19212745098039e+01 1.04183128863570e-02 1.34292808502832e-04
1.19610784313725e+01 1.03480028392600e-02 1.33609004399969e-04
1.20008823529412e+01 1.02781672935613e-02 1.32927945825732e-04
1.20406862745098e+01 1.02088030469912e-02 1.32249631439618e-04
1.20804901960784e+01 1.01399069188915e-02 1.31574059724293e-04
1.21202941176471e+01 1.00714757495089e-02 1.30901228470167e-04
1.21600980392157e+01 1.00035064015420e-02 1.30231135315290e-04
1.21999019607843e+01 9.93599575829520e-03 1.29563778291299e-04
1.22397058823529e+01 9.86894072410593e-03 1.28899155008247e-04
1.22795098039216e+01 9.80233822420393e-03 1.28237263186364e-04
1.23193137254902e+01 9.73618520403638e-03 1.27578099890656e-04
1.23591176470588e+01 9.67047863073722e-03 1.26921662048054e-04
1.23989215686275e+01 9.60521549136887e-03 1.26267946970407e-04
1.24387254901961e+01 9.54039279332710e-03 1.25616951819934e-04
1.24785294117647e+01 9.47600756369144e-03 1.24968673130740e-04
1.25183333333333e+01 9.41205685063595e-03 1.24323107309587e-04
1.25581372549020e+01 9.34853772173729e-03 1.23680251141961e-04
