Energy (eV)          EEDF (eV^-(3/2))     First Anisotropy
3.08333333333333e-04 6.88295254742851e+01 3.32714315769072e-02
9.25000000000000e-04 6.81728288719599e+01 5.48629369613555e-02
1.54166666666667e-03 6.75223977567234e+01 7.22198685690305e-02
2.15833333333333e-03 6.68781723482259e+01 8.52817093249186e-02
2.77500000000000e-03 6.62400934384864e+01 9.60730190098679e-02
3.39166666666667e-03 6.56081023859128e+01 1.05362298557463e-01
4.00833333333333e-03 6.49821411054383e+01 1.13548748448284e-01
4.62500000000000e-03 6.43621520675590e+01 1.20874320542113e-01
5.24166666666667e-03 6.37480782924857e+01 1.27500063079989e-01
5.85833333333333e-03 6.31398633424315e+01 1.33540209798620e-01
6.47500000000000e-03 6.25374513188654e+01 1.39079622786724e-01
7.09166666666667e-03 6.19407868571463e+01 1.44183607339508e-01
7.70833333333333e-03 6.13498151197426e+01 1.48903837756289e-01
8.32500000000000e-03 6.07644817928693e+01 1.53282135826781e-01
8.94166666666667e-03 6.01847330813691e+01 1.57352987642169e-01
9.55833333333333e-03 5.96105157024986e+01 1.61145280912448e-01
1.01750000000000e-02 5.90417768822940e+01 1.64683540606113e-01
1.07916666666667e-02 5.84784643515579e+01 1.67988830544791e-01
1.14083333333333e-02 5.79205263363651e+01 1.71079425402824e-01
1.20250000000000e-02 5.73679115589704e+01 1.73971321342690e-01
1.26416666666667e-02 5.68205692336161e+01 1.76678631011280e-01
1.32583333333333e-02 5.62784490536171e+01 1.79213892795930e-01
1.38750000000000e-02 5.57415011949680e+01 1.81588316538931e-01
1.44916666666667e-02 5.52096763113410e+01 1.83811981657394e-01
1.51083333333333e-02 5.46829255226164e+01 1.85893997611124e-01
1.57250000000000e-02 5.41612004173179e+01 1.87842635588705e-01
1.63416666666667e-02 5.36444530478370e+01 1.89665438043773e-01
1.69583333333333e-02 5.31326359200875e+01 1.91369309622117e-01
1.75750000000000e-02 5.26257019950786e+01 1.92960593625280e-01
1.81916666666667e-02 5.21236046843320e+01 1.94445137227053e-01
1.88083333333333e-02 5.16262978404408e+01 1.95828346585500e-01
1.94250000000000e-02 5.11337357579905e+01 1.97115234085410e-01
2.00416666666667e-02 5.06458731691463e+01 1.98310459497784e-01
2.06583333333333e-02 5.01626652349600e+01 1.99418365210875e-01
2.12750000000000e-02 4.96840675457865e+01 2.00443006900742e-01
2.18916666666667e-02 4.92100361170265e+01 2.01388180762690e-01
2.25083333333333e-02 4.87405273810643e+01 2.02257447026617e-01
2.31250000000000e-02 4.82754981872896e+01 2.03054150690470e-01
2.37416666666667e-02 4.78149057979823e+01 2.03781440254264e-01
2.43583333333333e-02 4.73587078807937e+01 2.04442283986016e-01
2.49750000000000e-02 4.69068625084541e+01 2.05039484417004e-01
2.55916666666667e-02 4.64593281547920e+01 2.05575691661329e-01
2.62083333333333e-02 4.60160636876875e+01 2.06053415009862e-01
2.68250000000000e-02 4.55770283685294e+01 2.06475033356022e-01
2.74416666666667e-02 4.51421818483613e+01 2.06842804936433e-01
2.80583333333333e-02 4.47114841612514e+01 2.07158875808618e-01
2.86750000000000e-02 4.42848957235484e+01 2.07425287533970e-01
2.92916666666667e-02 4.38623773301474e+01 2.07643984477279e-01
2.99083333333333e-02 4.34438901482318e+01 2.07816820143641e-01
3.05250000000000e-02 4.30293957163669e+01 2.07945562960140e-01
3.11416666666667e-02 4.26188559408797e+01 2.08031901864352e-01
3.17583333333333e-02 4.22122330899357e+01 2.08077451132515e-01
3.23750000000000e-02 4.18094897925012e+01 2.08083754810649e-01
3.29916666666667e-02 4.14105890348331e+01 2.08052291074821e-01
3.36083333333333e-02 4.10154941548586e+01 2.07984475971968e-01
3.42250000000000e-02 4.06241688410316e+01 2.07881666870869e-01
3.48416666666667e-02 4.02365771289284e+01 2.07745165921908e-01
3.54583333333333e-02 3.98526833959036e+01 2.07576222998630e-01
3.60750000000000e-02 3.94724523598618e+01 2.07376038423772e-01
3.66916666666667e-02 3.90958490759553e+01 2.07145765756256e-01
3.73083333333333e-02 3.87228389314927e+01 2.06886514134858e-01
3.79250000000000e-02 3.83533876446441e+01 2.06599350458908e-01
3.85416666666667e-02 3.79874612612362e+01 2.06285301664105e-01
3.91583333333333e-02 3.76250261498950e+01 2.05945356611790e-01
3.97750000000000e-02 3.72660490006980e+01 2.05580467853243e-01
4.03916666666667e-02 3.69104968220640e+01 2.05191553511087e-01
4.10083333333333e-02 3.65583369361120e+01 2.04779498818356e-01
4.16250000000000e-02 3.62095369772728e+01 2.04345157560404e-01
4.22416666666667e-02 3.58640648892704e+01 2.03889353647738e-01
4.28583333333333e-02 3.55218889206817e+01 2.03412882381753e-01
4.34750000000000e-02 3.51829776235180e+01 2.02916511643926e-01
4.40916666666667e-02 3.48472998502948e+01 2.02400983224186e-01
4.47083333333333e-02 3.45148247497787e+01 2.01867013870756e-01
4.53250000000000e-02 3.41855217655479e+01 2.01315296279052e-01
4.59416666666667e-02 3.38593606331464e+01 2.00746500224067e-01
4.65583333333333e-02 3.35363113760080e+01 2.00161273437967e-01
4.71750000000000e-02 3.32163443040011e+01 1.99560242438569e-01
4.77916666666667e-02 3.28994300106664e+01 1.98944013502914e-01
4.84083333333333e-02 3.25855393693051e+01 1.98313173406021e-01
4.90250000000000e-02 3.22746435315162e+01 1.97668290119725e-01
4.96416666666667e-02 3.19667139245141e+01 1.97009913656290e-01
5.02583333333333e-02 3.16617222473718e+01 1.96338576694294e-01
5.08750000000000e-02 3.13596404695555e+01 1.95654795171760e-01
5.14916666666667e-02 3.10604408283193e+01 1.94959069022398e-01
5.21083333333333e-02 3.07640958250957e+01 1.94251882708996e-01
5.27250000000000e-02 3.04705782240309e+01 1.93533705729651e-01
5.33416666666667e-02 3.01798610494555e+01 1.92804993264606e-01
5.39583333333333e-02 2.98919175824125e+01 1.92066186633229e-01
5.45750000000000e-02 2.96067213591989e+01 1.91317713728318e-01
5.51916666666667e-02 2.93242461689084e+01 1.90559989587853e-01
5.58083333333333e-02 2.90444660500914e+01 1.89793416788412e-01
5.64250000000000e-02 2.87673552893045e+01 1.89018385819530e-01
5.70416666666667e-02 2.84928884187244e+01 1.88235275591922e-01
5.76583333333333e-02 2.82210402129321e+01 1.87444453777712e-01
5.82750000000000e-02 2.79517856874735e+01 1.86646277134508e-01
5.88916666666667e-02 2.76851000965425e+01 1.85841091959497e-01
5.95083333333333e-02 2.74209589298828e+01 1.85029234384869e-01
6.01250000000000e-02 2.71593379113627e+01 1.84211030659490e-01
6.07416666666667e-02 2.69002129967242e+01 1.83386797556552e-01
6.13583333333333e-02 2.66435603705979e+01 1.82556842631093e-01
6.19750000000000e-02 2.63893564450929e+01 1.81721464465666e-01
6.25916666666667e-02 2.61375778576110e+01 1.80880953037944e-01
6.32083333333333e-02 2.58882014679685e+01 1.80035589945948e-01
6.38250000000000e-02 2.56412043570035e+01 1.79185648623031e-01
6.44416666666667e-02 2.53965638244528e+01 1.78331394670729e-01
6.50583333333333e-02 2.51542573861756e+01 1.77473086056372e-01
6.56750000000000e-02 2.49142627727805e+01 1.76610973301799e-01
6.62916666666667e-02 2.46765579275622e+01 1.75745299785842e-01
6.69083333333333e-02 2.44411210038233e+01 1.74876301918218e-01
6.75250000000000e-02 2.42079303635212e+01 1.74004209305634e-01
6.81416666666667e-02 2.39769645752639e+01 1.73129245027678e-01
6.87583333333333e-02 2.37482024117252e+01 1.72251625790235e-01
6.93750000000000e-02 2.35216228483123e+01 1.71371562072031e-01
6.99916666666667e-02 2.32972050612189e+01 1.70489258377088e-01
7.06083333333333e-02 2.30749284249300e+01 1.69604913370397e-01
7.12250000000000e-02 2.28547725109108e+01 1.68718720007520e-01
7.18416666666667e-02 2.26367170857161e+01 1.67830865766291e-01
7.24583333333333e-02 2.24207421085798e+01 1.66941532767055e-01
7.30750000000000e-02 2.22068277301267e+01 1.66050897887519e-01
7.36916666666667e-02 2.19949542905359e+01 1.65159132975998e-01
7.43083333333333e-02 2.17851023172120e+01 1.64266404958190e-01
7.49250000000000e-02 2.15772525235200e+01 1.63372875939142e-01
7.55416666666667e-02 2.13713858070008e+01 1.62478703400033e-01
7.61583333333333e-02 2.11674832471216e+01 1.61584040293147e-01
7.67750000000000e-02 2.09655261040336e+01 1.60689035132553e-01
7.73916666666667e-02 2.07654958168385e+01 1.59793832176115e-01
7.80083333333333e-02 2.05673740014143e+01 1.58898571510140e-01
7.86250000000000e-02 2.03711424491967e+01 1.58003389130124e-01
7.92416666666667e-02 2.01767831254950e+01 1.57108417109463e-01
7.98583333333333e-02 1.99842781673903e+01 1.56213783675001e-01
8.04750000000000e-02 1.97936098825406e+01 1.55319613279042e-01
8.10916666666667e-02 1.96047607475447e+01 1.54426026756071e-01
8.17083333333333e-02 1.94177134059103e+01 1.53533141390243e-01
8.23250000000000e-02 1.92324506668823e+01 1.52641070979673e-01
8.29416666666667e-02 1.90489555038543e+01 1.51749925982311e-01
8.35583333333333e-02 1.88672110524023e+01 1.50859813576295e-01
8.41750000000000e-02 1.86872006091385e+01 1.49970837717423e-01
8.47916666666667e-02 1.85089076301665e+01 1.49083099275146e-01
8.54083333333333e-02 1.83323157291808e+01 1.48196696086609e-01
8.60250000000000e-02 1.81574086763429e+01 1.47311723008036e-01
8.66416666666667e-02 1.79841703967822e+01 1.46428272041770e-01
8.72583333333333e-02 1.78125849687560e+01 1.45546432384687e-01
8.78750000000000e-02 1.76426366225504e+01 1.44666290474148e-01
8.84916666666667e-02 1.74743097390231e+01 1.43787930106867e-01
8.91083333333333e-02 1.73075888478238e+01 1.42911432482306e-01
8.97250000000000e-02 1.71424586263180e+01 1.42036876243827e-01
9.03416666666667e-02 1.69789038981722e+01 1.41164337590024e-01
9.09583333333333e-02 1.68169096316307e+01 1.40293890313660e-01
9.15750000000000e-02 1.66564609384640e+01 1.39425605838509e-01
9.21916666666667e-02 1.64975430725931e+01 1.38559553323803e-01
9.28083333333333e-02 1.63401414284229e+01 1.37695799699166e-01
9.34250000000000e-02 1.61842415398127e+01 1.36834409697603e-01
9.40416666666667e-02 1.60298290787408e+01 1.35975445953624e-01
9.46583333333333e-02 1.58768898536901e+01 1.35118969034563e-01
9.52750000000000e-02 1.57254098086428e+01 1.34265037470138e-01
9.58916666666667e-02 1.55753750217822e+01 1.33413707844725e-01
9.65083333333333e-02 1.54267717039300e+01 1.32565034825461e-01
9.71250000000000e-02 1.52795861975638e+01 1.31719071188695e-01
9.77416666666667e-02 1.51338049755559e+01 1.30875867906875e-01
9.83583333333333e-02 1.49894146396602e+01 1.30035474173761e-01
9.89750000000000e-02 1.48464019195523e+01 1.29197937428078e-01
9.95916666666667e-02 1.47047536716039e+01 1.28363303435421e-01
1.00208333333333e-01 1.45644568774180e+01 1.27531616328668e-01
1.00825000000000e-01 1.44254986426426e+01 1.26702918540033e-01
1.01441666666667e-01 1.42878661970170e+01 1.25877251037401e-01
1.02058333333333e-01 1.41515468904876e+01 1.25054653279317e-01
1.02675000000000e-01 1.40165281945126e+01 1.24235163045556e-01
1.03291666666667e-01 1.38827977008606e+01 1.23418816837050e-01
1.03908333333333e-01 1.37503431181276e+01 1.22605649735416e-01
1.04525000000000e-01 1.36191522729628e+01 1.21795695257603e-01
1.05141666666667e-01 1.34892131089007e+01 1.20988985739678e-01
1.05758333333333e-01 1.33605136830188e+01 1.20185552200358e-01
1.06375000000000e-01 1.32330421670868e+01 1.19385424199777e-01
1.06991666666667e-01 1.31067868464338e+01 1.18588630207917e-01
1.07608333333333e-01 1.29817361167379e+01 1.17795197472095e-01
1.08225000000000e-01 1.28578784851050e+01 1.17005151879745e-01
1.08841666666667e-01 1.27352025689696e+01 1.16218518312248e-01
1.09458333333333e-01 1.26136970930102e+01 1.15435320516284e-01
1.10075000000000e-01 1.24933508901621e+01 1.14655580970577e-01
1.10691666666667e-01 1.23741529005502e+01 1.13879321225799e-01
1.11308333333333e-01 1.22560921685255e+01 1.13106561779699e-01
1.11925000000000e-01 1.21391578436152e+01 1.12337321947752e-01
1.12541666666667e-01 1.20233391794871e+01 1.11571620189765e-01
1.13158333333333e-01 1.19086255311008e+01 1.10809473988705e-01
1.13775000000000e-01 1.17950063556001e+01 1.10050899725193e-01
1.14391666666667e-01 1.16824712113071e+01 1.09295912991379e-01
1.15008333333333e-01 1.15710097549836e+01 1.08544528473412e-01
1.15625000000000e-01 1.14606117426689e+01 1.07796759829677e-01
1.16241666666667e-01 1.13512670287027e+01 1.07052619992532e-01
1.16858333333333e-01 1.12429655630922e+01 1.06312121054323e-01
1.17475000000000e-01 1.11356973922984e+01 1.05575274149256e-01
1.18091666666667e-01 1.10294526582870e+01 1.04842089743560e-01
1.18708333333333e-01 1.09242215959965e+01 1.04112577524958e-01
1.19325000000000e-01 1.08199945340758e+01 1.03386746288093e-01
1.19941666666667e-01 1.07167618939627e+01 1.02664604213602e-01
1.20558333333333e-01 1.06145141874486e+01 1.01946158760969e-01
1.21175000000000e-01 1.05132420173700e+01 1.01231416557406e-01
1.21791666666667e-01 1.04129360767145e+01 1.00520383666338e-01
1.22408333333333e-01 1.03135871462767e+01 9.98130654835327e-02
1.23025000000000e-01 1.02151860953075e+01 9.91094666293650e-02
1.23641666666667e-01 1.01177238806460e+01 9.84095912071517e-02
1.24258333333333e-01 1.00211915444631e+01 9.77134427024766e-02
1.24875000000000e-01 9.92558021487154e+00 9.70210238787540e-02
1.25491666666667e-01 9.83088110508152e+00 9.63323370258334e-02
1.26108333333333e-01 9.73708551123018e+00 9.56473838624344e-02
1.26725000000000e-01 9.64418481295262e+00 9.49661654349244e-02
1.27341666666667e-01 9.55217047256276e+00 9.42886823566134e-02
1.27958333333333e-01 9.46103403296325e+00 9.36149347132068e-02
1.28575000000000e-01 9.37076711818095e+00 9.29449219646919e-02
1.29191666666667e-01 9.28136143257157e+00 9.22786431757261e-02
1.29808333333333e-01 9.19280875880695e+00 9.16160969240289e-02
1.30425000000000e-01 9.10510095837714e+00 9.09572812052844e-02
1.31041666666667e-01 9.01822997081791e+00 9.03021936549881e-02
1.31658333333333e-01 8.93218781177241e+00 8.96508314596866e-02
1.32275000000000e-01 8.84696657346165e+00 8.90031912648273e-02
1.32891666666667e-01 8.76255842393431e+00 8.83592693884062e-02
1.33508333333333e-01 8.67895560519967e+00 8.77190617349772e-02
1.34125000000000e-01 8.59615043366835e+00 8.70825637063587e-02
1.34741666666667e-01 8.51413529942382e+00 8.64497704074163e-02
1.35358333333333e-01 8.43290266442355e+00 8.58206765627619e-02
1.35975000000000e-01 8.35244506291192e+00 8.51952764302389e-02
1.36591666666667e-01 8.27275510071262e+00 8.45735639991610e-02
1.37208333333333e-01 8.19382545349545e+00 8.39555329096185e-02
1.37825000000000e-01 8.11564886716280e+00 8.33411763686501e-02
1.38441666666667e-01 8.03821815716253e+00 8.27304873412499e-02
1.39058333333333e-01 7.96152620681762e+00 8.21234584722029e-02
1.39675000000000e-01 7.88556596768788e+00 8.15200820048597e-02
1.40291666666667e-01 7.81033045890262e+00 8.09203499652035e-02
1.40908333333333e-01 7.73581276555067e+00 8.03242540861359e-02
1.41525000000000e-01 7.66200603901877e+00 7.97317857287932e-02
1.42141666666667e-01 7.58890349634346e+00 7.91429360599339e-02
1.42758333333333e-01 7.51649841865901e+00 7.85576959785959e-02
1.43375000000000e-01 7.44478415151390e+00 7.79760560398756e-02
1.43991666666667e-01 7.37375410424132e+00 7.73980066259166e-02
1.44608333333333e-01 7.30340174846281e+00 7.68235378748673e-02
1.45225000000000e-01 7.23372061838396e+00 7.62526396070347e-02
1.45841666666667e-01 7.16470431018315e+00 7.56853014897177e-02
1.46458333333333e-01 7.09634648056852e+00 7.51215129684090e-02
1.47075000000000e-01 7.02864084705431e+00 7.45612631952580e-02
1.47691666666667e-01 6.96158118736708e+00 7.40045411879813e-02
1.48308333333333e-01 6.89516133805410e+00 7.34513357632229e-02
1.48925000000000e-01 6.82937519474133e+00 7.29016354672721e-02
1.49541666666667e-01 6.76421671155674e+00 7.23554287292840e-02
1.50158333333333e-01 6.69967989978799e+00 7.18127037967357e-02
1.50775000000000e-01 6.63575882812323e+00 7.12734486683140e-02
1.51391666666667e-01 6.57244762209091e+00 7.07376512416652e-02
1.52008333333333e-01 6.50974046276496e+00 7.02052992508930e-02
1.52625000000000e-01 6.44763158698929e+00 6.96763802015423e-02
1.53241666666667e-01 6.38611528683371e+00 6.91508815130989e-02
1.53858333333333e-01 6.32518590834473e+00 6.86287904584537e-02
1.54475000000000e-01 6.26483785175471e+00 6.81100941009220e-02
1.55091666666667e-01 6.20506557095347e+00 6.75947794316929e-02
1.55708333333333e-01 6.14586357228285e+00 6.70828333112025e-02
1.56325000000000e-01 6.08722641473155e+00 6.65742424081188e-02
1.56941666666667e-01 6.02914870942180e+00 6.60689933319336e-02
1.57558333333333e-01 5.97162511844623e+00 6.55670725761820e-02
1.58175000000000e-01 5.91465035504901e+00 6.50684664593432e-02
1.58791666666667e-01 5.85821918312735e+00 6.45731612527592e-02
1.59408333333333e-01 5.80232641610887e+00 6.40811431256330e-02
1.60025000000000e-01 5.74696691712003e+00 6.35923980877877e-02
1.60641666666667e-01 5.69213559850187e+00 6.31069121130835e-02
1.61258333333333e-01 5.63782742072645e+00 6.26246710861477e-02
1.61875000000000e-01 5.58403739255327e+00 6.21456607469273e-02
1.62491666666667e-01 5.53076057055886e+00 6.16698668097770e-02
1.63108333333333e-01 5.47799205809085e+00 6.11972749118694e-02
1.63725000000000e-01 5.42572700541297e+00 6.07278705594825e-02
1.64341666666667e-01 5.37396060924824e+00 6.02616392429190e-02
1.64958333333333e-01 5.32268811176910e+00 5.97985663865368e-02
1.65575000000000e-01 5.27190480073183e+00 5.93386372967264e-02
1.66191666666667e-01 5.22160600903279e+00 5.88818372728154e-02
1.66808333333333e-01 5.17178711373340e+00 5.84281515586699e-02
1.67425000000000e-01 5.12244353618449e+00 5.79775652923042e-02
1.68041666666667e-01 5.07357074159529e+00 5.75300636129192e-02
1.68658333333333e-01 5.02516423809190e+00 5.70856316140288e-02
1.69275000000000e-01 4.97721957683223e+00 5.66442542946429e-02
1.69891666666667e-01 4.92973235158735e+00 5.62059166625886e-02
1.70508333333333e-01 4.88269819783218e+00 5.57706036891169e-02
1.71125000000000e-01 4.83611279285163e+00 5.53383002616091e-02
1.71741666666667e-01 4.78997185533390e+00 5.49089912833091e-02
1.72358333333333e-01 4.74427114449223e+00 5.44826616293642e-02
1.72975000000000e-01 4.69900646016277e+00 5.40592961010134e-02
1.73591666666667e-01 4.65417364240944e+00 5.36388795218670e-02
1.74208333333333e-01 4.60976857067572e+00 5.32213966953214e-02
1.74825000000000e-01 4.56578716387455e+00 5.28068323601854e-02
1.75441666666667e-01 4.52222538000464e+00 5.23951712836405e-02
1.76058333333333e-01 4.47907921533098e+00 5.19863982199885e-02
1.76675000000000e-01 4.43634470446748e+00 5.15804978676672e-02
1.77291666666667e-01 4.39401792000416e+00 5.11774549590052e-02
1.77908333333333e-01 4.35209497171553e+00 5.07772542202652e-02
1.78525000000000e-01 4.31057200663623e+00 5.03798803300060e-02
1.79141666666667e-01 4.26944520869899e+00 4.99853180057478e-02
1.79758333333333e-01 4.22871079796967e+00 4.95935519652697e-02
1.80375000000000e-01 4.18836503071650e+00 4.92045668862739e-02
1.80991666666667e-01 4.14840419905832e+00 4.88183474900758e-02
1.81608333333333e-01 4.10882463022550e+00 4.84348785041166e-02
1.82225000000000e-01 4.06962268662300e+00 4.80541446228845e-02
1.82841666666667e-01 4.03079476548872e+00 4.76761305887402e-02
1.83458333333333e-01 3.99233729817928e+00 4.73008211556040e-02
1.84075000000000e-01 3.95424675022735e+00 4.69282010510968e-02
1.84691666666667e-01 3.91651962100978e+00 4.65582550546025e-02
1.85308333333333e-01 3.87915244305734e+00 4.61909679620912e-02
1.85925000000000e-01 3.84214178210671e+00 4.58263245494450e-02
1.86541666666667e-01 3.80548423677801e+00 4.54643096478531e-02
1.87158333333333e-01 3.76917643790780e+00 4.51049081097361e-02
1.87775000000000e-01 3.73321504859588e+00 4.47481047732159e-02
1.88391666666667e-01 3.69759676389217e+00 4.43938845349422e-02
1.89008333333333e-01 3.66231831015188e+00 4.40422323170863e-02
1.89625000000000e-01 3.62737644507770e+00 4.36931330329131e-02
1.90241666666667e-01 3.59276795741551e+00 4.33465716571363e-02
1.90858333333333e-01 3.55848966633115e+00 4.30025331939398e-02
1.91475000000000e-01 3.52453842144813e+00 4.26610026436248e-02
1.92091666666667e-01 3.49091110255203e+00 4.23219650705776e-02
1.92708333333333e-01 3.45760461898803e+00 4.19854055722849e-02
1.93325000000000e-01 3.42461590969447e+00 4.16513092470246e-02
1.93941666666667e-01 3.39194194291564e+00 4.13196612595280e-02
1.94558333333333e-01 3.35957971561940e+00 4.09904468109639e-02
