Energy (eV)          EEDF (eV^-(3/2))     First Anisotropy
7.81818181818182e-02 1.00297893766285e-01 1.12078759106886e-04
2.34545454545455e-01 9.71897465769745e-02 1.82820853667699e-04
3.90909090909091e-01 9.41779182410090e-02 2.35448251616582e-04
5.47272727272727e-01 9.12594239314161e-02 2.72011188912270e-04
7.03636363636364e-01 8.84313713019296e-02 2.99795014907851e-04
8.60000000000000e-01 8.56909576374186e-02 3.21662402770019e-04
1.01636363636364e+00 8.30354670838455e-02 3.39148197244091e-04
1.17272727272727e+00 8.04622679534072e-02 3.53210254327846e-04
1.32909090909091e+00 7.79688100874051e-02 3.64503543208854e-04
1.48545454545455e+00 7.55526223724708e-02 3.73504213183959e-04
1.64181818181818e+00 7.32113102883504e-02 3.80573944191249e-04
1.79818181818182e+00 7.09425534874186e-02 3.85996645932605e-04
1.95454545454545e+00 6.87441035431117e-02 3.90000919870003e-04
2.11090909090909e+00 6.66137817167534e-02 3.92774586150466e-04
2.26727272727273e+00 6.45494767647536e-02 3.94474492830065e-04
2.42363636363636e+00 6.25491428802417e-02 3.95233384515286e-04
2.58000000000000e+00 6.06107976621795e-02 3.95164863040530e-04
2.73636363636364e+00 5.87325201260891e-02 3.94367056506590e-04
2.89272727272727e+00 5.69124488318487e-02 3.92925397609303e-04
3.04909090909091e+00 5.51487800107451e-02 3.90914767639675e-04
3.20545454545455e+00 5.34397657979040e-02 3.88401176717908e-04
3.36181818181818e+00 5.17837124983566e-02 3.85443104990221e-04
3.51818181818182e+00 5.01789788930515e-02 3.82092582455196e-04
3.67454545454545e+00 4.86239746280605e-02 3.78396070675436e-04
3.83090909090909e+00 4.71171586372647e-02 3.74395192945188e-04
3.98727272727273e+00 4.56570376026466e-02 3.70127340633955e-04
4.14363636363636e+00 4.42421644870006e-02 3.65626182893627e-04
4.30000000000000e+00 4.28711370988650e-02 3.60922100701691e-04
4.45636363636364e+00 4.15425966928227e-02 3.56042555285356e-04
4.61272727272727e+00 4.02552266360134e-02 3.51012405594610e-04
4.76909090909091e+00 3.90077510912256e-02 3.45854183029619e-04
4.92545454545455e+00 3.77989337612436e-02 3.40588329240899e-04
5.08181818181818e+00 3.66275766629841e-02 3.35233405772594e-04
5.23818181818182e+00 3.54925189331266e-02 3.29806276668044e-04
5.39454545454545e+00 3.43926356848999e-02 3.24322269507805e-04
5.55090909090909e+00 3.33268368927806e-02 3.18795319437137e-04
5.70727272727273e+00 3.22940663062626e-02 3.13238095884139e-04
5.86363636363636e+00 3.12933004091486e-02 3.07662115582145e-04
6.02000000000000e+00 3.03235474047787e-02 3.02077844956928e-04
6.17636363636364e+00 2.93838462281096e-02 2.96494790758945e-04
6.33272727272727e+00 2.84732655998104e-02 2.90921582184323e-04
6.48909090909091e+00 2.75909030971990e-02 2.85366045112529e-04
6.64545454545455e+00 2.67358842643849e-02 2.79835268621927e-04
6.80181818181818e+00 2.59073617453471e-02 2.74335666404977e-04
6.95818181818182e+00 2.51045144404369e-02 2.68873031641590e-04
7.11454545454546e+00 2.43265466964392e-02 2.63452586946047e-04
7.27090909090909e+00 2.35726875178070e-02 2.58079030786403e-04
7.42727272727273e+00 2.28421897993780e-02 2.52756579068344e-04
7.58363636363636e+00 2.21343295892189e-02 2.47489003177777e-04
7.74000000000000e+00 2.14484053709483e-02 2.42279665607711e-04
7.89636363636364e+00 2.07837373657716e-02 2.37131551847847e-04
8.05272727272727e+00 2.01396668623793e-02 2.32047300023818e-04
8.20909090909091e+00 1.95155555607564e-02 2.27029228231755e-04
8.36545454545455e+00 1.89107849420840e-02 2.22079359304671e-04
8.52181818181818e+00 1.83247556556053e-02 2.17199444337853e-04
8.67818181818182e+00 1.77568869225459e-02 2.12390983803336e-04
8.83454545454546e+00 1.72066159626787e-02 2.07655247044328e-04
8.99090909090909e+00 1.66733974364559e-02 2.02993290840469e-04
9.14727272727273e+00 1.61567029027374e-02 1.98405976052219e-04
9.30363636363636e+00 1.56560202969384e-02 1.93893983022044e-04
9.46000000000000e+00 1.51708534234370e-02 1.89457826325116e-04
9.61636363636364e+00 1.47007214622510e-02 1.85097867923458e-04
9.77272727272727e+00 1.42451584945949e-02 1.80814329580015e-04
9.92909090909091e+00 1.38037130391758e-02 1.76607304293726e-04
1.00854545454545e+01 1.33759476074444e-02 1.72476767416157e-04
1.02418181818182e+01 1.29614382633096e-02 1.68422585554350e-04
1.03981818181818e+01 1.25597742158569e-02 1.64444526256669e-04
1.05545454545455e+01 1.21705574000075e-02 1.60542267808171e-04
1.07109090909091e+01 1.17934020829700e-02 1.56715404795975e-04
1.08672727272727e+01 1.14279344925850e-02 1.52963456663397e-04
1.10236363636364e+01 1.10737924359246e-02 1.49285875620676e-04
1.11800000000000e+01 1.07306249411361e-02 1.45682050867439e-04
1.13363636363636e+01 1.03980919188551e-02 1.42151315843654e-04
1.14927272727273e+01 1.00758638128744e-02 1.38692953504716e-04
1.16490909090909e+01 9.76362128534074e-03 1.35306200983907e-04
1.18054545454545e+01 9.46105489149205e-03 1.31990255581396e-04
1.19618181818182e+01 9.16786477360606e-03 1.28744277395694e-04
1.21181818181818e+01 8.88376037125050e-03 1.25567394289493e-04
1.22745454545455e+01 8.60846012566762e-03 1.22458706478303e-04
1.24309090909091e+01 8.34169120128462e-03 1.19417288481089e-04
1.25872727272727e+01 8.08318922179127e-03 1.16442193172000e-04
1.27436363636364e+01 7.83269800145853e-03 1.13532455520323e-04
1.29000000000000e+01 7.58996929170905e-03 1.10687094003469e-04
1.30563636363636e+01 7.35476254075501e-03 1.07905114099161e-04
1.32127272727273e+01 7.12684464767374e-03 1.05185510561368e-04
1.33690909090909e+01 6.90598973863254e-03 1.02527269369063e-04
1.35254545454545e+01 6.69197893764942e-03 9.99293706198225e-05
1.36818181818182e+01 6.48460015004436e-03 9.73907892744528e-05
1.38381818181818e+01 6.28364785682915e-03 9.49104975010277e-05
1.39945454545455e+01 6.08892290630562e-03 9.24874668287002e-05
1.41509090909091e+01 5.90023231702289e-03 9.01206686081247e-05
1.43072727272727e+01 5.71738909054202e-03 8.78090759096733e-05
1.44636363636364e+01 5.54021202197388e-03 8.55516652627168e-05
1.46200000000000e+01 5.36852552067419e-03 8.33474168931680e-05
1.47763636363636e+01 5.20215943975864e-03 8.11953163794510e-05
1.49327272727273e+01 5.04094890278492e-03 7.90943555382129e-05
1.50890909090909e+01 4.88473414487205e-03 7.70435331269467e-05
1.52454545454545e+01 4.73336035100188e-03 7.50418562069298e-05
1.54018181818182e+01 4.58667750281285e-03 7.30883401067313e-05
1.55581818181818e+01 4.44454023280360e-03 7.11820094775081e-05
1.57145454545455e+01 4.30680767730533e-03 6.93218992494395e-05
1.58709090909091e+01 4.17334333707763e-03 6.75070544835616e-05
1.60272727272727e+01 4.04401494456453e-03 6.57365312052433e-05
1.61836363636364e+01 3.91869433020541e-03 6.40093971546922e-05
1.63400000000000e+01 3.79725729558310e-03 6.23247315544049e-05
1.64963636363636e+01 3.67958349257326e-03 6.06816258437629e-05
1.66527272727273e+01 3.56555630110417e-03 5.90791839171142e-05
1.68090909090909e+01 3.45506271644207e-03 5.75165222565566e-05
1.69654545454545e+01 3.34799323506840e-03 5.59927705230112e-05
1.71218181818182e+01 3.24424174629434e-03 5.45070712254540e-05
1.72781818181818e+01 3.14370542893051e-03 5.30585801356280e-05
1.74345454545455e+01 3.04628464750503e-03 5.16464666509359e-05
1.75909090909091e+01 2.95188285364296e-03 5.02699134289896e-05
1.77472727272727e+01 2.86040649199848e-03 4.89281166928557e-05
1.79036363636364e+01 2.77176490587621e-03 4.76202864928466e-05
1.80600000000000e+01 2.68587024749228e-03 4.63456463184650e-05
1.82163636363636e+01 2.60263739234361e-03 4.51034333707575e-05
1.83727272727273e+01 2.52198385294590e-03 4.38928985107826e-05
1.85290909090909e+01 2.44382969891624e-03 4.27133061465893e-05
1.86854545454545e+01 2.36809747639504e-03 4.15639344375587e-05
1.88418181818182e+01 2.29471213137197e-03 4.04440748864981e-05
1.89981818181818e+01 2.22360093647974e-03 3.93530324416170e-05
1.91545454545455e+01 2.15469341771023e-03 3.82901255716135e-05
1.93109090909091e+01 2.08792128464869e-03 3.72546858567715e-05
1.94672727272727e+01 2.02321836383581e-03 3.62460580391319e-05
1.96236363636364e+01 1.96052053211759e-03 3.52636000502566e-05
1.97800000000000e+01 1.89976565316332e-03 3.43066826063394e-05
1.99363636363636e+01 1.84089351680935e-03 3.33746892552201e-05
2.00927272727273e+01 1.78384577816150e-03 3.24670162103221e-05
2.02490909090909e+01 1.72856590095573e-03 3.15830721484224e-05
2.04054545454545e+01 1.67499910064739e-03 3.07222782271495e-05
2.05618181818182e+01 1.62309229017199e-03 2.98840676933292e-05
2.07181818181818e+01 1.57279402809521e-03 2.90678858408008e-05
2.08745454545455e+01 1.52405446685017e-03 2.82731899547439e-05
2.10309090909091e+01 1.47682530338525e-03 2.74994489324850e-05
2.11872727272727e+01 1.43105973196957e-03 2.67461432191901e-05
2.13436363636364e+01 1.38671239711245e-03 2.60127647324731e-05
2.15000000000000e+01 1.34373934865691e-03 2.52988164973694e-05
2.16563636363636e+01 1.30209799882401e-03 2.46038125912271e-05
2.18127272727273e+01 1.26174707920845e-03 2.39272779475275e-05
2.19690909090909e+01 1.22264660064980e-03 2.32687481384172e-05
2.21254545454545e+01 1.18475781302816e-03 2.26277693094678e-05
2.22818181818182e+01 1.14804316689614e-03 2.20038978396785e-05
2.24381818181818e+01 1.11246627676263e-03 2.13967002415248e-05
2.25945454545455e+01 1.07799188452324e-03 2.08057530547042e-05
2.27509090909091e+01 1.04458582454938e-03 2.02306425226220e-05
2.29072727272727e+01 1.01221499027050e-03 1.96709644853196e-05
2.30636363636364e+01 9.80847300910605e-04 1.91263242673810e-05
2.32200000000000e+01 9.50451669722299e-04 1.85963363710982e-05
2.33763636363636e+01 9.20997973571985e-04 1.80806243826402e-05
2.35327272727273e+01 8.92457022563982e-04 1.75788207843644e-05
2.36890909090909e+01 8.64800531616425e-04 1.70905667546587e-05
2.38454545454545e+01 8.38001092053983e-04 1.66155120733566e-05
2.40018181818182e+01 8.12032144467311e-04 1.61533148419205e-05
2.41581818181818e+01 7.86867952717715e-04 1.57036413688493e-05
2.43145454545455e+01 7.62483578096887e-04 1.52661660525821e-05
2.44709090909091e+01 7.38854854631947e-04 1.48405711179479e-05
2.46272727272727e+01 7.15958365426382e-04 1.44265465016929e-05
2.47836363636364e+01 6.93771419154908e-04 1.40237897361638e-05
2.49400000000000e+01 6.72272027593236e-04 1.36320057015887e-05
2.50963636363636e+01 6.51438884085895e-04 1.32509065250470e-05
2.52527272727273e+01 6.31251342086362e-04 1.28802114167518e-05
2.54090909090909e+01 6.11689395027627e-04 1.25196464991051e-05
2.55654545454545e+01 5.92733656247471e-04 1.21689447090591e-05
2.57218181818182e+01 5.74365339790189e-04 1.18278455751943e-05
2.58781818181818e+01 5.56566242004124e-04 1.14960951087396e-05
2.60345454545455e+01 5.39318723280340e-04 1.11734456940248e-05
2.61909090909091e+01 5.22605690584298e-04 1.08596558799035e-05
2.63472727272727e+01 5.06410580707850e-04 1.05544902740439e-05
2.65036363636364e+01 4.90717343657557e-04 1.02577194369731e-05
2.66600000000000e+01 4.75510426760122e-04 9.96911968719550e-06
2.68163636363636e+01 4.60774759420450e-04 9.68847300751749e-06
2.69727272727273e+01 4.46495737958420e-04 9.41556690937031e-06
2.71290909090909e+01 4.32659211355834e-04 9.15019429301950e-06
2.72854545454545e+01 4.19251467068461e-04 8.89215335873666e-06
2.74418181818182e+01 4.06259217445977e-04 8.64124743300472e-06
2.75981818181818e+01 3.93669586705979e-04 8.39728487343613e-06
2.77545454545455e+01 3.81470098027291e-04 8.16007897404460e-06
2.79109090909091e+01 3.69648661193600e-04 7.92944780337979e-06
2.80672727272727e+01 3.58193560738910e-04 7.70521411376261e-06
2.82236363636364e+01 3.47093444206430e-04 7.48720525101384e-06
2.83800000000000e+01 3.36337310905467e-04 7.27525300385127e-06
2.85363636363636e+01 3.25914501123169e-04 7.06919352323003e-06
2.86927272727273e+01 3.15814685409064e-04 6.86886721346655e-06
2.88490909090909e+01 3.06027854484219e-04 6.67411862108997e-06
2.90054545454545e+01 2.96544309212833e-04 6.48479635916306e-06
2.91618181818182e+01 2.87354650996343e-04 6.30075297384352e-06
2.93181818181818e+01 2.78449772553935e-04 6.12184486541021e-06
2.94745454545455e+01 2.69820848799543e-04 5.94793221001892e-06
2.96309090909091e+01 2.61459328101560e-04 5.77887883583956e-06
2.97872727272727e+01 2.53356923892647e-04 5.61455214841457e-06
2.99436363636364e+01 2.45505606370435e-04 5.45482305679129e-06
3.01000000000000e+01 2.37897594544698e-04 5.29956585863460e-06
3.02563636363636e+01 2.30525348602022e-04 5.14865817375111e-06
3.04127272727273e+01 2.23381562332680e-04 5.00198085861668e-06
3.05690909090909e+01 2.16459155987302e-04 4.85941791970540e-06
3.07254545454545e+01 2.09751269187988e-04 4.72085645153321e-06
3.08818181818182e+01 2.03251254133589e-04 4.58618653535818e-06
3.10381818181818e+01 1.96952669074842e-04 4.45530117562132e-06
3.11945454545455e+01 1.90849271865371e-04 4.32809623721223e-06
3.13509090909091e+01 1.84935013779247e-04 4.20447035167768e-06
3.15072727272727e+01 1.79204033573168e-04 4.08432485755228e-06
3.16636363636364e+01 1.73650651619597e-04 3.96756374151101e-06
3.18200000000000e+01 1.68269364281366e-04 3.85409355158032e-06
3.19763636363636e+01 1.63054838508151e-04 3.74382334390372e-06
3.21327272727273e+01 1.58001906483731e-04 3.63666461669441e-06
3.22890909090909e+01 1.53105560569654e-04 3.53253124360569e-06
3.24454545454545e+01 1.48360948293913e-04 3.43133942434025e-06
3.26018181818182e+01 1.43763367544727e-04 3.33300760841282e-06
3.27581818181818e+01 1.39308261953019e-04 3.23745644509938e-06
3.29145454545455e+01 1.34991216333353e-04 3.14460873417036e-06
3.30709090909091e+01 1.30807952310829e-04 3.05438935544411e-06
3.32272727272727e+01 1.26754324119053e-04 2.96672522202562e-06
3.33836363636364e+01 1.22826314452556e-04 2.88154523430525e-06
3.35400000000000e+01 1.19020030487704e-04 2.79878021489350e-06
3.36963636363636e+01 1.15331700058840e-04 2.71836286684201e-06
3.38527272727273e+01 1.11757667874646e-04 2.64022772320870e-06
3.40090909090909e+01 1.08294391939344e-04 2.56431109638501e-06
3.41654545454545e+01 1.04938440009846e-04 2.49055103945931e-06
3.43218181818182e+01 1.01686486196121e-04 2.41888728923264e-06
3.44781818181818e+01 9.85353076936245e-05 2.34926122742542e-06
3.46345454545455e+01 9.54817815601393e-05 2.28161584257068e-06
3.47909090909091e+01 9.25228816224975e-05 2.21589567744184e-06
3.49472727272727e+01 8.96556755030790e-05 2.15204679294008e-06
3.51036363636364e+01 8.68773216875153e-05 2.09001673263675e-06
3.52600000000000e+01 8.41850667101211e-05 2.02975447429008e-06
3.54163636363636e+01 8.15762424480326e-05 1.97121039754051e-06
3.55727272727273e+01 7.90482634465318e-05 1.91433624575052e-06
3.57290909090909e+01 7.65986243861909e-05 1.85908508779144e-06
3.58854545454546e+01 7.42248975780721e-05 1.80541128824073e-06
3.60418181818182e+01 7.19247305590315e-05 1.75327046502287e-06
3.61981818181818e+01 6.96958437795398e-05 1.70261945970122e-06
3.63545454545455e+01 6.75360283248788e-05 1.65341630834196e-06
3.65109090909091e+01 6.54431437271412e-05 1.60562020248551e-06
3.66672727272727e+01 6.34151158611667e-05 1.55919146156843e-06
3.68236363636364e+01 6.14499348713514e-05 1.51409150588621e-06
3.69800000000000e+01 5.95456531807961e-05 1.47028282064448e-06
3.71363636363636e+01 5.77003835766455e-05 1.42772893126268e-06
3.72927272727273e+01 5.59122973192438e-05 1.38639437471219e-06
3.74490909090909e+01 5.41796223496327e-05 1.34624467089282e-06
3.76054545454545e+01 5.25006415185797e-05 1.30724629989166e-06
3.77618181818182e+01 5.08736908856469e-05 1.26936667063813e-06
3.79181818181818e+01 4.92971580831235e-05 1.23257409836582e-06
3.80745454545455e+01 4.77694807048240e-05 1.19683778253651e-06
3.82309090909091e+01 4.62891447584342e-05 1.16212777799101e-06
3.83872727272727e+01 4.48546831767189e-05 1.12841497407331e-06
3.85436363636364e+01 4.34646743516810e-05 1.09567107418909e-06
3.87000000000000e+01 4.21177407263591e-05 1.06386856926036e-06
3.88563636363636e+01 4.08125474400663e-05 1.03298071901359e-06
3.90127272727273e+01 3.95478009916078e-05 1.00298153057984e-06
3.91690909090909e+01 3.83222479707875e-05 9.73845737172533e-07
3.93254545454545e+01 3.71346738062318e-05 9.45548780882473e-07
3.94818181818182e+01 3.59839015622601e-05 9.18066789570891e-07
3.96381818181818e+01 3.48687907812635e-05 8.91376559898835e-07
3.97945454545455e+01 3.37882363444840e-05 8.65455540721969e-07
3.99509090909091e+01 3.27411673773037e-05 8.40281811842845e-07
4.01072727272727e+01 3.17265461958407e-05 8.15834068320361e-07
4.02636363636364e+01 3.07433672704961e-05 7.92091605120797e-07
4.04200000000000e+01 2.97906562298845e-05 7.69034297584004e-07
4.05763636363636e+01 2.88674689022717e-05 7.46642587347676e-07
4.07327272727273e+01 2.79728903704618e-05 7.24897466447921e-07
4.08890909090909e+01 2.71060340741652e-05 7.03780461508739e-07
4.10454545454545e+01 2.62660409246115e-05 6.83273620815168e-07
4.12018181818182e+01 2.54520784535356e-05 6.63359497333926e-07
4.13581818181818e+01 2.46633399941108e-05 6.44021136013216e-07
4.15145454545455e+01 2.38990438754239e-05 6.25242061366785e-07
4.16709090909091e+01 2.31584326481491e-05 6.07006261872859e-07
4.18272727272727e+01 2.24407723392257e-05 5.89298178249413e-07
4.19836363636364e+01 2.17453517189921e-05 5.72102691994152e-07
4.21400000000000e+01 2.10714815966333e-05 5.55405111052631e-07
4.22963636363636e+01 2.04184941419672e-05 5.39191159292435e-07
4.24527272727273e+01 1.97857422172207e-05 5.23446964739184e-07
4.26090909090909e+01 1.91725987418557e-05 5.08159047898240e-07
4.27654545454545e+01 1.85784560665143e-05 4.93314312097453e-07
4.29218181818182e+01 1.80027253710680e-05 4.78900031044694e-07
4.30781818181818e+01 1.74448360851087e-05 4.64903839371890e-07
4.32345454545455e+01 1.69042353183587e-05 4.51313723397399e-07
4.33909090909091e+01 1.63803873129653e-05 4.38118009701243e-07
4.35472727272727e+01 1.58727729161703e-05 4.25305356406326e-07
4.37036363636364e+01 1.53808890620948e-05 4.12864744662409e-07
4.38600000000000e+01 1.49042482733862e-05 4.00785468157580e-07
4.40163636363636e+01 1.44423781813721e-05 3.89057125285828e-07
4.41727272727273e+01 1.39948210535905e-05 3.77669610473426e-07
4.43290909090909e+01 1.35611333443485e-05 3.66613105581315e-07
4.44854545454545e+01 1.31408852520292e-05 3.55878072724775e-07
4.46418181818182e+01 1.27336602933136e-05 3.45455245177359e-07
4.47981818181818e+01 1.23390548931722e-05 3.35335620360578e-07
4.49545454545455e+01 1.19566779820975e-05 3.25510452999723e-07
4.51109090909091e+01 1.15861506086941e-05 3.15971246776678e-07
4.52672727272727e+01 1.12271055665907e-05 3.06709747872960e-07
4.54236363636364e+01 1.08791870279972e-05 2.97717938666730e-07
4.55800000000000e+01 1.05420501912046e-05 2.88988030073970e-07
4.57363636363636e+01 1.02153609410935e-05 2.80512455744499e-07
4.58927272727273e+01 9.89879551506336e-06 2.72283865686227e-07
4.60490909090909e+01 9.59204018502299e-06 2.64295119953547e-07
4.62054545454546e+01 9.29479094434832e-06 2.56539283330214e-07
4.63618181818182e+01 9.00675320671681e-06 2.49009618693506e-07
4.65181818181818e+01 8.72764151602901e-06 2.41699581836043e-07
4.66745454545455e+01 8.45717926159729e-06 2.34602816413029e-07
4.68309090909091e+01 8.19509840411961e-06 2.27713147855876e-07
4.69872727272727e+01 7.94113921172296e-06 2.21024578607116e-07
4.71436363636364e+01 7.69505000083762e-06 2.14531283471330e-07
4.73000000000000e+01 7.45658688686319e-06 2.08227604033466e-07
4.74563636363636e+01 7.22551354398303e-06 2.02108044373316e-07
4.76127272727273e+01 7.00160096894565e-06 1.96167266391167e-07
4.77690909090909e+01 6.78462725605740e-06 1.90400085185869e-07
4.79254545454545e+01 6.57437737581665e-06 1.84801465131071e-07
4.80818181818182e+01 6.37064296189043e-06 1.79366515043082e-07
4.82381818181818e+01 6.17322210588922e-06 1.74090484368054e-07
4.83945454545455e+01 5.98191915596336e-06 1.68968759463263e-07
4.85509090909091e+01 5.79654452297621e-06 1.63996859167106e-07
4.87072727272727e+01 5.61691449376069e-06 1.59170431293235e-07
4.88636363636364e+01 5.44285104787810e-06 1.54485249211590e-07
4.90200000000000e+01 5.27418168125702e-06 1.49937207787530e-07
4.91763636363636e+01 5.11073923626809e-06 1.45522320227243e-07
4.93327272727273e+01 4.95236173469207e-06 1.41236714658660e-07
