Energy (eV)          EEDF (eV^-(3/2))     First Anisotropy
1.06562500000000e-01 3.59656500846329e-02 3.34853254074165e-05
3.19687500000000e-01 3.51977233562191e-02 5.48880051006464e-05
5.32812500000000e-01 3.44461931466765e-02 7.13912861644886e-05
7.45937500000000e-01 3.37107093629260e-02 8.32979910649872e-05
9.59062500000000e-01 3.29909293869625e-02 9.27193093413800e-05
1.17218750000000e+00 3.22865179162484e-02 1.00471781949012e-04
1.38531250000000e+00 3.15971468075155e-02 1.06987081045135e-04
1.59843750000000e+00 3.09224949239028e-02 1.12531252193587e-04
1.81156250000000e+00 3.02622479853581e-02 1.17284230818434e-04
2.02468750000000e+00 2.96160984222331e-02 1.21375602063488e-04
2.23781250000000e+00 2.89837452320057e-02 1.24903027635947e-04
2.45093750000000e+00 2.83648938390607e-02 1.27942686975753e-04
2.66406250000000e+00 2.77592559574644e-02 1.30555625571147e-04
2.87718750000000e+00 2.71665494566695e-02 1.32791831492088e-04
3.09031250000000e+00 2.65864982300874e-02 1.34692970065904e-04
3.30343750000000e+00 2.60188320664665e-02 1.36294285343853e-04
3.51656250000000e+00 2.54632865240170e-02 1.37625962462381e-04
3.72968750000000e+00 2.49196028072231e-02 1.38714128936694e-04
3.94281250000000e+00 2.43875276462859e-02 1.39581606907074e-04
4.15593750000000e+00 2.38668131791396e-02 1.40248489185564e-04
4.36906250000000e+00 2.33572168359880e-02 1.40732587848419e-04
4.58218750000000e+00 2.28585012263053e-02 1.41049788816522e-04
4.79531250000000e+00 2.23704340282500e-02 1.41214335878174e-04
5.00843750000000e+00 2.18927878804403e-02 1.41239060929298e-04
5.22156250000000e+00 2.14253402760397e-02 1.41135572641312e-04
5.43468750000000e+00 2.09678734591045e-02 1.40914412586055e-04
5.64781250000000e+00 2.05201743231443e-02 1.40585185591230e-04
5.86093750000000e+00 2.00820343118484e-02 1.40156669474343e-04
6.07406250000000e+00 1.96532493219316e-02 1.39636908114690e-04
6.28718750000000e+00 1.92336196080553e-02 1.39033290942481e-04
6.50031250000000e+00 1.88229496897773e-02 1.38352621263765e-04
6.71343750000000e+00 1.84210482604897e-02 1.37601175339010e-04
6.92656250000000e+00 1.80277280983003e-02 1.36784753749210e-04
7.13968750000000e+00 1.76428059788171e-02 1.35908726286323e-04
7.35281250000000e+00 1.72661025897951e-02 1.34978071372855e-04
7.56593750000000e+00 1.68974424476052e-02 1.33997410832594e-04
7.77906250000000e+00 1.65366538154874e-02 1.32971040689567e-04
7.99218750000000e+00 1.61835686235481e-02 1.31902958556250e-04
8.20531250000000e+00 1.58380223904670e-02 1.30796888078709e-04
8.41843750000000e+00 1.54998541468748e-02 1.29656300830662e-04
8.63156250000000e+00 1.51689063603670e-02 1.28484435986726e-04
8.84468750000000e+00 1.48450248621196e-02 1.27284318054497e-04
9.05781250000000e+00 1.45280587750703e-02 1.26058772903339e-04
9.27093750000000e+00 1.42178604436342e-02 1.24810442293149e-04
9.48406250000000e+00 1.39142853649200e-02 1.23541797077509e-04
9.69718750000000e+00 1.36171921214145e-02 1.22255149231508e-04
9.91031250000000e+00 1.33264423151048e-02 1.20952662834141e-04
1.01234375000000e+01 1.30419005030067e-02 1.19636364118125e-04
1.03365625000000e+01 1.27634341340703e-02 1.18308150685360e-04
1.05496875000000e+01 1.24909134874319e-02 1.16969799973899e-04
1.07628125000000e+01 1.22242116119850e-02 1.15622977051697e-04
1.09759375000000e+01 1.19632042672414e-02 1.14269241803363e-04
1.11890625000000e+01 1.17077698654551e-02 1.12910055568284e-04
1.14021875000000e+01 1.14577894149812e-02 1.11546787281761e-04
1.16153125000000e+01 1.12131464648459e-02 1.10180719164974e-04
1.18284375000000e+01 1.09737270504976e-02 1.08813052004495e-04
1.20415625000000e+01 1.07394196407189e-02 1.07444910057652e-04
1.22546875000000e+01 1.05101150856699e-02 1.06077345616167e-04
1.24678125000000e+01 1.02857065660424e-02 1.04711343257153e-04
1.26809375000000e+01 1.00660895432986e-02 1.03347823807517e-04
1.28940625000000e+01 9.85116171097345e-03 1.01987648045244e-04
1.31071875000000e+01 9.64082294701588e-03 1.00631620158698e-04
1.33203125000000e+01 9.43497526714779e-03 9.92804909830552e-05
1.35334375000000e+01 9.23352277921923e-03 9.79349610311348e-05
1.37465625000000e+01 9.03637163853786e-03 9.65956833343019e-05
1.39596875000000e+01 8.84343000415233e-03 9.52632661076857e-05
1.41728125000000e+01 8.65460799606909e-03 9.39382752526581e-05
1.43859375000000e+01 8.46981765338263e-03 9.26212367083728e-05
1.45990625000000e+01 8.28897289329975e-03 9.13126386631422e-05
1.48121875000000e+01 8.11198947103876e-03 9.00129336355107e-05
1.50253125000000e+01 7.93878494058481e-03 8.87225404340328e-05
1.52384375000000e+01 7.76927861628322e-03 8.74418460040364e-05
1.54515625000000e+01 7.60339153525291e-03 8.61712071689754e-05
1.56646875000000e+01 7.44104642060220e-03 8.49109522733488e-05
1.58778125000000e+01 7.28216764543024e-03 8.36613827336274e-05
1.60909375000000e+01 7.12668119759683e-03 8.24227745031231e-05
1.63040625000000e+01 6.97451464524469e-03 8.11953794562659e-05
1.65171875000000e+01 6.82559710305769e-03 7.99794266973747e-05
1.67303125000000e+01 6.67985919923967e-03 7.87751237985912e-05
1.69434375000000e+01 6.53723304319823e-03 7.75826579713172e-05
1.71565625000000e+01 6.39765219391857e-03 7.64021971751922e-05
1.73696875000000e+01 6.26105162901256e-03 7.52338911683504e-05
1.75828125000000e+01 6.12736771442875e-03 7.40778725024265e-05
1.77959375000000e+01 5.99653817480897e-03 7.29342574655481e-05
1.80090625000000e+01 5.86850206447807e-03 7.18031469763264e-05
1.82221875000000e+01 5.74319973905285e-03 7.06846274316510e-05
1.84353125000000e+01 5.62057282765738e-03 6.95787715109123e-05
1.86484375000000e+01 5.50056420573148e-03 6.84856389390988e-05
1.88615625000000e+01 5.38311796841978e-03 6.74052772110551e-05
1.90746875000000e+01 5.26817940452899e-03 6.63377222790388e-05
1.92878125000000e+01 5.15569497104120e-03 6.52829992055831e-05
1.95009375000000e+01 5.04561226817142e-03 6.42411227835418e-05
1.97140625000000e+01 4.93788001495765e-03 6.32120981250768e-05
1.99271875000000e+01 4.83244802537208e-03 6.21959212212437e-05
2.01403125000000e+01 4.72926718494248e-03 6.11925794737175e-05
2.03534375000000e+01 4.62828942787268e-03 6.02020522001320e-05
2.05665625000000e+01 4.52946771465155e-03 5.92243111143908e-05
2.07796875000000e+01 4.43275601014016e-03 5.82593207832465e-05
2.09928125000000e+01 4.33810926212668e-03 5.73070390603675e-05
2.12059375000000e+01 4.24548338033933e-03 5.63674174990284e-05
2.14190625000000e+01 4.15483521590728e-03 5.54404017445076e-05
2.16321875000000e+01 4.06612254126019e-03 5.45259319072153e-05
2.18453125000000e+01 3.97930403045694e-03 5.36239429175108e-05
2.20584375000000e+01 3.89433923993427e-03 5.27343648631114e-05
2.22715625000000e+01 3.81118858966661e-03 5.18571233099577e-05
2.24846875000000e+01 3.72981334472806e-03 5.09921396073435e-05
2.26978125000000e+01 3.65017559724811e-03 5.01393311780810e-05
2.29109375000000e+01 3.57223824875264e-03 4.92986117944252e-05
2.31240625000000e+01 3.49596499288195e-03 4.84698918404393e-05
2.33371875000000e+01 3.42132029847776e-03 4.76530785614620e-05
2.35503125000000e+01 3.34826939303143e-03 4.68480763012921e-05
2.37634375000000e+01 3.27677824648546e-03 4.60547867276671e-05
2.39765625000000e+01 3.20681355538094e-03 4.52731090466011e-05
2.41896875000000e+01 3.13834272734348e-03 4.45029402061023e-05
2.44028125000000e+01 3.07133386590033e-03 4.37441750897738e-05
2.46159375000000e+01 3.00575575562173e-03 4.29967067007669e-05
2.48290625000000e+01 2.94157784757951e-03 4.22604263365433e-05
2.50421875000000e+01 2.87877024511617e-03 4.15352237548744e-05
2.52553125000000e+01 2.81730368991779e-03 4.08209873314785e-05
2.54684375000000e+01 2.75714954838438e-03 4.01176042096921e-05
2.56815625000000e+01 2.69827979829111e-03 3.94249604425363e-05
2.58946875000000e+01 2.64066701573450e-03 3.87429411275337e-05
2.61078125000000e+01 2.58428436235724e-03 3.80714305346053e-05
2.63209375000000e+01 2.52910557284578e-03 3.74103122273683e-05
2.65340625000000e+01 2.47510494269492e-03 3.67594691781377e-05
2.67471875000000e+01 2.42225731623358e-03 3.61187838769154e-05
2.69603125000000e+01 2.37053807490631e-03 3.54881384346459e-05
2.71734375000000e+01 2.31992312580495e-03 3.48674146809969e-05
2.73865625000000e+01 2.27038889044519e-03 3.42564942569191e-05
2.75996875000000e+01 2.22191229378276e-03 3.36552587022173e-05
2.78128125000000e+01 2.17447075346413e-03 3.30635895383627e-05
2.80259375000000e+01 2.12804216930679e-03 3.24813683467617e-05
2.82390625000000e+01 2.08260491300401e-03 3.19084768426897e-05
2.84521875000000e+01 2.03813781804958e-03 3.13447969450852e-05
2.86653125000000e+01 1.99462016987757e-03 3.07902108423932e-05
2.88784375000000e+01 1.95203169621262e-03 3.02446010546355e-05
2.90915625000000e+01 1.91035255762636e-03 2.97078504918821e-05
2.93046875000000e+01 1.86956333829533e-03 2.91798425092869e-05
2.95178125000000e+01 1.82964503695637e-03 2.86604609588424e-05
2.97309375000000e+01 1.79057905805504e-03 2.81495902380047e-05
2.99440625000000e+01 1.75234720308304e-03 2.76471153353316e-05
3.01571875000000e+01 1.71493166210066e-03 2.71529218732690e-05
3.03703125000000e+01 1.67831500544014e-03 2.66668961482169e-05
3.05834375000000e+01 1.64248017558627e-03 2.61889251680004e-05
3.07965625000000e+01 1.60741047923027e-03 2.57188966868625e-05
3.10096875000000e+01 1.57308957949343e-03 2.52566992380967e-05
3.12228125000000e+01 1.53950148831667e-03 2.48022221644248e-05
3.14359375000000e+01 1.50663055901270e-03 2.43553556462251e-05
3.16490625000000e+01 1.47446147897716e-03 2.39159907277122e-05
3.18621875000000e+01 1.44297926255535e-03 2.34840193411615e-05
3.20753125000000e+01 1.41216924406137e-03 2.30593343292714e-05
3.22884375000000e+01 1.38201707094620e-03 2.26418294657503e-05
3.25015625000000e+01 1.35250869711175e-03 2.22313994742111e-05
3.27146875000000e+01 1.32363037636756e-03 2.18279400454531e-05
3.29278125000000e+01 1.29536865602734e-03 2.14313478532092e-05
3.31409375000000e+01 1.26771037064211e-03 2.10415205684295e-05
3.33540625000000e+01 1.24064263586723e-03 2.06583568721723e-05
3.35671875000000e+01 1.21415284246036e-03 2.02817564671724e-05
3.37803125000000e+01 1.18822865040754e-03 1.99116200881439e-05
3.39934375000000e+01 1.16285798317473e-03 1.95478495108854e-05
3.42065625000000e+01 1.13802902208208e-03 1.91903475602437e-05
3.44196875000000e+01 1.11373020079830e-03 1.88390181169924e-05
3.46328125000000e+01 1.08995019995259e-03 1.84937661236799e-05
3.48459375000000e+01 1.06667794186165e-03 1.81544975894971e-05
3.50590625000000e+01 1.04390258536922e-03 1.78211195942141e-05
3.52721875000000e+01 1.02161352079585e-03 1.74935402912358e-05
3.54853125000000e+01 9.99800364996449e-04 1.71716689098176e-05
3.56984375000000e+01 9.78452956523454e-04 1.68554157564871e-05
3.59115625000000e+01 9.57561350893174e-04 1.65446922157130e-05
3.61246875000000e+01 9.37115815953265e-04 1.62394107498603e-05
3.63378125000000e+01 9.17106827349096e-04 1.59394848984683e-05
3.65509375000000e+01 8.97525064086925e-04 1.56448292768901e-05
3.67640625000000e+01 8.78361404191800e-04 1.53553595743280e-05
3.69771875000000e+01 8.59606920458178e-04 1.50709925512963e-05
3.71903125000000e+01 8.41252876291272e-04 1.47916460365433e-05
3.74034375000000e+01 8.23290721637193e-04 1.45172389234668e-05
3.76165625000000e+01 8.05712088999989e-04 1.42476911660469e-05
3.78296875000000e+01 7.88508789543729e-04 1.39829237743263e-05
3.80428125000000e+01 7.71672809277812e-04 1.37228588094665e-05
3.82559375000000e+01 7.55196305323731e-04 1.34674193784023e-05
3.84690625000000e+01 7.39071602261537e-04 1.32165296281202e-05
3.86821875000000e+01 7.23291188554324e-04 1.29701147395844e-05
3.88953125000000e+01 7.07847713049051e-04 1.27281009213326e-05
3.91084375000000e+01 6.92733981552077e-04 1.24904154027611e-05
3.93215625000000e+01 6.77942953477820e-04 1.22569864271240e-05
3.95346875000000e+01 6.63467738568961e-04 1.20277432442596e-05
3.97478125000000e+01 6.49301593686693e-04 1.18026161030681e-05
3.99609375000000e+01 6.35437919669486e-04 1.15815362437556e-05
4.01740625000000e+01 6.21870258258939e-04 1.13644358898609e-05
4.03871875000000e+01 6.08592289091258e-04 1.11512482400847e-05
4.06003125000000e+01 5.95597826752978e-04 1.09419074599322e-05
4.08134375000000e+01 5.82880817899547e-04 1.07363486731863e-05
4.10265625000000e+01 5.70435338435436e-04 1.05345079532262e-05
4.12396875000000e+01 5.58255590754453e-04 1.03363223142025e-05
4.14528125000000e+01 5.46335901038987e-04 1.01417297020843e-05
4.16659375000000e+01 5.34670716616913e-04 9.95066898558718e-06
4.18790625000000e+01 5.23254603374936e-04 9.76307994699733e-06
4.20921875000000e+01 5.12082243227160e-04 9.57890327290116e-06
4.23053125000000e+01 5.01148431637707e-04 9.39808054482996e-06
4.25184375000000e+01 4.90448075196241e-04 9.22055422983194e-06
4.27315625000000e+01 4.79976189245245e-04 9.04626767097992e-06
4.29446875000000e+01 4.69727895557969e-04 8.87516507782370e-06
4.31578125000000e+01 4.59698420065959e-04 8.70719151679682e-06
4.33709375000000e+01 4.49883090635096e-04 8.54229290158456e-06
4.35840625000000e+01 4.40277334889134e-04 8.38041598346228e-06
4.37971875000000e+01 4.30876678079699e-04 8.22150834161105e-06
4.40103125000000e+01 4.21676741001775e-04 8.06551837341801e-06
4.42234375000000e+01 4.12673237953686e-04 7.91239528476749e-06
4.44365625000000e+01 4.03861974740653e-04 7.76208908032999e-06
4.46496875000000e+01 3.95238846720962e-04 7.61455055385498e-06
4.48628125000000e+01 3.86799836893858e-04 7.46973127847312e-06
4.50759375000000e+01 3.78541014028266e-04 7.32758359701310e-06
4.52890625000000e+01 3.70458530831461e-04 7.18806061233856e-06
4.55021875000000e+01 3.62548622156851e-04 7.05111617771046e-06
4.57153125000000e+01 3.54807603250010e-04 6.91670488717869e-06
4.59284375000000e+01 3.47231868032181e-04 6.78478206600727e-06
4.61415625000000e+01 3.39817887420411e-04 6.65530376113816e-06
4.63546875000000e+01 3.32562207683568e-04 6.52822673169685e-06
4.65678125000000e+01 3.25461448833447e-04 6.40350843954313e-06
4.67809375000000e+01 3.18512303050244e-04 6.28110703987148e-06
4.69940625000000e+01 3.11711533141632e-04 6.16098137186324e-06
4.72071875000000e+01 3.05055971034749e-04 6.04309094939396e-06
4.74203125000000e+01 2.98542516300385e-04 5.92739595179965e-06
4.76334375000000e+01 2.92168134708674e-04 5.81385721470294e-06
4.78465625000000e+01 2.85929856815625e-04 5.70243622090281e-06
4.80596875000000e+01 2.79824776579843e-04 5.59309509133037e-06
4.82728125000000e+01 2.73850050008768e-04 5.48579657607198e-06
4.84859375000000e+01 2.68002893833837e-04 5.38050404546190e-06
4.86990625000000e+01 2.62280584213921e-04 5.27718148124714e-06
4.89121875000000e+01 2.56680455466448e-04 5.17579346782569e-06
4.91253125000000e+01 2.51199898825627e-04 5.07630518355939e-06
4.93384375000000e+01 2.45836361227174e-04 4.97868239216366e-06
4.95515625000000e+01 2.40587344118994e-04 4.88289143417463e-06
4.97646875000000e+01 2.35450402297254e-04 4.78889921849541e-06
4.99778125000000e+01 2.30423142767309e-04 4.69667321402288e-06
5.01909375000000e+01 2.25503223628950e-04 4.60618144135560e-06
5.04040625000000e+01 2.20688352985448e-04 4.51739246458344e-06
5.06171875000000e+01 2.15976287875900e-04 4.43027538316044e-06
5.08303125000000e+01 2.11364833230368e-04 4.34479982386144e-06
5.10434375000000e+01 2.06851840847323e-04 4.26093593282285e-06
5.12565625000000e+01 2.02435208392928e-04 4.17865436766833e-06
5.14696875000000e+01 1.98112878421690e-04 4.09792628971980e-06
5.16828125000000e+01 1.93882837418011e-04 4.01872335629428e-06
5.18959375000000e+01 1.89743114858217e-04 3.94101771308676e-06
5.21090625000000e+01 1.85691782292610e-04 3.86478198663942e-06
5.23221875000000e+01 1.81726952447111e-04 3.78998927689762e-06
5.25353125000000e+01 1.77846778344099e-04 3.71661314985230e-06
5.27484375000000e+01 1.74049452442012e-04 3.64462763026914e-06
5.29615625000000e+01 1.70333205793318e-04 3.57400719450471e-06
5.31746875000000e+01 1.66696307220474e-04 3.50472676340924e-06
5.33878125000000e+01 1.63137062509469e-04 3.43676169531625e-06
5.36009375000000e+01 1.59653813620590e-04 3.37008777911843e-06
5.38140625000000e+01 1.56244937916047e-04 3.30468122743020e-06
5.40271875000000e+01 1.52908847404074e-04 3.24051866983623e-06
5.42403125000000e+01 1.49643987999186e-04 3.17757714622589e-06
5.44534375000000e+01 1.46448838798218e-04 3.11583410021337e-06
5.46665625000000e+01 1.43321911371829e-04 3.05526737264297e-06
5.48796875000000e+01 1.40261749071132e-04 2.99585519517944e-06
5.50928125000000e+01 1.37266926349129e-04 2.93757618398262e-06
5.53059375000000e+01 1.34336048096632e-04 2.88040933346635e-06
5.55190625000000e+01 1.31467748992364e-04 2.82433401014076e-06
5.57321875000000e+01 1.28660692866939e-04 2.76932994653796e-06
5.59453125000000e+01 1.25913572080422e-04 2.71537723522012e-06
5.61584375000000e+01 1.23225106913175e-04 2.66245632286969e-06
5.63715625000000e+01 1.20594044969711e-04 2.61054800446133e-06
5.65846875000000e+01 1.18019160595281e-04 2.55963341751437e-06
5.67978125000000e+01 1.15499254304912e-04 2.50969403642604e-06
5.70109375000000e+01 1.13033152224642e-04 2.46071166688421e-06
5.72240625000000e+01 1.10619705544676e-04 2.41266844035927e-06
5.74371875000000e+01 1.08257789984230e-04 2.36554680867444e-06
5.76503125000000e+01 1.05946305267794e-04 2.31932953865398e-06
5.78634375000000e+01 1.03684174612577e-04 2.27399970684841e-06
5.80765625000000e+01 1.01470344226900e-04 2.22954069433610e-06
5.82896875000000e+01 9.93037828192994e-05 2.18593618160076e-06
5.85028125000000e+01 9.71834811181049e-05 2.14317014348384e-06
5.87159375000000e+01 9.51084514012845e-05 2.10122684421126e-06
5.89290625000000e+01 9.30777270363218e-05 2.06009083249367e-06
5.91421875000000e+01 9.10903620299197e-05 2.01974693669974e-06
5.93553125000000e+01 8.91454305873189e-05 1.98018026010124e-06
5.95684375000000e+01 8.72420266810250e-05 1.94137617618967e-06
5.97815625000000e+01 8.53792636287450e-05 1.90332032406363e-06
5.99946875000000e+01 8.35562736803341e-05 1.86599860388566e-06
6.02078125000000e+01 8.17722076135633e-05 1.82939717240854e-06
6.04209375000000e+01 8.00262343385174e-05 1.79350243856969e-06
6.06340625000000e+01 7.83175405104392e-05 1.75830105915321e-06
6.08471875000000e+01 7.66453301508417e-05 1.72377993451868e-06
6.10603125000000e+01 7.50088242767084e-05 1.68992620439605e-06
6.12734375000000e+01 7.34072605376119e-05 1.65672724374571e-06
6.14865625000000e+01 7.18398928605804e-05 1.62417065868309e-06
6.16996875000000e+01 7.03059911025468e-05 1.59224428246684e-06
6.19128125000000e+01 6.88048407102183e-05 1.56093617155011e-06
6.21259375000000e+01 6.73357423872092e-05 1.53023460169398e-06
6.23390625000000e+01 6.58980117682801e-05 1.50012806414225e-06
6.25521875000000e+01 6.44909791005330e-05 1.47060526185683e-06
6.27653125000000e+01 6.31139889314134e-05 1.44165510581304e-06
6.29784375000000e+01 6.17663998033742e-05 1.41326671135406e-06
6.31915625000000e+01 6.04475839550588e-05 1.38542939460369e-06
6.34046875000000e+01 5.91569270288646e-05 1.35813266893674e-06
6.36178125000000e+01 5.78938277847504e-05 1.33136624150621e-06
6.38309375000000e+01 5.66576978201544e-05 1.30512000982659e-06
6.40440625000000e+01 5.54479612958929e-05 1.27938405841255e-06
6.42571875000000e+01 5.42640546679110e-05 1.25414865547215e-06
6.44703125000000e+01 5.31054264247609e-05 1.22940424965404e-06
6.46834375000000e+01 5.19715368306860e-05 1.20514146684776e-06
6.48965625000000e+01 5.08618576741899e-05 1.18135110703635e-06
6.51096875000000e+01 4.97758720219743e-05 1.15802414120082e-06
6.53228125000000e+01 4.87130739781305e-05 1.13515170827550e-06
6.55359375000000e+01 4.76729684484732e-05 1.11272511215368e-06
6.57490625000000e+01 4.66550709099049e-05 1.09073581874283e-06
6.59621875000000e+01 4.56589071847059e-05 1.06917545306862e-06
6.61753125000000e+01 4.46840132196434e-05 1.04803579642711e-06
6.63884375000000e+01 4.37299348697963e-05 1.02730878358454e-06
6.66015625000000e+01 4.27962276869967e-05 1.00698650002376e-06
6.68146875000000e+01 4.18824567127875e-05 9.87061179236847e-07
6.70278125000000e+01 4.09881962758017e-05 9.67525200063170e-07
6.72409375000000e+01 4.01130297934671e-05 9.48371084072198e-07
