Energy (eV)          EEDF (eV^-(3/2))     First Anisotropy
1.01010101010101e-03 6.15161587530245e-01 2.52874620065460e-08
3.03030303030303e-03 6.15161570916805e-01 7.48016595371613e-08
5.05050505050505e-03 6.15161530732582e-01 1.80604339616593e-07
7.07070707070707e-03 6.15161464609502e-01 3.17004986451146e-07
9.09090909090909e-03 6.15161372913003e-01 4.71755816060071e-07
1.11111111111111e-02 6.15161257336649e-01 6.44109586946033e-07
1.31313131313131e-02 6.15161116754924e-01 8.36759651046983e-07
1.51515151515152e-02 6.15160951008173e-01 1.03993352921501e-06
1.71717171717172e-02 6.15160762077287e-01 1.24399626251394e-06
1.91919191919192e-02 6.15160552187898e-01 1.44744844184830e-06
2.12121212121212e-02 6.15160322822998e-01 1.65100683078673e-06
2.32323232323232e-02 6.15160075279221e-01 1.85809254938135e-06
2.52525252525253e-02 6.15159809600760e-01 2.07207447425209e-06
2.72727272727273e-02 6.15159525930312e-01 2.29198796920655e-06
2.92929292929293e-02 6.15159224461662e-01 2.51608898222282e-06
3.13131313131313e-02 6.15158905669682e-01 2.73829115195040e-06
3.33333333333333e-02 6.15158571098851e-01 2.96104653046901e-06
3.53535353535354e-02 6.15158220428967e-01 3.19164123583511e-06
3.73737373737374e-02 6.15157853407819e-01 3.42956343773192e-06
3.93939393939394e-02 6.15157469841351e-01 3.67501967872830e-06
4.14141414141414e-02 6.15157069434868e-01 3.93084757376421e-06
4.34343434343434e-02 6.15156651401755e-01 4.19780695792375e-06
4.54545454545455e-02 6.15156215338407e-01 4.47408468797598e-06
4.74747474747475e-02 6.15155760875332e-01 4.75945637349940e-06
4.94949494949495e-02 6.15155287673142e-01 5.05097066224324e-06
5.15151515151515e-02 6.15154795951433e-01 5.33988042051616e-06
5.35353535353535e-02 6.15154287024466e-01 5.62868129758526e-06
5.55555555555556e-02 6.15153760542451e-01 5.92592729319541e-06
5.75757575757576e-02 6.15153216174594e-01 6.23151066235376e-06
5.95959595959596e-02 6.15152653606900e-01 6.54537027655540e-06
6.16161616161616e-02 6.15152072533414e-01 6.86766935871226e-06
6.36363636363636e-02 6.15151472624599e-01 7.19883285370478e-06
6.56565656565657e-02 6.15150853514766e-01 7.53909523409586e-06
6.76767676767677e-02 6.15150214849306e-01 7.88841863474590e-06
6.96969696969697e-02 6.15149556283543e-01 8.24102964487997e-06
7.17171717171717e-02 6.15148878436276e-01 8.58566484671053e-06
7.37373737373737e-02 6.15148182788478e-01 8.92740588925801e-06
7.57575757575758e-02 6.15147469045282e-01 9.27695523042460e-06
7.77777777777778e-02 6.15146736919590e-01 9.63428553903188e-06
7.97979797979798e-02 6.15145986131715e-01 9.99939237287145e-06
8.18181818181818e-02 6.15145216405337e-01 1.03723851015482e-05
8.38383838383838e-02 6.15144427453760e-01 1.07534574267434e-05
8.58585858585859e-02 6.15143618980941e-01 1.11426659379300e-05
8.78787878787879e-02 6.15142790701165e-01 1.15399271160110e-05
8.98989898989899e-02 6.15141942339614e-01 1.19451707206958e-05
9.19191919191919e-02 6.15141073628868e-01 1.23584294296709e-05
9.39393939393939e-02 6.15140184296852e-01 1.27798232351121e-05
9.59595959595960e-02 6.15139274066079e-01 1.32094118076159e-05
9.79797979797980e-02 6.15138342662994e-01 1.36472070366450e-05
1.00000000000000e-01 6.15137389815244e-01 1.40828467547892e-05
1.02020202020202e-01 6.15136416723750e-01 1.45049002928523e-05
1.04040404040404e-01 6.15135424688645e-01 1.49222727071263e-05
1.06060606060606e-01 6.15134413596854e-01 1.53449311873323e-05
1.08080808080808e-01 6.15133383334270e-01 1.57728916569281e-05
1.10101010101010e-01 6.15132333785546e-01 1.62061718297438e-05
1.12121212121212e-01 6.15131264834161e-01 1.66447891586736e-05
1.14141414141414e-01 6.15130176362480e-01 1.70887608719138e-05
1.16161616161616e-01 6.15129068251810e-01 1.75381039974231e-05
1.18181818181818e-01 6.15127940382448e-01 1.79928353812257e-05
1.20202020202020e-01 6.15126792633727e-01 1.84529717171914e-05
1.22222222222222e-01 6.15125624884055e-01 1.89185295723539e-05
1.24242424242424e-01 6.15124437010953e-01 1.93895253881531e-05
1.26262626262626e-01 6.15123228891090e-01 1.98659755047827e-05
1.28282828282828e-01 6.15122000400309e-01 2.03478961867360e-05
1.30303030303030e-01 6.15120751413662e-01 2.08353036308881e-05
1.32323232323232e-01 6.15119481805425e-01 2.13282139753430e-05
1.34343434343434e-01 6.15118191449129e-01 2.18266433069862e-05
1.36363636363636e-01 6.15116880217580e-01 2.23306076730975e-05
1.38383838383838e-01 6.15115547982873e-01 2.28401231017472e-05
1.40404040404040e-01 6.15114194616416e-01 2.33552055941325e-05
1.42424242424242e-01 6.15112819988939e-01 2.38758711428618e-05
1.44444444444444e-01 6.15111423970514e-01 2.44021357329743e-05
1.46464646464646e-01 6.15110006430567e-01 2.49340153441461e-05
1.48484848484848e-01 6.15108567237886e-01 2.54715259589148e-05
1.50505050505051e-01 6.15107106260640e-01 2.60146835898438e-05
1.52525252525253e-01 6.15105623366378e-01 2.65635042562508e-05
1.54545454545455e-01 6.15104118422048e-01 2.71180039757690e-05
1.56565656565657e-01 6.15102591294000e-01 2.76781988113032e-05
1.58585858585859e-01 6.15101041847997e-01 2.82441048379659e-05
1.60606060606061e-01 6.15099469949216e-01 2.88157381620053e-05
1.62626262626263e-01 6.15097875462262e-01 2.93931149247205e-05
1.64646464646465e-01 6.15096258251168e-01 2.99762512896697e-05
1.66666666666667e-01 6.15094618179401e-01 3.05651634587105e-05
1.68686868686869e-01 6.15092955109871e-01 3.11598676637445e-05
1.70707070707071e-01 6.15091268904930e-01 3.17603798449439e-05
1.72727272727273e-01 6.15089559426415e-01 3.23667148750213e-05
1.74747474747475e-01 6.15087826535731e-01 3.29788853223622e-05
1.76767676767677e-01 6.15086070094020e-01 3.35968990813665e-05
1.78787878787879e-01 6.15084289962489e-01 3.42207551610200e-05
1.80808080808081e-01 6.15082486003008e-01 3.48504374467477e-05
1.82828282828283e-01 6.15080658079068e-01 3.54859070380836e-05
1.84848484848485e-01 6.15078806057137e-01 3.61270952277456e-05
1.86868686868687e-01 6.15076929808294e-01 3.67739005732599e-05
1.88888888888889e-01 6.15075029209808e-01 3.74261936676006e-05
1.90909090909091e-01 6.15073104146207e-01 3.80838313804410e-05
1.92929292929293e-01 6.15071154509339e-01 3.87466780083782e-05
1.94949494949495e-01 6.15069180197265e-01 3.94146259105946e-05
1.96969696969697e-01 6.15067181112262e-01 4.00876070539601e-05
1.98989898989899e-01 6.15065157158633e-01 4.07655902839298e-05
2.01010101010101e-01 6.15063108241097e-01 4.14047616458446e-05
2.03030303030303e-01 6.15061038909199e-01 4.20039977743722e-05
2.05050505050505e-01 6.15058949133942e-01 4.26061247378588e-05
2.07070707070707e-01 6.15056838901152e-01 4.32109784392703e-05
2.09090909090909e-01 6.15054708196591e-01 4.38185447764806e-05
2.11111111111111e-01 6.15052557005947e-01 4.44288100291067e-05
2.13131313131313e-01 6.15050385314826e-01 4.50417608458557e-05
2.15151515151515e-01 6.15048193108745e-01 4.56573842351185e-05
2.17171717171717e-01 6.15045980373126e-01 4.62756675612237e-05
2.19191919191919e-01 6.15043747093289e-01 4.68965985291147e-05
2.21212121212121e-01 6.15041493254443e-01 4.75201651664350e-05
2.23232323232323e-01 6.15039218841683e-01 4.81463558251854e-05
2.25252525252525e-01 6.15036923839986e-01 4.87751591753293e-05
2.27272727272727e-01 6.15034608234200e-01 4.94065641971850e-05
2.29292929292929e-01 6.15032272009046e-01 5.00405601571841e-05
2.31313131313131e-01 6.15029915149107e-01 5.06771366200204e-05
2.33333333333333e-01 6.15027537638827e-01 5.13162834397363e-05
2.35353535353535e-01 6.15025139462506e-01 5.19579907339513e-05
2.37373737373737e-01 6.15022720604298e-01 5.26022488984896e-05
2.39393939393939e-01 6.15020281048202e-01 5.32490485959175e-05
2.41414141414141e-01 6.15017820778065e-01 5.38983807403010e-05
2.43434343434343e-01 6.15015339777573e-01 5.45502365096950e-05
2.45454545454545e-01 6.15012838030248e-01 5.52046073273018e-05
2.47474747474747e-01 6.15010315519452e-01 5.58614848435491e-05
2.49494949494949e-01 6.15007772228373e-01 5.65208609498357e-05
2.51515151515152e-01 6.15005208140033e-01 5.71827277667922e-05
2.53535353535354e-01 6.15002623237278e-01 5.78470776410544e-05
2.55555555555556e-01 6.15000017502778e-01 5.85139031383485e-05
2.57575757575758e-01 6.14997390919027e-01 5.91831970340399e-05
2.59595959595960e-01 6.14994743468337e-01 5.98549523210897e-05
2.61616161616162e-01 6.14992075132837e-01 6.05291621982019e-05
2.63636363636364e-01 6.14989385894473e-01 6.12058200641164e-05
2.65656565656566e-01 6.14986675735002e-01 6.18849195093546e-05
2.67676767676768e-01 6.14983944635995e-01 6.25664543206012e-05
2.69696969696970e-01 6.14981192578832e-01 6.32504184172505e-05
2.71717171717172e-01 6.14978419544708e-01 6.39368056696618e-05
2.73737373737374e-01 6.14975625514643e-01 6.46256095792483e-05
2.75757575757576e-01 6.14972810469517e-01 6.53168226971917e-05
2.77777777777778e-01 6.14969974390131e-01 6.60104355387249e-05
2.79797979797980e-01 6.14967117257332e-01 6.67064348825761e-05
2.81818181818182e-01 6.14964239052219e-01 6.74048015033609e-05
2.83838383838384e-01 6.14961339756460e-01 6.81055076929233e-05
2.85858585858586e-01 6.14958419352699e-01 6.88085155447597e-05
2.87878787878788e-01 6.14955477825010e-01 6.95137773609727e-05
2.89898989898990e-01 6.14952515159259e-01 7.02212389468814e-05
2.91919191919192e-01 6.14949531343254e-01 7.09308455533187e-05
2.93939393939394e-01 6.14946526366601e-01 7.16425489566140e-05
2.95959595959596e-01 6.14943500220248e-01 7.23563129218883e-05
2.97979797979798e-01 6.14940452895894e-01 7.30721144921465e-05
3.00000000000000e-01 6.14937384385444e-01 7.37817421140125e-05
3.02020202020202e-01 6.14934295491524e-01 7.44934405419684e-05
3.04040404040404e-01 6.14931185644616e-01 7.52481016917265e-05
3.06060606060606e-01 6.14928052132040e-01 7.60691698637459e-05
3.08080808080808e-01 6.14924892346687e-01 7.69546685218421e-05
3.10101010101010e-01 6.14921703783550e-01 7.79026701181825e-05
3.12121212121212e-01 6.14918484036401e-01 7.89112944387216e-05
3.14141414141414e-01 6.14915230794581e-01 7.99787072658921e-05
3.16161616161616e-01 6.14911941839909e-01 8.11031191036129e-05
3.18181818181818e-01 6.14908615043696e-01 8.22827839875327e-05
3.20202020202020e-01 6.14905248363861e-01 8.35159982806021e-05
3.22222222222222e-01 6.14901839842151e-01 8.48010995081522e-05
3.24242424242424e-01 6.14898387601453e-01 8.61364652560936e-05
3.26262626262626e-01 6.14894889843204e-01 8.75205120748295e-05
3.28282828282828e-01 6.14891344844881e-01 8.89516944490831e-05
3.30303030303030e-01 6.14887750957584e-01 9.04285037854499e-05
3.32323232323232e-01 6.14884106603700e-01 9.19494674170178e-05
3.34343434343434e-01 6.14880410274638e-01 9.35131476591516e-05
3.36363636363636e-01 6.14876660528656e-01 9.51181408840631e-05
3.38383838383838e-01 6.14872855988743e-01 9.67630766118475e-05
3.40404040404040e-01 6.14868995340585e-01 9.84466166534854e-05
3.42424242424242e-01 6.14865077330592e-01 1.00167454265883e-04
3.44444444444444e-01 6.14861100763994e-01 1.01924313324738e-04
3.46464646464646e-01 6.14857064502997e-01 1.03715947529553e-04
3.48484848484849e-01 6.14852967465002e-01 1.05541139632647e-04
3.50505050505050e-01 6.14848808620882e-01 1.07398700690893e-04
3.52525252525253e-01 6.14844586993315e-01 1.09287469330253e-04
3.54545454545455e-01 6.14840301655171e-01 1.11206311044408e-04
3.56565656565657e-01 6.14835951727954e-01 1.13154117510425e-04
3.58585858585859e-01 6.14831536380290e-01 1.15129805902593e-04
3.60606060606061e-01 6.14827054826467e-01 1.17132318254269e-04
3.62626262626263e-01 6.14822506325027e-01 1.19160620821771e-04
3.64646464646465e-01 6.14817890177391e-01 1.21213703474329e-04
3.66666666666667e-01 6.14813205726537e-01 1.23290579108410e-04
3.68686868686869e-01 6.14808452355723e-01 1.25390283039853e-04
3.70707070707071e-01 6.14803629487239e-01 1.27511872399145e-04
3.72727272727273e-01 6.14798736581217e-01 1.29654425471953e-04
3.74747474747475e-01 6.14793773134472e-01 1.31817040964022e-04
3.76767676767677e-01 6.14788738679398e-01 1.33998837079986e-04
3.78787878787879e-01 6.14783632782913e-01 1.36198950318208e-04
3.80808080808081e-01 6.14778455045479e-01 1.38416533974115e-04
3.82828282828283e-01 6.14773205100191e-01 1.40650756417260e-04
3.84848484848485e-01 6.14767882611950e-01 1.42900799567683e-04
3.86868686868687e-01 6.14762487276697e-01 1.45165858091304e-04
3.88888888888889e-01 6.14757018820667e-01 1.47445139650613e-04
3.90909090909091e-01 6.14751476999624e-01 1.49737866854773e-04
3.92929292929293e-01 6.14745861597987e-01 1.52043280793524e-04
3.94949494949495e-01 6.14740172427818e-01 1.54360644041575e-04
3.96969696969697e-01 6.14734409327750e-01 1.56689242034403e-04
3.98989898989899e-01 6.14728572161902e-01 1.59028381836157e-04
4.01010101010101e-01 6.14722660818929e-01 1.61324741792345e-04
4.03030303030303e-01 6.14716679698367e-01 1.63615112549791e-04
4.05050505050505e-01 6.14710625981992e-01 1.65988353212824e-04
4.07070707070707e-01 6.14704496941261e-01 1.68442235457768e-04
4.09090909090909e-01 6.14698289954827e-01 1.70974309357224e-04
4.11111111111111e-01 6.14692002505301e-01 1.73582184910870e-04
4.13131313131313e-01 6.14685632176103e-01 1.76263530677954e-04
4.15151515151515e-01 6.14679176648410e-01 1.79016072413737e-04
4.17171717171717e-01 6.14672633698190e-01 1.81837591758715e-04
4.19191919191919e-01 6.14666001193317e-01 1.84725924977997e-04
4.21212121212121e-01 6.14659277090780e-01 1.87678961712742e-04
4.23232323232323e-01 6.14652459433960e-01 1.90694643754167e-04
4.25252525252525e-01 6.14645546349994e-01 1.93770963869371e-04
4.27272727272727e-01 6.14638536047212e-01 1.96905964677615e-04
4.29292929292929e-01 6.14631426812641e-01 2.00097737504325e-04
4.31313131313131e-01 6.14624217009591e-01 2.03344421277166e-04
4.33333333333333e-01 6.14616905075301e-01 2.06644201487499e-04
4.35353535353535e-01 6.14609489518652e-01 2.09995309155029e-04
4.37373737373737e-01 6.14601968917952e-01 2.13396019776197e-04
4.39393939393939e-01 6.14594341918776e-01 2.16844652352453e-04
4.41414141414141e-01 6.14586607231868e-01 2.20339568432825e-04
4.43434343434343e-01 6.14578763631106e-01 2.23879171165393e-04
4.45454545454545e-01 6.14570809951520e-01 2.27461904380584e-04
4.47474747474747e-01 6.14562745087367e-01 2.31086251678981e-04
4.49494949494950e-01 6.14554567990262e-01 2.34750735573419e-04
4.51515151515152e-01 6.14546277667357e-01 2.38453916620154e-04
4.53535353535354e-01 6.14537873179571e-01 2.42194392585620e-04
4.55555555555556e-01 6.14529353639879e-01 2.45970797649857e-04
4.57575757575758e-01 6.14520718211629e-01 2.49781801593428e-04
4.59595959595960e-01 6.14511966106929e-01 2.53626109020871e-04
4.61616161616162e-01 6.14503096585057e-01 2.57502458615302e-04
4.63636363636364e-01 6.14494108950933e-01 2.61409622375344e-04
4.65656565656566e-01 6.14485002553620e-01 2.65346404918206e-04
4.67676767676768e-01 6.14475776784875e-01 2.69311642763331e-04
4.69696969696970e-01 6.14466431077734e-01 2.73304203610317e-04
4.71717171717172e-01 6.14456964905139e-01 2.77322985641688e-04
4.73737373737374e-01 6.14447377778611e-01 2.81366916761280e-04
4.75757575757576e-01 6.14437669246951e-01 2.85434953780690e-04
4.77777777777778e-01 6.14427838894997e-01 2.89526081500748e-04
4.79797979797980e-01 6.14417886342421e-01 2.93639311556988e-04
4.81818181818182e-01 6.14407811242585e-01 2.97773681160842e-04
4.83838383838384e-01 6.14397613281453e-01 3.01928251824324e-04
4.85858585858586e-01 6.14387292176561e-01 3.06102108219151e-04
4.87878787878788e-01 6.14376847676024e-01 3.10294357853780e-04
4.89898989898990e-01 6.14366279557545e-01 3.14504131833643e-04
4.91919191919192e-01 6.14355587627395e-01 3.18730586212621e-04
4.93939393939394e-01 6.14344771719342e-01 3.22972903511640e-04
4.95959595959596e-01 6.14333831693549e-01 3.27230293999985e-04
4.97979797979798e-01 6.14322767435433e-01 3.31501995265638e-04
5.00000000000000e-01 6.14311578854617e-01 3.35757644356557e-04
5.02020202020202e-01 6.14300268102285e-01 3.39969785786413e-04
5.04040404040404e-01 6.14288837157063e-01 3.44173469226368e-04
5.06060606060606e-01 6.14277285586370e-01 3.48400574218444e-04
5.08080808080808e-01 6.14265613001195e-01 3.52649836168644e-04
5.10101010101010e-01 6.14253819054805e-01 3.56920019907583e-04
5.12121212121212e-01 6.14241903441487e-01 3.61209919363451e-04
5.14141414141414e-01 6.14229865895302e-01 3.65518357008096e-04
5.16161616161616e-01 6.14217706188886e-01 3.69844183288770e-04
5.18181818181818e-01 6.14205424132274e-01 3.74186276101191e-04
5.20202020202020e-01 6.14193019571748e-01 3.78543540274324e-04
5.22222222222222e-01 6.14180492388725e-01 3.82914907055486e-04
5.24242424242424e-01 6.14167842498664e-01 3.87299333597700e-04
5.26262626262626e-01 6.14155069850000e-01 3.91695802473302e-04
5.28282828282828e-01 6.14142174423108e-01 3.96103321205845e-04
5.30303030303030e-01 6.14129156229291e-01 4.00520921779962e-04
5.32323232323232e-01 6.14116015309791e-01 4.04947660175103e-04
5.34343434343434e-01 6.14102751734827e-01 4.09382615930482e-04
5.36363636363636e-01 6.14089365602654e-01 4.13824891693940e-04
5.38383838383838e-01 6.14075857038649e-01 4.18273612777007e-04
5.40404040404040e-01 6.14062226194414e-01 4.22727926731831e-04
5.42424242424242e-01 6.14048473246902e-01 4.27187002929825e-04
5.44444444444444e-01 6.14034598397574e-01 4.31650032155979e-04
5.46464646464646e-01 6.14020601871561e-01 4.36116226222629e-04
5.48484848484848e-01 6.14006483916855e-01 4.40584817540985e-04
5.50505050505050e-01 6.13992244803525e-01 4.45055058738200e-04
5.52525252525253e-01 6.13977884822940e-01 4.49526222303361e-04
5.54545454545455e-01 6.13963404287020e-01 4.53997600193542e-04
5.56565656565657e-01 6.13948803527504e-01 4.58468503465584e-04
5.58585858585859e-01 6.13934082895230e-01 4.62938261927077e-04
5.60606060606061e-01 6.13919242759445e-01 4.67406223779041e-04
5.62626262626263e-01 6.13904283507115e-01 4.71871755269516e-04
5.64646464646465e-01 6.13889205542270e-01 4.76334240360069e-04
5.66666666666667e-01 6.13874009285350e-01 4.80793080398486e-04
5.68686868686869e-01 6.13858695172576e-01 4.85247693771838e-04
5.70707070707071e-01 6.13843263655332e-01 4.89697515582299e-04
5.72727272727273e-01 6.13827715199568e-01 4.94141997284220e-04
5.74747474747475e-01 6.13812050285214e-01 4.98580606274736e-04
5.76767676767677e-01 6.13796269405617e-01 5.03012825443697e-04
5.78787878787879e-01 6.13780373066997e-01 5.07438152587856e-04
5.80808080808081e-01 6.13764361787927e-01 5.11856099705244e-04
5.82828282828283e-01 6.13748236098842e-01 5.16266192211740e-04
5.84848484848485e-01 6.13731996541582e-01 5.20667968262542e-04
5.86868686868687e-01 6.13715643668950e-01 5.25060978578970e-04
5.88888888888889e-01 6.13699178044264e-01 5.29444786718662e-04
5.90909090909091e-01 6.13682600240915e-01 5.33818969325516e-04
5.92929292929293e-01 6.13665910841905e-01 5.38183117509128e-04
5.94949494949495e-01 6.13649110439314e-01 5.42536838649044e-04
5.96969696969697e-01 6.13632199633729e-01 5.46879756350309e-04
5.98989898989899e-01 6.13615179033727e-01 5.51211508927505e-04
6.01010101010101e-01 6.13598049255423e-01 5.55585058575792e-04
6.03030303030303e-01 6.13580807624193e-01 5.60155367520024e-04
6.05050505050505e-01 6.13563445190623e-01 5.65070046668552e-04
6.07070707070707e-01 6.13545950222902e-01 5.70369377434398e-04
6.09090909090909e-01 6.13528311377739e-01 5.76042466131119e-04
6.11111111111111e-01 6.13510517690552e-01 5.82078656787817e-04
6.13131313131313e-01 6.13492558565896e-01 5.88467526051249e-04
6.15151515151515e-01 6.13474423768117e-01 5.95198878204017e-04
6.17171717171717e-01 6.13456103412250e-01 6.02262740321533e-04
6.19191919191919e-01 6.13437587955131e-01 6.09649357523362e-04
6.21212121212121e-01 6.13418868186726e-01 6.17349188312260e-04
6.23232323232323e-01 6.13399935221676e-01 6.25352900045100e-04
6.25252525252525e-01 6.13380780491049e-01 6.33651364505499e-04
6.27272727272727e-01 6.13361395734286e-01 6.42235653549390e-04
6.29292929292929e-01 6.13341772991355e-01 6.51097034838360e-04
6.31313131313131e-01 6.13321904595087e-01 6.60226967697664e-04
6.33333333333333e-01 6.13301783163704e-01 6.69617099029766e-04
6.35353535353535e-01 6.13281401593529e-01 6.79259259338398e-04
6.37373737373737e-01 6.13260753051869e-01 6.89145458826686e-04
