Energy (eV)          EEDF (eV^-(3/2))     First Anisotropy
2.35000000000000e-03 2.80689771103435e+00 1.62748698296491e-03
7.05000000000000e-03 2.78271176570576e+00 2.68489134022296e-03
1.17500000000000e-02 2.75873422126207e+00 3.53760592464262e-03
1.64500000000000e-02 2.73496328198980e+00 4.18132334222213e-03
2.11500000000000e-02 2.71139716765176e+00 4.71481213225803e-03
2.58500000000000e-02 2.68803411335093e+00 5.17551162448630e-03
3.05500000000000e-02 2.66487236939787e+00 5.58284411031089e-03
3.52500000000000e-02 2.64191020117958e+00 5.94856611713906e-03
3.99500000000000e-02 2.61914588902957e+00 6.28049312482059e-03
4.46500000000000e-02 2.59657772809908e+00 6.58416183044767e-03
4.93500000000000e-02 2.57420402822936e+00 6.86368026588155e-03
5.40500000000000e-02 2.55202311382512e+00 7.12220590189576e-03
5.87500000000000e-02 2.53003332372900e+00 7.36223416729411e-03
6.34500000000000e-02 2.50823301109722e+00 7.58578232684461e-03
6.81500000000000e-02 2.48662054327619e+00 7.79451189612268e-03
7.28500000000000e-02 2.46519430168026e+00 7.98981310414663e-03
7.75500000000000e-02 2.44395268167053e+00 8.17286493710026e-03
8.22500000000000e-02 2.42289409243463e+00 8.34467891912344e-03
8.69500000000000e-02 2.40201695686759e+00 8.50613173907414e-03
9.16500000000000e-02 2.38131971145376e+00 8.65799003086013e-03
9.63500000000000e-02 2.36080080614970e+00 8.80092951074343e-03
1.01050000000000e-01 2.34045870426806e+00 8.93554997652815e-03
1.05750000000000e-01 2.32029188236257e+00 9.06238721935324e-03
1.10450000000000e-01 2.30029883011387e+00 9.18192259619596e-03
1.15150000000000e-01 2.28047805021646e+00 9.29459080514307e-03
1.19850000000000e-01 2.26082805826650e+00 9.40078626243840e-03
1.24550000000000e-01 2.24134738265073e+00 9.50086837924653e-03
1.29250000000000e-01 2.22203456443617e+00 9.59516596351586e-03
1.33950000000000e-01 2.20288815726091e+00 9.68398091947369e-03
1.38650000000000e-01 2.18390672722580e+00 9.76759137828860e-03
1.43350000000000e-01 2.16508885278700e+00 9.84625436428786e-03
1.48050000000000e-01 2.14643312464959e+00 9.92020807909127e-03
1.52750000000000e-01 2.12793814566199e+00 9.98967386922339e-03
1.57450000000000e-01 2.10960253071132e+00 1.00548579297951e-02
1.62150000000000e-01 2.09142490661970e+00 1.01159527867649e-02
1.66850000000000e-01 2.07340391204137e+00 1.01731385923875e-02
1.71550000000000e-01 2.05553819736076e+00 1.02265842621978e-02
1.76250000000000e-01 2.03782642459141e+00 1.02764484769027e-02
1.80950000000000e-01 2.02026726727580e+00 1.03228805685621e-02
1.85650000000000e-01 2.00285941038592e+00 1.03660213072092e-02
1.90350000000000e-01 1.98560155022490e+00 1.04060036014512e-02
1.95050000000000e-01 1.96849239432929e+00 1.04429531244511e-02
1.99750000000000e-01 1.95153066137230e+00 1.04769888749282e-02
2.04450000000000e-01 1.93471508106783e+00 1.05082236813748e-02
2.09150000000000e-01 1.91804439407536e+00 1.05367646564791e-02
2.13850000000000e-01 1.90151735190559e+00 1.05627136077375e-02
2.18550000000000e-01 1.88513271682698e+00 1.05861674094084e-02
2.23250000000000e-01 1.86888926177304e+00 1.06072183402451e-02
2.27950000000000e-01 1.85278577025045e+00 1.06259543908557e-02
2.32650000000000e-01 1.83682103624791e+00 1.06424595440308e-02
2.37350000000000e-01 1.82099386414587e+00 1.06568140309473e-02
2.42050000000000e-01 1.80530306862696e+00 1.06690945657933e-02
2.46750000000000e-01 1.78974747458723e+00 1.06793745610421e-02
2.51450000000000e-01 1.77432591704815e+00 1.06877243253383e-02
2.56150000000000e-01 1.75903724106936e+00 1.06942112457193e-02
2.60850000000000e-01 1.74388030166215e+00 1.06988999556969e-02
2.65550000000000e-01 1.72885396370375e+00 1.07018524905539e-02
2.70250000000000e-01 1.71395710185229e+00 1.07031284310523e-02
2.74950000000000e-01 1.69918860046256e+00 1.07027850366184e-02
2.79650000000000e-01 1.68454735350239e+00 1.07008773689614e-02
2.84350000000000e-01 1.67003226446989e+00 1.06974584069690e-02
2.89050000000000e-01 1.65564224631128e+00 1.06925791536436e-02
2.93750000000000e-01 1.64137622133952e+00 1.06862887357661e-02
2.98450000000000e-01 1.62723312115356e+00 1.06786344968951e-02
3.03150000000000e-01 1.61321188655836e+00 1.06696620842547e-02
3.07850000000000e-01 1.59931146748555e+00 1.06594155300117e-02
3.12550000000000e-01 1.58553082291478e+00 1.06479373273923e-02
3.17250000000000e-01 1.57186892079577e+00 1.06352685020439e-02
3.21950000000000e-01 1.55832473797103e+00 1.06214486790130e-02
3.26650000000000e-01 1.54489726009920e+00 1.06065161456733e-02
3.31350000000000e-01 1.53158548157912e+00 1.05905079109111e-02
3.36050000000000e-01 1.51838840547451e+00 1.05734597608450e-02
3.40750000000000e-01 1.50530504343927e+00 1.05554063113322e-02
3.45450000000000e-01 1.49233441564352e+00 1.05363810574926e-02
3.50150000000000e-01 1.47947555070019e+00 1.05164164204653e-02
3.54850000000000e-01 1.46672748559227e+00 1.04955437915878e-02
3.59550000000000e-01 1.45408926560070e+00 1.04737935741763e-02
3.64250000000000e-01 1.44155994423285e+00 1.04511952230728e-02
3.68950000000000e-01 1.42913858315165e+00 1.04277772821039e-02
3.73650000000000e-01 1.41682425210533e+00 1.04035674195940e-02
3.78350000000000e-01 1.40461602885773e+00 1.03785924620564e-02
3.83050000000000e-01 1.39251299911924e+00 1.03528784261825e-02
3.87750000000000e-01 1.38051425647831e+00 1.03264505492351e-02
3.92450000000000e-01 1.36861890233362e+00 1.02993333179453e-02
3.97150000000000e-01 1.35682604582672e+00 1.02715504960081e-02
4.01850000000000e-01 1.34513480377535e+00 1.02431251502589e-02
4.06550000000000e-01 1.33354430060729e+00 1.02140796756136e-02
4.11250000000000e-01 1.32205366829479e+00 1.01844358188441e-02
4.15950000000000e-01 1.31066204628954e+00 1.01542147012572e-02
4.20650000000000e-01 1.29936858145826e+00 1.01234368403412e-02
4.25350000000000e-01 1.28817242801877e+00 1.00921221704410e-02
4.30050000000000e-01 1.27707274747668e+00 1.00602900625138e-02
4.34750000000000e-01 1.26606870856257e+00 1.00279593430189e-02
4.39450000000000e-01 1.25515948716975e+00 9.99514831198740e-03
4.44150000000000e-01 1.24434426629254e+00 9.96187476031949e-03
4.48850000000000e-01 1.23362223596507e+00 9.92815598634901e-03
4.53550000000000e-01 1.22299259320063e+00 9.89400881171426e-03
4.58250000000000e-01 1.21245454193156e+00 9.85944959657352e-03
4.62950000000000e-01 1.20200729294957e+00 9.82449425419717e-03
4.67650000000000e-01 1.19165006384669e+00 9.78915826496949e-03
4.72350000000000e-01 1.18138207895666e+00 9.75345668983181e-03
4.77050000000000e-01 1.17120256929681e+00 9.71740418319293e-03
4.81750000000000e-01 1.16111077251051e+00 9.68101500533302e-03
4.86450000000000e-01 1.15110593281008e+00 9.64430303432881e-03
4.91150000000000e-01 1.14118730092014e+00 9.60728177752213e-03
4.95850000000000e-01 1.13135413402152e+00 9.56996438255184e-03
5.00550000000000e-01 1.12160569569566e+00 9.53236364797267e-03
5.05250000000000e-01 1.11194125586942e+00 9.49449203348002e-03
5.09950000000000e-01 1.10236009076042e+00 9.45636166975733e-03
5.14650000000000e-01 1.09286148282281e+00 9.41798436796610e-03
5.19350000000000e-01 1.08344472069357e+00 9.37937162889488e-03
5.24050000000000e-01 1.07410909913924e+00 9.34053465177839e-03
5.28750000000000e-01 1.06485391900304e+00 9.30148434280624e-03
5.33450000000000e-01 1.05567848715258e+00 9.26223132333528e-03
5.38150000000000e-01 1.04658211642792e+00 9.22278593781420e-03
5.42850000000000e-01 1.03756412559009e+00 9.18315826143695e-03
5.47550000000000e-01 1.02862383927012e+00 9.14335810753568e-03
5.52250000000000e-01 1.01976058791841e+00 9.10339503472365e-03
5.56950000000000e-01 1.01097370775461e+00 9.06327835379988e-03
5.61650000000000e-01 1.00226254071793e+00 9.02301713442271e-03
5.66350000000000e-01 9.93626434417793e-01 8.98262021156551e-03
5.71050000000000e-01 9.85064742085056e-01 8.94209619176215e-03
5.75750000000000e-01 9.76576822523515e-01 8.90145345915063e-03
5.80450000000000e-01 9.68162040061908e-01 8.86070018132211e-03
5.85150000000000e-01 9.59819764506304e-01 8.81984431498360e-03
5.89850000000000e-01 9.51549371092911e-01 8.77889361144481e-03
5.94550000000000e-01 9.43350240441279e-01 8.73785562193048e-03
5.99250000000000e-01 9.35221758507922e-01 8.69673770272909e-03
6.03950000000000e-01 9.27163316540325e-01 8.65554702018333e-03
6.08650000000000e-01 9.19174311031358e-01 8.61429055552800e-03
6.13350000000000e-01 9.11254143674079e-01 8.57297510958142e-03
6.18050000000000e-01 9.03402221316919e-01 8.53160730729547e-03
6.22750000000000e-01 8.95617955919271e-01 8.49019360217012e-03
6.27450000000000e-01 8.87900764507442e-01 8.44874028053700e-03
6.32150000000000e-01 8.80250069130995e-01 8.40725346571724e-03
6.36850000000000e-01 8.72665296819471e-01 8.36573912205762e-03
6.41550000000000e-01 8.65145879539472e-01 8.32420305885017e-03
6.46250000000000e-01 8.57691254152122e-01 8.28265093413800e-03
6.50950000000000e-01 8.50300862370896e-01 8.24108825841398e-03
6.55650000000000e-01 8.42974150719804e-01 8.19952039821351e-03
6.60350000000000e-01 8.35710570491947e-01 8.15795257960508e-03
6.65050000000000e-01 8.28509577708415e-01 8.11638989158479e-03
6.69750000000000e-01 8.21370633077557e-01 8.07483728937545e-03
6.74450000000000e-01 8.14293201954586e-01 8.03329959763483e-03
6.79150000000000e-01 8.07276754301540e-01 7.99178151357586e-03
6.83850000000000e-01 8.00320764647590e-01 7.95028761000092e-03
6.88550000000000e-01 7.93424712049685e-01 7.90882233825547e-03
6.93250000000000e-01 7.86588080053535e-01 7.86739003110054e-03
6.97950000000000e-01 7.79810356654938e-01 7.82599490550868e-03
7.02650000000000e-01 7.73091034261432e-01 7.78464106538673e-03
7.07350000000000e-01 7.66429609654283e-01 7.74333250422472e-03
7.12050000000000e-01 7.59825583950795e-01 7.70207310767611e-03
7.16750000000000e-01 7.53278462566951e-01 7.66086665607052e-03
7.21450000000000e-01 7.46787755180372e-01 7.61971682686081e-03
7.26150000000000e-01 7.40352975693596e-01 7.57862719700665e-03
7.30850000000000e-01 7.33973642197674e-01 7.53760124529776e-03
7.35550000000000e-01 7.27649276936079e-01 7.49664235461704e-03
7.40250000000000e-01 7.21379406268925e-01 7.45575381414616e-03
7.44950000000000e-01 7.15163560637497e-01 7.41493882151576e-03
7.49650000000000e-01 7.09001274529086e-01 7.37420048490103e-03
7.54350000000000e-01 7.02892086442124e-01 7.33354182506468e-03
7.59050000000000e-01 6.96835538851621e-01 7.29296577734998e-03
7.63750000000000e-01 6.90831178174905e-01 7.25247519362366e-03
7.68450000000000e-01 6.84878554737646e-01 7.21207284417134e-03
7.73150000000000e-01 6.78977222740185e-01 7.17176141954568e-03
7.77850000000000e-01 6.73126740224144e-01 7.13154353236986e-03
7.82550000000000e-01 6.67326669039329e-01 7.09142171909798e-03
7.87250000000000e-01 6.61576574810916e-01 7.05139844173140e-03
7.91950000000000e-01 6.55876026906919e-01 7.01147608949524e-03
7.96650000000000e-01 6.50224598405941e-01 6.97165698047331e-03
8.01350000000000e-01 6.44621866065199e-01 6.93194336320512e-03
8.06050000000000e-01 6.39067410288830e-01 6.89233741824482e-03
8.10750000000000e-01 6.33560815096465e-01 6.85284125968181e-03
8.15450000000000e-01 6.28101668092077e-01 6.81345693662833e-03
8.20150000000000e-01 6.22689560433091e-01 6.77418643466962e-03
8.24850000000000e-01 6.17324086799775e-01 6.73503167728072e-03
8.29550000000000e-01 6.12004845364875e-01 6.69599452721196e-03
8.34250000000000e-01 6.06731437763528e-01 6.65707678784040e-03
8.38950000000000e-01 6.01503469063426e-01 6.61828020449040e-03
8.43650000000000e-01 5.96320547735239e-01 6.57960646572515e-03
8.48350000000000e-01 5.91182285623293e-01 6.54105720460773e-03
8.53050000000000e-01 5.86088297916498e-01 6.50263399993261e-03
8.57750000000000e-01 5.81038203119535e-01 6.46433837743038e-03
8.62450000000000e-01 5.76031623024280e-01 6.42617181094467e-03
8.67150000000000e-01 5.71068182681482e-01 6.38813572358334e-03
8.71850000000000e-01 5.66147510372680e-01 6.35023148884228e-03
8.76550000000000e-01 5.61269237582367e-01 6.31246043170499e-03
8.81250000000000e-01 5.56432998970393e-01 6.27482382971758e-03
8.85950000000000e-01 5.51638432344599e-01 6.23732291404010e-03
8.90650000000000e-01 5.46885178633696e-01 6.19995887047354e-03
8.95350000000000e-01 5.42172881860374e-01 6.16273284046496e-03
9.00050000000000e-01 5.37501189114637e-01 6.12564592209065e-03
9.04750000000000e-01 5.32869750527383e-01 6.08869917101673e-03
9.09450000000000e-01 5.28278219244190e-01 6.05189360144043e-03
9.14150000000000e-01 5.23726251399348e-01 6.01523018700807e-03
9.18850000000000e-01 5.19213506090106e-01 5.97870986171542e-03
9.23550000000000e-01 5.14739645351136e-01 5.94233352078844e-03
9.28250000000000e-01 5.10304334129227e-01 5.90610202154312e-03
9.32950000000000e-01 5.05907240258193e-01 5.87001618422881e-03
9.37650000000000e-01 5.01548034433992e-01 5.83407679285248e-03
9.42350000000000e-01 4.97226390190068e-01 5.79828459598463e-03
9.47050000000000e-01 4.92941983872901e-01 5.76264030754928e-03
9.51750000000000e-01 4.88694494617765e-01 5.72714460759607e-03
9.56450000000000e-01 4.84483604324704e-01 5.69179814305647e-03
9.61150000000000e-01 4.80308997634703e-01 5.65660152848421e-03
9.65850000000000e-01 4.76170361906073e-01 5.62155534677827e-03
9.70550000000000e-01 4.72067387191037e-01 5.58666014989262e-03
9.75250000000000e-01 4.67999766212518e-01 5.55191645953043e-03
9.79950000000000e-01 4.63967194341127e-01 5.51732476782340e-03
9.84650000000000e-01 4.59969369572346e-01 5.48288553799678e-03
9.89350000000000e-01 4.56005992503912e-01 5.44859920501993e-03
9.94050000000000e-01 4.52076766313397e-01 5.41446617624465e-03
9.98750000000000e-01 4.48181396735975e-01 5.38048683202920e-03
1.00345000000000e+00 4.44319592042385e-01 5.34666152634945e-03
1.00815000000000e+00 4.40491063017085e-01 5.31299058739744e-03
1.01285000000000e+00 4.36695522936590e-01 5.27947431816736e-03
1.01755000000000e+00 4.32932687547999e-01 5.24611299703014e-03
1.02225000000000e+00 4.29202275047709e-01 5.21290687829497e-03
1.02695000000000e+00 4.25504006060309e-01 5.17985619275976e-03
1.03165000000000e+00 4.21837603617655e-01 5.14696114825062e-03
1.03635000000000e+00 4.18202793138132e-01 5.11422193014976e-03
1.04105000000000e+00 4.14599302406087e-01 5.08163870191299e-03
1.04575000000000e+00 4.11026861551444e-01 5.04921160557602e-03
1.05045000000000e+00 4.07485203029491e-01 5.01694076225075e-03
1.05515000000000e+00 4.03974061600846e-01 4.98482627261175e-03
1.05985000000000e+00 4.00493174311592e-01 4.95286821737230e-03
1.06455000000000e+00 3.97042280473582e-01 4.92106665775055e-03
1.06925000000000e+00 3.93621121644917e-01 4.88942163592673e-03
1.07395000000000e+00 3.90229441610595e-01 4.85793317549140e-03
1.07865000000000e+00 3.86866986363314e-01 4.82660128188340e-03
1.08335000000000e+00 3.83533504084457e-01 4.79542594281968e-03
1.08805000000000e+00 3.80228745125230e-01 4.76440712871671e-03
1.09275000000000e+00 3.76952461987965e-01 4.73354479310224e-03
1.09745000000000e+00 3.73704409307584e-01 4.70283887302029e-03
1.10215000000000e+00 3.70484343833226e-01 4.67228928942716e-03
1.10685000000000e+00 3.67292024410027e-01 4.64189594757872e-03
1.11155000000000e+00 3.64127211961062e-01 4.61165873741136e-03
1.11625000000000e+00 3.60989669469437e-01 4.58157753391400e-03
1.12095000000000e+00 3.57879161960542e-01 4.55165219749344e-03
1.12565000000000e+00 3.54795456484451e-01 4.52188257433245e-03
1.13035000000000e+00 3.51738322098476e-01 4.49226849673994e-03
1.13505000000000e+00 3.48707529849874e-01 4.46280978349422e-03
1.13975000000000e+00 3.45702852758697e-01 4.43350624017988e-03
1.14445000000000e+00 3.42724065800797e-01 4.40435765951788e-03
1.14915000000000e+00 3.39770945890969e-01 4.37536382168839e-03
1.15385000000000e+00 3.36843271866248e-01 4.34652449464813e-03
1.15855000000000e+00 3.33940824469345e-01 4.31783943444073e-03
1.16325000000000e+00 3.31063386332222e-01 4.28930838550027e-03
1.16795000000000e+00 3.28210741959822e-01 4.26093108095028e-03
1.17265000000000e+00 3.25382677713921e-01 4.23270724289607e-03
1.17735000000000e+00 3.22578981797135e-01 4.20463658271040e-03
1.18205000000000e+00 3.19799444237053e-01 4.17671880131445e-03
1.18675000000000e+00 3.17043856870518e-01 4.14895358945294e-03
1.19145000000000e+00 3.14312013328030e-01 4.12134062796369e-03
1.19615000000000e+00 3.11603709018298e-01 4.09387958804189e-03
1.20085000000000e+00 3.08918741112913e-01 4.06657013149891e-03
1.20555000000000e+00 3.06256908531160e-01 4.03941191101595e-03
1.21025000000000e+00 3.03618011924957e-01 4.01240457039298e-03
1.21495000000000e+00 3.01001853663928e-01 3.98554774479216e-03
1.21965000000000e+00 2.98408237820602e-01 3.95884106097689e-03
1.22435000000000e+00 2.95836970155737e-01 3.93228413754608e-03
1.22905000000000e+00 2.93287858103775e-01 3.90587658516331e-03
1.23375000000000e+00 2.90760710758422e-01 3.87961800678167e-03
1.23845000000000e+00 2.88255338858348e-01 3.85350799786395e-03
1.24315000000000e+00 2.85771554773014e-01 3.82754614659912e-03
1.24785000000000e+00 2.83309172488622e-01 3.80173203411356e-03
1.25255000000000e+00 2.80868007594181e-01 3.77606523467852e-03
1.25725000000000e+00 2.78447877267698e-01 3.75054531591347e-03
1.26195000000000e+00 2.76048600262486e-01 3.72517183898499e-03
1.26665000000000e+00 2.73669996893591e-01 3.69994435880231e-03
1.27135000000000e+00 2.71311889024333e-01 3.67486242420846e-03
1.27605000000000e+00 2.68974100052967e-01 3.64992557816764e-03
1.28075000000000e+00 2.66656454899457e-01 3.62513335794902e-03
1.28545000000000e+00 2.64358779992363e-01 3.60048529530678e-03
1.29015000000000e+00 2.62080903255842e-01 3.57598091665617e-03
1.29485000000000e+00 2.59822654096764e-01 3.55161974324687e-03
1.29955000000000e+00 2.57583863391931e-01 3.52740129133218e-03
1.30425000000000e+00 2.55364363475414e-01 3.50332507233447e-03
1.30895000000000e+00 2.53163988125998e-01 3.47939059300845e-03
1.31365000000000e+00 2.50982572554729e-01 3.45559735560003e-03
1.31835000000000e+00 2.48819953392578e-01 3.43194485800258e-03
1.32305000000000e+00 2.46675968678201e-01 3.40843259390996e-03
1.32775000000000e+00 2.44550457845813e-01 3.38506005296624e-03
1.33245000000000e+00 2.42443261713161e-01 3.36182672091275e-03
1.33715000000000e+00 2.40354222469606e-01 3.33873207973174e-03
1.34185000000000e+00 2.38283183664299e-01 3.31577560778694e-03
1.34655000000000e+00 2.36229990194468e-01 3.29295677996190e-03
1.35125000000000e+00 2.34194488293801e-01 3.27027506779551e-03
1.35595000000000e+00 2.32176525520933e-01 3.24772993961414e-03
1.36065000000000e+00 2.30175950748022e-01 3.22532086066126e-03
1.36535000000000e+00 2.28192614149440e-01 3.20304729322454e-03
1.37005000000000e+00 2.26226367190547e-01 3.18090869676079e-03
1.37475000000000e+00 2.24277062616567e-01 3.15890452801741e-03
1.37945000000000e+00 2.22344554441564e-01 3.13703424115184e-03
1.38415000000000e+00 2.20428697937501e-01 3.11529728784897e-03
1.38885000000000e+00 2.18529349623412e-01 3.09369311743515e-03
1.39355000000000e+00 2.16646367254646e-01 3.07222117699063e-03
1.39825000000000e+00 2.14779609812222e-01 3.05088091145941e-03
1.40295000000000e+00 2.12928937492263e-01 3.02967176375664e-03
1.40765000000000e+00 2.11094211695527e-01 3.00859317487379e-03
1.41235000000000e+00 2.09275295017030e-01 2.98764458398218e-03
1.41705000000000e+00 2.07472051235751e-01 2.96682542853392e-03
1.42175000000000e+00 2.05684345304435e-01 2.94613514436031e-03
1.42645000000000e+00 2.03912043339473e-01 2.92557316576907e-03
1.43115000000000e+00 2.02155012610882e-01 2.90513892563876e-03
1.43585000000000e+00 2.00413121532362e-01 2.88483185551152e-03
1.44055000000000e+00 1.98686239651438e-01 2.86465138568430e-03
1.44525000000000e+00 1.96974237639695e-01 2.84459694529702e-03
1.44995000000000e+00 1.95276987283092e-01 2.82466796241986e-03
1.45465000000000e+00 1.93594361472356e-01 2.80486386413841e-03
1.45935000000000e+00 1.91926234193466e-01 2.78518407663678e-03
1.46405000000000e+00 1.90272480518215e-01 2.76562802527914e-03
1.46875000000000e+00 1.88632976594854e-01 2.74619513468943e-03
1.47345000000000e+00 1.87007599638816e-01 2.72688482882942e-03
1.47815000000000e+00 1.85396227923520e-01 2.70769653107504e-03
1.48285000000000e+00 1.83798740771258e-01 2.68862966429084e-03
