Energy (eV)          EEDF (eV^-(3/2))     First Anisotropy
1.13750000000000e-01 9.14345222739211e-02 1.19068620299057e-04
3.41250000000000e-01 8.75654283120037e-02 1.93105366212504e-04
5.68750000000000e-01 8.38600568447664e-02 2.45786440035824e-04
7.96250000000000e-01 8.03114798793660e-02 2.80635790832183e-04
1.02375000000000e+00 7.69130625841733e-02 3.05685286666301e-04
1.25125000000000e+00 7.36584508835186e-02 3.24148689293723e-04
1.47875000000000e+00 7.05415595773737e-02 3.37774858676345e-04
1.70625000000000e+00 6.75565609637549e-02 3.47668185524415e-04
1.93375000000000e+00 6.46978739425746e-02 3.54590618146230e-04
2.16125000000000e+00 6.19601535805683e-02 3.59099525441008e-04
2.38875000000000e+00 5.93382811177866e-02 3.61619812814963e-04
2.61625000000000e+00 5.68273543969672e-02 3.62485414073224e-04
2.84375000000000e+00 5.44226786978923e-02 3.61964914319357e-04
3.07125000000000e+00 5.21197579595943e-02 3.60278266062695e-04
3.29875000000000e+00 4.99142863739984e-02 3.57608184510196e-04
3.52625000000000e+00 4.78021403352832e-02 3.54108200542973e-04
3.75375000000000e+00 4.57793707299088e-02 3.49908525397512e-04
3.98125000000000e+00 4.38421955528953e-02 3.45120431859397e-04
4.20875000000000e+00 4.19869928365471e-02 3.39839599442770e-04
4.43625000000000e+00 4.02102938784013e-02 3.34148717233619e-04
4.66375000000000e+00 3.85087767557388e-02 3.28119542759966e-04
4.89125000000000e+00 3.68792601145318e-02 3.21814554288289e-04
5.11875000000000e+00 3.53186972212149e-02 3.15288293859808e-04
5.34625000000000e+00 3.38241702661581e-02 3.08588471369617e-04
5.57375000000000e+00 3.23928849081907e-02 3.01756881389635e-04
5.80125000000000e+00 3.10221650499773e-02 2.94830171371847e-04
6.02875000000000e+00 2.97094478344747e-02 2.87840490528780e-04
6.25625000000000e+00 2.84522788531169e-02 2.80816041903281e-04
6.48375000000000e+00 2.72483075567681e-02 2.73781555137800e-04
6.71125000000000e+00 2.60952828608626e-02 2.66758693715787e-04
6.93875000000000e+00 2.49910489365160e-02 2.59766407620238e-04
7.16625000000000e+00 2.39335411797369e-02 2.52821240190573e-04
7.39375000000000e+00 2.29207823512036e-02 2.45937596285400e-04
7.62125000000000e+00 2.19508788793878e-02 2.39127977551440e-04
7.84875000000000e+00 2.10220173201136e-02 2.32403189568304e-04
8.07625000000000e+00 2.01324609659310e-02 2.25772524819365e-04
8.30375000000000e+00 1.92805465989667e-02 2.19243924782079e-04
8.53125000000000e+00 1.84646813811784e-02 2.12824123900563e-04
8.75875000000000e+00 1.76833398761998e-02 2.06518777771668e-04
8.98625000000000e+00 1.69350611972077e-02 2.00332577522423e-04
9.21375000000000e+00 1.62184462754783e-02 1.94269352065404e-04
9.44125000000000e+00 1.55321552445259e-02 1.88332159677176e-04
9.66875000000000e+00 1.48749049349327e-02 1.82523370143680e-04
9.89625000000000e+00 1.42454664751864e-02 1.76844738547640e-04
1.01237500000000e+01 1.36426629940394e-02 1.71297471630987e-04
1.03512500000000e+01 1.30653674200934e-02 1.65882287544939e-04
1.05787500000000e+01 1.25125003744957e-02 1.60599469698072e-04
1.08062500000000e+01 1.19830281528077e-02 1.55448915325348e-04
1.10337500000000e+01 1.14759607922704e-02 1.50430179326115e-04
1.12612500000000e+01 1.09903502208555e-02 1.45542513854592e-04
1.14887500000000e+01 1.05252884846396e-02 1.40784904090633e-04
1.17162500000000e+01 1.00799060501880e-02 1.36156100570197e-04
1.19437500000000e+01 9.65337017877430e-03 1.31654648412919e-04
1.21712500000000e+01 9.24488336939521e-03 1.27278913747455e-04
1.23987500000000e+01 8.85368186766997e-03 1.23027107603166e-04
1.26262500000000e+01 8.47903423783659e-03 1.18897307508460e-04
1.28537500000000e+01 8.12023999517452e-03 1.14887477011291e-04
1.30812500000000e+01 7.77662829629709e-03 1.10995483315358e-04
1.33087500000000e+01 7.44755668486481e-03 1.07219113206197e-04
1.35362500000000e+01 7.13240989037437e-03 1.03556087424074e-04
1.37637500000000e+01 6.83059867777744e-03 1.00004073625342e-04
1.39912500000000e+01 6.54155874577841e-03 9.65606980602587e-05
1.42187500000000e+01 6.26474967175115e-03 9.32235560831123e-05
1.44462500000000e+01 5.99965390130207e-03 8.99902215995910e-05
1.46737500000000e+01 5.74577578059036e-03 8.68582555465990e-05
1.49012500000000e+01 5.50264062959597e-03 8.38252134909463e-05
1.51287500000000e+01 5.26979385460274e-03 8.08886524254780e-05
1.53562500000000e+01 5.04680009823717e-03 7.80461368341050e-05
1.55837500000000e+01 4.83324242547374e-03 7.52952440908096e-05
1.58112500000000e+01 4.62872154408472e-03 7.26335692519138e-05
1.60387500000000e+01 4.43285505807709e-03 7.00587292956753e-05
1.62662500000000e+01 4.24527675272054e-03 6.75683668585519e-05
1.64937500000000e+01 4.06563590982994e-03 6.51601535131667e-05
1.67212500000000e+01 3.89359665202181e-03 6.28317926291233e-05
1.69487500000000e+01 3.72883731471901e-03 6.05810218542801e-05
1.71762500000000e+01 3.57104984472926e-03 5.84056152508685e-05
1.74037500000000e+01 3.41993922427315e-03 5.63033851179026e-05
1.76312500000000e+01 3.27522291938458e-03 5.42721835286728e-05
1.78587500000000e+01 3.13663035165250e-03 5.23099036096609e-05
1.80862500000000e+01 3.00390239231605e-03 5.04144805849986e-05
1.83137500000000e+01 2.87679087776733e-03 4.85838926085518e-05
1.85412500000000e+01 2.75505814555596e-03 4.68161614038654e-05
1.87687500000000e+01 2.63847659002766e-03 4.51093527304862e-05
1.89962500000000e+01 2.52682823676637e-03 4.34615766936417e-05
1.92237500000000e+01 2.41990433504393e-03 4.18709879128191e-05
1.94512500000000e+01 2.31750496751546e-03 4.03357855634760e-05
1.96787500000000e+01 2.21943867643071e-03 3.88542133049316e-05
1.99062500000000e+01 2.12552210566239e-03 3.74245591063745e-05
2.01337500000000e+01 2.03557965788225e-03 3.60451549819163e-05
2.03612500000000e+01 1.94944316624397e-03 3.47143766447050e-05
2.05887500000000e+01 1.86695157995882e-03 3.34306430892478e-05
2.08162500000000e+01 1.78795066317647e-03 3.21924161103196e-05
2.10437500000000e+01 1.71229270660768e-03 3.09981997661139e-05
2.12712500000000e+01 1.63983625134989e-03 2.98465397926328e-05
2.14987500000000e+01 1.57044582439922e-03 2.87360229757050e-05
2.17262500000000e+01 1.50399168535438e-03 2.76652764864653e-05
2.19537500000000e+01 1.44034958383901e-03 2.66329671856153e-05
2.21812500000000e+01 1.37940052718866e-03 2.56378009013089e-05
2.24087500000000e+01 1.32103055796837e-03 2.46785216850804e-05
2.26362500000000e+01 1.26513054090456e-03 2.37539110498266e-05
2.28637500000000e+01 1.21159595883307e-03 2.28627871934917e-05
2.30912500000000e+01 1.16032671728171e-03 2.20040042117622e-05
2.33187500000000e+01 1.11122695732203e-03 2.11764513027731e-05
2.35462500000000e+01 1.06420487634035e-03 2.03790519665379e-05
2.37737500000000e+01 1.01917255639288e-03 1.96107632015509e-05
2.40012500000000e+01 9.76045799824169e-04 1.88705747007746e-05
2.42287500000000e+01 9.34743971841370e-04 1.81575080489978e-05
2.44562500000000e+01 8.95189849750065e-04 1.74706159233478e-05
2.46837500000000e+01 8.57309478569752e-04 1.68089812985525e-05
2.49112500000000e+01 8.21032032759023e-04 1.61717166583806e-05
2.51387500000000e+01 7.86289683791905e-04 1.55579632145214e-05
2.53662500000000e+01 7.53017473337771e-04 1.49668901340305e-05
2.55937500000000e+01 7.21153191807701e-04 1.43976937763284e-05
2.58212500000000e+01 6.90637262040210e-04 1.38495969406206e-05
2.60487500000000e+01 6.61412627908866e-04 1.33218481244959e-05
2.62762500000000e+01 6.33424647643530e-04 1.28137207943557e-05
2.65037500000000e+01 6.06620991665756e-04 1.23245126682381e-05
2.67312500000000e+01 5.80951544747335e-04 1.18535450115110e-05
2.69587500000000e+01 5.56368312309043e-04 1.14001619458331e-05
2.71862500000000e+01 5.32825330684402e-04 1.09637297717115e-05
2.74137500000000e+01 5.10278581180670e-04 1.05436363049172e-05
2.76412500000000e+01 4.88685907776382e-04 1.01392902269644e-05
2.78687500000000e+01 4.68006938301554e-04 9.75012044980371e-06
2.80962500000000e+01 4.48203008953188e-04 9.37557549483252e-06
2.83237500000000e+01 4.29237092004934e-04 9.01512288628087e-06
2.85512500000000e+01 4.11073726575751e-04 8.66824855899306e-06
2.87787500000000e+01 3.93678952328130e-04 8.33445628058775e-06
2.90062500000000e+01 3.77020245971898e-04 8.01326708794847e-06
2.92337500000000e+01 3.61066460454897e-04 7.70421873796756e-06
2.94612500000000e+01 3.45787766726844e-04 7.40686517243983e-06
2.96887500000000e+01 3.31155597967467e-04 7.12077599698021e-06
2.99162500000000e+01 3.17142596174664e-04 6.84553597381910e-06
3.01437500000000e+01 3.03722561012806e-04 6.58074452831072e-06
3.03712500000000e+01 2.90870400825543e-04 6.32601526897352e-06
3.05987500000000e+01 2.78562085721530e-04 6.08097552086846e-06
3.08262500000000e+01 2.66774602645353e-04 5.84526587210943e-06
3.10537500000000e+01 2.55485912349650e-04 5.61853973328749e-06
3.12812500000000e+01 2.44674908187965e-04 5.40046290958358e-06
3.15087500000000e+01 2.34321376651323e-04 5.19071318533664e-06
3.17362500000000e+01 2.24405959574698e-04 4.98897992082712e-06
3.19637500000000e+01 2.14910117942739e-04 4.79496366103103e-06
3.21912500000000e+01 2.05816097227079e-04 4.60837575609609e-06
3.24187500000000e+01 1.97106894190402e-04 4.42893799328787e-06
3.26462500000000e+01 1.88766225095220e-04 4.25638224015209e-06
3.28737500000000e+01 1.80778495257901e-04 4.09045009863806e-06
3.31012500000000e+01 1.73128769891043e-04 3.93089256992662e-06
3.33287500000000e+01 1.65802746179654e-04 3.77746972970703e-06
3.35562500000000e+01 1.58786726538955e-04 3.62995041364759e-06
3.37837500000000e+01 1.52067593003782e-04 3.48811191280540e-06
3.40112500000000e+01 1.45632782701712e-04 3.35173967872260e-06
3.42387500000000e+01 1.39470264364063e-04 3.22062703795890e-06
3.44662500000000e+01 1.33568515830830e-04 3.09457491581175e-06
3.46937500000000e+01 1.27916502507525e-04 2.97339156897892e-06
3.49212500000000e+01 1.22503656733608e-04 2.85689232692121e-06
3.51487500000000e+01 1.17319858023971e-04 2.74489934168581e-06
3.53762500000000e+01 1.12355414146496e-04 2.63724134595523e-06
3.56037500000000e+01 1.07601043000336e-04 2.53375341908955e-06
3.58312500000000e+01 1.03047855261021e-04 2.43427676093446e-06
3.60587500000000e+01 9.86873377599428e-05 2.33865847317104e-06
3.62862500000000e+01 9.45113375671488e-05 2.24675134798759e-06
3.65137500000000e+01 9.05120467476752e-05 2.15841366385821e-06
3.67412500000000e+01 8.66819877629257e-05 2.07350898821713e-06
3.69687500000000e+01 8.30139994897972e-05 1.99190598682202e-06
3.71962500000000e+01 7.95012238314118e-05 1.91347823960432e-06
3.74237500000000e+01 7.61370928944226e-05 1.83810406280881e-06
3.76512500000000e+01 7.29153167089175e-05 1.76566633722940e-06
3.78787500000000e+01 6.98298714679611e-05 1.69605234235254e-06
3.81062500000000e+01 6.68749882647855e-05 1.62915359622421e-06
3.83337500000000e+01 6.40451423065719e-05 1.56486570086087e-06
3.85612500000000e+01 6.13350425846569e-05 1.50308819302937e-06
3.87887500000000e+01 5.87396219818476e-05 1.44372440022525e-06
3.90162500000000e+01 5.62540277983515e-05 1.38668130168323e-06
3.92437500000000e+01 5.38736126786045e-05 1.33186939425799e-06
3.94712500000000e+01 5.15939259220358e-05 1.27920256301793e-06
3.96987500000000e+01 4.94107051615213e-05 1.22859795639870e-06
3.99262500000000e+01 4.73198683939663e-05 1.17997586576724e-06
4.01537500000000e+01 4.53175063481193e-05 1.13325960925187e-06
4.03812500000000e+01 4.33998751753438e-05 1.08837541969735e-06
4.06087500000000e+01 4.15633894496843e-05 1.04525233660840e-06
4.08362500000000e+01 3.98046154641375e-05 1.00382210194864e-06
4.10637500000000e+01 3.81202648105950e-05 9.64019059666195e-07
4.12912500000000e+01 3.65071882314533e-05 9.25780058820729e-07
4.15187500000000e+01 3.49623697313965e-05 8.89044360190429e-07
4.17462500000000e+01 3.34829209383406e-05 8.53753546241202e-07
4.19737500000000e+01 3.20660757029980e-05 8.19851434343802e-07
4.22012500000000e+01 3.07091849269635e-05 7.87283993128105e-07
4.24287500000000e+01 2.94097116096521e-05 7.55999261867174e-07
4.26562500000000e+01 2.81652261048280e-05 7.25947272787025e-07
4.28837500000000e+01 2.69734015778562e-05 6.97079976201301e-07
4.31112500000000e+01 2.58320096551819e-05 6.69351168373203e-07
4.33387500000000e+01 2.47389162579043e-05 6.42716422010014e-07
4.35662500000000e+01 2.36920776116554e-05 6.17133019298705e-07
4.37937500000000e+01 2.26895364253218e-05 5.92559887393956e-07
4.40212500000000e+01 2.17294182314656e-05 5.68957536272782e-07
4.42487500000000e+01 2.08099278816029e-05 5.46287998872648e-07
4.44762500000000e+01 1.99293461897856e-05 5.24514773432815e-07
4.47037500000000e+01 1.90860267182111e-05 5.03602767961154e-07
4.49312500000000e+01 1.82783926988519e-05 4.83518246751216e-07
4.51587500000000e+01 1.75049340853463e-05 4.64228778876917e-07
4.53862500000000e+01 1.67642047296404e-05 4.45703188594488e-07
4.56137500000000e+01 1.60548196781021e-05 4.27911507583776e-07
4.58412500000000e+01 1.53754525820505e-05 4.10824928963162e-07
4.60687500000000e+01 1.47248332178609e-05 3.94415763014626e-07
4.62962500000000e+01 1.41017451120066e-05 3.78657394557625e-07
4.65237500000000e+01 1.35050232665991e-05 3.63524241912500e-07
4.67512500000000e+01 1.29335519811724e-05 3.48991717396112e-07
4.69787500000000e+01 1.23862627666405e-05 3.35036189294424e-07
4.72062500000000e+01 1.18621323475252e-05 3.21634945258618e-07
4.74337500000000e+01 1.13601807487222e-05 3.08766157073110e-07
4.76612500000000e+01 1.08794694632254e-05 2.96408846745662e-07
4.78887500000000e+01 1.04190996973854e-05 2.84542853871517e-07
4.81162500000000e+01 9.97821069042015e-06 2.73148804225078e-07
4.83437500000000e+01 9.55597810503727e-06 2.62208079534337e-07
4.85712500000000e+01 9.15161248615675e-06 2.51702788394805e-07
4.87987500000000e+01 8.76435778485424e-06 2.41615738281156e-07
4.90262500000000e+01 8.39348994476419e-06 2.31930408616337e-07
4.92537500000000e+01 8.03831554829996e-06 2.22630924859254e-07
4.94812500000000e+01 7.69817052015973e-06 2.13702033573534e-07
4.97087500000000e+01 7.37241888569426e-06 2.05129078441193e-07
4.99362500000000e+01 7.06045158181474e-06 1.96897977186302e-07
5.01637500000000e+01 6.76168531821776e-06 1.88995199375010e-07
5.03912500000000e+01 6.47556148679802e-06 1.81407745059449e-07
5.06187500000000e+01 6.20154511720968e-06 1.74123124234218e-07
5.08462500000000e+01 5.93912387662373e-06 1.67129337075284e-07
5.10737500000000e+01 5.68780711181102e-06 1.60414854932162e-07
5.13012500000000e+01 5.44712493175996e-06 1.53968602045345e-07
5.15287500000000e+01 5.21662732911377e-06 1.47779937961928e-07
5.17562500000000e+01 4.99588333878438e-06 1.41838640623342e-07
5.19837500000000e+01 4.78448023217015e-06 1.36134890100075e-07
5.22112500000000e+01 4.58202274547046e-06 1.30659252949168e-07
5.24387500000000e+01 4.38813234065464e-06 1.25402667171117e-07
5.26662500000000e+01 4.20244649770329e-06 1.20356427743707e-07
5.28937500000000e+01 4.02461803679877e-06 1.15512172711093e-07
5.31212500000000e+01 3.85431446919746e-06 1.10861869807247e-07
5.33487500000000e+01 3.69121737557021e-06 1.06397803593626e-07
5.35762500000000e+01 3.53502181064858e-06 1.02112563091713e-07
5.38037500000000e+01 3.38543573306375e-06 9.79990298917155e-08
5.40312500000000e+01 3.24217945931204e-06 9.40503667194513e-08
5.42587500000000e+01 3.10498514082618e-06 9.02600064440865e-08
5.44862500000000e+01 2.97359626317448e-06 8.66216415100351e-08
5.47137500000000e+01 2.84776716645172e-06 8.31292137769457e-08
5.49412500000000e+01 2.72726258596478e-06 7.97769047522888e-08
5.51687500000000e+01 2.61185721235451e-06 7.65591262016402e-08
5.53962500000000e+01 2.50133527033116e-06 7.34705111223012e-08
5.56237500000000e+01 2.39549011523584e-06 7.05059050664325e-08
5.58512500000000e+01 2.29412384667366e-06 6.76603578003898e-08
5.60787500000000e+01 2.19704693849617e-06 6.49291152874460e-08
5.63062500000000e+01 2.10407788444128e-06 6.23076119815642e-08
5.65337500000000e+01 2.01504285876804e-06 5.97914634203410e-08
5.67612500000000e+01 1.92977539125186e-06 5.73764591056850e-08
5.69887500000000e+01 1.84811605593247e-06 5.50585556612267e-08
5.72162500000000e+01 1.76991217303259e-06 5.28338702558641e-08
5.74437500000000e+01 1.69501752349010e-06 5.06986742832460e-08
5.76712500000000e+01 1.62329207556990e-06 4.86493872873782e-08
5.78987500000000e+01 1.55460172304432e-06 4.66825711249066e-08
5.81262500000000e+01 1.48881803445255e-06 4.47949243549884e-08
5.83537500000000e+01 1.42581801297023e-06 4.29832768480006e-08
5.85812500000000e+01 1.36548386644034e-06 4.12445846046689e-08
5.88087500000000e+01 1.30770278713528e-06 3.95759247775158e-08
5.90362500000000e+01 1.25236674083846e-06 3.79744908868345e-08
5.92637500000000e+01 1.19937226485095e-06 3.64375882236851e-08
5.94912500000000e+01 1.14862027454564e-06 3.49626294327008e-08
5.97187500000000e+01 1.10001587810709e-06 3.35471302677615e-08
5.99462500000000e+01 1.05346819911076e-06 3.21887055138538e-08
6.01737500000000e+01 1.00889020660994e-06 3.08850650686933e-08
6.04012500000000e+01 9.66198552412521e-07 2.96340101779267e-08
6.06287500000000e+01 9.25313415243588e-07 2.84334298179700e-08
6.08562500000000e+01 8.86158351502264e-07 2.72812972207610e-08
6.10837500000000e+01 8.48660152333884e-07 2.61756665349247e-08
6.13112500000000e+01 8.12748706750220e-07 2.51146696180622e-08
6.15387500000000e+01 7.78356870541830e-07 2.40965129550698e-08
6.17662500000000e+01 7.45420340737450e-07 2.31194746975955e-08
6.19937500000000e+01 7.13877535375690e-07 2.21819018199257e-08
6.22212500000000e+01 6.83669478364244e-07 2.12822073867715e-08
6.24487500000000e+01 6.54739689211341e-07 2.04188679286029e-08
6.26762500000000e+01 6.27034077423257e-07 1.95904209203427e-08
6.29037500000000e+01 6.00500841370447e-07 1.87954623593935e-08
6.31312500000000e+01 5.75090371433200e-07 1.80326444391261e-08
6.33587500000000e+01 5.50755157245734e-07 1.73006733141053e-08
6.35862500000000e+01 5.27449698865296e-07 1.65983069534748e-08
6.38137500000000e+01 5.05130421700190e-07 1.59243530790576e-08
6.40412500000000e+01 4.83755595037651e-07 1.52776671848629e-08
6.42687500000000e+01 4.63285254019268e-07 1.46571506348173e-08
6.44962500000000e+01 4.43681124918033e-07 1.40617488356625e-08
6.47237500000000e+01 4.24906553577343e-07 1.34904494820753e-08
6.49512500000000e+01 4.06926436878130e-07 1.29422808711861e-08
6.51787500000000e+01 3.89707157105991e-07 1.24163102837751e-08
6.54062500000000e+01 3.73216519095606e-07 1.19116424295339e-08
6.56337500000000e+01 3.57423690034918e-07 1.14274179538819e-08
6.58612500000000e+01 3.42299141816526e-07 1.09628120039200e-08
6.60887500000000e+01 3.27814595828507e-07 1.05170328512041e-08
6.63162500000000e+01 3.13942970081438e-07 1.00893205691047e-08
6.65437500000000e+01 3.00658328572762e-07 9.67894576260977e-09
6.67712500000000e+01 2.87935832793829e-07 9.28520834850858e-09
6.69987500000000e+01 2.75751695288933e-07 8.90743638397727e-09
6.72262500000000e+01 2.64083135179519e-07 8.54498494166012e-09
6.74537500000000e+01 2.52908335570415e-07 8.19723502941796e-09
6.76812500000000e+01 2.42206402758423e-07 7.86359255298446e-09
6.79087500000000e+01 2.31957327167028e-07 7.54348731984053e-09
6.81362500000000e+01 2.22141945934172e-07 7.23637208268215e-09
6.83637500000000e+01 2.12741907083136e-07 6.94172162092062e-09
6.85912500000000e+01 2.03739635209559e-07 6.65903185871563e-09
6.88187500000000e+01 1.95118298620416e-07 6.38781901809928e-09
6.90462500000000e+01 1.86861777863533e-07 6.12761880580578e-09
6.92737500000000e+01 1.78954635588785e-07 5.87798563247609e-09
6.95012500000000e+01 1.71382087684636e-07 5.63849186295826e-09
6.97287500000000e+01 1.64129975636042e-07 5.40872709647451e-09
6.99562500000000e+01 1.57184740052054e-07 5.18829747547423e-09
7.01837500000000e+01 1.50533395313600e-07 4.97682502203812e-09
7.04112500000000e+01 1.44163505294065e-07 4.77394700074355e-09
7.06387500000000e+01 1.38063160107266e-07 4.57931530694349e-09
7.08662500000000e+01 1.32220953839344e-07 4.39259587945272e-09
7.10937500000000e+01 1.26625963222943e-07 4.21346813667457e-09
7.13212500000000e+01 1.21267727213800e-07 4.04162443523887e-09
7.15487500000000e+01 1.16136227431565e-07 3.87676955025923e-09
7.17762500000000e+01 1.11221869428268e-07 3.71862017635203e-09
