Energy (eV)          EEDF (eV^-(3/2))     First Anisotropy
1.69375000000000e-03 9.81301823608070e+00 7.07422194268248e-03
5.08125000000000e-03 9.67276606516014e+00 1.16371940494761e-02
8.46875000000000e-03 9.53451844278460e+00 1.52453519708520e-02
1.18562500000000e-02 9.39824671902572e+00 1.79162946598417e-02
1.52437500000000e-02 9.26392265343181e+00 2.00865466002479e-02
1.86312500000000e-02 9.13151840917651e+00 2.19230317750946e-02
2.20187500000000e-02 9.00100654729010e+00 2.35130662147199e-02
2.54062500000000e-02 8.87236002097325e+00 2.49099295566482e-02
2.87937500000000e-02 8.74555216999189e+00 2.61493195078616e-02
3.21812500000000e-02 8.62055671515230e+00 2.72567194765526e-02
3.55687500000000e-02 8.49734775285505e+00 2.82511787358791e-02
3.89562500000000e-02 8.37589974972690e+00 2.91474451708402e-02
4.23437500000000e-02 8.25618753732930e+00 2.99572564034219e-02
4.57312500000000e-02 8.13818630694263e+00 3.06901652597370e-02
4.91187500000000e-02 8.02187160442487e+00 3.13540910673926e-02
5.25062500000000e-02 7.90721932514387e+00 3.19557012549256e-02
5.58937500000000e-02 7.79420570898197e+00 3.25006835058673e-02
5.92812500000000e-02 7.68280733541203e+00 3.29939448491680e-02
6.26687500000000e-02 7.57300111864387e+00 3.34397605191125e-02
6.60562500000000e-02 7.46476430284003e+00 3.38418873954784e-02
6.94437500000000e-02 7.35807445739996e+00 3.42036519091206e-02
7.28312500000000e-02 7.25290947231157e+00 3.45280191773592e-02
7.62187500000000e-02 7.14924755356923e+00 3.48176481010192e-02
7.96062500000000e-02 7.04706721865726e+00 3.50749357985869e-02
8.29937500000000e-02 6.94634729209798e+00 3.53020538279517e-02
8.63812500000000e-02 6.84706690106339e+00 3.55009780029783e-02
8.97687500000000e-02 6.74920547104952e+00 3.56735131569894e-02
9.31562500000000e-02 6.65274272161273e+00 3.58213138779602e-02
9.65437500000000e-02 6.55765866216674e+00 3.59459020014507e-02
9.99312500000000e-02 6.46393358783999e+00 3.60486814708171e-02
1.03318750000000e-01 6.37154807539197e+00 3.61309510421413e-02
1.06706250000000e-01 6.28048297918806e+00 3.61939152113556e-02
1.10093750000000e-01 6.19071942723188e+00 3.62386936645980e-02
1.13481250000000e-01 6.10223881725429e+00 3.62663294937945e-02
1.16868750000000e-01 6.01502281285832e+00 3.62777963734777e-02
1.20256250000000e-01 5.92905333971927e+00 3.62740048587227e-02
1.23643750000000e-01 5.84431258183894e+00 3.62558079354475e-02
1.27031250000000e-01 5.76078297785363e+00 3.62240059315212e-02
1.30418750000000e-01 5.67844721739469e+00 3.61793508787670e-02
1.33806250000000e-01 5.59728823750125e+00 3.61225504011233e-02
1.37193750000000e-01 5.51728921908409e+00 3.60542711921832e-02
1.40581250000000e-01 5.43843358344020e+00 3.59751421354368e-02
1.43968750000000e-01 5.36070498881697e+00 3.58857571124437e-02
1.47356250000000e-01 5.28408732702567e+00 3.57866775374413e-02
1.50743750000000e-01 5.20856472010320e+00 3.56784346513070e-02
1.54131250000000e-01 5.13412151702161e+00 3.55615316031433e-02
1.57518750000000e-01 5.06074229044466e+00 3.54364453438381e-02
1.60906250000000e-01 4.98841183353068e+00 3.53036283526645e-02
1.64293750000000e-01 4.91711515678117e+00 3.51635102152062e-02
1.67681250000000e-01 4.84683748493446e+00 3.50164990685101e-02
1.71068750000000e-01 4.77756425390369e+00 3.48629829273713e-02
1.74456250000000e-01 4.70928110775866e+00 3.47033309039364e-02
1.77843750000000e-01 4.64197389575070e+00 3.45378943313134e-02
1.81231250000000e-01 4.57562866938018e+00 3.43670078006166e-02
1.84618750000000e-01 4.51023167950582e+00 3.41909901197745e-02
1.88006250000000e-01 4.44576937349539e+00 3.40101452014728e-02
1.91393750000000e-01 4.38222839241712e+00 3.38247628867867e-02
1.94781250000000e-01 4.31959556827126e+00 3.36351197103215e-02
1.98168750000000e-01 4.25785792126114e+00 3.34414796120587e-02
2.01556250000000e-01 4.19700265710332e+00 3.32440946005582e-02
2.04943750000000e-01 4.13701716437616e+00 3.30432053716803e-02
2.08331250000000e-01 4.07788901190625e+00 3.28390418865585e-02
2.11718750000000e-01 4.01960594619223e+00 3.26318239121827e-02
2.15106250000000e-01 3.96215588886542e+00 3.24217615276288e-02
2.18493750000000e-01 3.90552693418673e+00 3.22090555986640e-02
2.21881250000000e-01 3.84970734657940e+00 3.19938982232053e-02
2.25268750000000e-01 3.79468555819689e+00 3.17764731498680e-02
2.28656250000000e-01 3.74045016652569e+00 3.15569561716398e-02
2.32043750000000e-01 3.68698993202221e+00 3.13355154965315e-02
2.35431250000000e-01 3.63429377578363e+00 3.11123120968875e-02
2.38818750000000e-01 3.58235077725189e+00 3.08875000388900e-02
2.42206250000000e-01 3.53115017195055e+00 3.06612267936597e-02
2.45593750000000e-01 3.48068134925406e+00 3.04336335312385e-02
2.48981250000000e-01 3.43093385018877e+00 3.02048553986258e-02
2.52368750000000e-01 3.38189736526552e+00 2.99750217829451e-02
2.55756250000000e-01 3.33356173234311e+00 2.97442565607363e-02
2.59143750000000e-01 3.28591693452232e+00 2.95126783342766e-02
2.62531250000000e-01 3.23895309807007e+00 2.92804006557713e-02
2.65918750000000e-01 3.19266049037322e+00 2.90475322401889e-02
2.69306250000000e-01 3.14702951792162e+00 2.88141771674493e-02
2.72693750000000e-01 3.10205072431997e+00 2.85804350746252e-02
2.76081250000000e-01 3.05771478832811e+00 2.83464013387667e-02
2.79468750000000e-01 3.01401252192936e+00 2.81121672509152e-02
2.82856250000000e-01 2.97093486842639e+00 2.78778201818287e-02
2.86243750000000e-01 2.92847290056433e+00 2.76434437398981e-02
2.89631250000000e-01 2.88661781868079e+00 2.74091179217154e-02
2.93018750000000e-01 2.84536094888217e+00 2.71749192557118e-02
2.96406250000000e-01 2.80469374124616e+00 2.69409209392451e-02
2.99793750000000e-01 2.76460776804986e+00 2.67071929695170e-02
3.03181250000000e-01 2.72509472202328e+00 2.64738022686453e-02
3.06568750000000e-01 2.68614641462774e+00 2.62408128032161e-02
3.09956250000000e-01 2.64775477435893e+00 2.60082856986114e-02
3.13343750000000e-01 2.60991184507419e+00 2.57762793483841e-02
3.16731250000000e-01 2.57260978434372e+00 2.55448495189439e-02
3.20118750000000e-01 2.53584086182531e+00 2.53140494497951e-02
3.23506250000000e-01 2.49959745766239e+00 2.50839299495552e-02
3.26893750000000e-01 2.46387206090485e+00 2.48545394879636e-02
3.30281250000000e-01 2.42865726795257e+00 2.46259242840858e-02
3.33668750000000e-01 2.39394578102107e+00 2.43981283908982e-02
3.37056250000000e-01 2.35973040662915e+00 2.41711937764308e-02
3.40443750000000e-01 2.32600405410818e+00 2.39451604016368e-02
3.43831250000000e-01 2.29275973413261e+00 2.37200662951413e-02
3.47218750000000e-01 2.25999055727156e+00 2.34959476250209e-02
3.50606250000000e-01 2.22768973256104e+00 2.32728387677522e-02
3.53993750000000e-01 2.19585056609667e+00 2.30507723744602e-02
3.57381250000000e-01 2.16446645964642e+00 2.28297794345924e-02
3.60768750000000e-01 2.13353090928321e+00 2.26098893371323e-02
3.64156250000000e-01 2.10303750403712e+00 2.23911299294667e-02
3.67543750000000e-01 2.07297992456672e+00 2.21735275740094e-02
3.70931250000000e-01 2.04335194184953e+00 2.19571072026831e-02
3.74318750000000e-01 2.01414741589113e+00 2.17418923693512e-02
3.77706250000000e-01 1.98536029445272e+00 2.15279053002874e-02
3.81093750000000e-01 1.95698461179687e+00 2.13151669427721e-02
3.84481250000000e-01 1.92901448745125e+00 2.11036970118920e-02
3.87868750000000e-01 1.90144412498989e+00 2.08935140356165e-02
3.91256250000000e-01 1.87426781083206e+00 2.06846353982313e-02
3.94643750000000e-01 1.84747991305813e+00 2.04770773821895e-02
3.98031250000000e-01 1.82107488024244e+00 2.02708552084508e-02
4.01418750000000e-01 1.79504724030290e+00 2.00659830753664e-02
4.04806250000000e-01 1.76939159936689e+00 1.98624741961722e-02
4.08193750000000e-01 1.74410264065353e+00 1.96603408351450e-02
4.11581250000000e-01 1.71917512337182e+00 1.94595943424749e-02
4.14968750000000e-01 1.69460388163453e+00 1.92602451879053e-02
4.18356250000000e-01 1.67038382338768e+00 1.90623029931886e-02
4.21743750000000e-01 1.64650992935528e+00 1.88657765634051e-02
4.25131250000000e-01 1.62297725199912e+00 1.86706739171877e-02
4.28518750000000e-01 1.59978091449350e+00 1.84770023158952e-02
4.31906250000000e-01 1.57691610971455e+00 1.82847682917745e-02
4.35293750000000e-01 1.55437809924402e+00 1.80939776751505e-02
4.38681250000000e-01 1.53216221238732e+00 1.79046356206811e-02
4.42068750000000e-01 1.51026384520558e+00 1.77167466327098e-02
4.45456250000000e-01 1.48867845956153e+00 1.75303145897513e-02
4.48843750000000e-01 1.46740158217905e+00 1.73453427681441e-02
4.52231250000000e-01 1.44642880371615e+00 1.71618338648960e-02
4.55618750000000e-01 1.42575577785117e+00 1.69797900197561e-02
4.59006250000000e-01 1.40537822038209e+00 1.67992128365422e-02
4.62393750000000e-01 1.38529190833867e+00 1.66201034037459e-02
4.65781250000000e-01 1.36549267910730e+00 1.64424623144447e-02
4.69168750000000e-01 1.34597642956836e+00 1.62662896855457e-02
4.72556250000000e-01 1.32673911524592e+00 1.60915851763846e-02
4.75943750000000e-01 1.30777674946955e+00 1.59183480067018e-02
4.79331250000000e-01 1.28908540254812e+00 1.57465769740182e-02
4.82718750000000e-01 1.27066120095550e+00 1.55762704704314e-02
4.86106250000000e-01 1.25250032652774e+00 1.54074264988545e-02
4.89493750000000e-01 1.23459901567188e+00 1.52400426887133e-02
4.92881250000000e-01 1.21695355858593e+00 1.50741163111240e-02
4.96268750000000e-01 1.19956029849011e+00 1.49096442935667e-02
4.99656250000000e-01 1.18241563086902e+00 1.47466232340720e-02
5.03043750000000e-01 1.16551600272465e+00 1.45850494149413e-02
5.06431250000000e-01 1.14885791184007e+00 1.44249188160107e-02
5.09818750000000e-01 1.13243790605366e+00 1.42662271274773e-02
5.13206250000000e-01 1.11625258254366e+00 1.41089697623032e-02
5.16593750000000e-01 1.10029858712302e+00 1.39531418682095e-02
5.19981250000000e-01 1.08457261354426e+00 1.37987383392744e-02
5.23368750000000e-01 1.06907140281433e+00 1.36457538271494e-02
5.26756250000000e-01 1.05379174251919e+00 1.34941827519041e-02
5.30143750000000e-01 1.03873046615811e+00 1.33440193125154e-02
5.33531250000000e-01 1.02388445248744e+00 1.31952574970097e-02
5.36918750000000e-01 1.00925062487378e+00 1.30478910922703e-02
5.40306250000000e-01 9.94825950656382e-01 1.29019136935224e-02
5.43693750000000e-01 9.80607440518703e-01 1.27573187135029e-02
5.47081250000000e-01 9.66592147868868e-01 1.26140993913287e-02
5.50468750000000e-01 9.52777168229056e-01 1.24722488010714e-02
5.53856250000000e-01 9.39159638633576e-01 1.23317598600478e-02
5.57243750000000e-01 9.25736737035562e-01 1.21926253368368e-02
5.60631250000000e-01 9.12505681722139e-01 1.20548378590290e-02
5.64018750000000e-01 8.99463730737954e-01 1.19183899207198e-02
5.67406250000000e-01 8.86608181316937e-01 1.17832738897526e-02
5.70793750000000e-01 8.73936369322199e-01 1.16494820147215e-02
5.74181250000000e-01 8.61445668693917e-01 1.15170064317402e-02
5.77568750000000e-01 8.49133490905126e-01 1.13858391709845e-02
5.80956250000000e-01 8.36997284425278e-01 1.12559721630151e-02
5.84343750000000e-01 8.25034534191472e-01 1.11273972448885e-02
5.87731250000000e-01 8.13242761087244e-01 1.10001061660632e-02
5.91118750000000e-01 8.01619521428805e-01 1.08740905941050e-02
5.94506250000000e-01 7.90162406458616e-01 1.07493421202014e-02
5.97893750000000e-01 7.78869041846211e-01 1.06258522644880e-02
6.01281250000000e-01 7.67737087196145e-01 1.05036124811936e-02
6.04668750000000e-01 7.56764235562984e-01 1.03826141636096e-02
6.08056250000000e-01 7.45948212973216e-01 1.02628486488904e-02
6.11443750000000e-01 7.35286777954009e-01 1.01443072226896e-02
6.14831250000000e-01 7.24777721068689e-01 1.00269811236342e-02
6.18218750000000e-01 7.14418864458866e-01 9.91086154764566e-03
6.21606250000000e-01 7.04208061393108e-01 9.79593965211137e-03
6.24993750000000e-01 6.94143195822052e-01 9.68220655991005e-03
6.28381250000000e-01 6.84222181939890e-01 9.56965336329626e-03
6.31768750000000e-01 6.74442963752106e-01 9.45827112764869e-03
6.35156250000000e-01 6.64803514649408e-01 9.34805089508648e-03
6.38543750000000e-01 6.55301836987731e-01 9.23898368795655e-03
6.41931250000000e-01 6.45935961674263e-01 9.13106051219677e-03
6.45318750000000e-01 6.36703947759369e-01 9.02427236057925e-03
6.48706250000000e-01 6.27603882034361e-01 8.91861021583592e-03
6.52093750000000e-01 6.18633878635007e-01 8.81406505367113e-03
6.55481250000000e-01 6.09792078650719e-01 8.71062784566543e-03
6.58868750000000e-01 6.01076649739309e-01 8.60828956207154e-03
6.62256250000000e-01 5.92485785747270e-01 8.50704117450749e-03
6.65643750000000e-01 5.84017706335469e-01 8.40687365854972e-03
6.69031250000000e-01 5.75670656610202e-01 8.30777799623020e-03
6.72418750000000e-01 5.67442906759512e-01 8.20974517843858e-03
6.75806250000000e-01 5.59332751694708e-01 8.11276620723280e-03
6.79193750000000e-01 5.51338510697014e-01 8.01683209806248e-03
6.82581250000000e-01 5.43458527069258e-01 7.92193388190571e-03
6.85968750000000e-01 5.35691167792548e-01 7.82806260732364e-03
6.89356250000000e-01 5.28034823187847e-01 7.73520934243378e-03
6.92743750000000e-01 5.20487906582394e-01 7.64336517680577e-03
6.96131250000000e-01 5.13048853980883e-01 7.55252122328133e-03
6.99518750000000e-01 5.05716123741348e-01 7.46266861972099e-03
7.02906250000000e-01 4.98488196255681e-01 7.37379853067926e-03
7.06293750000000e-01 4.91363573634711e-01 7.28590214901153e-03
7.09681250000000e-01 4.84340779397787e-01 7.19897069741380e-03
7.13068750000000e-01 4.77418358166802e-01 7.11299542989790e-03
7.16456250000000e-01 4.70594875364579e-01 7.02796763320396e-03
7.19843750000000e-01 4.63868916917580e-01 6.94387862815162e-03
7.23231250000000e-01 4.57239088962856e-01 6.86071977093303e-03
7.26618750000000e-01 4.50704017559187e-01 6.77848245434776e-03
7.30006250000000e-01 4.44262348402356e-01 6.69715810898323e-03
7.33393750000000e-01 4.37912746544482e-01 6.61673820434124e-03
7.36781250000000e-01 4.31653896117376e-01 6.53721424991242e-03
7.40168750000000e-01 4.25484500059840e-01 6.45857779620021e-03
7.43556250000000e-01 4.19403279848872e-01 6.38082043569620e-03
7.46943750000000e-01 4.13408975234710e-01 6.30393380380827e-03
7.50331250000000e-01 4.07500343979660e-01 6.22790957974241e-03
7.53718750000000e-01 4.01676161600662e-01 6.15273948734116e-03
7.57106250000000e-01 3.95935221115529e-01 6.07841529587815e-03
7.60493750000000e-01 3.90276332792821e-01 6.00492882081105e-03
7.63881250000000e-01 3.84698323905286e-01 5.93227192449500e-03
7.67268750000000e-01 3.79200038486830e-01 5.86043651685638e-03
7.70656250000000e-01 3.73780337092956e-01 5.78941455602864e-03
7.74043750000000e-01 3.68438096564635e-01 5.71919804895177e-03
7.77431250000000e-01 3.63172209795542e-01 5.64977905193646e-03
7.80818750000000e-01 3.57981585502624e-01 5.58114967119380e-03
7.84206250000000e-01 3.52865147999949e-01 5.51330206333183e-03
7.87593750000000e-01 3.47821836975784e-01 5.44622843581984e-03
7.90981250000000e-01 3.42850607272855e-01 5.37992104742133e-03
7.94368750000000e-01 3.37950428671761e-01 5.31437220859781e-03
7.97756250000000e-01 3.33120285677469e-01 5.24957428188229e-03
8.01143750000000e-01 3.28359177308867e-01 5.18551968222524e-03
8.04531250000000e-01 3.23666116891327e-01 5.12220087731363e-03
8.07918750000000e-01 3.19040131852229e-01 5.05961038786274e-03
8.11306250000000e-01 3.14480263519406e-01 4.99774078788320e-03
8.14693750000000e-01 3.09985566922478e-01 4.93658470492291e-03
8.18081250000000e-01 3.05555110597013e-01 4.87613482028563e-03
8.21468750000000e-01 3.01187976391500e-01 4.81638386922637e-03
8.24856250000000e-01 2.96883259277070e-01 4.75732464112422e-03
8.28243750000000e-01 2.92640067159943e-01 4.69894997963393e-03
8.31631250000000e-01 2.88457520696554e-01 4.64125278281703e-03
8.35018750000000e-01 2.84334753111322e-01 4.58422600325244e-03
8.38406250000000e-01 2.80270910017019e-01 4.52786264812761e-03
8.41793750000000e-01 2.76265149237714e-01 4.47215577931183e-03
8.45181250000000e-01 2.72316640634242e-01 4.41709851341062e-03
8.48568750000000e-01 2.68424565932167e-01 4.36268402180263e-03
8.51956250000000e-01 2.64588118552210e-01 4.30890553066056e-03
8.55343750000000e-01 2.60806503443093e-01 4.25575632095534e-03
8.58731250000000e-01 2.57078936916776e-01 4.20322972844464e-03
8.62118750000000e-01 2.53404646486049e-01 4.15131914364637e-03
8.65506250000000e-01 2.49782870704446e-01 4.10001801179795e-03
8.68893750000000e-01 2.46212859008444e-01 4.04931983280106e-03
8.72281250000000e-01 2.42693871561917e-01 3.99921816115317e-03
8.75668750000000e-01 2.39225179102820e-01 3.94970660586652e-03
8.79056250000000e-01 2.35806062792055e-01 3.90077883037383e-03
8.82443750000000e-01 2.32435814064503e-01 3.85242855242245e-03
8.85831250000000e-01 2.29113734482184e-01 3.80464954395682e-03
8.89218750000000e-01 2.25839135589516e-01 3.75743563098982e-03
8.92606250000000e-01 2.22611338770640e-01 3.71078069346357e-03
8.95993750000000e-01 2.19429675108785e-01 3.66467866509965e-03
8.99381250000000e-01 2.16293485247651e-01 3.61912353323956e-03
9.02768750000000e-01 2.13202119254756e-01 3.57410933867590e-03
9.06156250000000e-01 2.10154936486757e-01 3.52963017547432e-03
9.09543750000000e-01 2.07151305456677e-01 3.48568019078659e-03
9.12931250000000e-01 2.04190603703042e-01 3.44225358465558e-03
9.16318750000000e-01 2.01272217660885e-01 3.39934460981205e-03
9.19706250000000e-01 1.98395542534592e-01 3.35694757146380e-03
9.23093750000000e-01 1.95559982172563e-01 3.31505682707744e-03
9.26481250000000e-01 1.92764948943675e-01 3.27366678615325e-03
9.29868750000000e-01 1.90009863615496e-01 3.23277190999326e-03
9.33256250000000e-01 1.87294155234252e-01 3.19236671146299e-03
9.36643750000000e-01 1.84617261006504e-01 3.15244575474675e-03
9.40031250000000e-01 1.81978626182513e-01 3.11300365509747e-03
9.43418750000000e-01 1.79377703941281e-01 3.07403507858087e-03
9.46806250000000e-01 1.76813955277226e-01 3.03553474181420e-03
9.50193750000000e-01 1.74286848888481e-01 2.99749741170015e-03
9.53581250000000e-01 1.71795861066793e-01 2.95991790515579e-03
9.56968750000000e-01 1.69340475588983e-01 2.92279108883709e-03
9.60356250000000e-01 1.66920183609976e-01 2.88611187885900e-03
9.63743750000000e-01 1.64534483557343e-01 2.84987524051148e-03
9.67131250000000e-01 1.62182881027358e-01 2.81407618797169e-03
9.70518750000000e-01 1.59864888682542e-01 2.77870978401270e-03
9.73906250000000e-01 1.57580026150667e-01 2.74377113970869e-03
9.77293750000000e-01 1.55327819925205e-01 2.70925541413644e-03
9.80681250000000e-01 1.53107803267203e-01 2.67515781407453e-03
9.84068750000000e-01 1.50919516108553e-01 2.64147359369920e-03
9.87456250000000e-01 1.48762504956656e-01 2.60819805427775e-03
9.90843750000000e-01 1.46636322800433e-01 2.57532654385934e-03
9.94231250000000e-01 1.44540529017697e-01 2.54285445696344e-03
9.97618750000000e-01 1.42474689283834e-01 2.51077723426637e-03
1.00100625000000e+00 1.40438375481799e-01 2.47909036228546e-03
1.00439375000000e+00 1.38431165613389e-01 2.44778937306192e-03
1.00778125000000e+00 1.36452643711798e-01 2.41686984384142e-03
1.01116875000000e+00 1.34502399755406e-01 2.38632739675352e-03
1.01455625000000e+00 1.32580029582812e-01 2.35615769848964e-03
1.01794375000000e+00 1.30685134809075e-01 2.32635645997977e-03
1.02133125000000e+00 1.28817322743154e-01 2.29691943606807e-03
1.02471875000000e+00 1.26976206306531e-01 2.26784242518733e-03
1.02810625000000e+00 1.25161403952992e-01 2.23912126903268e-03
1.03149375000000e+00 1.23372539589554e-01 2.21075185223470e-03
1.03488125000000e+00 1.21609242498533e-01 2.18273010203153e-03
1.03826875000000e+00 1.19871147260707e-01 2.15505198794083e-03
1.04165625000000e+00 1.18157893679599e-01 2.12771352143120e-03
1.04504375000000e+00 1.16469126706821e-01 2.10071075559298e-03
1.04843125000000e+00 1.14804496368504e-01 2.07403978480939e-03
1.05181875000000e+00 1.13163657692764e-01 2.04769674442727e-03
1.05520625000000e+00 1.11546270638215e-01 2.02167781042776e-03
1.05859375000000e+00 1.09952000023497e-01 1.99597919909704e-03
1.06198125000000e+00 1.08380515457819e-01 1.97059716669744e-03
1.06536875000000e+00 1.06831491272486e-01 1.94552800913870e-03
1.06875625000000e+00 1.05304606453408e-01 1.92076806164941e-03
