Energy (eV)          EEDF (eV^-(3/2))     First Anisotropy
2.54062500000000e-03 9.77711680096897e+00 8.60168411611114e-03
7.62187500000000e-03 9.56825451330314e+00 1.40995115146320e-02
1.27031250000000e-02 9.36385401698765e+00 1.83386382057227e-02
1.77843750000000e-02 9.16381999763277e+00 2.13969395879506e-02
2.28656250000000e-02 8.96805917698681e+00 2.38167543641589e-02
2.79468750000000e-02 8.77648026944130e+00 2.58078455573388e-02
3.30281250000000e-02 8.58899393946368e+00 2.74811081648467e-02
3.81093750000000e-02 8.40551275993917e+00 2.89048893280647e-02
4.31906250000000e-02 8.22595117140244e+00 3.01254151080901e-02
4.82718750000000e-02 8.05022544214026e+00 3.11759768061214e-02
5.33531250000000e-02 7.87825362914637e+00 3.20816646520690e-02
5.84343750000000e-02 7.70995553991051e+00 3.28620500643543e-02
6.35156250000000e-02 7.54525269502367e+00 3.35328164968638e-02
6.85968750000000e-02 7.38406829158221e+00 3.41068066850570e-02
7.36781250000000e-02 7.22632716737378e+00 3.45947251788849e-02
7.87593750000000e-02 7.07195576582824e+00 3.50056268294595e-02
8.38406250000000e-02 6.92088210171738e+00 3.53472667822035e-02
8.89218750000000e-02 6.77303572758734e+00 3.56263577129878e-02
9.40031250000000e-02 6.62834770090811e+00 3.58487630845770e-02
9.90843750000000e-02 6.48675055192483e+00 3.60196451375290e-02
1.04165625000000e-01 6.34817825219583e+00 3.61435801380246e-02
1.09246875000000e-01 6.21256618380276e+00 3.62246494738161e-02
1.14328125000000e-01 6.07985110921850e+00 3.62665126236721e-02
1.19409375000000e-01 5.94997114181874e+00 3.62724663098044e-02
1.24490625000000e-01 5.82286571702351e+00 3.62454929700981e-02
1.29571875000000e-01 5.69847556405521e+00 3.61883008697887e-02
1.34653125000000e-01 5.57674267829989e+00 3.61033575927120e-02
1.39734375000000e-01 5.45761029425906e+00 3.59929182346569e-02
1.44815625000000e-01 5.34102285907923e+00 3.58590493160482e-02
1.49896875000000e-01 5.22692600664697e+00 3.57036492049906e-02
1.54978125000000e-01 5.11526653223730e+00 3.55284656720511e-02
1.60059375000000e-01 5.00599236770377e+00 3.53351110694835e-02
1.65140625000000e-01 4.89905255719836e+00 3.51250755289703e-02
1.70221875000000e-01 4.79439723341026e+00 3.48997384956260e-02
1.75303125000000e-01 4.69197759431206e+00 3.46603788564033e-02
1.80384375000000e-01 4.59174588040286e+00 3.44081838741007e-02
1.85465625000000e-01 4.49365535243737e+00 3.41442571009103e-02
1.90546875000000e-01 4.39766026963091e+00 3.38696254156432e-02
1.95628125000000e-01 4.30371586832987e+00 3.35852453047946e-02
2.00709375000000e-01 4.21177834113795e+00 3.32920084881536e-02
2.05790625000000e-01 4.12180481648820e+00 3.29907469738049e-02
2.10871875000000e-01 4.03375333865151e+00 3.26822376143785e-02
2.15953125000000e-01 3.94758284817215e+00 3.23672062256578e-02
2.21034375000000e-01 3.86325316272127e+00 3.20463313197715e-02
2.26115625000000e-01 3.78072495835940e+00 3.17202474977833e-02
2.31196875000000e-01 3.69995975119919e+00 3.13895485402800e-02
2.36278125000000e-01 3.62091987945996e+00 3.10547902293527e-02
2.41359375000000e-01 3.54356848590553e+00 3.07164929309490e-02
2.46440625000000e-01 3.46786950065727e+00 3.03751439628362e-02
2.51521875000000e-01 3.39378762437428e+00 3.00311997702453e-02
2.56603125000000e-01 3.32128831179289e+00 2.96850879285266e-02
2.61684375000000e-01 3.25033775561778e+00 2.93372089898339e-02
2.66765625000000e-01 3.18090287075721e+00 2.89879381888362e-02
2.71846875000000e-01 3.11295127889513e+00 2.86376270207281e-02
2.76928125000000e-01 3.04645129339269e+00 2.82866047033044e-02
2.82009375000000e-01 2.98137190451243e+00 2.79351795335665e-02
2.87090625000000e-01 2.91768276495808e+00 2.75836401481865e-02
2.92171875000000e-01 2.85535417572320e+00 2.72322566961626e-02
2.97253125000000e-01 2.79435707224224e+00 2.68812819311337e-02
3.02334375000000e-01 2.73466301083737e+00 2.65309522300540e-02
3.07415625000000e-01 2.67624415545480e+00 2.61814885442496e-02
3.12496875000000e-01 2.61907326468457e+00 2.58330972882982e-02
3.17578125000000e-01 2.56312367905753e+00 2.54859711716358e-02
3.22659375000000e-01 2.50836930861367e+00 2.51402899773306e-02
3.27740625000000e-01 2.45478462073613e+00 2.47962212920530e-02
3.32821875000000e-01 2.40234462824498e+00 2.44539211908979e-02
3.37903125000000e-01 2.35102487774542e+00 2.41135348803890e-02
3.42984375000000e-01 2.30080143822489e+00 2.37751973026932e-02
3.48065625000000e-01 2.25165088989370e+00 2.34390337038212e-02
3.53146875000000e-01 2.20355031326417e+00 2.31051601683404e-02
3.58228125000000e-01 2.15647727846294e+00 2.27736841229185e-02
3.63309375000000e-01 2.11040983477168e+00 2.24447048108288e-02
3.68390625000000e-01 2.06532650039121e+00 2.21183137393633e-02
3.73471875000000e-01 2.02120625242428e+00 2.17945951019519e-02
3.78553125000000e-01 1.97802851707232e+00 2.14736261766455e-02
3.83634375000000e-01 1.93577316004167e+00 2.11554777024795e-02
3.88715625000000e-01 1.89442047715468e+00 2.08402142351310e-02
3.93796875000000e-01 1.85395118516145e+00 2.05278944831717e-02
3.98878125000000e-01 1.81434641274778e+00 2.02185716261164e-02
4.03959375000000e-01 1.77558769173531e+00 1.99122936153857e-02
4.09040625000000e-01 1.73765694846951e+00 1.96091034592184e-02
4.14121875000000e-01 1.70053649539179e+00 1.93090394924921e-02
4.19203125000000e-01 1.66420902279156e+00 1.90121356323482e-02
4.24284375000000e-01 1.62865759073447e+00 1.87184216204491e-02
4.29365625000000e-01 1.59386562116316e+00 1.84279232526449e-02
4.34446875000000e-01 1.55981689016670e+00 1.81406625967694e-02
4.39528125000000e-01 1.52649552041517e+00 1.78566581992381e-02
4.44609375000000e-01 1.49388597375591e+00 1.75759252810803e-02
4.49690625000000e-01 1.46197304396784e+00 1.72984759239889e-02
4.54771875000000e-01 1.43074184967066e+00 1.70243192469393e-02
4.59853125000000e-01 1.40017782738548e+00 1.67534615738961e-02
4.64934375000000e-01 1.37026672474367e+00 1.64859065930845e-02
4.70015625000000e-01 1.34099459384085e+00 1.62216555082812e-02
4.75096875000000e-01 1.31234778473277e+00 1.59607071825510e-02
4.80178125000000e-01 1.28431293907021e+00 1.57030582748250e-02
4.85259375000000e-01 1.25687698386982e+00 1.54487033696974e-02
4.90340625000000e-01 1.23002712541801e+00 1.51976351007927e-02
4.95421875000000e-01 1.20375084330513e+00 1.49498442680350e-02
5.00503125000000e-01 1.17803588458700e+00 1.47053199491306e-02
5.05584375000000e-01 1.15287025807125e+00 1.44640496055602e-02
5.10665625000000e-01 1.12824222872568e+00 1.42260191833577e-02
5.15746875000000e-01 1.10414031220609e+00 1.39912132089359e-02
5.20828125000000e-01 1.08055326950093e+00 1.37596148802079e-02
5.25909375000000e-01 1.05747010169050e+00 1.35312061532356e-02
5.30990625000000e-01 1.03488004481796e+00 1.33059678246290e-02
5.36071875000000e-01 1.01277256487000e+00 1.30838796099023e-02
5.41153125000000e-01 9.91137352864675e-01 1.28649202179830e-02
5.46234375000000e-01 9.69964320044249e-01 1.26490674220641e-02
5.51315625000000e-01 9.49243593170641e-01 1.24362981269726e-02
5.56396875000000e-01 9.28965509921441e-01 1.22265884332247e-02
5.61478125000000e-01 9.09120614384246e-01 1.20199136979233e-02
5.66559375000000e-01 8.89699652647258e-01 1.18162485926507e-02
5.71640625000000e-01 8.70693568484074e-01 1.16155671584976e-02
5.76721875000000e-01 8.52093499130654e-01 1.14178428583644e-02
5.81803125000000e-01 8.33890771152518e-01 1.12230486266622e-02
5.86884375000000e-01 8.16076896400212e-01 1.10311569165373e-02
5.91965625000000e-01 7.98643568051186e-01 1.08421397447340e-02
5.97046875000000e-01 7.81582656736223e-01 1.06559687342052e-02
6.02128125000000e-01 7.64886206748617e-01 1.04726151545763e-02
6.07209375000000e-01 7.48546432334332e-01 1.02920499605617e-02
6.12290625000000e-01 7.32555714061410e-01 1.01142438284290e-02
6.17371875000000e-01 7.16906595266941e-01 9.93916719059981e-03
6.22453125000000e-01 7.01591778579934e-01 9.76679026847370e-03
6.27534375000000e-01 6.86604122518461e-01 9.59708310355749e-03
6.32615625000000e-01 6.71936638159501e-01 9.43001558697607e-03
6.37696875000000e-01 6.57582485879922e-01 9.26555748743994e-03
6.42778125000000e-01 6.43534972167083e-01 9.10367847773979e-03
6.47859375000000e-01 6.29787546497569e-01 8.94434815983548e-03
6.52940625000000e-01 6.16333798282604e-01 8.78753608860262e-03
6.58021875000000e-01 6.03167453878714e-01 8.63321179429922e-03
6.63103125000000e-01 5.90282373662259e-01 8.48134480381000e-03
6.68184375000000e-01 5.77672549166444e-01 8.33190466072326e-03
6.73265625000000e-01 5.65332100279507e-01 8.18486094429503e-03
6.78346875000000e-01 5.53255272502749e-01 8.04018328734991e-03
6.83428125000000e-01 5.41436434267143e-01 7.89784139316691e-03
6.88509375000000e-01 5.29870074307265e-01 7.75780505139718e-03
6.93590625000000e-01 5.18550799091330e-01 7.62004415305750e-03
6.98671875000000e-01 5.07473330306115e-01 7.48452870464054e-03
7.03753125000000e-01 4.96632502395627e-01 7.35122884138380e-03
7.08834375000000e-01 4.86023260152338e-01 7.22011483973442e-03
7.13915625000000e-01 4.75640656359884e-01 7.09115712904705e-03
7.18996875000000e-01 4.65479849486114e-01 6.96432630254962e-03
7.24078125000000e-01 4.55536101425433e-01 6.83959312761066e-03
7.29159375000000e-01 4.45804775289360e-01 6.71692855534067e-03
7.34240625000000e-01 4.36281333244296e-01 6.59630372955661e-03
7.39321875000000e-01 4.26961334395476e-01 6.47768999514082e-03
7.44403125000000e-01 4.17840432716127e-01 6.36105890582138e-03
7.49484375000000e-01 4.08914375020864e-01 6.24638223140011e-03
7.54565625000000e-01 4.00178998982379e-01 6.13363196445516e-03
7.59646875000000e-01 3.91630231190498e-01 6.02278032654160e-03
7.64728125000000e-01 3.83264085252701e-01 5.91379977391394e-03
7.69809375000000e-01 3.75076659935219e-01 5.80666300279297e-03
7.74890625000000e-01 3.67064137343843e-01 5.70134295419829e-03
7.79971875000000e-01 3.59222781143595e-01 5.59781281836704e-03
7.85053125000000e-01 3.51548934816428e-01 5.49604603877843e-03
7.90134375000000e-01 3.44039019956150e-01 5.39601631580306e-03
7.95215625000000e-01 3.36689534599771e-01 5.29769760999510e-03
8.00296875000000e-01 3.29497051594493e-01 5.20106414504397e-03
8.05378125000000e-01 3.22458216999590e-01 5.10609041040249e-03
8.10459375000000e-01 3.15569748522425e-01 5.01275116360727e-03
8.15540625000000e-01 3.08828433987878e-01 4.92102143230618e-03
8.20621875000000e-01 3.02231129840468e-01 4.83087651600761e-03
8.25703125000000e-01 2.95774759678480e-01 4.74229198756492e-03
8.30784375000000e-01 2.89456312819398e-01 4.65524369441005e-03
8.35865625000000e-01 2.83272842895990e-01 4.56970775954797e-03
8.40946875000000e-01 2.77221466482380e-01 4.48566058232487e-03
8.46028125000000e-01 2.71299361749475e-01 4.40307883898160e-03
8.51109375000000e-01 2.65503767149110e-01 4.32193948300316e-03
8.56190625000000e-01 2.59831980126304e-01 4.24221974527485e-03
8.61271875000000e-01 2.54281355859031e-01 4.16389713405555e-03
8.66353125000000e-01 2.48849306024904e-01 4.08694943477777e-03
8.71434375000000e-01 2.43533297594208e-01 4.01135470968368e-03
8.76515625000000e-01 2.38330851648723e-01 3.93709129730623e-03
8.81596875000000e-01 2.33239542225772e-01 3.86413781180338e-03
8.86678125000000e-01 2.28256995186964e-01 3.79247314215435e-03
8.91759375000000e-01 2.23380887111109e-01 3.72207645122515e-03
8.96840625000000e-01 2.18608944210773e-01 3.65292717471094e-03
9.01921875000000e-01 2.13938941271992e-01 3.58500501996268e-03
9.07003125000000e-01 2.09368700616620e-01 3.51828996470450e-03
9.12084375000000e-01 2.04896091086858e-01 3.45276225564865e-03
9.17165625000000e-01 2.00519027051464e-01 3.38840240701396e-03
9.22246875000000e-01 1.96235467433203e-01 3.32519119895385e-03
9.27328125000000e-01 1.92043414757067e-01 3.26310967590017e-03
9.32409375000000e-01 1.87940914218826e-01 3.20213914482752e-03
9.37490625000000e-01 1.83926052773482e-01 3.14226117344353e-03
9.42571875000000e-01 1.79996958243194e-01 3.08345758831060e-03
9.47653125000000e-01 1.76151798444257e-01 3.02571047290300e-03
9.52734375000000e-01 1.72388780332733e-01 2.96900216560470e-03
9.57815625000000e-01 1.68706149168335e-01 2.91331525765170e-03
9.62896875000000e-01 1.65102187696169e-01 2.85863259102324e-03
9.67978125000000e-01 1.61575215345957e-01 2.80493725628598e-03
9.73059375000000e-01 1.58123587448371e-01 2.75221259039465e-03
9.78140625000000e-01 1.54745694468098e-01 2.70044217445313e-03
9.83221875000000e-01 1.51439961253299e-01 2.64960983143898e-03
9.88303125000000e-01 1.48204846301095e-01 2.59969962389512e-03
9.93384375000000e-01 1.45038841038746e-01 2.55069585159177e-03
9.98465625000000e-01 1.41940469120188e-01 2.50258304916110e-03
1.00354687500000e+00 1.38908285737590e-01 2.45534598370795e-03
1.00862812500000e+00 1.35940876947627e-01 2.40896965239964e-03
1.01370937500000e+00 1.33036859012140e-01 2.36343928003659e-03
1.01879062500000e+00 1.30194877752883e-01 2.31874031660674e-03
1.02387187500000e+00 1.27413607920053e-01 2.27485843482622e-03
1.02895312500000e+00 1.24691752574310e-01 2.23177952766815e-03
1.03403437500000e+00 1.22028042481999e-01 2.18948970588193e-03
1.03911562500000e+00 1.19421235523290e-01 2.14797529550499e-03
1.04419687500000e+00 1.16870116112966e-01 2.10722283536896e-03
1.04927812500000e+00 1.14373494633576e-01 2.06721907460184e-03
1.05435937500000e+00 1.11930206880709e-01 2.02795097012824e-03
1.05944062500000e+00 1.09539113520103e-01 1.98940568416924e-03
1.06452187500000e+00 1.07199099556369e-01 1.95157058174310e-03
1.06960312500000e+00 1.04909073813048e-01 1.91443322816880e-03
1.07468437500000e+00 1.02667968423785e-01 1.87798138657346e-03
1.07976562500000e+00 1.00474738334373e-01 1.84220301540501e-03
1.08484687500000e+00 9.83283608154253e-02 1.80708626595163e-03
1.08992812500000e+00 9.62278349854718e-02 1.77261947986867e-03
1.09500937500000e+00 9.41721813442307e-02 1.73879118671457e-03
1.10009062500000e+00 9.21604413158584e-02 1.70559010149667e-03
1.10517187500000e+00 9.01916768019531e-02 1.67300512222790e-03
1.11025312500000e+00 8.82649697441090e-02 1.64102532749533e-03
1.11533437500000e+00 8.63794216958140e-02 1.60963997404149e-03
1.12041562500000e+00 8.45341534034940e-02 1.57883849435907e-03
1.12549687500000e+00 8.27283043965060e-02 1.54861049430010e-03
1.13057812500000e+00 8.09610325858906e-02 1.51894575070015e-03
1.13565937500000e+00 7.92315138716958e-02 1.48983420901822e-03
1.14074062500000e+00 7.75389417586895e-02 1.46126598099312e-03
1.14582187500000e+00 7.58825269802806e-02 1.43323134231662e-03
1.15090312500000e+00 7.42614971304754e-02 1.40572073032423e-03
1.15598437500000e+00 7.26750963036947e-02 1.37872474170407e-03
1.16106562500000e+00 7.11225847422864e-02 1.35223413022419e-03
1.16614687500000e+00 6.96032384915678e-02 1.32623980447883e-03
1.17122812500000e+00 6.81163490622362e-02 1.30073282565405e-03
1.17630937500000e+00 6.66612230999929e-02 1.27570440531317e-03
1.18139062500000e+00 6.52371820622228e-02 1.25114590320219e-03
1.18647187500000e+00 6.38435619015826e-02 1.22704882507565e-03
1.19155312500000e+00 6.24797127563472e-02 1.20340482054325e-03
1.19663437500000e+00 6.11449986473717e-02 1.18020568093728e-03
1.20171562500000e+00 5.98387971815264e-02 1.15744333720142e-03
1.20679687500000e+00 5.85604992614676e-02 1.13510985780069e-03
1.21187812500000e+00 5.73095088016085e-02 1.11319744665309e-03
1.21695937500000e+00 5.60852424501567e-02 1.09169844108304e-03
1.22204062500000e+00 5.48871293170913e-02 1.07060530979668e-03
1.22712187500000e+00 5.37146107079489e-02 1.04991065087903e-03
1.23220312500000e+00 5.25671398632986e-02 1.02960718981344e-03
1.23728437500000e+00 5.14441817037814e-02 1.00968777752308e-03
1.24236562500000e+00 5.03452125805957e-02 9.90145388434818e-04
1.24744687500000e+00 4.92697200313143e-02 9.70973118565245e-04
1.25252812500000e+00 4.82172025409167e-02 9.52164183629152e-04
1.25760937500000e+00 4.71871693079270e-02 9.33711917170328e-04
1.26269062500000e+00 4.61791400155466e-02 9.15609768714705e-04
1.26777187500000e+00 4.51926446076777e-02 8.97851301945854e-04
1.27285312500000e+00 4.42272230697297e-02 8.80430192902803e-04
1.27793437500000e+00 4.32824252141093e-02 8.63340228200160e-04
1.28301562500000e+00 4.23578104702926e-02 8.46575303270470e-04
1.28809687500000e+00 4.14529476793818e-02 8.30129420628730e-04
1.29317812500000e+00 4.05674148930507e-02 8.13996688159049e-04
1.29825937500000e+00 3.97007991767849e-02 7.98171317423414e-04
1.30334062500000e+00 3.88526964173260e-02 7.82647621992275e-04
1.30842187500000e+00 3.80227111342281e-02 7.67420015797054e-04
1.31350312500000e+00 3.72104562954413e-02 7.52483011504448e-04
1.31858437500000e+00 3.64155531368332e-02 7.37831218912296e-04
1.32366562500000e+00 3.56376309855676e-02 7.23459343367009e-04
1.32874687500000e+00 3.48763270872543e-02 7.09362184202422e-04
1.33382812500000e+00 3.41312864367933e-02 6.95534633199846e-04
1.33890937500000e+00 3.34021616128313e-02 6.81971673069285e-04
1.34399062500000e+00 3.26886126157546e-02 6.68668375951645e-04
1.34907187500000e+00 3.19903067091442e-02 6.55619901941723e-04
1.35415312500000e+00 3.13069182646157e-02 6.42821497631933e-04
1.35923437500000e+00 3.06381286099756e-02 6.30268494676496e-04
1.36431562500000e+00 2.99836258806207e-02 6.17956308376041e-04
1.36939687500000e+00 2.93431048741115e-02 6.05880436282331e-04
1.37447812500000e+00 2.87162669078527e-02 5.94036456823048e-04
1.37955937500000e+00 2.81028196798143e-02 5.82420027946401e-04
1.38464062500000e+00 2.75024771322274e-02 5.71026885785369e-04
1.38972187500000e+00 2.69149593181922e-02 5.59852843341524e-04
1.39480312500000e+00 2.63399922711351e-02 5.48893789188044e-04
1.39988437500000e+00 2.57773078770552e-02 5.38145686191876e-04
1.40496562500000e+00 2.52266437494994e-02 5.27604570254867e-04
1.41004687500000e+00 2.46877431072084e-02 5.17266549073593e-04
1.41512812500000e+00 2.41603546543765e-02 5.07127800917728e-04
1.42020937500000e+00 2.36442324634694e-02 4.97184573426784e-04
1.42529062500000e+00 2.31391358605456e-02 4.87433182425020e-04
1.43037187500000e+00 2.26448293130265e-02 4.77870010754299e-04
1.43545312500000e+00 2.21610823198657e-02 4.68491507124732e-04
1.44053437500000e+00 2.16876693040626e-02 4.59294184982862e-04
1.44561562500000e+00 2.12243695074741e-02 4.50274621397253e-04
1.45069687500000e+00 2.07709668878717e-02 4.41429455961247e-04
1.45577812500000e+00 2.03272500181988e-02 4.32755389712689e-04
1.46085937500000e+00 1.98930119879799e-02 4.24249184070462e-04
1.46594062500000e+00 1.94680503068352e-02 4.15907659787561e-04
1.47102187500000e+00 1.90521668100575e-02 4.07727695920584e-04
1.47610312500000e+00 1.86451675662052e-02 3.99706228815396e-04
1.48118437500000e+00 1.82468627866703e-02 3.91840251108769e-04
1.48626562500000e+00 1.78570667371768e-02 3.84126810745832e-04
1.49134687500000e+00 1.74755976511717e-02 3.76563010013091e-04
1.49642812500000e+00 1.71022776450642e-02 3.69146004586840e-04
1.50150937500000e+00 1.67369326352768e-02 3.61873002596800e-04
1.50659062500000e+00 1.63793922570680e-02 3.54741263704737e-04
1.51167187500000e+00 1.60294897850895e-02 3.47748098197897e-04
1.51675312500000e+00 1.56870620556397e-02 3.40890866097046e-04
1.52183437500000e+00 1.53519493905785e-02 3.34166976278931e-04
1.52691562500000e+00 1.50239955228680e-02 3.27573885612984e-04
1.53199687500000e+00 1.47030475237030e-02 3.21109098112056e-04
1.53707812500000e+00 1.43889557311982e-02 3.14770164097000e-04
1.54215937500000e+00 1.40815736805997e-02 3.08554679374910e-04
1.54724062500000e+00 1.37807580359860e-02 3.02460284430844e-04
1.55232187500000e+00 1.34863685234296e-02 2.96484663632841e-04
1.55740312500000e+00 1.31982678655847e-02 2.90625544450012e-04
1.56248437500000e+00 1.29163217176737e-02 2.84880696683587e-04
1.56756562500000e+00 1.26403986048407e-02 2.79247931710672e-04
1.57264687500000e+00 1.23703698608426e-02 2.73725101740579e-04
1.57772812500000e+00 1.21061095680513e-02 2.68310099083529e-04
1.58280937500000e+00 1.18474944987360e-02 2.63000855431571e-04
1.58789062500000e+00 1.15944040576013e-02 2.57795341151506e-04
1.59297187500000e+00 1.13467202255518e-02 2.52691564589681e-04
1.59805312500000e+00 1.11043275046585e-02 2.47687571388454e-04
1.60313437500000e+00 1.08671128643008e-02 2.42781443814168e-04
