Energy (eV)          EEDF (eV^-(3/2))     First Anisotropy
5.68333333333333e-03 1.14286337434120e+00 7.71613015407926e-04
1.70500000000000e-02 1.12978619296090e+00 1.27113598408721e-03
2.84166666666667e-02 1.11685864692622e+00 1.67007148687296e-03
3.97833333333333e-02 1.10407902395171e+00 1.96833797783045e-03
5.11500000000000e-02 1.09144563143462e+00 2.21314883578303e-03
6.25166666666667e-02 1.07895679616557e+00 2.42247792096208e-03
7.38833333333333e-02 1.06661086402900e+00 2.60568762551365e-03
8.52500000000000e-02 1.05440619986056e+00 2.76846764542337e-03
9.66166666666667e-02 1.04234118722062e+00 2.91461512219592e-03
1.07983333333333e-01 1.03041422813719e+00 3.04683037450104e-03
1.19350000000000e-01 1.01862374290413e+00 3.16712448582142e-03
1.30716666666667e-01 1.00696817002393e+00 3.27704891711770e-03
1.42083333333333e-01 9.95445965673318e-01 3.37783426291660e-03
1.53450000000000e-01 9.84055603788480e-01 3.47047880378230e-03
1.64816666666667e-01 9.72795575840301e-01 3.55580759956024e-03
1.76183333333333e-01 9.61664390416679e-01 3.63451328430171e-03
1.87550000000000e-01 9.50660573241920e-01 3.70718510802624e-03
1.98916666666667e-01 9.39782666966888e-01 3.77433018786333e-03
2.10283333333333e-01 9.29029230804429e-01 3.83638933321925e-03
2.21650000000000e-01 9.18398840509719e-01 3.89374908142559e-03
2.33016666666667e-01 9.07890088181418e-01 3.94675104520222e-03
2.44383333333333e-01 8.97501581935285e-01 3.99569921728598e-03
2.55750000000000e-01 8.87231945859637e-01 4.04086577890289e-03
2.67116666666667e-01 8.77079819825553e-01 4.08249580922448e-03
2.78483333333333e-01 8.67043859189756e-01 4.12081108637165e-03
2.89850000000000e-01 8.57122734733536e-01 4.15601320854912e-03
3.01216666666667e-01 8.47315132480854e-01 4.18828621192885e-03
3.12583333333333e-01 8.37619753424720e-01 4.21779873004994e-03
3.23950000000000e-01 8.28035313454853e-01 4.24470581055985e-03
3.35316666666667e-01 8.18560543182967e-01 4.26915048354411e-03
3.46683333333333e-01 8.09194187688620e-01 4.29126507351102e-03
3.58050000000000e-01 7.99935006439185e-01 4.31117232436047e-03
3.69416666666667e-01 7.90781773121766e-01 4.32898639617220e-03
3.80783333333333e-01 7.81733275405630e-01 4.34481370571236e-03
3.92150000000000e-01 7.72788314856966e-01 4.35875365821630e-03
4.03516666666667e-01 7.63945706777012e-01 4.37089931210707e-03
4.14883333333333e-01 7.55204279978900e-01 4.38133794103690e-03
4.26250000000000e-01 7.46562876698975e-01 4.39015152939054e-03
4.37616666666667e-01 7.38020352440801e-01 4.39741723362313e-03
4.48983333333333e-01 7.29575575764726e-01 4.40320777161152e-03
4.60350000000000e-01 7.21227428197069e-01 4.40759176951464e-03
4.71716666666667e-01 7.12974804079726e-01 4.41063409296497e-03
4.83083333333333e-01 7.04816610371097e-01 4.41239612488925e-03
4.94450000000000e-01 6.96751766554135e-01 4.41293601520425e-03
5.05816666666667e-01 6.88779204491288e-01 4.41230892557586e-03
5.17183333333333e-01 6.80897868235697e-01 4.41056723269371e-03
5.28550000000000e-01 6.73106713938855e-01 4.40776071235172e-03
5.39916666666667e-01 6.65404709710647e-01 4.40393672494733e-03
5.51283333333333e-01 6.57790835439926e-01 4.39914036744324e-03
5.62650000000000e-01 6.50264082702336e-01 4.39341461188077e-03
5.74016666666667e-01 6.42823454625260e-01 4.38680044910710e-03
5.85383333333333e-01 6.35467965716990e-01 4.37933700450702e-03
5.96750000000000e-01 6.28196641775166e-01 4.37106164409281e-03
6.08116666666667e-01 6.21008519756435e-01 4.36201008805975e-03
6.19483333333333e-01 6.13902647613557e-01 4.35221650036206e-03
6.30850000000000e-01 6.06878084204813e-01 4.34171357123598e-03
6.42216666666667e-01 5.99933899168177e-01 4.33053260848491e-03
6.53583333333333e-01 5.93069172765810e-01 4.31870360779990e-03
6.64950000000000e-01 5.86282995794680e-01 4.30625531782831e-03
6.76316666666667e-01 5.79574469465098e-01 4.29321531469928e-03
6.87683333333333e-01 5.72942705252087e-01 4.27961005792013e-03
6.99050000000000e-01 5.66386824807434e-01 4.26546494230031e-03
7.10416666666667e-01 5.59905959842409e-01 4.25080435964228e-03
7.21783333333333e-01 5.53499251985589e-01 4.23565174366427e-03
7.33150000000000e-01 5.47165852696483e-01 4.22002961187611e-03
7.44516666666667e-01 5.40904923152301e-01 4.20395961728489e-03
7.55883333333333e-01 5.34715634111820e-01 4.18746258485346e-03
7.67250000000000e-01 5.28597165830716e-01 4.17055854559051e-03
7.78616666666667e-01 5.22548707952226e-01 4.15326678037499e-03
7.89983333333333e-01 5.16569459376713e-01 4.13560584980313e-03
8.01350000000000e-01 5.10658628178789e-01 4.11759362217368e-03
8.12716666666667e-01 5.04815431501739e-01 4.09924731100942e-03
8.24083333333333e-01 4.99039095432451e-01 4.08058349968086e-03
8.35450000000000e-01 4.93328854920412e-01 4.06161816455160e-03
8.46816666666667e-01 4.87683953675738e-01 4.04236670739746e-03
8.58183333333333e-01 4.82103644049208e-01 4.02284397586107e-03
8.69550000000000e-01 4.76587186953151e-01 4.00306428272223e-03
8.80916666666667e-01 4.71133851762974e-01 3.98304143414083e-03
8.92283333333333e-01 4.65742916202021e-01 3.96278874675241e-03
9.03650000000000e-01 4.60413666264383e-01 3.94231906380721e-03
9.15016666666667e-01 4.55145396119809e-01 3.92164477995897e-03
9.26383333333333e-01 4.49937408003130e-01 3.90077785563177e-03
9.37750000000000e-01 4.44789012139028e-01 3.87972983060805e-03
9.49116666666667e-01 4.39699526650188e-01 3.85851184593313e-03
9.60483333333333e-01 4.34668277451084e-01 3.83713465604722e-03
9.71850000000000e-01 4.29694598174694e-01 3.81560864027967e-03
9.83216666666667e-01 4.24777830083792e-01 3.79394382232384e-03
9.94583333333333e-01 4.19917321968880e-01 3.77214988317423e-03
1.00595000000000e+00 4.15112430062771e-01 3.75023615770725e-03
1.01731666666667e+00 4.10362518024895e-01 3.72821167563001e-03
1.02868333333333e+00 4.05666956703999e-01 3.70608516012085e-03
1.04005000000000e+00 4.01025124193987e-01 3.68386500975999e-03
1.05141666666667e+00 3.96436405747742e-01 3.66155936070489e-03
1.06278333333333e+00 3.91900193566416e-01 3.63917607123593e-03
1.07415000000000e+00 3.87415886848973e-01 3.61672270645157e-03
1.08551666666667e+00 3.82982891709091e-01 3.59420659661038e-03
1.09688333333333e+00 3.78600620975570e-01 3.57163482173727e-03
1.10825000000000e+00 3.74268494236214e-01 3.54901419641258e-03
1.11961666666667e+00 3.69985937757687e-01 3.52635132461981e-03
1.13098333333333e+00 3.65752384296293e-01 3.50365258451316e-03
1.14235000000000e+00 3.61567273136758e-01 3.48092411339211e-03
1.15371666666667e+00 3.57430050014927e-01 3.45817185934868e-03
1.16508333333333e+00 3.53340166938241e-01 3.43540156627242e-03
1.17645000000000e+00 3.49297082219912e-01 3.41261875907988e-03
1.18781666666667e+00 3.45300260404357e-01 3.38982879241903e-03
1.19918333333333e+00 3.41349172096745e-01 3.36703683596873e-03
1.21055000000000e+00 3.37443293993023e-01 3.34424785997369e-03
1.22191666666667e+00 3.33582108807982e-01 3.32146668123435e-03
1.23328333333333e+00 3.29765105113296e-01 3.29869794874255e-03
1.24465000000000e+00 3.25991777363808e-01 3.27594612955926e-03
1.25601666666667e+00 3.22261625828130e-01 3.25321555229192e-03
1.26738333333333e+00 3.18574156434651e-01 3.23051039309577e-03
1.27875000000000e+00 3.14928880794445e-01 3.20783466192148e-03
1.29011666666667e+00 3.11325316134306e-01 3.18519224366089e-03
1.30148333333333e+00 3.07762985150248e-01 3.16258688453443e-03
1.31285000000000e+00 3.04241416027361e-01 3.14002217872585e-03
1.32421666666667e+00 3.00760142375190e-01 3.11750160735899e-03
1.33558333333333e+00 2.97318703088285e-01 3.09502852528458e-03
1.34695000000000e+00 2.93916642363293e-01 3.07260614811368e-03
1.35831666666667e+00 2.90553509636603e-01 3.05023758917162e-03
1.36968333333333e+00 2.87228859451525e-01 3.02792584669161e-03
1.38105000000000e+00 2.83942251472897e-01 3.00567379125297e-03
1.39241666666667e+00 2.80693250426901e-01 2.98348420084478e-03
1.40378333333333e+00 2.77481425974499e-01 2.96135974846912e-03
1.41515000000000e+00 2.74306352723789e-01 2.93930298998599e-03
1.42651666666667e+00 2.71167610171918e-01 2.91731639740783e-03
1.43788333333333e+00 2.68064782584418e-01 2.89540234691187e-03
1.44925000000000e+00 2.64997459005532e-01 2.87356310709027e-03
1.46061666666667e+00 2.61965233202144e-01 2.85180087058498e-03
1.47198333333333e+00 2.58967703548695e-01 2.83011774250652e-03
1.48335000000000e+00 2.56004473035662e-01 2.80851572908504e-03
1.49471666666667e+00 2.53075149215451e-01 2.78699676774711e-03
1.50608333333333e+00 2.50179344092566e-01 2.76556271593552e-03
1.51745000000000e+00 2.47316674130444e-01 2.74421534015513e-03
1.52881666666667e+00 2.44486760199216e-01 2.72295634458435e-03
1.54018333333333e+00 2.41689227470866e-01 2.70178736028859e-03
1.55155000000000e+00 2.38923705424568e-01 2.68070993465399e-03
1.56291666666667e+00 2.36189827796260e-01 2.65972555861923e-03
1.57428333333333e+00 2.33487232478522e-01 2.63883565627422e-03
1.58565000000000e+00 2.30815561524561e-01 2.61804157467308e-03
1.59701666666667e+00 2.28174461099537e-01 2.59734460976527e-03
1.60838333333333e+00 2.25563581384908e-01 2.57674599637050e-03
1.61975000000000e+00 2.22982576581202e-01 2.55624689836182e-03
1.63111666666667e+00 2.20431104861027e-01 2.53584843336902e-03
1.64248333333333e+00 2.17908828277654e-01 2.51555166312006e-03
1.65385000000000e+00 2.15415412766702e-01 2.49535758398394e-03
1.66521666666667e+00 2.12950528100764e-01 2.47526715051462e-03
1.67658333333333e+00 2.10513847802020e-01 2.45528126614868e-03
1.68795000000000e+00 2.08105049142931e-01 2.43540077409781e-03
1.69931666666667e+00 2.05723813102444e-01 2.41562647979635e-03
1.71068333333333e+00 2.03369824282411e-01 2.39595914194434e-03
1.72205000000000e+00 2.01042770907412e-01 2.37639946373920e-03
1.73341666666667e+00 1.98742344782464e-01 2.35694811428575e-03
1.74478333333333e+00 1.96468241213072e-01 2.33760571997413e-03
1.75615000000000e+00 1.94220159004262e-01 2.31837285603960e-03
1.76751666666667e+00 1.91997800419746e-01 2.29925006699035e-03
1.77888333333333e+00 1.89800871105423e-01 2.28023785830915e-03
1.79025000000000e+00 1.87629080087705e-01 2.26133668833078e-03
1.80161666666667e+00 1.85482139734088e-01 2.24254698773900e-03
1.81298333333333e+00 1.83359765679935e-01 2.22386915158101e-03
1.82435000000000e+00 1.81261676826171e-01 2.20530353145183e-03
1.83571666666667e+00 1.79187595301211e-01 2.18685045410851e-03
1.84708333333333e+00 1.77137246390861e-01 2.16851021378697e-03
1.85845000000000e+00 1.75110358535454e-01 2.15028306468259e-03
1.86981666666667e+00 1.73106663293092e-01 2.13216923872675e-03
1.88118333333333e+00 1.71125895272511e-01 2.11416893819542e-03
1.89255000000000e+00 1.69167792129725e-01 2.09628232847573e-03
1.90391666666667e+00 1.67232094532526e-01 2.07850955504690e-03
1.91528333333333e+00 1.65318546096185e-01 2.06085073637062e-03
1.92665000000000e+00 1.63426893379650e-01 2.04330595693295e-03
1.93801666666667e+00 1.61556885851269e-01 2.02587528346979e-03
1.94938333333333e+00 1.59708275827189e-01 2.00855875812843e-03
1.96075000000000e+00 1.57880818467159e-01 1.99135639177544e-03
1.97211666666667e+00 1.56074271741444e-01 1.97426817950387e-03
1.98348333333333e+00 1.54288396371774e-01 1.95729409405589e-03
1.99485000000000e+00 1.52522955826829e-01 1.94043407938668e-03
2.00621666666667e+00 1.50777716290270e-01 1.92368806548889e-03
2.01758333333333e+00 1.49052446604157e-01 1.90705596206693e-03
2.02895000000000e+00 1.47346918264119e-01 1.89053765234735e-03
2.04031666666667e+00 1.45660905388500e-01 1.87413300725359e-03
2.05168333333333e+00 1.43994184664100e-01 1.85784187932254e-03
2.06305000000000e+00 1.42346535341101e-01 1.84166409675211e-03
2.07441666666667e+00 1.40717739203262e-01 1.82559947695776e-03
2.08578333333333e+00 1.39107580515897e-01 1.80964782072238e-03
2.09715000000000e+00 1.37515846020579e-01 1.79380890647191e-03
2.10851666666667e+00 1.35942324906357e-01 1.77808250324320e-03
2.11988333333333e+00 1.34386808759864e-01 1.76246836505846e-03
2.13125000000000e+00 1.32849091559837e-01 1.74696622542050e-03
2.14261666666667e+00 1.31328969649316e-01 1.73157580971962e-03
2.15398333333333e+00 1.29826241687789e-01 1.71629682982397e-03
2.16535000000000e+00 1.28340708645553e-01 1.70112897878628e-03
2.17671666666667e+00 1.26872173776870e-01 1.68607194271643e-03
2.18808333333333e+00 1.25420442574049e-01 1.67112539557915e-03
2.19945000000000e+00 1.23985322761682e-01 1.65628899410411e-03
2.21081666666667e+00 1.22566624270719e-01 1.64156238914921e-03
2.22218333333333e+00 1.21164159194404e-01 1.62694522069799e-03
2.23355000000000e+00 1.19777741782409e-01 1.61243711296516e-03
2.24491666666667e+00 1.18407188415798e-01 1.59803768527405e-03
2.25628333333333e+00 1.17052317564733e-01 1.58374654724619e-03
2.26765000000000e+00 1.15712949782532e-01 1.56956329409461e-03
2.27901666666667e+00 1.14388907681483e-01 1.55548751703816e-03
2.29038333333333e+00 1.13080015892257e-01 1.54151879867578e-03
2.30175000000000e+00 1.11786101057893e-01 1.52765670846024e-03
2.31311666666667e+00 1.10506991810450e-01 1.51390081267077e-03
2.32448333333333e+00 1.09242518732033e-01 1.50025066996449e-03
2.33585000000000e+00 1.07992514348744e-01 1.48670582702409e-03
2.34721666666667e+00 1.06756813108127e-01 1.47326582810844e-03
2.35858333333333e+00 1.05535251341752e-01 1.45993021077482e-03
2.36995000000000e+00 1.04327667259132e-01 1.44669850169349e-03
2.38131666666667e+00 1.03133900925949e-01 1.43357022579567e-03
2.39268333333333e+00 1.01953794228115e-01 1.42054490215972e-03
2.40405000000000e+00 1.00787190865686e-01 1.40762203998607e-03
2.41541666666667e+00 9.96339363318236e-02 1.39480114736091e-03
2.42678333333333e+00 9.84938778782878e-02 1.38208172729996e-03
2.43815000000000e+00 9.73668645093468e-02 1.36946327387758e-03
2.44951666666667e+00 9.62527469614626e-02 1.35694528062334e-03
2.46088333333333e+00 9.51513776701400e-02 1.34452723671717e-03
2.47225000000000e+00 9.40626107638565e-02 1.33220862326677e-03
2.48361666666667e+00 9.29863020444394e-02 1.31998892135338e-03
2.49498333333333e+00 9.19223089552199e-02 1.30786760837259e-03
2.50635000000000e+00 9.08704905749882e-02 1.29584415445411e-03
2.51771666666667e+00 8.98307075990423e-02 1.28391803017255e-03
2.52908333333333e+00 8.88028223085895e-02 1.27208870302799e-03
2.54045000000000e+00 8.77866985647386e-02 1.26035563400267e-03
2.55181666666667e+00 8.67822017901961e-02 1.24871828495151e-03
2.56318333333333e+00 8.57891989398634e-02 1.23717611521725e-03
2.57455000000000e+00 8.48075584948746e-02 1.22572857831856e-03
2.58591666666667e+00 8.38371504449179e-02 1.21437512903440e-03
2.59728333333333e+00 8.28778462599787e-02 1.20311522014850e-03
2.60865000000000e+00 8.19295188844306e-02 1.19194829926385e-03
2.62001666666667e+00 8.09920427199608e-02 1.18087381559433e-03
2.63138333333333e+00 8.00652935984114e-02 1.16989121683333e-03
2.64275000000000e+00 7.91491487759306e-02 1.15899994608986e-03
2.65411666666667e+00 7.82434869164811e-02 1.14819944840027e-03
2.66548333333333e+00 7.73481880657343e-02 1.13748916771614e-03
2.67685000000000e+00 7.64631336452884e-02 1.12686854395719e-03
2.68821666666667e+00 7.55882064367389e-02 1.11633701925535e-03
2.69958333333333e+00 7.47232905565832e-02 1.10589403505732e-03
2.71095000000000e+00 7.38682714505099e-02 1.09553902928968e-03
2.72231666666667e+00 7.30230358780135e-02 1.08527144234683e-03
2.73368333333333e+00 7.21874718882668e-02 1.07509071430390e-03
2.74505000000000e+00 7.13614688144870e-02 1.06499628218967e-03
2.75641666666667e+00 7.05449172590755e-02 1.05498758572951e-03
2.76778333333333e+00 6.97377090704183e-02 1.04506406466425e-03
2.77915000000000e+00 6.89397373373335e-02 1.03522515612663e-03
2.79051666666667e+00 6.81508963747181e-02 1.02547030014990e-03
2.80188333333333e+00 6.73710817012389e-02 1.01579893708857e-03
2.81325000000000e+00 6.66001900338645e-02 1.00621050509442e-03
2.82461666666667e+00 6.58381192740015e-02 9.96704445400703e-04
2.83598333333333e+00 6.50847684860406e-02 9.87280199840638e-04
2.84735000000000e+00 6.43400378919753e-02 9.77937208419423e-04
2.85871666666667e+00 6.36038288580118e-02 9.68674914383568e-04
2.87008333333333e+00 6.28760438739345e-02 9.59492761833387e-04
2.88145000000000e+00 6.21565865478149e-02 9.50390193387077e-04
2.89281666666667e+00 6.14453615930788e-02 9.41366655044370e-04
2.90418333333333e+00 6.07422748086577e-02 9.32421593889597e-04
2.91555000000000e+00 6.00472330737912e-02 9.23554455844138e-04
2.92691666666667e+00 5.93601443355343e-02 9.14764690333127e-04
2.93828333333333e+00 5.86809175896648e-02 9.06051748075518e-04
2.94965000000000e+00 5.80094628755793e-02 8.97415078921543e-04
2.96101666666667e+00 5.73456912642268e-02 8.88854136330888e-04
2.97238333333333e+00 5.66895148397413e-02 8.80368375246274e-04
2.98375000000000e+00 5.60408466944329e-02 8.71957250012709e-04
2.99511666666667e+00 5.53996009171334e-02 8.63620218675048e-04
3.00648333333333e+00 5.47656925755243e-02 8.55356740931862e-04
3.01785000000000e+00 5.41390377112257e-02 8.47166276133248e-04
3.02921666666667e+00 5.35195533285379e-02 8.39048287405539e-04
3.04058333333333e+00 5.29071573774390e-02 8.31002239682285e-04
3.05195000000000e+00 5.23017687487703e-02 8.23027597777614e-04
3.06331666666667e+00 5.17033072633627e-02 8.15123830345220e-04
3.07468333333333e+00 5.11116936556755e-02 8.07290407983638e-04
3.08605000000000e+00 5.05268495690799e-02 7.99526801382244e-04
3.09741666666667e+00 4.99486975453563e-02 7.91832485121335e-04
3.10878333333333e+00 4.93771610089493e-02 7.84206935848863e-04
3.12015000000000e+00 4.88121642623502e-02 7.76649630496240e-04
3.13151666666667e+00 4.82536324759513e-02 7.69160049926254e-04
3.14288333333333e+00 4.77014916728940e-02 7.61737677178485e-04
3.15425000000000e+00 4.71556687245491e-02 7.54381995752203e-04
3.16561666666667e+00 4.66160913407172e-02 7.47092493108480e-04
3.17698333333333e+00 4.60826880550457e-02 7.39868658981562e-04
3.18835000000000e+00 4.55553882206072e-02 7.32709983726340e-04
3.19971666666667e+00 4.50341220004340e-02 7.25615961680690e-04
3.21108333333333e+00 4.45188203534815e-02 7.18586089540303e-04
3.22245000000000e+00 4.40094150303047e-02 7.11619864768212e-04
3.23381666666667e+00 4.35058385639155e-02 7.04716788823196e-04
3.24518333333333e+00 4.30080242562707e-02 6.97876365595603e-04
3.25655000000000e+00 4.25159061740468e-02 6.91098099876534e-04
3.26791666666667e+00 4.20294191398078e-02 6.84381500457833e-04
3.27928333333333e+00 4.15484987189990e-02 6.77726078626524e-04
3.29065000000000e+00 4.10730812158179e-02 6.71131346691492e-04
3.30201666666667e+00 4.06031036646834e-02 6.64596820960337e-04
3.31338333333333e+00 4.01385038177142e-02 6.58122020290180e-04
3.32475000000000e+00 3.96792201406960e-02 6.51706464669514e-04
3.33611666666667e+00 3.92251918048414e-02 6.45349678076984e-04
3.34748333333333e+00 3.87763586747347e-02 6.39051187086513e-04
3.35885000000000e+00 3.83326613043939e-02 6.32810519502199e-04
3.37021666666667e+00 3.78940409293117e-02 6.26627207103887e-04
3.38158333333333e+00 3.74604394548481e-02 6.20500784304462e-04
3.39295000000000e+00 3.70317994523872e-02 6.14430786835833e-04
3.40431666666667e+00 3.66080641516485e-02 6.08416754385895e-04
3.41568333333333e+00 3.61891774295113e-02 6.02458229305993e-04
3.42705000000000e+00 3.57750838062640e-02 5.96554755346035e-04
3.43841666666667e+00 3.53657284381774e-02 5.90705880187262e-04
3.44978333333333e+00 3.49610571067436e-02 5.84911154198048e-04
3.46115000000000e+00 3.45610162150171e-02 5.79170129216189e-04
3.47251666666667e+00 3.41655527804409e-02 5.73482360981849e-04
3.48388333333333e+00 3.37746144244842e-02 5.67847407939686e-04
3.49525000000000e+00 3.33881493690737e-02 5.62264830066569e-04
3.50661666666667e+00 3.30061064296645e-02 5.56734191208849e-04
3.51798333333333e+00 3.26284350052603e-02 5.51255057929039e-04
3.52935000000000e+00 3.22550850749348e-02 5.45826998377202e-04
3.54071666666667e+00 3.18860071911379e-02 5.40449584536248e-04
3.55208333333333e+00 3.15211524700849e-02 5.35122391111690e-04
3.56345000000000e+00 3.11604725883657e-02 5.29844994445043e-04
3.57481666666667e+00 3.08039197764786e-02 5.24616974670877e-04
3.58618333333333e+00 3.04514468095746e-02 5.19437914647901e-04
