Energy (eV)          EEDF (eV^-(3/2))     First Anisotropy
2.01724137931034e-02 1.80704851460592e-01 1.25450608863307e-04
6.05172413793103e-02 1.78559008313885e-01 2.06619260455317e-04
1.00862068965517e-01 1.76438646734361e-01 2.71346270260342e-04
1.41206896551724e-01 1.74343464127814e-01 3.19667490288259e-04
1.81551724137931e-01 1.72273161511312e-01 3.59268735703858e-04
2.21896551724138e-01 1.70227443424942e-01 3.93077908891391e-04
2.62241379310345e-01 1.68206017931836e-01 4.22621088941614e-04
3.02586206896552e-01 1.66208596570022e-01 4.48826273007794e-04
3.42931034482759e-01 1.64234894286094e-01 4.72313150531477e-04
3.83275862068966e-01 1.62284629425682e-01 4.93522667737482e-04
4.23620689655172e-01 1.60357523667406e-01 5.12783411500522e-04
4.63965517241379e-01 1.58453302004919e-01 5.30349010365919e-04
5.04310344827586e-01 1.56571692688865e-01 5.46420745838060e-04
5.44655172413793e-01 1.54712427201123e-01 5.61161987131294e-04
5.85000000000000e-01 1.52875240215639e-01 5.74707820592741e-04
6.25344827586207e-01 1.51059869550179e-01 5.87171703506746e-04
6.65689655172414e-01 1.49266056142112e-01 5.98650203639380e-04
7.06034482758621e-01 1.47493543999499e-01 6.09226461623749e-04
7.46379310344828e-01 1.45742080173056e-01 6.18972774790773e-04
7.86724137931034e-01 1.44011414719599e-01 6.27952565305131e-04
8.27068965517241e-01 1.42301300659250e-01 6.36221901143332e-04
8.67413793103448e-01 1.40611493949365e-01 6.43830691240286e-04
9.07758620689655e-01 1.38941753441210e-01 6.50823636461463e-04
9.48103448275862e-01 1.37291840853443e-01 6.57240995153149e-04
9.88448275862069e-01 1.35661520730739e-01 6.63119206507109e-04
1.02879310344828e+00 1.34050560415536e-01 6.68491402431890e-04
1.06913793103448e+00 1.32458730009990e-01 6.73387830525279e-04
1.10948275862069e+00 1.30885802363913e-01 6.77836213416083e-04
1.14982758620690e+00 1.29331552995413e-01 6.81862045311850e-04
1.19017241379310e+00 1.27795760103041e-01 6.85488842052779e-04
1.23051724137931e+00 1.26278204519026e-01 6.88738362145334e-04
1.27086206896552e+00 1.24778669678325e-01 6.91630789626981e-04
1.31120689655172e+00 1.23296941598993e-01 6.94184898447364e-04
1.35155172413793e+00 1.21832808816807e-01 6.96418188957286e-04
1.39189655172414e+00 1.20386062390358e-01 6.98347006519090e-04
1.43224137931034e+00 1.18956495859458e-01 6.99986650737112e-04
1.47258620689655e+00 1.17543905225279e-01 7.01351471171677e-04
1.51293103448276e+00 1.16148088891794e-01 7.02454947536322e-04
1.55327586206897e+00 1.14768847666795e-01 7.03309760466120e-04
1.59362068965517e+00 1.13405984723481e-01 7.03927859282255e-04
1.63396551724138e+00 1.12059305580639e-01 7.04320522145611e-04
1.67431034482759e+00 1.10728618049679e-01 7.04498405992973e-04
1.71465517241379e+00 1.09413732232697e-01 7.04471591121594e-04
1.75500000000000e+00 1.08114460486802e-01 7.04249625701500e-04
1.79534482758621e+00 1.06830617404519e-01 7.03841565673238e-04
1.83568965517241e+00 1.05562019765531e-01 7.03256007296578e-04
1.87603448275862e+00 1.04308486532564e-01 7.02501116474906e-04
1.91637931034483e+00 1.03069838818123e-01 7.01584659398332e-04
1.95672413793103e+00 1.01845899865253e-01 7.00514030208390e-04
1.99706896551724e+00 1.00636495003292e-01 6.99296273006423e-04
2.03741379310345e+00 9.94414516421585e-02 6.97938101820139e-04
2.07775862068966e+00 9.82605992412350e-02 6.96445922542356e-04
2.11810344827586e+00 9.70937692905680e-02 6.94825852841110e-04
2.15844827586207e+00 9.59407952701060e-02 6.93083737491240e-04
2.19879310344828e+00 9.48015126428194e-02 6.91225162357257e-04
2.23913793103448e+00 9.36757588255035e-02 6.89255470630031e-04
2.27948275862069e+00 9.25633731704915e-02 6.87179777616178e-04
2.31982758620690e+00 9.14641969279471e-02 6.85002981682360e-04
2.36017241379310e+00 9.03780732381354e-02 6.82729774275596e-04
2.40051724137931e+00 8.93048471039765e-02 6.80364652963580e-04
2.44086206896552e+00 8.82443653689837e-02 6.77911930001163e-04
2.48120689655172e+00 8.71964766996013e-02 6.75375743700762e-04
2.52155172413793e+00 8.61610315507915e-02 6.72760065797157e-04
2.56189655172414e+00 8.51378821576394e-02 6.70068708213679e-04
2.60224137931034e+00 8.41268825099314e-02 6.67305332174787e-04
2.64258620689655e+00 8.31278883350788e-02 6.64473456537874e-04
2.68293103448276e+00 8.21407570660744e-02 6.61576463264104e-04
2.72327586206897e+00 8.11653478327153e-02 6.58617602451246e-04
2.76362068965517e+00 8.02015214376178e-02 6.55599999630673e-04
2.80396551724138e+00 7.92491403397367e-02 6.52526662441827e-04
2.84431034482759e+00 7.83080686244596e-02 6.49400484748344e-04
2.88465517241379e+00 7.73781719945874e-02 6.46224250425675e-04
2.92500000000000e+00 7.64593177476819e-02 6.43000639308428e-04
2.96534482758621e+00 7.55513747601805e-02 6.39732232629140e-04
3.00568965517241e+00 7.46542134594314e-02 6.36421516146884e-04
3.04603448275862e+00 7.37677058145433e-02 6.33070883024120e-04
3.08637931034483e+00 7.28917253149701e-02 6.29682638749270e-04
3.12672413793103e+00 7.20261469552193e-02 6.26259005635032e-04
3.16706896551724e+00 7.11708472086565e-02 6.22802125215241e-04
3.20741379310345e+00 7.03257040183124e-02 6.19314060445109e-04
3.24775862068965e+00 6.94905967766200e-02 6.15796799830611e-04
3.28810344827586e+00 6.86654063107102e-02 6.12252261197934e-04
3.32844827586207e+00 6.78500148578364e-02 6.08682293540422e-04
3.36879310344828e+00 6.70443060562080e-02 6.05088678709057e-04
3.40913793103448e+00 6.62481649258048e-02 6.01473134917515e-04
3.44948275862069e+00 6.54614778542494e-02 5.97837319937210e-04
3.48982758620690e+00 6.46841325737215e-02 5.94182832525753e-04
3.53017241379310e+00 6.39160181518721e-02 5.90511213728967e-04
3.57051724137931e+00 6.31570249736471e-02 5.86823950280496e-04
3.61086206896552e+00 6.24070447256634e-02 5.83122475757655e-04
3.65120689655172e+00 6.16659703827629e-02 5.79408173661698e-04
3.69155172413793e+00 6.09336961866144e-02 5.75682378448756e-04
3.73189655172414e+00 6.02101176368033e-02 5.71946376462845e-04
3.77224137931034e+00 5.94951314738473e-02 5.68201408454702e-04
3.81258620689655e+00 5.87886356662981e-02 5.64448671868838e-04
3.85293103448276e+00 5.80905293905941e-02 5.60689321640271e-04
3.89327586206897e+00 5.74007130223113e-02 5.56924470909658e-04
3.93362068965517e+00 5.67190881200530e-02 5.53155193224649e-04
3.97396551724138e+00 5.60455574130855e-02 5.49382524534939e-04
4.01431034482759e+00 5.53800247823495e-02 5.45607463805361e-04
4.05465517241379e+00 5.47223952518975e-02 5.41830973560241e-04
4.09500000000000e+00 5.40725749736074e-02 5.38053981820347e-04
4.13534482758621e+00 5.34304712153335e-02 5.34277383855032e-04
4.17568965517241e+00 5.27959923429982e-02 5.30502042650363e-04
4.21603448275862e+00 5.21690478122321e-02 5.26728789318704e-04
4.25637931034483e+00 5.15495481538660e-02 5.22958424813437e-04
4.29672413793103e+00 5.09374049625795e-02 5.19191721476878e-04
4.33706896551724e+00 5.03325308799992e-02 5.15429423393392e-04
4.37741379310345e+00 4.97348395865569e-02 5.11672246692143e-04
4.41775862068966e+00 4.91442457877139e-02 5.07920881073110e-04
4.45810344827586e+00 4.85606652030926e-02 5.04175991181979e-04
4.49844827586207e+00 4.79840145505126e-02 5.00438216871471e-04
4.53879310344828e+00 4.74142115380773e-02 4.96708173419105e-04
4.57913793103448e+00 4.68511748510909e-02 4.92986452891721e-04
4.61948275862069e+00 4.62948241416541e-02 4.89273625372399e-04
4.65982758620690e+00 4.57450800135787e-02 4.85570239148474e-04
4.70017241379310e+00 4.52018640147086e-02 4.81876820861338e-04
4.74051724137931e+00 4.46650986244914e-02 4.78193876973592e-04
4.78086206896552e+00 4.41347072429230e-02 4.74521893898357e-04
4.82120689655172e+00 4.36106141806924e-02 4.70861339340480e-04
4.86155172413793e+00 4.30927446451091e-02 4.67212662409535e-04
4.90189655172414e+00 4.25810247327307e-02 4.63576293700726e-04
4.94224137931035e+00 4.20753814177087e-02 4.59952646374651e-04
4.98258620689655e+00 4.15757425423616e-02 4.56342117123954e-04
5.02293103448276e+00 4.10820368038613e-02 4.52745086241815e-04
5.06327586206897e+00 4.05941937471003e-02 4.49161917661946e-04
5.10362068965517e+00 4.01121437536163e-02 4.45592959935938e-04
5.14396551724138e+00 3.96358180325750e-02 4.42038547106517e-04
5.18431034482759e+00 3.91651486081696e-02 4.38498998740288e-04
5.22465517241379e+00 3.87000683127289e-02 4.34974619935063e-04
5.26500000000000e+00 3.82405107761876e-02 4.31465702207122e-04
5.30534482758621e+00 3.77864104174648e-02 4.27972524282391e-04
5.34568965517241e+00 3.73377024325333e-02 4.24495352100495e-04
5.38603448275862e+00 3.68943227877658e-02 4.21034438796140e-04
5.42637931034483e+00 3.64562082099243e-02 4.17590025506608e-04
5.46672413793103e+00 3.60232961779171e-02 4.14162342090548e-04
5.50706896551724e+00 3.55955249114981e-02 4.10751607109092e-04
5.54741379310345e+00 3.51728333648496e-02 4.07358027786535e-04
5.58775862068966e+00 3.47551612170630e-02 4.03981800747092e-04
5.62810344827586e+00 3.43424488642590e-02 4.00623112669444e-04
5.66844827586207e+00 3.39346374088806e-02 3.97282140249618e-04
5.70879310344828e+00 3.35316686535085e-02 3.93959050145318e-04
5.74913793103448e+00 3.31334850918077e-02 3.90653999649538e-04
5.78948275862069e+00 3.27400299009965e-02 3.87367137288001e-04
5.82982758620690e+00 3.23512469316984e-02 3.84098602767480e-04
5.87017241379310e+00 3.19670807019862e-02 3.80848526907421e-04
5.91051724137931e+00 3.15874763887707e-02 3.77617032410309e-04
5.95086206896552e+00 3.12123798199797e-02 3.74404233793148e-04
5.99120689655172e+00 3.08417374674403e-02 3.71210238092474e-04
6.03155172413793e+00 3.04754964373809e-02 3.68035144797270e-04
6.07189655172414e+00 3.01136044647580e-02 3.64879045767108e-04
6.11224137931034e+00 2.97560099051686e-02 3.61742025788225e-04
6.15258620689655e+00 2.94026617280488e-02 3.58624163064739e-04
6.19293103448276e+00 2.90535095076668e-02 3.55525529143410e-04
6.23327586206897e+00 2.87085034176666e-02 3.52446188825014e-04
6.27362068965517e+00 2.83675942233730e-02 3.49386200675629e-04
6.31396551724138e+00 2.80307332752945e-02 3.46345617477592e-04
6.35431034482759e+00 2.76978725005786e-02 3.43324486148145e-04
6.39465517241379e+00 2.73689643977675e-02 3.40322847645790e-04
6.43500000000000e+00 2.70439620294762e-02 3.37340737441156e-04
6.47534482758621e+00 2.67228190161858e-02 3.34378185931568e-04
6.51568965517241e+00 2.64054895281366e-02 3.31435218355201e-04
6.55603448275862e+00 2.60919282802893e-02 3.28511854693973e-04
6.59637931034483e+00 2.57820905253574e-02 3.25608110107691e-04
6.63672413793103e+00 2.54759320478788e-02 3.22723995315738e-04
6.67706896551724e+00 2.51734091565229e-02 3.19859516508053e-04
6.71741379310345e+00 2.48744786792506e-02 3.17014675245756e-04
6.75775862068966e+00 2.45790979566837e-02 3.14189468862031e-04
6.79810344827586e+00 2.42872248364436e-02 3.11383890813887e-04
6.83844827586207e+00 2.39988176658482e-02 3.08597930591082e-04
6.87879310344828e+00 2.37138352872659e-02 3.05831573615568e-04
6.91913793103448e+00 2.34322370318056e-02 3.03084801611963e-04
6.95948275862069e+00 2.31539827139091e-02 3.00357592932156e-04
6.99982758620690e+00 2.28790326244186e-02 2.97649922463127e-04
7.04017241379310e+00 2.26073475261180e-02 2.94961761525941e-04
7.08051724137931e+00 2.23388886477267e-02 2.92293078317576e-04
7.12086206896552e+00 2.20736176783680e-02 2.89643837813420e-04
7.16120689655172e+00 2.18114967624635e-02 2.87014002171048e-04
7.20155172413793e+00 2.15524884932333e-02 2.84403530636770e-04
7.24189655172414e+00 2.12965559084649e-02 2.81812379444309e-04
7.28224137931034e+00 2.10436624848672e-02 2.79240502127083e-04
7.32258620689655e+00 2.07937721331958e-02 2.76687849790847e-04
7.36293103448276e+00 2.05468491920791e-02 2.74154371020655e-04
7.40327586206897e+00 2.03028584239620e-02 2.71640011780545e-04
7.44362068965517e+00 2.00617650097302e-02 2.69144715703043e-04
7.48396551724138e+00 1.98235345440566e-02 2.66668424341516e-04
7.52431034482759e+00 1.95881330295368e-02 2.64211077078028e-04
7.56465517241379e+00 1.93555268728002e-02 2.61772611024466e-04
7.60500000000000e+00 1.91256828793925e-02 2.59352961291094e-04
7.64534482758621e+00 1.88985682493330e-02 2.56952061220343e-04
7.68568965517241e+00 1.86741505715431e-02 2.54569842295930e-04
7.72603448275862e+00 1.84523978201191e-02 2.52206234045750e-04
7.76637931034483e+00 1.82332783494602e-02 2.49861164291203e-04
7.80672413793103e+00 1.80167608900271e-02 2.47534559363921e-04
7.84706896551724e+00 1.78028145430482e-02 2.45226344016470e-04
7.88741379310345e+00 1.75914087769489e-02 2.42936441327217e-04
7.92775862068966e+00 1.73825134227124e-02 2.40664772932030e-04
7.96810344827586e+00 1.71760986698306e-02 2.38411259225280e-04
8.00844827586207e+00 1.69721350612747e-02 2.36175819272359e-04
8.04879310344828e+00 1.67705934900735e-02 2.33958370716789e-04
8.08913793103448e+00 1.65714451948965e-02 2.31758829995587e-04
8.12948275862069e+00 1.63746617561895e-02 2.29577112525874e-04
8.16982758620690e+00 1.61802150913936e-02 2.27413132619375e-04
8.21017241379310e+00 1.59880774516694e-02 2.25266803391899e-04
8.25051724137931e+00 1.57982214176901e-02 2.23138037028578e-04
8.29086206896552e+00 1.56106198957299e-02 2.21026744696782e-04
8.33120689655172e+00 1.54252461140170e-02 2.18932836788046e-04
8.37155172413793e+00 1.52420736182466e-02 2.16856222834778e-04
8.41189655172414e+00 1.50610762684781e-02 2.14796811422395e-04
8.45224137931034e+00 1.48822282351788e-02 2.12754510372937e-04
8.49258620689655e+00 1.47055039957442e-02 2.10729226903659e-04
8.53293103448276e+00 1.45308783302316e-02 2.08720867546034e-04
8.57327586206896e+00 1.43583263183901e-02 2.06729338060504e-04
8.61362068965517e+00 1.41878233358934e-02 2.04754543607465e-04
8.65396551724138e+00 1.40193450510180e-02 2.02796388894727e-04
8.69431034482759e+00 1.38528674205879e-02 2.00854778098907e-04
8.73465517241379e+00 1.36883666871312e-02 1.98929614782806e-04
8.77500000000000e+00 1.35258193752928e-02 1.97020802054727e-04
8.81534482758621e+00 1.33652022886642e-02 1.95128242705667e-04
8.85568965517241e+00 1.32064925059276e-02 1.93251839133097e-04
8.89603448275862e+00 1.30496673781351e-02 1.91391493261003e-04
8.93637931034483e+00 1.28947045252918e-02 1.89547106688417e-04
8.97672413793103e+00 1.27415818333306e-02 1.87718580817074e-04
9.01706896551724e+00 1.25902774504457e-02 1.85905816777615e-04
9.05741379310345e+00 1.24407697844894e-02 1.84108715352332e-04
9.09775862068966e+00 1.22930374997175e-02 1.82327177113634e-04
9.13810344827586e+00 1.21470595139024e-02 1.80561102542923e-04
9.17844827586207e+00 1.20028149948469e-02 1.78810391959234e-04
9.21879310344828e+00 1.18602833578931e-02 1.77074945444610e-04
9.25913793103448e+00 1.17194442628224e-02 1.75354662973284e-04
9.29948275862069e+00 1.15802776111019e-02 1.73649444522399e-04
9.33982758620690e+00 1.14427635425674e-02 1.71959190003069e-04
9.38017241379310e+00 1.13068824330412e-02 1.70283799188380e-04
9.42051724137931e+00 1.11726148913796e-02 1.68623171876900e-04
9.46086206896552e+00 1.10399417567063e-02 1.66977207823485e-04
9.50120689655172e+00 1.09088440958138e-02 1.65345806888037e-04
9.54155172413793e+00 1.07793032000485e-02 1.63728868969256e-04
9.58189655172414e+00 1.06513005830577e-02 1.62126293935636e-04
9.62224137931034e+00 1.05248179780115e-02 1.60537981736350e-04
9.66258620689655e+00 1.03998373351238e-02 1.58963832495986e-04
9.70293103448276e+00 1.02763408186894e-02 1.57403746450661e-04
9.74327586206896e+00 1.01543108049289e-02 1.55857623881569e-04
9.78362068965517e+00 1.00337298793427e-02 1.54325365218552e-04
9.82396551724138e+00 9.91458083434602e-03 1.52806871128400e-04
9.86431034482759e+00 9.79684666644965e-03 1.51302042453329e-04
9.90465517241379e+00 9.68051057419999e-03 1.49810780147015e-04
9.94500000000000e+00 9.56555595565817e-03 1.48332985371326e-04
9.98534482758621e+00 9.45196640614347e-03 1.46868559437880e-04
1.00256896551724e+01 9.33972571599289e-03 1.45417404418475e-04
1.00660344827586e+01 9.22881786649326e-03 1.43979421957618e-04
1.01063793103448e+01 9.11922703145820e-03 1.42554513809969e-04
1.01467241379310e+01 9.01093757152646e-03 1.41142583091458e-04
1.01870689655172e+01 8.90393403201539e-03 1.39743532154231e-04
1.02274137931034e+01 8.79820114385912e-03 1.38357263643284e-04
1.02677586206897e+01 8.69372381825295e-03 1.36983681199281e-04
1.03081034482759e+01 8.59048714556896e-03 1.35622688738532e-04
1.03484482758621e+01 8.48847639225665e-03 1.34274189859400e-04
1.03887931034483e+01 8.38767700168856e-03 1.32938088493826e-04
1.04291379310345e+01 8.28807458910349e-03 1.31614289570169e-04
1.04694827586207e+01 8.18965494055777e-03 1.30302698332257e-04
1.05098275862069e+01 8.09240400998357e-03 1.29003219777647e-04
1.05501724137931e+01 7.99630791995073e-03 1.27715759272281e-04
1.05905172413793e+01 7.90135295689089e-03 1.26440223462560e-04
1.06308620689655e+01 7.80752556921186e-03 1.25176518481610e-04
1.06712068965517e+01 7.71481236800384e-03 1.23924550853715e-04
1.07115517241379e+01 7.62320012246074e-03 1.22684228094922e-04
1.07518965517241e+01 7.53267575889021e-03 1.21455458093364e-04
1.07922413793103e+01 7.44322635803063e-03 1.20238148597526e-04
1.08325862068966e+01 7.35483915568569e-03 1.19032207773233e-04
1.08729310344828e+01 7.26750153839861e-03 1.17837544770585e-04
1.09132758620690e+01 7.18120104249634e-03 1.16654069137629e-04
1.09536206896552e+01 7.09592535154230e-03 1.15481690336016e-04
1.09939655172414e+01 7.01166229690537e-03 1.14320318266502e-04
1.10343103448276e+01 6.92839985367288e-03 1.13169864050535e-04
1.10746551724138e+01 6.84612613899355e-03 1.12030238488075e-04
1.11150000000000e+01 6.76482941260343e-03 1.10901352832272e-04
1.11553448275862e+01 6.68449807290559e-03 1.09783119303479e-04
1.11956896551724e+01 6.60512065607051e-03 1.08675450555478e-04
1.12360344827586e+01 6.52668583371146e-03 1.07578259234047e-04
1.12763793103448e+01 6.44918241335471e-03 1.06491458453628e-04
1.13167241379310e+01 6.37259933473375e-03 1.05414962506316e-04
1.13570689655172e+01 6.29692566826363e-03 1.04348685459553e-04
1.13974137931034e+01 6.22215061547469e-03 1.03292541858847e-04
1.14377586206897e+01 6.14826350545775e-03 1.02246447194126e-04
1.14781034482759e+01 6.07525379401875e-03 1.01210317413648e-04
1.15184482758621e+01 6.00311106155669e-03 1.00184068521646e-04
1.15587931034483e+01 5.93182501344931e-03 9.91676170106810e-05
1.15991379310345e+01 5.86138547669199e-03 9.81608803019586e-05
1.16394827586207e+01 5.79178239908336e-03 9.71637762852260e-05
1.16798275862069e+01 5.72300584720969e-03 9.61762229377466e-05
1.17201724137931e+01 5.65504600678731e-03 9.51981387326288e-05
1.17605172413793e+01 5.58789317948392e-03 9.42294432470806e-05
1.18008620689655e+01 5.52153778157893e-03 9.32700559552661e-05
1.18412068965517e+01 5.45597034427734e-03 9.23198968313120e-05
1.18815517241379e+01 5.39118151065961e-03 9.13788867488637e-05
1.19218965517241e+01 5.32716203491816e-03 9.04469470619555e-05
1.19622413793103e+01 5.26390278051645e-03 8.95239992576119e-05
1.20025862068966e+01 5.20139472046600e-03 8.86099653264044e-05
1.20429310344828e+01 5.13962893444107e-03 8.77047681399751e-05
1.20832758620690e+01 5.07859660804397e-03 8.68083310541739e-05
1.21236206896552e+01 5.01828903105603e-03 8.59205775800172e-05
1.21639655172414e+01 4.95869759768103e-03 8.50414317336484e-05
1.22043103448276e+01 4.89981380381580e-03 8.41708185587616e-05
1.22446551724138e+01 4.84162924587344e-03 8.33086630867377e-05
1.22850000000000e+01 4.78413562100492e-03 8.24548908543315e-05
1.23253448275862e+01 4.72732472447885e-03 8.16094282464355e-05
1.23656896551724e+01 4.67118844899393e-03 8.07722021344144e-05
1.24060344827586e+01 4.61571878308089e-03 7.99431395759795e-05
1.24463793103448e+01 4.56090781129553e-03 7.91221681330491e-05
1.24867241379310e+01 4.50674771173921e-03 7.83092163462631e-05
1.25270689655172e+01 4.45323075497564e-03 7.75042127884120e-05
1.25674137931034e+01 4.40034930420564e-03 7.67070865346475e-05
1.26077586206897e+01 4.34809581288671e-03 7.59177674738625e-05
1.26481034482759e+01 4.29646282409027e-03 7.51361859790221e-05
1.26884482758621e+01 4.24544296904107e-03 7.43622726333886e-05
1.27287931034483e+01 4.19502896726763e-03 7.35959585192058e-05
