Energy (eV)          EEDF (eV^-(3/2))     First Anisotropy
2.94117647058824e-02 4.39551016728564e-02 2.30939934285466e-05
8.82352941176471e-02 4.36583102384373e-02 3.81342011342102e-05
1.47058823529412e-01 4.33635227835575e-02 5.03400203662031e-05
2.05882352941176e-01 4.30707257788084e-02 5.96119986581553e-05
2.64705882352941e-01 4.27799057824764e-02 6.73442186347901e-05
3.23529411764706e-01 4.24910494469363e-02 7.40636668278518e-05
3.82352941176471e-01 4.22041435129571e-02 8.00430112275765e-05
4.41176470588235e-01 4.19191748104168e-02 8.54468793294453e-05
5.00000000000000e-01 4.16361302595188e-02 9.03844362255269e-05
5.58823529411765e-01 4.13549968675208e-02 9.49328242859120e-05
6.17647058823529e-01 4.10757617305426e-02 9.91491384762203e-05
6.76470588235294e-01 4.07984120307938e-02 1.03077154532292e-04
7.35294117647059e-01 4.05229350379773e-02 1.06751385105675e-04
7.94117647058823e-01 4.02493181072473e-02 1.10199662467586e-04
8.52941176470588e-01 3.99775486788425e-02 1.13444855902639e-04
9.11764705882353e-01 3.97076142784832e-02 1.16506055807340e-04
9.70588235294118e-01 3.94395025154789e-02 1.19399414493972e-04
1.02941176470588e+00 3.91732010834048e-02 1.22138758673122e-04
1.08823529411765e+00 3.89086977583602e-02 1.24736045485780e-04
1.14705882352941e+00 3.86459803992758e-02 1.27201708393776e-04
1.20588235294118e+00 3.83850369470573e-02 1.29544924207050e-04
1.26470588235294e+00 3.81258554240332e-02 1.31773822050107e-04
1.32352941176471e+00 3.78684239334049e-02 1.33895649172079e-04
1.38235294117647e+00 3.76127306587012e-02 1.35916904056904e-04
1.44117647058824e+00 3.73587638632363e-02 1.37843444429509e-04
1.50000000000000e+00 3.71065118895713e-02 1.39680575519429e-04
1.55882352941176e+00 3.68559631606109e-02 1.41433123892158e-04
1.61764705882353e+00 3.66071061740992e-02 1.43105497936617e-04
1.67647058823529e+00 3.63599295071474e-02 1.44701738572962e-04
1.73529411764706e+00 3.61144218139944e-02 1.46225563210504e-04
1.79411764705882e+00 3.58705718254869e-02 1.47680402307863e-04
1.85294117647059e+00 3.56283683485616e-02 1.49069430861379e-04
1.91176470588235e+00 3.53878002657319e-02 1.50395595499285e-04
1.97058823529412e+00 3.51488565345775e-02 1.51661637914641e-04
2.02941176470588e+00 3.49115261872379e-02 1.52870115229671e-04
2.08823529411765e+00 3.46757983299055e-02 1.54023417771309e-04
2.14705882352941e+00 3.44416621423326e-02 1.55123784654873e-04
2.20588235294118e+00 3.42091068773306e-02 1.56173317500650e-04
2.26470588235294e+00 3.39781218602774e-02 1.57173992550307e-04
2.32352941176471e+00 3.37486964886273e-02 1.58127671409472e-04
2.38235294117647e+00 3.35208202314241e-02 1.59036110603780e-04
2.44117647058824e+00 3.32944826288181e-02 1.59900970106532e-04
2.50000000000000e+00 3.30696732915856e-02 1.60723820814697e-04
2.55882352941176e+00 3.28463819015310e-02 1.61506151874926e-04
2.61764705882353e+00 3.26245982083473e-02 1.62249376531660e-04
2.67647058823529e+00 3.24043120318427e-02 1.62954837372374e-04
2.73529411764706e+00 3.21855132605633e-02 1.63623811847107e-04
2.79411764705882e+00 3.19681918513289e-02 1.64257516671436e-04
2.85294117647059e+00 3.17523378287723e-02 1.64857111976189e-04
2.91176470588235e+00 3.15379412848813e-02 1.65423705087194e-04
2.97058823529412e+00 3.13249923785439e-02 1.65958353975173e-04
3.02941176470588e+00 3.11134813350966e-02 1.66462070411081e-04
3.08823529411765e+00 3.09033984458746e-02 1.66935822856643e-04
3.14705882352941e+00 3.06947340677688e-02 1.67380539118255e-04
3.20588235294118e+00 3.04874786227813e-02 1.67797108787972e-04
3.26470588235294e+00 3.02816225975864e-02 1.68186385491333e-04
3.32352941176471e+00 3.00771565430938e-02 1.68549188961569e-04
3.38235294117647e+00 2.98740710740147e-02 1.68886306956406e-04
3.44117647058824e+00 2.96723568684308e-02 1.69198497032098e-04
3.50000000000000e+00 2.94720046673671e-02 1.69486488069313e-04
3.55882352941176e+00 2.92730052749271e-02 1.69750982156767e-04
3.61764705882353e+00 2.90753495561725e-02 1.69992655769757e-04
3.67647058823529e+00 2.88790284384190e-02 1.70212160848780e-04
3.73529411764706e+00 2.86840329102422e-02 1.70410126394453e-04
3.79411764705882e+00 2.84903540210639e-02 1.70587159492833e-04
3.85294117647059e+00 2.82979828807417e-02 1.70743846387521e-04
3.91176470588235e+00 2.81069106591608e-02 1.70880753482262e-04
3.97058823529412e+00 2.79171285858283e-02 1.70998428279650e-04
4.02941176470588e+00 2.77286279494712e-02 1.71097400261065e-04
4.08823529411765e+00 2.75414000976354e-02 1.71178181711859e-04
4.14705882352941e+00 2.73554364362904e-02 1.71241268496636e-04
4.20588235294118e+00 2.71707284294336e-02 1.71287140788375e-04
4.26470588235294e+00 2.69872675986986e-02 1.71316263754169e-04
4.32352941176471e+00 2.68050455229664e-02 1.71329088201272e-04
4.38235294117647e+00 2.66240538379784e-02 1.71326051186212e-04
4.44117647058824e+00 2.64442842359531e-02 1.71307576589499e-04
4.50000000000000e+00 2.62657284652037e-02 1.71274075565335e-04
4.55882352941176e+00 2.60883783301499e-02 1.71225947335650e-04
4.61764705882353e+00 2.59122256897630e-02 1.71163579487028e-04
4.67647058823529e+00 2.57372624583805e-02 1.71087348240236e-04
4.73529411764706e+00 2.55634806049354e-02 1.70997619172199e-04
4.79411764705882e+00 2.53908721525878e-02 1.70894747532650e-04
4.85294117647059e+00 2.52194291783583e-02 1.70779078635791e-04
4.91176470588235e+00 2.50491438127650e-02 1.70650948232241e-04
4.97058823529412e+00 2.48800082394614e-02 1.70510682862439e-04
5.02941176470588e+00 2.47120146948786e-02 1.70358600192775e-04
5.08823529411765e+00 2.45451554678678e-02 1.70195009335182e-04
5.14705882352941e+00 2.43794228993474e-02 1.70020211151563e-04
5.20588235294118e+00 2.42148093819512e-02 1.69834498544000e-04
5.26470588235294e+00 2.40513073596788e-02 1.69638156731172e-04
5.32352941176471e+00 2.38889093275494e-02 1.69431463512111e-04
5.38235294117647e+00 2.37276078312565e-02 1.69214689517917e-04
5.44117647058824e+00 2.35673954668265e-02 1.68988098452153e-04
5.50000000000000e+00 2.34082648802783e-02 1.68751947245505e-04
5.55882352941176e+00 2.32502087675702e-02 1.68506486501915e-04
5.61764705882353e+00 2.30932198734057e-02 1.68251960556855e-04
5.67647058823529e+00 2.29372909917657e-02 1.67988607525180e-04
5.73529411764706e+00 2.27824149652873e-02 1.67716659724670e-04
5.79411764705882e+00 2.26285846849354e-02 1.67436343782996e-04
5.85294117647059e+00 2.24757930896758e-02 1.67147880814523e-04
5.91176470588235e+00 2.23240331661517e-02 1.66851486589850e-04
5.97058823529412e+00 2.21732979483614e-02 1.66547371698471e-04
6.02941176470588e+00 2.20235805173386e-02 1.66235741704997e-04
6.08823529411765e+00 2.18748740008350e-02 1.65916797298958e-04
6.14705882352941e+00 2.17271715730045e-02 1.65590734438852e-04
6.20588235294118e+00 2.15804664540904e-02 1.65257744490729e-04
6.26470588235294e+00 2.14347519101140e-02 1.64918014361294e-04
6.32352941176471e+00 2.12900212525652e-02 1.64571726625933e-04
6.38235294117647e+00 2.11462678380957e-02 1.64219059651978e-04
6.44117647058824e+00 2.10034850682143e-02 1.63860187717396e-04
6.50000000000000e+00 2.08616663889836e-02 1.63495281063465e-04
6.55882352941176e+00 2.07208052909338e-02 1.63124506190638e-04
6.61764705882353e+00 2.05808953081161e-02 1.62748025840259e-04
6.67647058823529e+00 2.04419300184582e-02 1.62365998971225e-04
6.73529411764706e+00 2.03039030432508e-02 1.61978581048085e-04
6.79411764705882e+00 2.01668080468544e-02 1.61585924072770e-04
6.85294117647059e+00 2.00306387364088e-02 1.61188176676505e-04
6.91176470588235e+00 1.98953888615441e-02 1.60785484208567e-04
6.97058823529412e+00 1.97610522140938e-02 1.60377988822041e-04
7.02941176470588e+00 1.96276226278098e-02 1.59965829556679e-04
7.08823529411765e+00 1.94950939780795e-02 1.59549142418854e-04
7.14705882352941e+00 1.93634601816445e-02 1.59128060458979e-04
7.20588235294118e+00 1.92327151963215e-02 1.58702713846448e-04
7.26470588235294e+00 1.91028530207251e-02 1.58273229942014e-04
7.32352941176471e+00 1.89738676939919e-02 1.57839733367851e-04
7.38235294117647e+00 1.88457532955074e-02 1.57402346075405e-04
7.44117647058824e+00 1.87185039446336e-02 1.56961187411081e-04
7.50000000000000e+00 1.85921138004399e-02 1.56516374128757e-04
7.55882352941176e+00 1.84665770615998e-02 1.56068020605529e-04
7.61764705882353e+00 1.83418879656249e-02 1.55616238798252e-04
7.67647058823529e+00 1.82180407891036e-02 1.55161138197166e-04
7.73529411764706e+00 1.80950298472701e-02 1.54702826039123e-04
7.79411764705882e+00 1.79728494937425e-02 1.54241407309371e-04
7.85294117647059e+00 1.78514941202645e-02 1.53776984794360e-04
7.91176470588235e+00 1.77309581564474e-02 1.53309659133006e-04
7.97058823529412e+00 1.76112360695146e-02 1.52839528866423e-04
8.02941176470588e+00 1.74923223640476e-02 1.52366690486211e-04
8.08823529411765e+00 1.73742115817338e-02 1.51891238481326e-04
8.14705882352941e+00 1.72568983011159e-02 1.51413265383597e-04
8.20588235294118e+00 1.71403771373433e-02 1.50932861812021e-04
8.26470588235294e+00 1.70246427419244e-02 1.50450116515754e-04
8.32352941176471e+00 1.69096898024816e-02 1.49965116415873e-04
8.38235294117647e+00 1.67955130425073e-02 1.49477946645998e-04
8.44117647058824e+00 1.66821072211217e-02 1.48988690591791e-04
8.50000000000000e+00 1.65694671328319e-02 1.48497429886581e-04
8.55882352941176e+00 1.64575876074240e-02 1.48004244577752e-04
8.61764705882353e+00 1.63464635093315e-02 1.47509213076747e-04
8.67647058823529e+00 1.62360897377962e-02 1.47012412107123e-04
8.73529411764706e+00 1.61264612265009e-02 1.46513916870492e-04
8.79411764705882e+00 1.60175729433370e-02 1.46013801035954e-04
8.85294117647059e+00 1.59094198901733e-02 1.45512136772753e-04
8.91176470588235e+00 1.58019971026271e-02 1.45008994782059e-04
8.97058823529412e+00 1.56952996498354e-02 1.44504444327930e-04
9.02941176470588e+00 1.55893226342296e-02 1.43998553267510e-04
9.08823529411765e+00 1.54840611913099e-02 1.43491388080353e-04
9.14705882352941e+00 1.53795104894224e-02 1.42983013897091e-04
9.20588235294118e+00 1.52756657295374e-02 1.42473494527405e-04
9.26470588235294e+00 1.51725221450289e-02 1.41962892487216e-04
9.32352941176471e+00 1.50700750014557e-02 1.41451269025225e-04
9.38235294117647e+00 1.49683195963444e-02 1.40938684148827e-04
9.44117647058824e+00 1.48672512589735e-02 1.40425196649328e-04
9.50000000000000e+00 1.47668653501587e-02 1.39910864090530e-04
9.55882352941176e+00 1.46671572621443e-02 1.39395742941547e-04
9.61764705882353e+00 1.45681224180775e-02 1.38879888527441e-04
9.67647058823529e+00 1.44697562721145e-02 1.38363354978520e-04
9.73529411764706e+00 1.43720543091055e-02 1.37846195363538e-04
9.79411764705882e+00 1.42750120443880e-02 1.37328461674347e-04
9.85294117647059e+00 1.41786250235802e-02 1.36810204847203e-04
9.91176470588235e+00 1.40828888223774e-02 1.36291474783582e-04
9.97058823529412e+00 1.39877990463480e-02 1.35772320370486e-04
1.00294117647059e+01 1.38933513307326e-02 1.35252789401694e-04
1.00882352941176e+01 1.37995413405200e-02 1.34732929123624e-04
1.01470588235294e+01 1.37063647687715e-02 1.34212785266735e-04
1.02058823529412e+01 1.36138173394722e-02 1.33692402523424e-04
1.02647058823529e+01 1.35218948045499e-02 1.33171825334838e-04
1.03235294117647e+01 1.34305929446166e-02 1.32651097215628e-04
1.03823529411765e+01 1.33399075679070e-02 1.32130260162498e-04
1.04411764705882e+01 1.32498345127087e-02 1.31609355306871e-04
1.05000000000000e+01 1.31603696445271e-02 1.31088423875686e-04
1.05588235294118e+01 1.30715088559486e-02 1.30567505319874e-04
1.06176470588235e+01 1.29832480689810e-02 1.30046638273957e-04
1.06764705882353e+01 1.28955832323160e-02 1.29525861489836e-04
1.07352941176471e+01 1.28085103211935e-02 1.29005212015274e-04
1.07941176470588e+01 1.27220253396576e-02 1.28484726126486e-04
1.08529411764706e+01 1.26361243179131e-02 1.27964439948238e-04
1.09117647058824e+01 1.25508033129690e-02 1.27444388838193e-04
1.09705882352941e+01 1.24660584076913e-02 1.26924606846336e-04
1.10294117647059e+01 1.23818857129426e-02 1.26405127307506e-04
1.10882352941176e+01 1.22982813650645e-02 1.25885983713344e-04
1.11470588235294e+01 1.22152415257468e-02 1.25367208007936e-04
1.12058823529412e+01 1.21327623840902e-02 1.24848831459200e-04
1.12647058823529e+01 1.20508401541737e-02 1.24330885237095e-04
1.13235294117647e+01 1.19694710756402e-02 1.23813399837317e-04
1.13823529411765e+01 1.18886514128177e-02 1.23296404574648e-04
1.14411764705882e+01 1.18083774566796e-02 1.22779928135569e-04
1.15000000000000e+01 1.17286455225264e-02 1.22263999393824e-04
1.15588235294118e+01 1.16494519498581e-02 1.21748645814680e-04
1.16176470588235e+01 1.15707931042637e-02 1.21233894269161e-04
1.16764705882353e+01 1.14926653751800e-02 1.20719771827343e-04
1.17352941176471e+01 1.14150651757653e-02 1.20206304204422e-04
1.17941176470588e+01 1.13379889447234e-02 1.19693516552713e-04
1.18529411764706e+01 1.12614331441361e-02 1.19181433988022e-04
1.19117647058824e+01 1.11853942599739e-02 1.18670081063329e-04
1.19705882352941e+01 1.11098688013077e-02 1.18159481305232e-04
1.20294117647059e+01 1.10348533020434e-02 1.17649657717153e-04
1.20882352941176e+01 1.09603443188533e-02 1.17140633521583e-04
1.21470588235294e+01 1.08863384310541e-02 1.16632430703969e-04
1.22058823529412e+01 1.08128322422811e-02 1.16125070754169e-04
1.22647058823529e+01 1.07398223784868e-02 1.15618575158341e-04
1.23235294117647e+01 1.06673054884058e-02 1.15112964905678e-04
1.23823529411765e+01 1.05952782428237e-02 1.14608260053438e-04
1.24411764705882e+01 1.05237373361694e-02 1.14104480197301e-04
1.25000000000000e+01 1.04526794846047e-02 1.13601645166869e-04
1.25588235294118e+01 1.03821014259064e-02 1.13099773660383e-04
1.26176470588235e+01 1.03119999210041e-02 1.12598883938876e-04
1.26764705882353e+01 1.02423717521304e-02 1.12098994503124e-04
1.27352941176471e+01 1.01732137227050e-02 1.11600122763537e-04
1.27941176470588e+01 1.01045226588201e-02 1.11102285715783e-04
1.28529411764706e+01 1.00362954074506e-02 1.10605500389696e-04
1.29117647058824e+01 9.96852883686054e-03 1.10109783398135e-04
1.29705882352941e+01 9.90121983594475e-03 1.09615150538501e-04
1.30294117647059e+01 9.83436531564377e-03 1.09121617222085e-04
1.30882352941176e+01 9.76796220723194e-03 1.08629199108533e-04
1.31470588235294e+01 9.70200746220591e-03 1.08137910857816e-04
1.32058823529412e+01 9.63649805365152e-03 1.07647766763754e-04
1.32647058823529e+01 9.57143097458630e-03 1.07158781174290e-04
1.33235294117647e+01 9.50680323833166e-03 1.06670968068154e-04
1.33823529411765e+01 9.44261187789910e-03 1.06184340680609e-04
1.34411764705882e+01 9.37885394729348e-03 1.05698911905465e-04
1.35000000000000e+01 9.31552651992782e-03 1.05214694890452e-04
1.35588235294118e+01 9.25262668851516e-03 1.04731701865609e-04
1.36176470588235e+01 9.19015156632809e-03 1.04249944737305e-04
1.36764705882353e+01 9.12809828566255e-03 1.03769435668061e-04
1.37352941176471e+01 9.06646399773153e-03 1.03290185934658e-04
1.37941176470588e+01 9.00524587388292e-03 1.02812206506644e-04
1.38529411764706e+01 8.94444110411123e-03 1.02335508430640e-04
1.39117647058824e+01 8.88404689738448e-03 1.01860102442592e-04
1.39705882352941e+01 8.82406048108969e-03 1.01385998624567e-04
1.40294117647059e+01 8.76447910219448e-03 1.00913206772412e-04
1.40882352941176e+01 8.70530002582211e-03 1.00441736939911e-04
1.41470588235294e+01 8.64652053514948e-03 9.99715983661711e-05
1.42058823529412e+01 8.58813793253018e-03 9.95028000187898e-05
1.42647058823529e+01 8.53014953811350e-03 9.90353509541750e-05
1.43235294117647e+01 8.47255269014369e-03 9.85692599533268e-05
1.43823529411765e+01 8.41534474444253e-03 9.81045351992025e-05
1.44411764705882e+01 8.35852307548137e-03 9.76411846214617e-05
1.45000000000000e+01 8.30208507505871e-03 9.71792164077118e-05
1.45588235294118e+01 8.24602815220160e-03 9.67186379955324e-05
1.46176470588235e+01 8.19034973420262e-03 9.62594565823938e-05
1.46764705882353e+01 8.13504726533729e-03 9.58016796237694e-05
1.47352941176471e+01 8.08011820676714e-03 9.53453138503935e-05
1.47941176470588e+01 8.02556003754327e-03 9.48903657650746e-05
1.48529411764706e+01 7.97137025336263e-03 9.44368419727521e-05
1.49117647058824e+01 7.91754636683152e-03 9.39847488464989e-05
1.49705882352941e+01 7.86408590699684e-03 9.35340922312849e-05
1.50294117647059e+01 7.81098642030436e-03 9.30848777598305e-05
1.50882352941176e+01 7.75824546940649e-03 9.26371113206104e-05
1.51470588235294e+01 7.70586063306951e-03 9.21907981337970e-05
1.52058823529412e+01 7.65382950710078e-03 9.17459432182806e-05
1.52647058823529e+01 7.60214970319238e-03 9.13025517014874e-05
1.53235294117647e+01 7.55081884916279e-03 9.08606285053632e-05
1.53823529411765e+01 7.49983458851858e-03 9.04201780676662e-05
1.54411764705882e+01 7.44919458134065e-03 8.99812046384876e-05
1.55000000000000e+01 7.39889650317552e-03 8.95437127204164e-05
1.55588235294118e+01 7.34893804494587e-03 8.91077061993336e-05
1.56176470588235e+01 7.29931691380830e-03 8.86731887833538e-05
1.56764705882353e+01 7.25003083207736e-03 8.82401644318397e-05
1.57352941176471e+01 7.20107753713754e-03 8.78086365077050e-05
1.57941176470588e+01 7.15245478227406e-03 8.73786082052266e-05
1.58529411764706e+01 7.10416033562869e-03 8.69500828342400e-05
1.59117647058824e+01 7.05619198041296e-03 8.65230635318454e-05
1.59705882352941e+01 7.00854751451020e-03 8.60975530062773e-05
1.60294117647059e+01 6.96122475126962e-03 8.56735538089230e-05
1.60882352941176e+01 6.91422151850437e-03 8.52510687378314e-05
1.61470588235294e+01 6.86753565840731e-03 8.48301000399383e-05
1.62058823529412e+01 6.82116502832003e-03 8.44106498135988e-05
1.62647058823529e+01 6.77510749976021e-03 8.39927202756628e-05
1.63235294117647e+01 6.72936095861752e-03 8.35763134901795e-05
1.63823529411765e+01 6.68392330478094e-03 8.31614311272515e-05
1.64411764705882e+01 6.63879245287431e-03 8.27480747186735e-05
1.65000000000000e+01 6.59396633132301e-03 8.23362460377634e-05
1.65588235294118e+01 6.54944288227293e-03 8.19259463483364e-05
1.66176470588235e+01 6.50522006230298e-03 8.15171767833930e-05
1.66764705882353e+01 6.46129584151863e-03 8.11099387154709e-05
1.67352941176471e+01 6.41766820347229e-03 8.07042330239750e-05
1.67941176470588e+01 6.37433514585383e-03 8.03000604643954e-05
1.68529411764706e+01 6.33129467961032e-03 7.98974219135920e-05
1.69117647058824e+01 6.28854482911919e-03 7.94963181204672e-05
1.69705882352941e+01 6.24608363184903e-03 7.90967494841475e-05
1.70294117647059e+01 6.20390913902026e-03 7.86987162888099e-05
1.70882352941176e+01 6.16201941475965e-03 7.83022190522743e-05
1.71470588235294e+01 6.12041253602428e-03 7.79072578359752e-05
1.72058823529412e+01 6.07908659324157e-03 7.75138325926630e-05
1.72647058823529e+01 6.03803968948820e-03 7.71219433970967e-05
1.73235294117647e+01 5.99726994064928e-03 7.67315902112630e-05
1.73823529411765e+01 5.95677547510033e-03 7.63427726753789e-05
1.74411764705882e+01 5.91655443432014e-03 7.59554903287740e-05
1.75000000000000e+01 5.87660497210204e-03 7.55697429383061e-05
1.75588235294118e+01 5.83692525448079e-03 7.51855298482806e-05
1.76176470588235e+01 5.79751346032646e-03 7.48028503078149e-05
1.76764705882353e+01 5.75836778057805e-03 7.44217037911537e-05
1.77352941176471e+01 5.71948641817169e-03 7.40420893633195e-05
1.77941176470588e+01 5.68086758861645e-03 7.36640059993967e-05
1.78529411764706e+01 5.64250951924977e-03 7.32874527966387e-05
1.79117647058824e+01 5.60441044937832e-03 7.29124287584871e-05
1.79705882352941e+01 5.56656862998808e-03 7.25389326021819e-05
1.80294117647059e+01 5.52898232429579e-03 7.21669629618502e-05
1.80882352941176e+01 5.49164980703314e-03 7.17965186902538e-05
1.81470588235294e+01 5.45456936437813e-03 7.14275982609249e-05
1.82058823529412e+01 5.41773929448965e-03 7.10602000690665e-05
1.82647058823529e+01 5.38115790681189e-03 7.06943226312137e-05
1.83235294117647e+01 5.34482352220401e-03 7.03299643817001e-05
1.83823529411765e+01 5.30873447266796e-03 6.99671234912894e-05
1.84411764705882e+01 5.27288910186076e-03 6.96057980583555e-05
1.85000000000000e+01 5.23728576442573e-03 6.92459863933459e-05
1.85588235294118e+01 5.20192282592668e-03 6.88876864551800e-05
