Energy (eV)          EEDF (eV^-(3/2))     First Anisotropy
2.96551724137931e-02 1.01301335937390e-01 7.03948654292528e-05
8.89655172413793e-02 1.00099025575949e-01 1.15941887703428e-04
1.48275862068966e-01 9.89109850125327e-02 1.52263617739668e-04
2.07586206896552e-01 9.77370448980100e-02 1.79379778409786e-04
2.66896551724138e-01 9.65770378695910e-02 2.01603079648647e-04
3.26206896551724e-01 9.54307985607719e-02 2.20576426857073e-04
3.85517241379310e-01 9.42981635674956e-02 2.37156127040352e-04
4.44827586206897e-01 9.31789714249561e-02 2.51862888843178e-04
5.04137931034483e-01 9.20730625847755e-02 2.65044423299087e-04
5.63448275862069e-01 9.09802793942041e-02 2.76948145927168e-04
6.22758620689655e-01 8.99004660672865e-02 2.87758425711762e-04
6.82068965517241e-01 8.88334686692875e-02 2.97617571479378e-04
7.41379310344828e-01 8.77791350924403e-02 3.06638519627883e-04
8.00689655172414e-01 8.67373150342812e-02 3.14912934239765e-04
8.60000000000000e-01 8.57078599762452e-02 3.22516609277427e-04
9.19310344827586e-01 8.46906231636176e-02 3.29513202958113e-04
9.78620689655172e-01 8.36854595811022e-02 3.35956896740483e-04
1.03793103448276e+00 8.26922259376188e-02 3.41894338591726e-04
1.09724137931034e+00 8.17107806343012e-02 3.47366091685756e-04
1.15655172413793e+00 8.07409837686673e-02 3.52407739935177e-04
1.21586206896552e+00 7.97826970808263e-02 3.57050740920496e-04
1.27517241379310e+00 7.88357839686154e-02 3.61323096388374e-04
1.33448275862069e+00 7.79001094353663e-02 3.65249886070246e-04
1.39379310344828e+00 7.69755401015331e-02 3.68853697010124e-04
1.45310344827586e+00 7.60619441565225e-02 3.72154973451450e-04
1.51241379310345e+00 7.51591913674924e-02 3.75172303931083e-04
1.57172413793103e+00 7.42671530346332e-02 3.77922659752443e-04
1.63103448275862e+00 7.33857019976544e-02 3.80421593919744e-04
1.69034482758621e+00 7.25147125940406e-02 3.82683409072817e-04
1.74965517241379e+00 7.16540606636284e-02 3.84721298997511e-04
1.80896551724138e+00 7.08036235141932e-02 3.86547472329978e-04
1.86827586206897e+00 6.99632799054363e-02 3.88173253451347e-04
1.92758620689655e+00 6.91329100450709e-02 3.89609174614433e-04
1.98689655172414e+00 6.83123955538998e-02 3.90865053601733e-04
2.04620689655172e+00 6.75016194660603e-02 3.91950061663960e-04
2.10551724137931e+00 6.67004661959108e-02 3.92872783304575e-04
2.16482758620690e+00 6.59088215373506e-02 3.93641268605998e-04
2.22413793103448e+00 6.51265726323477e-02 3.94263079702251e-04
2.28344827586207e+00 6.43536079694692e-02 3.94745331730677e-04
2.34275862068966e+00 6.35898173539068e-02 3.95094729510031e-04
2.40206896551724e+00 6.28350919053337e-02 3.95317600050102e-04
2.46137931034483e+00 6.20893240293021e-02 3.95419921895775e-04
2.52068965517241e+00 6.13524074145254e-02 3.95407351266498e-04
2.58000000000000e+00 6.06242370055404e-02 3.95285245821669e-04
2.63931034482759e+00 5.99047089994963e-02 3.95058685921362e-04
2.69862068965517e+00 5.91937208199884e-02 3.94732494087517e-04
2.75793103448276e+00 5.84911711134260e-02 3.94311252477606e-04
2.81724137931035e+00 5.77969597239528e-02 3.93799318982190e-04
2.87655172413793e+00 5.71109876894567e-02 3.93200841722768e-04
2.93586206896552e+00 5.64331572175026e-02 3.92519772489605e-04
2.99517241379310e+00 5.57633716810365e-02 3.91759878874962e-04
3.05448275862069e+00 5.51015355952666e-02 3.90924755585257e-04
3.11379310344828e+00 5.44475546131077e-02 3.90017834676212e-04
3.17310344827586e+00 5.38013355029500e-02 3.89042395149166e-04
3.23241379310345e+00 5.31627861438861e-02 3.88001571648143e-04
3.29172413793103e+00 5.25318155043139e-02 3.86898362658688e-04
3.35103448275862e+00 5.19083336369809e-02 3.85735637947764e-04
3.41034482758621e+00 5.12922516583737e-02 3.84516145614684e-04
3.46965517241379e+00 5.06834817436105e-02 3.83242518229316e-04
3.52896551724138e+00 5.00819371082745e-02 3.81917279999534e-04
3.58827586206897e+00 4.94875319963562e-02 3.80542850726674e-04
3.64758620689655e+00 4.89001816729690e-02 3.79121552121021e-04
3.70689655172414e+00 4.83198024056906e-02 3.77655612473887e-04
3.76620689655172e+00 4.77463114590272e-02 3.76147171170310e-04
3.82551724137931e+00 4.71796270763900e-02 3.74598283037337e-04
3.88482758620690e+00 4.66196684745035e-02 3.73010922300568e-04
3.94413793103448e+00 4.60663558259861e-02 3.71386986415024e-04
4.00344827586207e+00 4.55196102537187e-02 3.69728299549542e-04
4.06275862068965e+00 4.49793538140009e-02 3.68036615976661e-04
4.12206896551724e+00 4.44455094908950e-02 3.66313623154082e-04
4.18137931034483e+00 4.39180011799308e-02 3.64560944736751e-04
4.24068965517241e+00 4.33967536824372e-02 3.62780143312477e-04
4.30000000000000e+00 4.28816926897722e-02 3.60972723088684e-04
4.35931034482759e+00 4.23727447776532e-02 3.59140132329978e-04
4.41862068965517e+00 4.18698373908888e-02 3.57283765763273e-04
4.47793103448276e+00 4.13728988377178e-02 3.55404966757240e-04
4.53724137931034e+00 4.08818582750220e-02 3.53505029482670e-04
4.59655172413793e+00 4.03966457026825e-02 3.51585200867328e-04
4.65586206896552e+00 3.99171919492532e-02 3.49646682542695e-04
4.71517241379310e+00 3.94434286663430e-02 3.47690632602666e-04
4.77448275862069e+00 3.89752883147307e-02 3.45718167363039e-04
4.83379310344828e+00 3.85127041587795e-02 3.43730362948200e-04
4.89310344827586e+00 3.80556102529766e-02 3.41728256885862e-04
4.95241379310345e+00 3.76039414363863e-02 3.39712849542418e-04
5.01172413793103e+00 3.71576333195968e-02 3.37685105572185e-04
5.07103448275862e+00 3.67166222792174e-02 3.35645955219070e-04
5.13034482758621e+00 3.62808454452174e-02 3.33596295636912e-04
5.18965517241379e+00 3.58502406954722e-02 3.31536991918813e-04
5.24896551724138e+00 3.54247466442851e-02 3.29468878920453e-04
5.30827586206897e+00 3.50043026337513e-02 3.27392761417671e-04
5.36758620689655e+00 3.45888487274756e-02 3.25309415795778e-04
5.42689655172414e+00 3.41783256988803e-02 3.23219590940087e-04
5.48620689655172e+00 3.37726750258399e-02 3.21124009177805e-04
5.54551724137931e+00 3.33718388793281e-02 3.19023367247201e-04
5.60482758620690e+00 3.29757601181185e-02 3.16918337160050e-04
5.66413793103448e+00 3.25843822777585e-02 3.14809567093144e-04
5.72344827586207e+00 3.21976495653368e-02 3.12697682179427e-04
5.78275862068966e+00 3.18155068487747e-02 3.10583285329498e-04
5.84206896551724e+00 3.14378996516617e-02 3.08466957958595e-04
5.90137931034483e+00 3.10647741428526e-02 3.06349260744984e-04
5.96068965517241e+00 3.06960771313740e-02 3.04230734299023e-04
6.02000000000000e+00 3.03317560563158e-02 3.02111899864369e-04
6.07931034482759e+00 2.99717589818108e-02 2.99993259934728e-04
6.13862068965517e+00 2.96160345872103e-02 2.97875298903215e-04
6.19793103448276e+00 2.92645321621379e-02 2.95758483631688e-04
6.25724137931035e+00 2.89172015969400e-02 2.93643264052998e-04
6.31655172413793e+00 2.85739933778143e-02 2.91530073697272e-04
6.37586206896552e+00 2.82348585775265e-02 2.89419330251169e-04
6.43517241379310e+00 2.78997488506141e-02 2.87311436045041e-04
6.49448275862069e+00 2.75686164243609e-02 2.85206778573037e-04
6.55379310344828e+00 2.72414140940759e-02 2.83105730944531e-04
6.61310344827586e+00 2.69180952143178e-02 2.81008652368346e-04
6.67241379310345e+00 2.65986136942496e-02 2.78915888571624e-04
6.73172413793103e+00 2.62829239891046e-02 2.76827772251234e-04
6.79103448275862e+00 2.59709810956177e-02 2.74744623462806e-04
6.85034482758621e+00 2.56627405437242e-02 2.72666750041986e-04
6.90965517241379e+00 2.53581583920681e-02 2.70594447871757e-04
6.96896551724138e+00 2.50571912203565e-02 2.68528001654764e-04
7.02827586206897e+00 2.47597961232224e-02 2.66467684685270e-04
7.08758620689655e+00 2.44659307053719e-02 2.64413759577355e-04
7.14689655172414e+00 2.41755530738584e-02 2.62366478519534e-04
7.20620689655172e+00 2.38886218337599e-02 2.60326083577903e-04
7.26551724137931e+00 2.36050960806602e-02 2.58292807029211e-04
7.32482758620690e+00 2.33249353964039e-02 2.56266871643617e-04
7.38413793103448e+00 2.30480998417796e-02 2.54248490996900e-04
7.44344827586207e+00 2.27745499523505e-02 2.52237869734415e-04
7.50275862068966e+00 2.25042467313340e-02 2.50235203863951e-04
7.56206896551724e+00 2.22371516455081e-02 2.48240681002348e-04
7.62137931034483e+00 2.19732266182809e-02 2.46254480650474e-04
7.68068965517241e+00 2.17124340256718e-02 2.44276774423733e-04
7.74000000000000e+00 2.14547366895661e-02 2.42307726310433e-04
7.79931034482759e+00 2.12000978737704e-02 2.40347492887476e-04
7.85862068965517e+00 2.09484812774457e-02 2.38396223563231e-04
7.91793103448276e+00 2.06998510312374e-02 2.36454060779454e-04
7.97724137931035e+00 2.04541716908816e-02 2.34521140239831e-04
8.03655172413793e+00 2.02114082334083e-02 2.32597591099073e-04
8.09586206896552e+00 1.99715260509166e-02 2.30683536178116e-04
8.15517241379310e+00 1.97344909468495e-02 2.28779092141338e-04
8.21448275862069e+00 1.95002691299333e-02 2.26884369699241e-04
8.27379310344828e+00 1.92688272105243e-02 2.24999473774669e-04
8.33310344827586e+00 1.90401321947064e-02 2.23124503693861e-04
8.39241379310345e+00 1.88141514807086e-02 2.21259553342359e-04
8.45172413793103e+00 1.85908528531576e-02 2.19404711345215e-04
8.51103448275862e+00 1.83702044795647e-02 2.17560061213308e-04
8.57034482758621e+00 1.81521749047280e-02 2.15725681513400e-04
8.62965517241379e+00 1.79367330472888e-02 2.13901645945754e-04
8.68896551724138e+00 1.77238481945226e-02 2.12088023744468e-04
8.74827586206897e+00 1.75134899979875e-02 2.10284879448946e-04
8.80758620689655e+00 1.73056284699163e-02 2.08492273283889e-04
8.86689655172414e+00 1.71002339779852e-02 2.06710261242616e-04
8.92620689655172e+00 1.68972772420287e-02 2.04938895204809e-04
8.98551724137931e+00 1.66967293289432e-02 2.03178223075656e-04
9.04482758620690e+00 1.64985616494681e-02 2.01428288896555e-04
9.10413793103448e+00 1.63027459532207e-02 1.99689132976632e-04
9.16344827586207e+00 1.61092543255424e-02 1.97960791996860e-04
9.22275862068966e+00 1.59180591826619e-02 1.96243299134501e-04
9.28206896551724e+00 1.57291332686044e-02 1.94536684161018e-04
9.34137931034483e+00 1.55424496504798e-02 1.92840973559806e-04
9.40068965517241e+00 1.53579817154550e-02 1.91156190618323e-04
9.46000000000000e+00 1.51757031661625e-02 1.89482355539551e-04
9.51931034482759e+00 1.49955880177351e-02 1.87819485528689e-04
9.57862068965517e+00 1.48176105933318e-02 1.86167594898664e-04
9.63793103448276e+00 1.46417455212335e-02 1.84526695151772e-04
9.69724137931034e+00 1.44679677304834e-02 1.82896795079585e-04
9.75655172413793e+00 1.42962524480425e-02 1.81277900839786e-04
9.81586206896552e+00 1.41265751945414e-02 1.79670016050866e-04
9.87517241379310e+00 1.39589117814948e-02 1.78073141864439e-04
9.93448275862069e+00 1.37932383071611e-02 1.76487277054983e-04
9.99379310344828e+00 1.36295311538150e-02 1.74912418172724e-04
1.00531034482759e+01 1.34677669833925e-02 1.73348559205711e-04
1.01124137931034e+01 1.33079227364179e-02 1.71795692524541e-04
1.01717241379310e+01 1.31499756244205e-02 1.70253808018804e-04
1.02310344827586e+01 1.29939031325099e-02 1.68722893652633e-04
1.02903448275862e+01 1.28396830099575e-02 1.67202935486533e-04
1.03496551724138e+01 1.26872932731291e-02 1.65693917271075e-04
1.04089655172414e+01 1.25367121977835e-02 1.64195822145303e-04
1.04682758620690e+01 1.23879183161189e-02 1.62708630302995e-04
1.05275862068966e+01 1.22408904179632e-02 1.61232320614931e-04
1.05868965517241e+01 1.20956075420913e-02 1.59766870355655e-04
1.06462068965517e+01 1.19520489788026e-02 1.58312255181567e-04
1.07055172413793e+01 1.18101942614948e-02 1.56868449264377e-04
1.07648275862069e+01 1.16700231691299e-02 1.55435425268306e-04
1.08241379310345e+01 1.15315157180569e-02 1.54013154478378e-04
1.08834482758621e+01 1.13946521643698e-02 1.52601606438587e-04
1.09427586206897e+01 1.12594129971982e-02 1.51200750432366e-04
1.10020689655172e+01 1.11257789360437e-02 1.49810553433781e-04
1.10613793103448e+01 1.09937309316639e-02 1.48430981521475e-04
1.11206896551724e+01 1.08632501585229e-02 1.47061999633924e-04
1.11800000000000e+01 1.07343180168617e-02 1.45703571544854e-04
1.12393103448276e+01 1.06069161253703e-02 1.44355659974479e-04
1.12986206896552e+01 1.04810263231675e-02 1.43018226564496e-04
1.13579310344828e+01 1.03566306626866e-02 1.41691231985111e-04
1.14172413793103e+01 1.02337114115687e-02 1.40374635909617e-04
1.14765517241379e+01 1.01122510457554e-02 1.39068397117451e-04
1.15358620689655e+01 9.99223225129850e-03 1.37772473179825e-04
1.15951724137931e+01 9.87363791866924e-03 1.36486821716018e-04
1.16544827586207e+01 9.75645114041540e-03 1.35211398641243e-04
1.17137931034483e+01 9.64065521176016e-03 1.33946159366713e-04
1.17731034482759e+01 9.52623362421536e-03 1.32691058585319e-04
1.18324137931034e+01 9.41317006716902e-03 1.31446050245729e-04
1.18917241379310e+01 9.30144842168261e-03 1.30211087642001e-04
1.19510344827586e+01 9.19105276200843e-03 1.28986123387529e-04
1.20103448275862e+01 9.08196734956529e-03 1.27771109501322e-04
1.20696551724138e+01 8.97417663438866e-03 1.26565997128757e-04
1.21289655172414e+01 8.86766525015016e-03 1.25370737640060e-04
1.21882758620690e+01 8.76241801204888e-03 1.24185281089091e-04
1.22475862068966e+01 8.65841991722925e-03 1.23009577263190e-04
1.23068965517241e+01 8.55565613920451e-03 1.21843575491497e-04
1.23662068965517e+01 8.45411202912616e-03 1.20687224619063e-04
1.24255172413793e+01 8.35377311036637e-03 1.19540473082101e-04
1.24848275862069e+01 8.25462507973067e-03 1.18403268882074e-04
1.25441379310345e+01 8.15665380219447e-03 1.17275559658216e-04
1.26034482758621e+01 8.05984531206141e-03 1.16157292439281e-04
1.26627586206897e+01 7.96418580859819e-03 1.15048414605588e-04
1.27220689655172e+01 7.86966165413595e-03 1.13948872532211e-04
1.27813793103448e+01 7.77625937434781e-03 1.12858612508271e-04
1.28406896551724e+01 7.68396565337120e-03 1.11777580565899e-04
1.29000000000000e+01 7.59276733481969e-03 1.10705722454838e-04
1.29593103448276e+01 7.50265141704314e-03 1.09642983705813e-04
1.30186206896552e+01 7.41360505409350e-03 1.08589309605310e-04
1.30779310344828e+01 7.32561555111856e-03 1.07544645256665e-04
1.31372413793103e+01 7.23867036528364e-03 1.06508935554952e-04
1.31965517241379e+01 7.15275710129489e-03 1.05482125245946e-04
1.32558620689655e+01 7.06786351227867e-03 1.04464158710753e-04
1.33151724137931e+01 6.98397749605586e-03 1.03454980786154e-04
1.33744827586207e+01 6.90108709347305e-03 1.02454535600811e-04
1.34337931034483e+01 6.81918048855229e-03 1.01462767359276e-04
1.34931034482759e+01 6.73824600433812e-03 1.00479620192738e-04
1.35524137931034e+01 6.65827210366305e-03 9.95050381348130e-05
1.36117241379310e+01 6.57924738511057e-03 9.85389651731214e-05
1.36710344827586e+01 6.50116058374491e-03 9.75813452252747e-05
1.37303448275862e+01 6.42400056718657e-03 9.66321221886336e-05
1.37896551724138e+01 6.34775633630797e-03 9.56912397490258e-05
1.38489655172414e+01 6.27241702195748e-03 9.47586421007129e-05
1.39082758620690e+01 6.19797188345837e-03 9.38342729201821e-05
1.39675862068966e+01 6.12441030867851e-03 9.29180760544906e-05
1.40268965517241e+01 6.05172181038665e-03 9.20099953880332e-05
1.40862068965517e+01 5.97989602685544e-03 9.11099748195571e-05
1.41455172413793e+01 5.90892271831857e-03 9.02179583057896e-05
1.42048275862069e+01 5.83879176754494e-03 8.93338898386901e-05
1.42641379310345e+01 5.76949317639374e-03 8.84577134875400e-05
1.43234482758621e+01 5.70101706636104e-03 8.75893732289042e-05
1.43827586206897e+01 5.63335367569612e-03 8.67288135792536e-05
1.44420689655172e+01 5.56649335805101e-03 8.58759786894634e-05
1.45013793103448e+01 5.50042658248959e-03 8.50308129495760e-05
1.45606896551724e+01 5.43514393028657e-03 8.41932608700096e-05
1.46200000000000e+01 5.37063609539884e-03 8.33632670598741e-05
1.46793103448276e+01 5.30689388135251e-03 8.25407762639336e-05
1.47386206896552e+01 5.24390820169095e-03 8.17257333412203e-05
1.47979310344828e+01 5.18167007694720e-03 8.09180833007033e-05
1.48572413793103e+01 5.12017063506975e-03 8.01177712801726e-05
1.49165517241379e+01 5.05940110847789e-03 7.93247425806899e-05
1.49758620689655e+01 4.99935283446606e-03 7.85389425190460e-05
1.50351724137931e+01 4.94001725273133e-03 7.77603169691098e-05
1.50944827586207e+01 4.88138590418701e-03 7.69888115832283e-05
1.51537931034483e+01 4.82345043091908e-03 7.62243723097604e-05
1.52131034482759e+01 4.76620257344769e-03 7.54669452895563e-05
1.52724137931034e+01 4.70963417107332e-03 7.47164768359771e-05
1.53317241379310e+01 4.65373715921285e-03 7.39729134651428e-05
1.53910344827586e+01 4.59850356972779e-03 7.32362018762364e-05
1.54503448275862e+01 4.54392552833281e-03 7.25062889807108e-05
1.55096551724138e+01 4.48999525490677e-03 7.17831217711566e-05
1.55689655172414e+01 4.43670506131092e-03 7.10666477977118e-05
1.56282758620690e+01 4.38404735032234e-03 7.03568144801448e-05
1.56875862068966e+01 4.33201461555855e-03 6.96535695634421e-05
1.57468965517241e+01 4.28059943906611e-03 6.89568610254267e-05
1.58062068965517e+01 4.22979449158437e-03 6.82666370581871e-05
1.58655172413793e+01 4.17959253019919e-03 6.75828460937559e-05
1.59248275862069e+01 4.12998639859234e-03 6.69054367858080e-05
1.59841379310345e+01 4.08096902475864e-03 6.62343580344644e-05
1.60434482758621e+01 4.03253342124150e-03 6.55695588696463e-05
1.61027586206897e+01 3.98467268320628e-03 6.49109888707202e-05
1.61620689655172e+01 3.93737998748101e-03 6.42585975583709e-05
1.62213793103448e+01 3.89064859245869e-03 6.36123347958418e-05
1.62806896551724e+01 3.84447183597173e-03 6.29721507065700e-05
1.63400000000000e+01 3.79884313548928e-03 6.23379956569641e-05
1.63993103448276e+01 3.75375598604889e-03 6.17098202782203e-05
1.64586206896552e+01 3.70920396044228e-03 6.10875754493866e-05
1.65179310344828e+01 3.66518070720262e-03 6.04712123184359e-05
1.65772413793103e+01 3.62167995077922e-03 5.98606822856033e-05
1.66365517241379e+01 3.57869548957881e-03 5.92559370237473e-05
1.66958620689655e+01 3.53622119612974e-03 5.86569283770804e-05
1.67551724137931e+01 3.49425101542413e-03 5.80636087212139e-05
1.68144827586207e+01 3.45277896407566e-03 5.74759304392003e-05
1.68737931034483e+01 3.41179913020451e-03 5.68938462658113e-05
1.69331034482759e+01 3.37130567161239e-03 5.63173092157629e-05
1.69924137931034e+01 3.33129281591736e-03 5.57462725680900e-05
1.70517241379310e+01 3.29175485877759e-03 5.51806898840564e-05
1.71110344827586e+01 3.25268616401742e-03 5.46205149917955e-05
1.71703448275862e+01 3.21408116189852e-03 5.40657020036039e-05
1.72296551724138e+01 3.17593434923754e-03 5.35162052258670e-05
1.72889655172414e+01 3.13824028793949e-03 5.29719794765723e-05
1.73482758620690e+01 3.10099360424052e-03 5.24329796216185e-05
1.74075862068966e+01 3.06418898858407e-03 5.18991608785037e-05
1.74668965517241e+01 3.02782119400922e-03 5.13704787522660e-05
1.75262068965517e+01 2.99188503624481e-03 5.08468890211045e-05
1.75855172413793e+01 2.95637539214067e-03 5.03283477516026e-05
1.76448275862069e+01 2.92128719975484e-03 4.98148112846038e-05
1.77041379310345e+01 2.88661545682636e-03 4.93062362499166e-05
1.77634482758621e+01 2.85235522085595e-03 4.88025794861293e-05
1.78227586206897e+01 2.81850160780747e-03 4.83037983208296e-05
1.78820689655172e+01 2.78504979142728e-03 4.78098501600590e-05
1.79413793103448e+01 2.75199500311560e-03 4.73206927562912e-05
1.80006896551724e+01 2.71933253050224e-03 4.68362841512921e-05
1.80600000000000e+01 2.68705771750837e-03 4.63565826629028e-05
1.81193103448276e+01 2.65516596295996e-03 4.58815468979913e-05
1.81786206896552e+01 2.62365272064405e-03 4.54111357394819e-05
1.82379310344828e+01 2.59251349795889e-03 4.49453083588583e-05
1.82972413793103e+01 2.56174385596503e-03 4.44840242034311e-05
1.83565517241379e+01 2.53133940807102e-03 4.40272430084242e-05
1.84158620689655e+01 2.50129582007964e-03 4.35749247273049e-05
1.84751724137931e+01 2.47160880906753e-03 4.31270297727064e-05
1.85344827586207e+01 2.44227414278777e-03 4.26835186621084e-05
1.85937931034483e+01 2.41328763953999e-03 4.22443522482451e-05
1.86531034482759e+01 2.38464516694404e-03 4.18094916693029e-05
1.87124137931034e+01 2.35634264197197e-03 4.13788983370314e-05
