Energy (eV)          EEDF (eV^-(3/2))     First Anisotropy
5.21666666666667e-02 4.10596310650725e-02 2.80433217553105e-05
1.56500000000000e-01 4.05900912075473e-02 4.61980277190368e-05
2.60833333333333e-01 4.01259207990008e-02 6.06973206012588e-05
3.65166666666667e-01 3.96670584400555e-02 7.15380613298017e-05
4.69500000000000e-01 3.92134434292733e-02 8.04361272993265e-05
5.73833333333333e-01 3.87650157593474e-02 8.80447359448297e-05
6.78166666666667e-01 3.83217161111053e-02 9.47041377940303e-05
7.82500000000000e-01 3.78834858425931e-02 1.00621107445238e-04
8.86833333333333e-01 3.74502669820682e-02 1.05933638911164e-04
9.91166666666667e-01 3.70220022218340e-02 1.10739864881596e-04
1.09550000000000e+00 3.65986349100400e-02 1.15112870486540e-04
1.19983333333333e+00 3.61801090378320e-02 1.19109036373258e-04
1.30416666666667e+00 3.57663692444755e-02 1.22773082187687e-04
1.40850000000000e+00 3.53573607981289e-02 1.26141286319553e-04
1.51283333333333e+00 3.49530295903394e-02 1.29243630741235e-04
1.61716666666667e+00 3.45533221371431e-02 1.32105284944697e-04
1.72150000000000e+00 3.41581855630993e-02 1.34747662550821e-04
1.82583333333333e+00 3.37675675953904e-02 1.37189191256470e-04
1.93016666666667e+00 3.33814165634951e-02 1.39445889121360e-04
2.03450000000000e+00 3.29996813853532e-02 1.41531802998040e-04
2.13883333333333e+00 3.26223115613603e-02 1.43459346157309e-04
2.24316666666667e+00 3.22492571731033e-02 1.45239564780212e-04
2.34750000000000e+00 3.18804688710521e-02 1.46882349970876e-04
2.45183333333333e+00 3.15158978685773e-02 1.48396607050091e-04
2.55616666666667e+00 3.11554959400501e-02 1.49790394609056e-04
2.66050000000000e+00 3.07992154096960e-02 1.51071038770698e-04
2.76483333333333e+00 3.04470091457022e-02 1.52245226652444e-04
2.86916666666667e+00 3.00988305578748e-02 1.53319085672028e-04
2.97350000000000e+00 2.97546335874203e-02 1.54298250330792e-04
3.07783333333333e+00 2.94143727011760e-02 1.55187917684638e-04
3.18216666666667e+00 2.90780028889585e-02 1.55992895778995e-04
3.28650000000000e+00 2.87454796541092e-02 1.56717645228784e-04
3.39083333333333e+00 2.84167590078665e-02 1.57366314046861e-04
3.49516666666667e+00 2.80917974665000e-02 1.57942768881454e-04
3.59950000000000e+00 2.77705520425014e-02 1.58450622252363e-04
3.70383333333333e+00 2.74529802391096e-02 1.58893255422334e-04
3.80816666666667e+00 2.71390400472976e-02 1.59273839459895e-04
3.91250000000000e+00 2.68286899375214e-02 1.59595353840782e-04
4.01683333333333e+00 2.65218888544021e-02 1.59860602025146e-04
4.12116666666667e+00 2.62185962136160e-02 1.60072226196663e-04
4.22550000000000e+00 2.59187718941340e-02 1.60232720419541e-04
4.32983333333333e+00 2.56223762330616e-02 1.60344441571748e-04
4.43416666666667e+00 2.53293700224708e-02 1.60409619988514e-04
4.53850000000000e+00 2.50397145020751e-02 1.60430369050281e-04
4.64283333333333e+00 2.47533713542279e-02 1.60408693051323e-04
4.74716666666667e+00 2.44703027007246e-02 1.60346495096297e-04
4.85150000000000e+00 2.41904710958699e-02 1.60245584269471e-04
4.95583333333333e+00 2.39138395216323e-02 1.60107681418438e-04
5.06016666666667e+00 2.36403713844395e-02 1.59934425151924e-04
5.16450000000000e+00 2.33700305086013e-02 1.59727377322104e-04
5.26883333333333e+00 2.31027811316179e-02 1.59488027352328e-04
5.37316666666667e+00 2.28385879009858e-02 1.59217796887528e-04
5.47750000000000e+00 2.25774158679463e-02 1.58918044070170e-04
5.58183333333333e+00 2.23192304829439e-02 1.58590066827820e-04
5.68616666666667e+00 2.20639975924570e-02 1.58235106545119e-04
5.79050000000000e+00 2.18116834330453e-02 1.57854351457617e-04
5.89483333333333e+00 2.15622546269559e-02 1.57448939181422e-04
5.99916666666667e+00 2.13156781789884e-02 1.57019959659931e-04
6.10350000000000e+00 2.10719214708198e-02 1.56568457899820e-04
6.20783333333333e+00 2.08309522567536e-02 1.56095435938762e-04
6.31216666666667e+00 2.05927386606286e-02 1.55601855244575e-04
6.41650000000000e+00 2.03572491704011e-02 1.55088638951879e-04
6.52083333333333e+00 2.01244526340338e-02 1.54556673406726e-04
6.62516666666667e+00 1.98943182564541e-02 1.54006810145475e-04
6.72950000000000e+00 1.96668155943772e-02 1.53439867746307e-04
6.83383333333333e+00 1.94419145523302e-02 1.52856633050938e-04
6.93816666666667e+00 1.92195853796653e-02 1.52257862816048e-04
7.04250000000000e+00 1.89997986656086e-02 1.51644285263391e-04
7.14683333333333e+00 1.87825253354155e-02 1.51016601052075e-04
7.25116666666667e+00 1.85677366474424e-02 1.50375484671366e-04
7.35550000000000e+00 1.83554041884077e-02 1.49721585751788e-04
7.45983333333333e+00 1.81454998696744e-02 1.49055529842623e-04
7.56416666666667e+00 1.79379959243835e-02 1.48377919597885e-04
7.66850000000000e+00 1.77328649029150e-02 1.47689335895605e-04
7.77283333333333e+00 1.75300796692933e-02 1.46990338461744e-04
7.87716666666667e+00 1.73296133983849e-02 1.46281466888866e-04
7.98150000000000e+00 1.71314395715478e-02 1.45563241599748e-04
8.08583333333333e+00 1.69355319731561e-02 1.44836164349160e-04
8.19016666666667e+00 1.67418646878640e-02 1.44100719105763e-04
8.29450000000000e+00 1.65504120964320e-02 1.43357372888075e-04
8.39883333333333e+00 1.63611488723689e-02 1.42606576168391e-04
8.50316666666667e+00 1.61740499792609e-02 1.41848763641776e-04
8.60750000000000e+00 1.59890906667675e-02 1.41084354956368e-04
8.71183333333333e+00 1.58062464673752e-02 1.40313755038331e-04
8.81616666666667e+00 1.56254931937935e-02 1.39537354766829e-04
8.92050000000000e+00 1.54468069351113e-02 1.38755531616085e-04
9.02483333333333e+00 1.52701640536590e-02 1.37968649916247e-04
9.12916666666667e+00 1.50955411824716e-02 1.37177061449357e-04
9.23350000000000e+00 1.49229152215974e-02 1.36381106017151e-04
9.33783333333333e+00 1.47522633350650e-02 1.35581111649625e-04
9.44216666666667e+00 1.45835629484137e-02 1.34777395134131e-04
9.54650000000000e+00 1.44167917451466e-02 1.33970262520179e-04
9.65083333333333e+00 1.42519276637998e-02 1.33160009285111e-04
9.75516666666667e+00 1.40889488955389e-02 1.32346920806204e-04
9.85950000000000e+00 1.39278338807504e-02 1.31531272811630e-04
9.96383333333333e+00 1.37685613062091e-02 1.30713331510848e-04
1.00681666666667e+01 1.36111101027406e-02 1.29893353924724e-04
1.01725000000000e+01 1.34554594423984e-02 1.29071588756399e-04
1.02768333333333e+01 1.33015887334543e-02 1.28248275653424e-04
1.03811666666667e+01 1.31494776226746e-02 1.27423645959268e-04
1.04855000000000e+01 1.29991059880414e-02 1.26597924008663e-04
1.05898333333333e+01 1.28504539362562e-02 1.25771325542109e-04
1.06941666666667e+01 1.27035018043391e-02 1.24944058882640e-04
1.07985000000000e+01 1.25582301527288e-02 1.24116326055319e-04
1.09028333333333e+01 1.24146197628651e-02 1.23288321261886e-04
1.10071666666667e+01 1.22726516386148e-02 1.22460231985123e-04
1.11115000000000e+01 1.21323069997277e-02 1.21632240040258e-04
1.12158333333333e+01 1.19935672794935e-02 1.20804520108632e-04
1.13201666666667e+01 1.18564141260130e-02 1.19977240775839e-04
1.14245000000000e+01 1.17208293959852e-02 1.19150565520807e-04
1.15288333333333e+01 1.15867951524390e-02 1.18324651307048e-04
1.16331666666667e+01 1.14542936658624e-02 1.17499649560041e-04
1.17375000000000e+01 1.13233074083010e-02 1.16675707099047e-04
1.18418333333333e+01 1.11938190511618e-02 1.15852964784349e-04
1.19461666666667e+01 1.10658114662140e-02 1.15031558438681e-04
1.20505000000000e+01 1.09392677199798e-02 1.14211619726229e-04
1.21548333333333e+01 1.08141710716080e-02 1.13393274854176e-04
1.22591666666667e+01 1.06905049737587e-02 1.12576645442428e-04
1.23635000000000e+01 1.05682530672683e-02 1.11761849353814e-04
1.24678333333333e+01 1.04473991790913e-02 1.10948999448095e-04
1.25721666666667e+01 1.03279273230797e-02 1.10138204403821e-04
1.26765000000000e+01 1.02098216949056e-02 1.09329569503295e-04
1.27808333333333e+01 1.00930666700697e-02 1.08523195437194e-04
1.28851666666667e+01 9.97764680458434e-03 1.07719179082005e-04
1.29895000000000e+01 9.86354683013984e-03 1.06917614242909e-04
1.30938333333333e+01 9.75075165217655e-03 1.06118590507201e-04
1.31981666666667e+01 9.63924635048139e-03 1.05322193980369e-04
1.33025000000000e+01 9.52901617458316e-03 1.04528507989812e-04
1.34068333333333e+01 9.42004654188692e-03 1.03737611985190e-04
1.35111666666667e+01 9.31232303819158e-03 1.02949582235925e-04
1.36155000000000e+01 9.20583141330141e-03 1.02164492498384e-04
1.37198333333333e+01 9.10055757922091e-03 1.01382412961345e-04
1.38241666666667e+01 8.99648761060073e-03 1.00603410907459e-04
1.39285000000000e+01 8.89360774055325e-03 9.98275513462518e-05
1.40328333333333e+01 8.79190435890627e-03 9.90548960029332e-05
1.41371666666667e+01 8.69136401258373e-03 9.82855039461386e-05
1.42415000000000e+01 8.59197340161432e-03 9.75194321889088e-05
1.43458333333333e+01 8.49371937744201e-03 9.67567347190985e-05
1.44501666666667e+01 8.39658894324780e-03 9.59974630955024e-05
1.45545000000000e+01 8.30056925014076e-03 9.52416670188187e-05
1.46588333333333e+01 8.20564759552376e-03 9.44893934019511e-05
1.47631666666667e+01 8.11181142336171e-03 9.37406869364634e-05
1.48675000000000e+01 8.01904832054518e-03 9.29955906353297e-05
1.49718333333333e+01 7.92734601530987e-03 9.22541449415064e-05
1.50761666666667e+01 7.83669237745603e-03 9.15163882664943e-05
1.51805000000000e+01 7.74707541487589e-03 9.07823575065543e-05
1.52848333333333e+01 7.65848327202483e-03 9.00520871879599e-05
1.53891666666667e+01 7.57090423009692e-03 8.93256099792965e-05
1.54935000000000e+01 7.48432670370734e-03 8.86029571827069e-05
1.55978333333333e+01 7.39873923941386e-03 8.78841579142886e-05
1.57021666666667e+01 7.31413051585248e-03 8.71692395916603e-05
1.58065000000000e+01 7.23048934056692e-03 8.64582284016490e-05
1.59108333333333e+01 7.14780464857888e-03 8.57511485143613e-05
1.60151666666667e+01 7.06606550248751e-03 8.50480225474316e-05
1.61195000000000e+01 6.98526108943859e-03 8.43488720114775e-05
1.62238333333333e+01 6.90538071974186e-03 8.36537165564285e-05
1.63281666666667e+01 6.82641382693797e-03 8.29625744137471e-05
1.64325000000000e+01 6.74834996490017e-03 8.22754628208980e-05
1.65368333333333e+01 6.67117880649736e-03 8.15923972985716e-05
1.66411666666667e+01 6.59489014363158e-03 8.09133920720953e-05
1.67455000000000e+01 6.51947388446566e-03 8.02384604760542e-05
1.68498333333333e+01 6.44492005213051e-03 7.95676142611055e-05
1.69541666666667e+01 6.37121878473606e-03 7.89008639957113e-05
1.70585000000000e+01 6.29836033271866e-03 7.82382194519747e-05
1.71628333333333e+01 6.22633505759122e-03 7.75796889408013e-05
1.72671666666667e+01 6.15513343193020e-03 7.69252796950053e-05
1.73715000000000e+01 6.08474603683698e-03 7.62749982373615e-05
1.74758333333333e+01 6.01516356072938e-03 7.56288497429084e-05
1.75801666666667e+01 5.94637679930724e-03 7.49868384044112e-05
1.76845000000000e+01 5.87837665312214e-03 7.43489677835695e-05
1.77888333333333e+01 5.81115412640908e-03 7.37152401993045e-05
1.78931666666667e+01 5.74470032703273e-03 7.30856570765059e-05
1.79975000000000e+01 5.67900646416047e-03 7.24602192812634e-05
1.81018333333333e+01 5.61406384713278e-03 7.18389265340475e-05
1.82061666666667e+01 5.54986388539232e-03 7.12217777426026e-05
1.83105000000000e+01 5.48639808625526e-03 7.06087713220140e-05
1.84148333333333e+01 5.42365805381922e-03 6.99999046317288e-05
1.85191666666667e+01 5.36163548887700e-03 6.93951742934059e-05
1.86235000000000e+01 5.30032218678158e-03 6.87945764965924e-05
1.87278333333333e+01 5.23971003639039e-03 6.81981064585770e-05
1.88321666666667e+01 5.17979101996539e-03 6.76057587279507e-05
1.89365000000000e+01 5.12055721112732e-03 6.70175274766207e-05
1.90408333333333e+01 5.06200077383517e-03 6.64334059815288e-05
1.91451666666667e+01 5.00411396227418e-03 6.58533869146418e-05
1.92495000000000e+01 4.94688911889514e-03 6.52774626219769e-05
1.93538333333333e+01 4.89031867342799e-03 6.47056246262631e-05
1.94581666666667e+01 4.83439514275901e-03 6.41378639040398e-05
1.95625000000000e+01 4.77911112905150e-03 6.35741711523332e-05
1.96668333333333e+01 4.72445931879212e-03 6.30145363113767e-05
1.97711666666667e+01 4.67043248265885e-03 6.24589488294457e-05
1.98755000000000e+01 4.61702347371904e-03 6.19073979177908e-05
1.99798333333333e+01 4.56422522650772e-03 6.13598720925805e-05
2.00841666666667e+01 4.51203075688724e-03 6.08163594280693e-05
2.01885000000000e+01 4.46043316031942e-03 6.02768478003504e-05
2.02928333333333e+01 4.40942561097458e-03 5.97413244477102e-05
2.03971666666667e+01 4.35900136158409e-03 5.92097762127011e-05
2.05015000000000e+01 4.30915374178321e-03 5.86821897752537e-05
2.06058333333333e+01 4.25987615724986e-03 5.81585512306675e-05
2.07101666666667e+01 4.21116208955108e-03 5.76388463211152e-05
2.08145000000000e+01 4.16300509455335e-03 5.71230606586255e-05
2.09188333333333e+01 4.11539880159019e-03 5.66111793199796e-05
2.10231666666667e+01 4.06833691330338e-03 5.61031870681429e-05
2.11275000000000e+01 4.02181320411780e-03 5.55990685655992e-05
2.12318333333333e+01 3.97582151943686e-03 5.50988079854416e-05
2.13361666666667e+01 3.93035577547937e-03 5.46023892232224e-05
2.14405000000000e+01 3.88540995781602e-03 5.41097961010796e-05
2.15448333333333e+01 3.84097812059170e-03 5.36210119943509e-05
2.16491666666667e+01 3.79705438635882e-03 5.31360200342915e-05
2.17535000000000e+01 3.75363294467264e-03 5.26548033034269e-05
2.18578333333333e+01 3.71070805133975e-03 5.21773444770433e-05
2.19621666666667e+01 3.66827402824832e-03 5.17036260171914e-05
2.20665000000000e+01 3.62632526201991e-03 5.12336303596842e-05
2.21708333333333e+01 3.58485620328306e-03 5.07673395698370e-05
2.22751666666667e+01 3.54386136650126e-03 5.03047355281702e-05
2.23795000000000e+01 3.50333532867869e-03 4.98458001094274e-05
2.24838333333333e+01 3.46327272865811e-03 4.93905148519878e-05
2.25881666666667e+01 3.42366826694716e-03 4.89388611356394e-05
2.26925000000000e+01 3.38451670447562e-03 4.84908203529877e-05
2.27968333333333e+01 3.34581286191690e-03 4.80463735919723e-05
2.29011666666667e+01 3.30755161951306e-03 4.76055018060788e-05
2.30055000000000e+01 3.26972791588150e-03 4.71681859784854e-05
2.31098333333333e+01 3.23233674735919e-03 4.67344068171407e-05
2.32141666666667e+01 3.19537316782692e-03 4.63041449177582e-05
2.33185000000000e+01 3.15883228756328e-03 4.58773809210297e-05
2.34228333333333e+01 3.12270927261086e-03 4.54540952197506e-05
2.35271666666667e+01 3.08699934460024e-03 4.50342681149239e-05
2.36315000000000e+01 3.05169777964912e-03 4.46178799663537e-05
2.37358333333333e+01 3.01679990774992e-03 4.42049109113199e-05
2.38401666666667e+01 2.98230111259371e-03 4.37953410141041e-05
2.39445000000000e+01 2.94819683051276e-03 4.33891504102598e-05
2.40488333333333e+01 2.91448254988868e-03 4.29863190363649e-05
2.41531666666667e+01 2.88115381097674e-03 4.25868267732679e-05
2.42575000000000e+01 2.84820620488996e-03 4.21906535843085e-05
2.43618333333333e+01 2.81563537302712e-03 4.17977792557029e-05
2.44661666666667e+01 2.78343700689779e-03 4.14081835337871e-05
2.45705000000000e+01 2.75160684714623e-03 4.10218462574604e-05
2.46748333333333e+01 2.72014068299855e-03 4.06387471087666e-05
2.47791666666667e+01 2.68903435208885e-03 4.02588657443989e-05
2.48835000000000e+01 2.65828373952109e-03 3.98821819226311e-05
2.49878333333333e+01 2.62788477733498e-03 3.95086752636681e-05
2.50921666666667e+01 2.59783344433324e-03 3.91383253756731e-05
2.51965000000000e+01 2.56812576518013e-03 3.87711119764279e-05
2.53008333333333e+01 2.53875780988516e-03 3.84070146630622e-05
2.54051666666667e+01 2.50972569363195e-03 3.80460130328383e-05
2.55095000000000e+01 2.48102557591171e-03 3.76880867997679e-05
2.56138333333333e+01 2.45265366002434e-03 3.73332155733411e-05
2.57181666666667e+01 2.42460619290896e-03 3.69813789743078e-05
2.58225000000000e+01 2.39687946431094e-03 3.66325567464672e-05
2.59268333333333e+01 2.36946980629985e-03 3.62867285440321e-05
2.60311666666667e+01 2.34237359310176e-03 3.59438740426200e-05
2.61355000000000e+01 2.31558724029856e-03 3.56039730464327e-05
2.62398333333333e+01 2.28910720436204e-03 3.52670052839055e-05
2.63441666666667e+01 2.26292998248829e-03 3.49329505141173e-05
2.64485000000000e+01 2.23705211182783e-03 3.46017886295575e-05
2.65528333333333e+01 2.21147016903541e-03 3.42734994597256e-05
2.66571666666667e+01 2.18618077010655e-03 3.39480628731621e-05
2.67615000000000e+01 2.16118056963732e-03 3.36254588759941e-05
2.68658333333333e+01 2.13646626038926e-03 3.33056674231682e-05
2.69701666666667e+01 2.11203457312821e-03 3.29886685162843e-05
2.70745000000000e+01 2.08788227591249e-03 3.26744422981047e-05
2.71788333333333e+01 2.06400617367251e-03 3.23629688711115e-05
2.72831666666667e+01 2.04040310805196e-03 3.20542283913307e-05
2.73875000000000e+01 2.01706995672327e-03 3.17482011589758e-05
2.74918333333333e+01 1.99400363298134e-03 3.14448674440343e-05
2.75961666666667e+01 1.97120108558725e-03 3.11442075762537e-05
2.77005000000000e+01 1.94865929810985e-03 3.08462020320824e-05
2.78048333333333e+01 1.92637528853324e-03 3.05508312670084e-05
2.79091666666667e+01 1.90434610910295e-03 3.02580758018736e-05
2.80135000000000e+01 1.88256884569272e-03 2.99679163062721e-05
2.81178333333333e+01 1.86104061742512e-03 2.96803334373668e-05
2.82221666666667e+01 1.83975857652045e-03 2.93953079226822e-05
2.83265000000000e+01 1.81871990768755e-03 2.91128206401177e-05
2.84308333333333e+01 1.79792182775725e-03 2.88328524629846e-05
2.85351666666667e+01 1.77736158553391e-03 2.85553843394302e-05
2.86395000000000e+01 1.75703646120941e-03 2.82803973692038e-05
2.87438333333333e+01 1.73694376600893e-03 2.80078726546661e-05
2.88481666666667e+01 1.71708084204521e-03 2.77377913769910e-05
2.89525000000000e+01 1.69744506175476e-03 2.74701348698205e-05
2.90568333333333e+01 1.67803382755561e-03 2.72048844760132e-05
2.91611666666667e+01 1.65884457170430e-03 2.69420216207541e-05
2.92655000000000e+01 1.63987475575342e-03 2.66815278822314e-05
2.93698333333333e+01 1.62112187022090e-03 2.64233848538943e-05
2.94741666666667e+01 1.60258343444983e-03 2.61675742146059e-05
2.95785000000000e+01 1.58425699608642e-03 2.59140777964689e-05
2.96828333333333e+01 1.56614013076052e-03 2.56628774523675e-05
2.97871666666667e+01 1.54823044194813e-03 2.54139551232917e-05
2.98915000000000e+01 1.53052556046920e-03 2.51672929034287e-05
2.99958333333333e+01 1.51302314417875e-03 2.49228729127864e-05
3.01001666666667e+01 1.49572087783237e-03 2.46806773618020e-05
3.02045000000000e+01 1.47861647260276e-03 2.44406886138153e-05
3.03088333333333e+01 1.46170766578141e-03 2.42028890625735e-05
3.04131666666667e+01 1.44499222064681e-03 2.39672611942386e-05
3.05175000000000e+01 1.42846792599922e-03 2.37337876473503e-05
3.06218333333333e+01 1.41213259587240e-03 2.35024510950197e-05
3.07261666666667e+01 1.39598406940458e-03 2.32732343044443e-05
3.08305000000000e+01 1.38002021039078e-03 2.30461201944667e-05
3.09348333333333e+01 1.36423890700421e-03 2.28210917222720e-05
3.10391666666667e+01 1.34863807167006e-03 2.25981319405125e-05
3.11435000000000e+01 1.33321564063459e-03 2.23772240525653e-05
3.12478333333333e+01 1.31796957369591e-03 2.21583513035521e-05
3.13521666666667e+01 1.30289785408062e-03 2.19414970351790e-05
3.14565000000000e+01 1.28799848802895e-03 2.17266447387823e-05
3.15608333333333e+01 1.27326950453468e-03 2.15137779505049e-05
3.16651666666667e+01 1.25870895522455e-03 2.13028803039437e-05
3.17695000000000e+01 1.24431491395887e-03 2.10939355810763e-05
3.18738333333333e+01 1.23008547658024e-03 2.08869276114323e-05
3.19781666666667e+01 1.21601876079569e-03 2.06818403226363e-05
3.20825000000000e+01 1.20211290579223e-03 2.04786577893057e-05
3.21868333333333e+01 1.18836607199401e-03 2.02773641360609e-05
3.22911666666667e+01 1.17477644094722e-03 2.00779435860477e-05
3.23955000000000e+01 1.16134221494995e-03 1.98803805078911e-05
3.24998333333333e+01 1.14806161681753e-03 1.96846593223931e-05
3.26041666666667e+01 1.13493288977019e-03 1.94907645491231e-05
3.27085000000000e+01 1.12195429707661e-03 1.92986808515039e-05
3.28128333333333e+01 1.10912412182728e-03 1.91083929470507e-05
3.29171666666667e+01 1.09644066682470e-03 1.89198856521125e-05
