Energy (eV)          EEDF (eV^-(3/2))     First Anisotropy
9.67857142857143e-03 5.70531921442344e-01 4.00637643876856e-04
2.90357142857143e-02 5.63536593494897e-01 6.59728745528616e-04
4.83928571428571e-02 5.56627035731988e-01 8.66061398341812e-04
6.77500000000000e-02 5.49802196486912e-01 1.01989043394077e-03
8.71071428571429e-02 5.43061037033330e-01 1.14578911981520e-03
1.06464285714286e-01 5.36402531358371e-01 1.25312422584181e-03
1.25821428571429e-01 5.29825666050201e-01 1.34678067170685e-03
1.45178571428571e-01 5.23329440095915e-01 1.42973056994350e-03
1.64535714285714e-01 5.16912864771950e-01 1.50395967202444e-03
1.83892857142857e-01 5.10574963478588e-01 1.57088169674877e-03
2.03250000000000e-01 5.04314771589711e-01 1.63155065852228e-03
2.22607142857143e-01 4.98131336335017e-01 1.68678052909291e-03
2.41964285714286e-01 4.92023716566034e-01 1.73721758690473e-03
2.61321428571429e-01 4.85990982705036e-01 1.78338661752423e-03
2.80678571428571e-01 4.80032216571759e-01 1.82572174143045e-03
3.00035714285714e-01 4.74146511243406e-01 1.86458772096629e-03
3.19392857142857e-01 4.68332970917293e-01 1.90029513952703e-03
3.38750000000000e-01 4.62590710774144e-01 1.93311149085170e-03
3.58107142857143e-01 4.56918856859477e-01 1.96326946523383e-03
3.77464285714286e-01 4.51316545901428e-01 1.99097325033952e-03
3.96821428571429e-01 4.45782925229699e-01 2.01640340688489e-03
4.16178571428571e-01 4.40317152628595e-01 2.03972070466663e-03
4.35535714285714e-01 4.34918396208728e-01 2.06106917080720e-03
4.54892857142857e-01 4.29585834280676e-01 2.08057854595656e-03
4.74250000000000e-01 4.24318655229774e-01 2.09836628279541e-03
4.93607142857143e-01 4.19116057403156e-01 2.11453919284358e-03
5.12964285714286e-01 4.13977248955477e-01 2.12919480753128e-03
5.32321428571429e-01 4.08901447761280e-01 2.14242251587495e-03
5.51678571428571e-01 4.03887881284784e-01 2.15430452797575e-03
5.71035714285714e-01 3.98935786462240e-01 2.16491668842082e-03
5.90392857142857e-01 3.94044409585932e-01 2.17432917164617e-03
6.09750000000000e-01 3.89213006189392e-01 2.18260707828381e-03
6.29107142857143e-01 3.84440840941650e-01 2.18981095340041e-03
6.48464285714286e-01 3.79727187512273e-01 2.19599723241725e-03
6.67821428571429e-01 3.75071328484252e-01 2.20121862981372e-03
6.87178571428571e-01 3.70472555236862e-01 2.20552448388738e-03
7.06535714285714e-01 3.65930167837779e-01 2.20896105688964e-03
7.25892857142857e-01 3.61443474936630e-01 2.21157180098577e-03
7.45250000000000e-01 3.57011793659724e-01 2.21339759342589e-03
7.64607142857143e-01 3.52634449511809e-01 2.21447694857176e-03
7.83964285714286e-01 3.48310776256105e-01 2.21484620392938e-03
8.03321428571429e-01 3.44040115830472e-01 2.21453968663912e-03
8.22678571428571e-01 3.39821818241307e-01 2.21358986658382e-03
8.42035714285714e-01 3.35655241464591e-01 2.21202749164539e-03
8.61392857142857e-01 3.31539751348227e-01 2.20988171060859e-03
8.80750000000000e-01 3.27474721515491e-01 2.20718018393558e-03
9.00107142857143e-01 3.23459533274122e-01 2.20394918669607e-03
9.19464285714286e-01 3.19493575508712e-01 2.20021369945939e-03
9.38821428571429e-01 3.15576244601327e-01 2.19599749111081e-03
9.58178571428571e-01 3.11706944335030e-01 2.19132319756196e-03
9.77535714285714e-01 3.07885085803116e-01 2.18621239155832e-03
9.96892857142857e-01 3.04110087319520e-01 2.18068564787929e-03
1.01625000000000e+00 3.00381374326589e-01 2.17476259976069e-03
1.03560714285714e+00 2.96698379329354e-01 2.16846199792474e-03
1.05496428571429e+00 2.93060541775829e-01 2.16180176699620e-03
1.07432142857143e+00 2.89467307954371e-01 2.15479903297896e-03
1.09367857142857e+00 2.85918131009296e-01 2.14747017876082e-03
1.11303571428571e+00 2.82412470755663e-01 2.13983089871043e-03
1.13239285714286e+00 2.78949793601963e-01 2.13189620726678e-03
1.15175000000000e+00 2.75529572560395e-01 2.12368048822686e-03
1.17110714285714e+00 2.72151287073280e-01 2.11519753648304e-03
1.19046428571429e+00 2.68814422965573e-01 2.10646057815943e-03
1.20982142857143e+00 2.65518472339982e-01 2.09748229117760e-03
1.22917857142857e+00 2.62262933580942e-01 2.08827484025405e-03
1.24853571428571e+00 2.59047311195406e-01 2.07884991409670e-03
1.26789285714286e+00 2.55871115741168e-01 2.06921872372186e-03
1.28725000000000e+00 2.52733863827227e-01 2.05939203677070e-03
1.30660714285714e+00 2.49635077963915e-01 2.04938020607313e-03
1.32596428571429e+00 2.46574286516123e-01 2.03919318018110e-03
1.34532142857143e+00 2.43551023609559e-01 2.02884051479611e-03
1.36467857142857e+00 2.40564829126828e-01 2.01833139730235e-03
1.38403571428571e+00 2.37615248569185e-01 2.00767467373399e-03
1.40339285714286e+00 2.34701832990267e-01 1.99687884234565e-03
1.42275000000000e+00 2.31824138989746e-01 1.98595207889912e-03
1.44210714285714e+00 2.28981728582731e-01 1.97490225733730e-03
1.46146428571429e+00 2.26174169154517e-01 1.96373695509116e-03
1.48082142857143e+00 2.23401033376434e-01 1.95246345941511e-03
1.50017857142857e+00 2.20661899196589e-01 1.94108878546386e-03
1.51953571428571e+00 2.17956349718880e-01 1.92961969677210e-03
1.53889285714286e+00 2.15283973141846e-01 1.91806269675184e-03
1.55825000000000e+00 2.12644362747795e-01 1.90642404813048e-03
1.57760714285714e+00 2.10037116788201e-01 1.89470978856871e-03
1.59696428571429e+00 2.07461838440422e-01 1.88292573301087e-03
1.61632142857143e+00 2.04918135731917e-01 1.87107747706018e-03
1.63567857142857e+00 2.02405621527440e-01 1.85917041081829e-03
1.65503571428571e+00 1.99923913422485e-01 1.84720973498892e-03
1.67439285714286e+00 1.97472633686946e-01 1.83520045165279e-03
1.69375000000000e+00 1.95051409251262e-01 1.82314737969215e-03
1.71310714285714e+00 1.92659871605272e-01 1.81105516698375e-03
1.73246428571429e+00 1.90297656757158e-01 1.79892829103688e-03
1.75182142857143e+00 1.87964405165022e-01 1.78677106059731e-03
1.77117857142857e+00 1.85659761721792e-01 1.77458762656044e-03
1.79053571428571e+00 1.83383375660919e-01 1.76238199497153e-03
1.80989285714286e+00 1.81134900504494e-01 1.75015801777556e-03
1.82925000000000e+00 1.78913994047529e-01 1.73791940535484e-03
1.84860714285714e+00 1.76720318268272e-01 1.72566973629365e-03
1.86796428571429e+00 1.74553539289487e-01 1.71341245701700e-03
1.88732142857143e+00 1.72413327316557e-01 1.70115088231551e-03
1.90667857142857e+00 1.70299356621006e-01 1.68888820415113e-03
1.92603571428571e+00 1.68211305456688e-01 1.67662750236457e-03
1.94539285714286e+00 1.66148856012057e-01 1.66437173575896e-03
1.96475000000000e+00 1.64111694393357e-01 1.65212375248001e-03
1.98410714285714e+00 1.62099510544807e-01 1.63988629799307e-03
2.00346428571429e+00 1.60111998212244e-01 1.62766201414474e-03
2.02282142857143e+00 1.58148854887028e-01 1.61545343902649e-03
2.04217857142857e+00 1.56209781788855e-01 1.60326301420917e-03
2.06153571428571e+00 1.54294483790995e-01 1.59109309370002e-03
2.08089285714286e+00 1.52402669376413e-01 1.57894593553624e-03
2.10025000000000e+00 1.50534050620447e-01 1.56682371050237e-03
2.11960714285714e+00 1.48688343119537e-01 1.55472850874976e-03
2.13896428571429e+00 1.46865265957217e-01 1.54266233853772e-03
2.15832142857143e+00 1.45064541653208e-01 1.53062712569514e-03
2.17767857142857e+00 1.43285896145977e-01 1.51862471964953e-03
2.19703571428571e+00 1.41529058725874e-01 1.50665690101108e-03
2.21639285714286e+00 1.39793761994794e-01 1.49472537375236e-03
2.23575000000000e+00 1.38079741848765e-01 1.48283177261167e-03
2.25510714285714e+00 1.36386737414130e-01 1.47097766865492e-03
2.27446428571429e+00 1.34714491015823e-01 1.45916456785449e-03
2.29382142857143e+00 1.33062748131115e-01 1.44739391031330e-03
2.31317857142857e+00 1.31431257372271e-01 1.43566707534728e-03
2.33253571428571e+00 1.29819770426588e-01 1.42398538796836e-03
2.35189285714286e+00 1.28228042019335e-01 1.41235011167086e-03
2.37125000000000e+00 1.26655829896543e-01 1.40076245477540e-03
2.39060714285714e+00 1.25102894767727e-01 1.38922357514874e-03
2.40996428571429e+00 1.23569000276362e-01 1.37773457871959e-03
2.42932142857143e+00 1.22053912957814e-01 1.36629651857073e-03
2.44867857142857e+00 1.20557402222328e-01 1.35491039926301e-03
2.46803571428571e+00 1.19079240301156e-01 1.34357718242022e-03
2.48739285714286e+00 1.17619202212505e-01 1.33229778011177e-03
2.50675000000000e+00 1.16177065744745e-01 1.32107306032770e-03
2.52610714285714e+00 1.14752611404895e-01 1.30990385101690e-03
2.54546428571429e+00 1.13345622391198e-01 1.29879093860114e-03
2.56482142857143e+00 1.11955884554822e-01 1.28773506700420e-03
2.58417857142857e+00 1.10583186383359e-01 1.27673694135845e-03
2.60353571428571e+00 1.09227318952325e-01 1.26579723284570e-03
2.62289285714286e+00 1.07888075893887e-01 1.25491657264968e-03
2.64225000000000e+00 1.06565253380625e-01 1.24409555670883e-03
2.66160714285714e+00 1.05258650079136e-01 1.23333474919421e-03
2.68096428571429e+00 1.03968067124578e-01 1.22263468106021e-03
2.70032142857143e+00 1.02693308085793e-01 1.21199584905496e-03
2.71967857142857e+00 1.01434178949425e-01 1.20141871891757e-03
2.73903571428571e+00 1.00190488076187e-01 1.19090372959584e-03
2.75839285714286e+00 9.89620461721484e-02 1.18045128773298e-03
2.77775000000000e+00 9.77486662731478e-02 1.17006177181343e-03
2.79710714285714e+00 9.65501637029365e-02 1.15973553517486e-03
2.81646428571429e+00 9.53663560495943e-02 1.14947290461836e-03
2.83582142857143e+00 9.41970631337377e-02 1.13927417942914e-03
2.85517857142857e+00 9.30421069933344e-02 1.12913963414868e-03
2.87453571428571e+00 9.19013118442201e-02 1.11906952226516e-03
2.89389285714286e+00 9.07745040537282e-02 1.10906407119566e-03
2.91325000000000e+00 8.96615121258297e-02 1.09912348591729e-03
2.93260714285714e+00 8.85621666633144e-02 1.08924795158774e-03
2.95196428571429e+00 8.74763003459635e-02 1.07943763222775e-03
2.97132142857143e+00 8.64037479015562e-02 1.06969266977070e-03
2.99067857142857e+00 8.53443460914268e-02 1.06001318647654e-03
3.01003571428571e+00 8.42979336747706e-02 1.05039928817248e-03
3.02939285714286e+00 8.32643513844345e-02 1.04085105969141e-03
3.04875000000000e+00 8.22434419128090e-02 1.03136856806302e-03
3.06810714285714e+00 8.12350498776234e-02 1.02195186480259e-03
3.08746428571429e+00 8.02390218017607e-02 1.01260098467231e-03
3.10682142857143e+00 7.92552060868028e-02 1.00331594477108e-03
3.12617857142857e+00 7.82834529993534e-02 9.94096746644419e-04
3.14553571428571e+00 7.73236146387343e-02 9.84943379138691e-04
3.16489285714286e+00 7.63755449147610e-02 9.75855814257432e-04
3.18425000000000e+00 7.54390995344025e-02 9.66834009973866e-04
3.20360714285714e+00 7.45141359708133e-02 9.57877912236712e-04
3.22296428571429e+00 7.36005134446794e-02 9.48987453812597e-04
3.24232142857143e+00 7.26980929000724e-02 9.40162553422621e-04
3.26167857142857e+00 7.18067369915412e-02 9.31403117592167e-04
3.28103571428571e+00 7.09263100548494e-02 9.22709043171490e-04
3.30039285714286e+00 7.00566780865742e-02 9.14080213573531e-04
3.31975000000000e+00 6.91977087315345e-02 9.05516501258774e-04
3.33910714285714e+00 6.83492712547263e-02 8.97017769498035e-04
3.35846428571429e+00 6.75112365240964e-02 8.88583871295614e-04
3.37782142857143e+00 6.66834769884945e-02 8.80214648575934e-04
3.39717857142857e+00 6.58658666655278e-02 8.71909933809776e-04
3.41653571428571e+00 6.50582811150290e-02 8.63669552245094e-04
3.43589285714286e+00 6.42605974203319e-02 8.55493318492214e-04
3.45525000000000e+00 6.34726941764545e-02 8.47381038724046e-04
3.47460714285714e+00 6.26944514646459e-02 8.39332512228975e-04
3.49396428571429e+00 6.19257508364873e-02 8.31347530412594e-04
3.51332142857143e+00 6.11664752937522e-02 8.23425876035580e-04
3.53267857142857e+00 6.04165092770088e-02 8.15567324646618e-04
3.55203571428571e+00 5.96757386415449e-02 8.07771646560729e-04
3.57139285714286e+00 5.89440506401824e-02 8.00038603760202e-04
3.59075000000000e+00 5.82213339121979e-02 7.92367951846471e-04
3.61010714285714e+00 5.75074784602195e-02 7.84759441410983e-04
3.62946428571429e+00 5.68023756355606e-02 7.77212817112101e-04
3.64882142857143e+00 5.61059181198186e-02 7.69727816964012e-04
3.66817857142857e+00 5.54179999142006e-02 7.62304173601936e-04
3.68753571428571e+00 5.47385163176634e-02 7.54941616039462e-04
3.70689285714286e+00 5.40673639111410e-02 7.47639866856156e-04
3.72625000000000e+00 5.34044405471771e-02 7.40398643931919e-04
3.74560714285714e+00 5.27496453289417e-02 7.33217661659587e-04
3.76496428571429e+00 5.21028785967077e-02 7.26096630093092e-04
3.78432142857143e+00 5.14640419110331e-02 7.19035254285911e-04
3.80367857142857e+00 5.08330380427838e-02 7.12033235410299e-04
3.82303571428571e+00 5.02097709532710e-02 7.05090272320685e-04
3.84239285714286e+00 4.95941457797769e-02 6.98206059001304e-04
3.86175000000000e+00 4.89860688258710e-02 6.91380286109619e-04
3.88110714285714e+00 4.83854475423392e-02 6.84612642050614e-04
3.90046428571429e+00 4.77921905147194e-02 6.77902812191945e-04
3.91982142857143e+00 4.72062074479279e-02 6.71250478250077e-04
3.93917857142857e+00 4.66274091569480e-02 6.64655319281975e-04
3.95853571428571e+00 4.60557075487726e-02 6.58117013077850e-04
3.97789285714286e+00 4.54910156091215e-02 6.51635233844482e-04
3.99725000000000e+00 4.49332473934096e-02 6.45209653580541e-04
4.01660714285714e+00 4.43823180094057e-02 6.38839943029792e-04
4.03596428571429e+00 4.38381436057476e-02 6.32525770958846e-04
4.05532142857143e+00 4.33006413578853e-02 6.26266803588735e-04
4.07467857142857e+00 4.27697294594042e-02 6.20062705474755e-04
4.09403571428571e+00 4.22453271055991e-02 6.13913140748624e-04
4.11339285714286e+00 4.17273544812863e-02 6.07817771015642e-04
4.13275000000000e+00 4.12157327523913e-02 6.01776256581586e-04
4.15210714285714e+00 4.07103840501710e-02 5.95788257299467e-04
4.17146428571429e+00 4.02112314606365e-02 5.89853431905665e-04
4.19082142857143e+00 3.97181990116967e-02 5.83971437494396e-04
4.21017857142857e+00 3.92312116650829e-02 5.78141930299292e-04
4.22953571428571e+00 3.87501953014004e-02 5.72364566802518e-04
4.24889285714286e+00 3.82750767089448e-02 5.66639001825628e-04
4.26825000000000e+00 3.78057835758757e-02 5.60964889625213e-04
4.28760714285714e+00 3.73422444758560e-02 5.55341884646078e-04
4.30696428571429e+00 3.68843888583121e-02 5.49769640911416e-04
4.32632142857143e+00 3.64321470366738e-02 5.44247811537581e-04
4.34567857142857e+00 3.59854501808670e-02 5.38776049429206e-04
4.36503571428571e+00 3.55442303037038e-02 5.33354008270429e-04
4.38439285714286e+00 3.51084202506204e-02 5.27981340791382e-04
4.40375000000000e+00 3.46779536924044e-02 5.22657699747481e-04
4.42310714285714e+00 3.42527651121175e-02 5.17382738590054e-04
4.44246428571429e+00 3.38327897961291e-02 5.12156110906617e-04
4.46182142857143e+00 3.34179638233583e-02 5.06977469973257e-04
4.48117857142857e+00 3.30082240583005e-02 5.01846469373489e-04
4.50053571428571e+00 3.26035081386313e-02 4.96762763884949e-04
4.51989285714286e+00 3.22037544657909e-02 4.91726007904971e-04
4.53925000000000e+00 3.18089021982313e-02 4.86735856326720e-04
4.55860714285714e+00 3.14188912395039e-02 4.81791965136875e-04
4.57796428571429e+00 3.10336622300067e-02 4.76893990902027e-04
4.59732142857143e+00 3.06531565371408e-02 4.72041590356259e-04
4.61667857142857e+00 3.02773162488396e-02 4.67234420952630e-04
4.63603571428571e+00 2.99060841622740e-02 4.62472141656840e-04
4.65539285714286e+00 2.95394037752131e-02 4.57754411517107e-04
4.67475000000000e+00 2.91772192797598e-02 4.53080890448698e-04
4.69410714285714e+00 2.88194755514953e-02 4.48451239766910e-04
4.71346428571429e+00 2.84661181418848e-02 4.43865121716065e-04
4.73282142857143e+00 2.81170932692703e-02 4.39322199089812e-04
4.75217857142857e+00 2.77723478128697e-02 4.34822135722858e-04
4.77153571428571e+00 2.74318293024827e-02 4.30364597202060e-04
4.79089285714286e+00 2.70954859105634e-02 4.25949249567041e-04
4.81025000000000e+00 2.67632664464139e-02 4.21575760013057e-04
4.82960714285714e+00 2.64351203462884e-02 4.17243797366864e-04
4.84896428571429e+00 2.61109976664067e-02 4.12953031654854e-04
4.86832142857143e+00 2.57908490747097e-02 4.08703133753612e-04
4.88767857142857e+00 2.54746258453001e-02 4.04493775828767e-04
4.90703571428571e+00 2.51622798490560e-02 4.00324631972449e-04
4.92639285714286e+00 2.48537635463578e-02 3.96195377022562e-04
4.94575000000000e+00 2.45490299817095e-02 3.92105687192891e-04
4.96510714285714e+00 2.42480327747148e-02 3.88055240498146e-04
4.98446428571429e+00 2.39507261136506e-02 3.84043716358178e-04
5.00382142857143e+00 2.36570647479208e-02 3.80070795276562e-04
5.02317857142857e+00 2.33670039829080e-02 3.76136159232524e-04
5.04253571428571e+00 2.30804996714133e-02 3.72239492252720e-04
5.06189285714286e+00 2.27975082069830e-02 3.68380479338038e-04
5.08125000000000e+00 2.25179865189296e-02 3.64558807028917e-04
5.10060714285714e+00 2.22418920641002e-02 3.60774163785228e-04
5.11996428571429e+00 2.19691828209664e-02 3.57026239623584e-04
5.13932142857143e+00 2.16998172827166e-02 3.53314725821853e-04
5.15867857142857e+00 2.14337544524910e-02 3.49639315269363e-04
5.17803571428571e+00 2.11709538355725e-02 3.45999702980116e-04
5.19739285714286e+00 2.09113754332642e-02 3.42395585117111e-04
5.21675000000000e+00 2.06549797382823e-02 3.38826659499747e-04
5.23610714285714e+00 2.04017277272466e-02 3.35292625943633e-04
5.25546428571429e+00 2.01515808552448e-02 3.31793185928255e-04
5.27482142857143e+00 1.99045010495089e-02 3.28328042325382e-04
5.29417857142857e+00 1.96604507050076e-02 3.24896899712214e-04
5.31353571428571e+00 1.94193926773207e-02 3.21499464832233e-04
5.33289285714286e+00 1.91812902770215e-02 3.18135445708025e-04
5.35225000000000e+00 1.89461072654168e-02 3.14804552096976e-04
5.37160714285714e+00 1.87138078476931e-02 3.11506495795331e-04
5.39096428571429e+00 1.84843566679196e-02 3.08240990333726e-04
5.41032142857143e+00 1.82577188032573e-02 3.05007750727668e-04
5.42967857142857e+00 1.80338597598853e-02 3.01806493757671e-04
5.44903571428571e+00 1.78127454664957e-02 2.98636938383293e-04
5.46839285714286e+00 1.75943422691414e-02 2.95498804936264e-04
5.48775000000000e+00 1.73786169272966e-02 2.92391815529919e-04
5.50710714285714e+00 1.71655366076022e-02 2.89315694331418e-04
5.52646428571429e+00 1.69550688792708e-02 2.86270167282864e-04
5.54582142857143e+00 1.67471817087846e-02 2.83254961872099e-04
5.56517857142857e+00 1.65418434561307e-02 2.80269807383415e-04
5.58453571428571e+00 1.63390228688628e-02 2.77314435269670e-04
5.60389285714286e+00 1.61386890773733e-02 2.74388578418386e-04
5.62325000000000e+00 1.59408115912551e-02 2.71491971519745e-04
5.64260714285714e+00 1.57453602935895e-02 2.68624351310392e-04
5.66196428571429e+00 1.55523054367233e-02 2.65785456318020e-04
5.68132142857143e+00 1.53616176374133e-02 2.62975026650855e-04
5.70067857142857e+00 1.51732678733483e-02 2.60192804222162e-04
5.72003571428571e+00 1.49872274777271e-02 2.57438533084869e-04
5.73939285714286e+00 1.48034681349211e-02 2.54711958763763e-04
5.75875000000000e+00 1.46219618771137e-02 2.52012828586485e-04
5.77810714285714e+00 1.44426810790843e-02 2.49340891901981e-04
5.79746428571429e+00 1.42655984543272e-02 2.46695899846546e-04
5.81682142857143e+00 1.40906870506043e-02 2.44077605150549e-04
5.83617857142857e+00 1.39179202467339e-02 2.41485762339503e-04
5.85553571428571e+00 1.37472717476387e-02 2.38920128035099e-04
5.87489285714286e+00 1.35787155803668e-02 2.36380460347513e-04
5.89425000000000e+00 1.34122260909885e-02 2.33866519173148e-04
5.91360714285714e+00 1.32477779398331e-02 2.31378066390474e-04
5.93296428571429e+00 1.30853460979211e-02 2.28914865645728e-04
5.95232142857143e+00 1.29249058428915e-02 2.26476682175479e-04
5.97167857142857e+00 1.27664327560375e-02 2.24063282986847e-04
5.99103571428571e+00 1.26099027177833e-02 2.21674437128344e-04
6.01039285714286e+00 1.24552919040331e-02 2.19309915136789e-04
6.02975000000000e+00 1.23025767833079e-02 2.16969489305254e-04
6.04910714285714e+00 1.21517341123935e-02 2.14652933858675e-04
6.06846428571429e+00 1.20027409330621e-02 2.12360024757606e-04
6.08782142857143e+00 1.18555745683421e-02 2.10090539535310e-04
6.10717857142857e+00 1.17102126197824e-02 2.07844257459302e-04
