Energy (eV)          EEDF (eV^-(3/2))     First Anisotropy
1.88235294117647e-02 8.56350717402963e-02 4.49176571873619e-05
5.64705882352941e-02 8.50578144570099e-02 7.41711755895570e-05
9.41176470588235e-02 8.44844484064316e-02 9.79126525440446e-05
1.31764705882353e-01 8.39149473595925e-02 1.15948205615552e-04
1.69411764705882e-01 8.33492852602705e-02 1.30989229453398e-04
2.07058823529412e-01 8.27874362308470e-02 1.44060659689327e-04
2.44705882352941e-01 8.22293745679559e-02 1.55692799526429e-04
2.82352941176471e-01 8.16750747414266e-02 1.66205823072152e-04
3.20000000000000e-01 8.11245113932141e-02 1.75812035544570e-04
3.57647058823529e-01 8.05776593378063e-02 1.84661462075846e-04
3.95294117647059e-01 8.00344935560272e-02 1.92865138348408e-04
4.32941176470588e-01 7.94949891991352e-02 2.00508195895599e-04
4.70588235294118e-01 7.89591215858617e-02 2.07657751351878e-04
5.08235294117647e-01 7.84268662013185e-02 2.14367929033246e-04
5.45882352941176e-01 7.78981986958711e-02 2.20683201380103e-04
5.83529411764706e-01 7.73730948849556e-02 2.26640691863068e-04
6.21176470588235e-01 7.68515307451002e-02 2.32271810068622e-04
6.58823529411765e-01 7.63334824157637e-02 2.37603442687639e-04
6.96470588235294e-01 7.58189261972322e-02 2.42658840646061e-04
7.34117647058823e-01 7.53078385495599e-02 2.47458291798533e-04
7.71764705882353e-01 7.48001960921500e-02 2.52019640302863e-04
8.09411764705882e-01 7.42959756006388e-02 2.56358692910505e-04
8.47058823529412e-01 7.37951540079154e-02 2.60489541262763e-04
8.84705882352941e-01 7.32977084023584e-02 2.64424821010425e-04
9.22352941176470e-01 7.28036160267884e-02 2.68175921772543e-04
9.60000000000000e-01 7.23128542774333e-02 2.71753159158461e-04
9.97647058823529e-01 7.18254007033869e-02 2.75165917359294e-04
1.03529411764706e+00 7.13412330031038e-02 2.78422767193617e-04
1.07294117647059e+00 7.08603290273898e-02 2.81531565618951e-04
1.11058823529412e+00 7.03826667758535e-02 2.84499539721101e-04
1.14823529411765e+00 6.99082244005779e-02 2.87333359799019e-04
1.18588235294118e+00 6.94369801924246e-02 2.90039199402749e-04
1.22352941176471e+00 6.89689125929139e-02 2.92622786752755e-04
1.26117647058824e+00 6.85040001888862e-02 2.95089452231112e-04
1.29882352941176e+00 6.80422217115226e-02 2.97444167338137e-04
1.33647058823529e+00 6.75835560353549e-02 2.99691579254904e-04
1.37411764705882e+00 6.71279821773370e-02 3.01836041147393e-04
1.41176470588235e+00 6.66754792958645e-02 3.03881638843590e-04
1.44941176470588e+00 6.62260266898221e-02 3.05832213878255e-04
1.48705882352941e+00 6.57796038006645e-02 3.07691385936587e-04
1.52470588235294e+00 6.53361902022890e-02 3.09462570391940e-04
1.56235294117647e+00 6.48957656093960e-02 3.11148993838795e-04
1.60000000000000e+00 6.44583098734253e-02 3.12753710522772e-04
1.63764705882353e+00 6.40238029816291e-02 3.14279615129661e-04
1.67529411764706e+00 6.35922250561630e-02 3.15729454775531e-04
1.71294117647059e+00 6.31635563531817e-02 3.17105839830706e-04
1.75058823529412e+00 6.27377772619296e-02 3.18411253268214e-04
1.78823529411765e+00 6.23148683062184e-02 3.19648060877668e-04
1.82588235294118e+00 6.18948101363408e-02 3.20818518436528e-04
1.86352941176471e+00 6.14775835354561e-02 3.21924778156233e-04
1.90117647058824e+00 6.10631694162609e-02 3.22968896754574e-04
1.93882352941176e+00 6.06515488201169e-02 3.23952841133890e-04
1.97647058823529e+00 6.02427029161759e-02 3.24878493999356e-04
2.01411764705882e+00 5.98366130005335e-02 3.25747659019190e-04
2.05176470588235e+00 5.94332604953658e-02 3.26562065572736e-04
2.08941176470588e+00 5.90326269480792e-02 3.27323372737827e-04
2.12705882352941e+00 5.86346940323438e-02 3.28033174477305e-04
2.16470588235294e+00 5.82394435415710e-02 3.28693002592011e-04
2.20235294117647e+00 5.78468573938184e-02 3.29304329390231e-04
2.24000000000000e+00 5.74569176290315e-02 3.29868572061960e-04
2.27764705882353e+00 5.70696064082198e-02 3.30387095250739e-04
2.31529411764706e+00 5.66849060126435e-02 3.30861213810454e-04
2.35294117647059e+00 5.63027988430049e-02 3.31292195373102e-04
2.39058823529412e+00 5.59232674186411e-02 3.31681262402934e-04
2.42823529411765e+00 5.55462943782774e-02 3.32029595447530e-04
2.46588235294118e+00 5.51718624745325e-02 3.32338334538133e-04
2.50352941176471e+00 5.47999545778718e-02 3.32608580449088e-04
2.54117647058824e+00 5.44305536742286e-02 3.32841397563410e-04
2.57882352941176e+00 5.40636428642264e-02 3.33037815234970e-04
2.61647058823529e+00 5.36992053624012e-02 3.33198829391619e-04
2.65411764705882e+00 5.33372244964420e-02 3.33325404042363e-04
2.69176470588235e+00 5.29776837064236e-02 3.33418472696022e-04
2.72941176470588e+00 5.26205665440494e-02 3.33478939395721e-04
2.76705882352941e+00 5.22658566731815e-02 3.33507680874407e-04
2.80470588235294e+00 5.19135378652136e-02 3.33505547135990e-04
2.84235294117647e+00 5.15635940022407e-02 3.33473361964271e-04
2.88000000000000e+00 5.12160090750066e-02 3.33411924895825e-04
2.91764705882353e+00 5.08707671821704e-02 3.33322011909372e-04
2.95529411764706e+00 5.05278525295804e-02 3.33204376368586e-04
2.99294117647059e+00 5.01872494295527e-02 3.33059749916007e-04
3.03058823529412e+00 4.98489423001525e-02 3.32888843051950e-04
3.06823529411765e+00 4.95129156655747e-02 3.32692346744465e-04
3.10588235294118e+00 4.91791541521287e-02 3.32470932649438e-04
3.14352941176471e+00 4.88476424908692e-02 3.32225253287150e-04
3.18117647058823e+00 4.85183655157765e-02 3.31955943553012e-04
3.21882352941176e+00 4.81913081630639e-02 3.31663621095079e-04
3.25647058823529e+00 4.78664554704856e-02 3.31348886934533e-04
3.29411764705882e+00 4.75437925766567e-02 3.31012326057498e-04
3.33176470588235e+00 4.72233047203716e-02 3.30654507979872e-04
3.36941176470588e+00 4.69049772399278e-02 3.30275987044947e-04
3.40705882352941e+00 4.65887955733832e-02 3.29877303657890e-04
3.44470588235294e+00 4.62747452550873e-02 3.29458984291650e-04
3.48235294117647e+00 4.59628119178427e-02 3.29021541465905e-04
3.52000000000000e+00 4.56529812912998e-02 3.28565474929618e-04
3.55764705882353e+00 4.53452392013030e-02 3.28091271840971e-04
3.59529411764706e+00 4.50395715692433e-02 3.27599407175254e-04
3.63294117647059e+00 4.47359644114148e-02 3.27090344116122e-04
3.67058823529412e+00 4.44344038383742e-02 3.26564534213065e-04
3.70823529411765e+00 4.41348760551110e-02 3.26022418394122e-04
3.74588235294118e+00 4.38373673579821e-02 3.25464426871282e-04
3.78352941176471e+00 4.35418641365369e-02 3.24890979027233e-04
3.82117647058823e+00 4.32483528720716e-02 3.24302484398628e-04
3.85882352941176e+00 4.29568201370103e-02 3.23699342756299e-04
3.89647058823529e+00 4.26672525942898e-02 3.23081944395943e-04
3.93411764705882e+00 4.23796369967518e-02 3.22450670418125e-04
3.97176470588235e+00 4.20939601865358e-02 3.21805892998082e-04
4.00941176470588e+00 4.18102090944769e-02 3.21147975448587e-04
4.04705882352941e+00 4.15283707402029e-02 3.20477273058667e-04
4.08470588235294e+00 4.12484322294413e-02 3.19794132938239e-04
4.12235294117647e+00 4.09703807555432e-02 3.19098893849676e-04
4.16000000000000e+00 4.06942035981883e-02 3.18391887031216e-04
4.19764705882353e+00 4.04198881228017e-02 3.17673436209246e-04
4.23529411764706e+00 4.01474217799772e-02 3.16943857804300e-04
4.27294117647059e+00 3.98767921049031e-02 3.16203461130262e-04
4.31058823529412e+00 3.96079867167919e-02 3.15452548407783e-04
4.34823529411765e+00 3.93409933189253e-02 3.14691415487604e-04
4.38588235294118e+00 3.90757996962437e-02 3.13920351668799e-04
4.42352941176471e+00 3.88123937166484e-02 3.13139639506958e-04
4.46117647058824e+00 3.85507633298218e-02 3.12349555529517e-04
4.49882352941176e+00 3.82908965666762e-02 3.11550370213083e-04
4.53647058823529e+00 3.80327815388056e-02 3.10742348138454e-04
4.57411764705882e+00 3.77764064379432e-02 3.09925748141071e-04
4.61176470588235e+00 3.75217595354204e-02 3.09100823457055e-04
4.64941176470588e+00 3.72688291816304e-02 3.08267821701721e-04
4.68705882352941e+00 3.70176038060297e-02 3.07426985494004e-04
4.72470588235294e+00 3.67680719149943e-02 3.06578552261544e-04
4.76235294117647e+00 3.65202220929194e-02 3.05722754037887e-04
4.80000000000000e+00 3.62740430011516e-02 3.04859818083834e-04
4.83764705882353e+00 3.60295233774697e-02 3.03989966840295e-04
4.87529411764706e+00 3.57866520355699e-02 3.03113418044153e-04
4.91294117647059e+00 3.55454178645547e-02 3.02230384841020e-04
4.95058823529412e+00 3.53058098284236e-02 3.01341075745862e-04
4.98823529411765e+00 3.50678169660442e-02 3.00445695196611e-04
5.02588235294118e+00 3.48314283892151e-02 2.99544443357059e-04
5.06352941176471e+00 3.45966332836128e-02 2.98637515913292e-04
5.10117647058823e+00 3.43634209078117e-02 2.97725104626793e-04
5.13882352941176e+00 3.41317805927933e-02 2.96807397275517e-04
5.17647058823529e+00 3.39017017414570e-02 2.95884577744576e-04
5.21411764705882e+00 3.36731738281370e-02 2.94956826114773e-04
5.25176470588235e+00 3.34461863981197e-02 2.94024318748954e-04
5.28941176470588e+00 3.32207290671657e-02 2.93087228240103e-04
5.32705882352941e+00 3.29967915214535e-02 2.92145723900444e-04
5.36470588235294e+00 3.27743635158431e-02 2.91199971567371e-04
5.40235294117647e+00 3.25534348746799e-02 2.90250133404113e-04
5.44000000000000e+00 3.23339954909025e-02 2.89296368390184e-04
5.47764705882353e+00 3.21160353255798e-02 2.88338832254584e-04
5.51529411764706e+00 3.18995444074521e-02 2.87377677546284e-04
5.55294117647059e+00 3.16845128324752e-02 2.86413053703118e-04
5.59058823529412e+00 3.14709307633670e-02 2.85445106994184e-04
5.62823529411765e+00 3.12587884295327e-02 2.84473980960645e-04
5.66588235294118e+00 3.10480761254851e-02 2.83499816227686e-04
5.70352941176471e+00 3.08387842115403e-02 2.82522750312054e-04
5.74117647058823e+00 3.06309031129949e-02 2.81542918065087e-04
5.77882352941176e+00 3.04244233196871e-02 2.80560451603105e-04
5.81647058823529e+00 3.02193353855621e-02 2.79575480364293e-04
5.85411764705882e+00 3.00156299282402e-02 2.78588131164360e-04
5.89176470588235e+00 2.98132976285873e-02 2.77598528251081e-04
5.92941176470588e+00 2.96123292302887e-02 2.76606793243152e-04
5.96705882352941e+00 2.94127155397587e-02 2.75613045525238e-04
6.00470588235294e+00 2.92144474247142e-02 2.74617402068460e-04
6.04235294117647e+00 2.90175158147693e-02 2.73619977246990e-04
6.08000000000000e+00 2.88219117006802e-02 2.72620883235968e-04
6.11764705882353e+00 2.86276261339338e-02 2.71620229940873e-04
6.15529411764706e+00 2.84346502263377e-02 2.70618125042966e-04
6.19294117647059e+00 2.82429751496140e-02 2.69614674043896e-04
6.23058823529412e+00 2.80525921349954e-02 2.68609980203978e-04
6.26823529411765e+00 2.78634924731243e-02 2.67604144901759e-04
6.30588235294118e+00 2.76756675127479e-02 2.66597267463204e-04
6.34352941176471e+00 2.74891086612342e-02 2.65589444987345e-04
6.38117647058824e+00 2.73038073838735e-02 2.64580772709006e-04
6.41882352941176e+00 2.71197552034876e-02 2.63571343929196e-04
6.45647058823529e+00 2.69369437000417e-02 2.62561250052554e-04
6.49411764705882e+00 2.67553645102600e-02 2.61550580624189e-04
6.53176470588235e+00 2.65750093272425e-02 2.60539423365871e-04
6.56941176470588e+00 2.63958699000854e-02 2.59527864114592e-04
6.60705882352941e+00 2.62179380337712e-02 2.58515987147826e-04
6.64470588235294e+00 2.60412055879852e-02 2.57503875022575e-04
6.68235294117647e+00 2.58656644775566e-02 2.56491608411311e-04
6.72000000000000e+00 2.56913066718162e-02 2.55479266430499e-04
6.75764705882353e+00 2.55181241942282e-02 2.54466926572679e-04
6.79529411764706e+00 2.53461091220263e-02 2.53454664737135e-04
6.83294117647059e+00 2.51752535858504e-02 2.52442555260034e-04
6.87058823529412e+00 2.50055497693873e-02 2.51430670854558e-04
6.90823529411765e+00 2.48369899092553e-02 2.50419082908934e-04
6.94588235294118e+00 2.46695662939165e-02 2.49407861334432e-04
6.98352941176470e+00 2.45032712640616e-02 2.48397074410661e-04
7.02117647058823e+00 2.43380972120116e-02 2.47386789086900e-04
7.05882352941176e+00 2.41740365813700e-02 2.46377070916630e-04
7.09647058823529e+00 2.40110818666772e-02 2.45367984083237e-04
7.13411764705882e+00 2.38492256130672e-02 2.44359591425306e-04
7.17176470588235e+00 2.36884604159267e-02 2.43351954461541e-04
7.20941176470588e+00 2.35287789205557e-02 2.42345133332894e-04
7.24705882352941e+00 2.33701738220497e-02 2.41339187073812e-04
7.28470588235294e+00 2.32126378643076e-02 2.40334173469910e-04
7.32235294117647e+00 2.30561638403612e-02 2.39330148913263e-04
7.36000000000000e+00 2.29007445918236e-02 2.38327168676944e-04
7.39764705882353e+00 2.27463730085620e-02 2.37325286852343e-04
7.43529411764706e+00 2.25930420283720e-02 2.36324556370517e-04
7.47294117647059e+00 2.24407446366550e-02 2.35325029023307e-04
7.51058823529412e+00 2.22894738660973e-02 2.34326755407789e-04
7.54823529411765e+00 2.21392227965487e-02 2.33329785176020e-04
7.58588235294118e+00 2.19899845541092e-02 2.32334166901217e-04
7.62352941176471e+00 2.18417523114152e-02 2.31339947941705e-04
7.66117647058823e+00 2.16945192871254e-02 2.30347174693835e-04
7.69882352941176e+00 2.15482787456112e-02 2.29355892532294e-04
7.73647058823529e+00 2.14030239966476e-02 2.28366145828276e-04
7.77411764705882e+00 2.12587483951082e-02 2.27377977967351e-04
7.81176470588235e+00 2.11154453406606e-02 2.26391431367151e-04
7.84941176470588e+00 2.09731082774645e-02 2.25406547424416e-04
7.88705882352941e+00 2.08317306940502e-02 2.24423366743310e-04
7.92470588235294e+00 2.06913061224827e-02 2.23441929010556e-04
7.96235294117647e+00 2.05518281386069e-02 2.22462272868574e-04
8.00000000000000e+00 2.04132903615720e-02 2.21484436146834e-04
8.03764705882353e+00 2.02756864535401e-02 2.20508455805291e-04
8.07529411764706e+00 2.01390101193958e-02 2.19534367949696e-04
8.11294117647059e+00 2.00032551064588e-02 2.18562207846677e-04
8.15058823529412e+00 1.98684152041971e-02 2.17592009873408e-04
8.18823529411765e+00 1.97344842441061e-02 2.16623807728520e-04
8.22588235294118e+00 1.96014560989354e-02 2.15657634314920e-04
8.26352941176471e+00 1.94693246829022e-02 2.14693521620736e-04
8.30117647058823e+00 1.93380839512473e-02 2.13731500933214e-04
8.33882352941176e+00 1.92077278999585e-02 2.12771602785148e-04
8.37647058823529e+00 1.90782505654961e-02 2.11813856967964e-04
8.41411764705882e+00 1.89496460245198e-02 2.10858292544691e-04
8.45176470588235e+00 1.88219083936184e-02 2.09904937862786e-04
8.48941176470588e+00 1.86950318290397e-02 2.08953820506475e-04
8.52705882352941e+00 1.85690105265710e-02 2.08004967490213e-04
8.56470588235294e+00 1.84438387208295e-02 2.07058405149577e-04
8.60235294117647e+00 1.83195106854446e-02 2.06114159030377e-04
8.64000000000000e+00 1.81960207326470e-02 2.05172254084907e-04
8.67764705882353e+00 1.80733632130077e-02 2.04232714621503e-04
8.71529411764706e+00 1.79515325151800e-02 2.03295564315678e-04
8.75294117647059e+00 1.78305230656428e-02 2.02360826221174e-04
8.79058823529412e+00 1.77103293284455e-02 2.01428522724868e-04
8.82823529411765e+00 1.75909458050891e-02 2.00498675725994e-04
8.86588235294118e+00 1.74723670338695e-02 1.99571306533812e-04
8.90352941176470e+00 1.73545875900348e-02 1.98646435763662e-04
8.94117647058823e+00 1.72376020854010e-02 1.97724083518837e-04
8.97882352941176e+00 1.71214051681053e-02 1.96804269342941e-04
9.01647058823529e+00 1.70059915223612e-02 1.95887012229539e-04
9.05411764705882e+00 1.68913558682153e-02 1.94972330631738e-04
9.09176470588235e+00 1.67774929613059e-02 1.94060242471584e-04
9.12941176470588e+00 1.66643975926231e-02 1.93150765097596e-04
9.16705882352941e+00 1.65520645883922e-02 1.92243915449628e-04
9.20470588235294e+00 1.64404888094694e-02 1.91339709963559e-04
9.24235294117647e+00 1.63296651514763e-02 1.90438164474600e-04
9.28000000000000e+00 1.62195885444429e-02 1.89539294384597e-04
9.31764705882353e+00 1.61102539525751e-02 1.88643114617301e-04
9.35529411764706e+00 1.60016563740246e-02 1.87749639626652e-04
9.39294117647059e+00 1.58937908406601e-02 1.86858883404969e-04
9.43058823529412e+00 1.57866524178400e-02 1.85970859442847e-04
9.46823529411765e+00 1.56802362042982e-02 1.85085580882174e-04
9.50588235294118e+00 1.55745373315832e-02 1.84203060426844e-04
9.54352941176471e+00 1.54695509641738e-02 1.83323310252100e-04
9.58117647058823e+00 1.53652722991448e-02 1.82446342159891e-04
9.61882352941176e+00 1.52616965659469e-02 1.81572167536762e-04
9.65647058823529e+00 1.51588190261885e-02 1.80700797361019e-04
9.69411764705882e+00 1.50566349734191e-02 1.79832242209843e-04
9.73176470588235e+00 1.49551397329140e-02 1.78966512266380e-04
9.76941176470588e+00 1.48543286614601e-02 1.78103617282091e-04
9.80705882352941e+00 1.47541971472455e-02 1.77243566717734e-04
9.84470588235294e+00 1.46547406093419e-02 1.76386369660258e-04
9.88235294117647e+00 1.45559544978030e-02 1.75532034738492e-04
9.92000000000000e+00 1.44578342933533e-02 1.74680570266330e-04
9.95764705882353e+00 1.43603755071814e-02 1.73831984203265e-04
9.99529411764706e+00 1.42635736807342e-02 1.72986283949874e-04
1.00329411764706e+01 1.41674243859886e-02 1.72143477156371e-04
1.00705882352941e+01 1.40719232234393e-02 1.71303570966375e-04
1.01082352941176e+01 1.39770658240996e-02 1.70466571180683e-04
1.01458823529412e+01 1.38828478493592e-02 1.69632484495572e-04
1.01835294117647e+01 1.37892649879975e-02 1.68801316885014e-04
1.02211764705882e+01 1.36963129596909e-02 1.67973073982924e-04
1.02588235294118e+01 1.36039875111541e-02 1.67147761540325e-04
1.02964705882353e+01 1.35122844186826e-02 1.66325383784856e-04
1.03341176470588e+01 1.34211994879227e-02 1.65505945858262e-04
1.03717647058824e+01 1.33307285510310e-02 1.64689452224137e-04
1.04094117647059e+01 1.32408674700027e-02 1.63875907034101e-04
1.04470588235294e+01 1.31516121330031e-02 1.63065314565554e-04
1.04847058823529e+01 1.30629584567791e-02 1.62257677649370e-04
1.05223529411765e+01 1.29749023864372e-02 1.61453000005970e-04
1.05600000000000e+01 1.28874398927429e-02 1.60651284718540e-04
1.05976470588235e+01 1.28005669752784e-02 1.59852534584329e-04
1.06352941176471e+01 1.27142796589548e-02 1.59056752168619e-04
1.06729411764706e+01 1.26285739970982e-02 1.58263939760607e-04
1.07105882352941e+01 1.25434460680374e-02 1.57474099784519e-04
1.07482352941176e+01 1.24588919773398e-02 1.56687233320245e-04
1.07858823529412e+01 1.23749078576006e-02 1.55903342301256e-04
1.08235294117647e+01 1.22914898659285e-02 1.55122428077774e-04
1.08611764705882e+01 1.22086341868759e-02 1.54344491746981e-04
1.08988235294118e+01 1.21263370291925e-02 1.53569534547337e-04
1.09364705882353e+01 1.20445946279476e-02 1.52797556439606e-04
1.09741176470588e+01 1.19634032443271e-02 1.52028558214155e-04
1.10117647058824e+01 1.18827591632404e-02 1.51262540113251e-04
1.10494117647059e+01 1.18026586961033e-02 1.50499502147521e-04
1.10870588235294e+01 1.17230981777487e-02 1.49739444473766e-04
1.11247058823529e+01 1.16440739684416e-02 1.48982366034326e-04
1.11623529411765e+01 1.15655824536834e-02 1.48228266577743e-04
1.12000000000000e+01 1.14876200419335e-02 1.47477145337033e-04
1.12376470588235e+01 1.14101831672534e-02 1.46729001333484e-04
1.12752941176471e+01 1.13332682863655e-02 1.45983833422487e-04
1.13129411764706e+01 1.12568718812387e-02 1.45241640255252e-04
1.13505882352941e+01 1.11809904562098e-02 1.44502420633962e-04
1.13882352941176e+01 1.11056205398550e-02 1.43766172230560e-04
1.14258823529412e+01 1.10307586848035e-02 1.43032893489402e-04
1.14635294117647e+01 1.09564014656137e-02 1.42302582382500e-04
1.15011764705882e+01 1.08825454812295e-02 1.41575236695321e-04
1.15388235294118e+01 1.08091873522401e-02 1.40850854367611e-04
1.15764705882353e+01 1.07363237226570e-02 1.40129432263940e-04
1.16141176470588e+01 1.06639512597355e-02 1.39410967998748e-04
1.16517647058824e+01 1.05920666519504e-02 1.38695458742311e-04
1.16894117647059e+01 1.05206666113319e-02 1.37982901494782e-04
1.17270588235294e+01 1.04497478708547e-02 1.37273293412889e-04
1.17647058823529e+01 1.03793071861277e-02 1.36566630630523e-04
1.18023529411765e+01 1.03093413352207e-02 1.35862910009581e-04
1.18400000000000e+01 1.02398471167366e-02 1.35162127993928e-04
1.18776470588235e+01 1.01708213520317e-02 1.34464280872570e-04
