Energy (eV)          EEDF (eV^-(3/2))     First Anisotropy
3.06034482758621e-02 3.40835091947165e-02 1.67902290639988e-05
9.18103448275862e-02 3.38813702378031e-02 2.77364694348931e-05
1.53017241379310e-01 3.36804301060966e-02 3.66445120361915e-05
2.14224137931034e-01 3.34806816887382e-02 4.34298438961478e-05
2.75431034482759e-01 3.32821179193072e-02 4.91036677849356e-05
3.36637931034483e-01 3.30847317710498e-02 5.40477792304919e-05
3.97844827586207e-01 3.28885162605059e-02 5.84594993682846e-05
4.59051724137931e-01 3.26934644444322e-02 6.24578325206311e-05
5.20258620689655e-01 3.24995694217460e-02 6.61216047757511e-05
5.81465517241379e-01 3.23068243314752e-02 6.95064588274283e-05
6.42672413793103e-01 3.21152223537322e-02 7.26535325945673e-05
7.03879310344828e-01 3.19247567093936e-02 7.55943333185702e-05
7.65086206896552e-01 3.17354206589079e-02 7.83536745183843e-05
8.26293103448276e-01 3.15472075032606e-02 8.09515452215067e-05
8.87500000000000e-01 3.13601105826593e-02 8.34043526492430e-05
9.48706896551724e-01 3.11741232772702e-02 8.57257784111399e-05
1.00991379310345e+00 3.09892390060990e-02 8.79273863150248e-05
1.07112068965517e+00 3.08054512277372e-02 9.00190650478943e-05
1.13232758620690e+00 3.06227534383642e-02 9.20093571872011e-05
1.19353448275862e+00 3.04411391752001e-02 9.39057094793097e-05
1.25474137931034e+00 3.02606020106299e-02 9.57146653326077e-05
1.31594827586207e+00 3.00811355567382e-02 9.74420148804526e-05
1.37715517241379e+00 2.99027334648335e-02 9.90929156833120e-05
1.43836206896552e+00 2.97253894211892e-02 1.00671988106282e-04
1.49956896551724e+00 2.95490971508619e-02 1.02183392583832e-04
1.56077586206897e+00 2.93738504172861e-02 1.03630894396030e-04
1.62198275862069e+00 2.91996430185578e-02 1.05017915802572e-04
1.68318965517241e+00 2.90264687907112e-02 1.06347579390292e-04
1.74439655172414e+00 2.88543216073605e-02 1.07622745848972e-04
1.80560344827586e+00 2.86831953764125e-02 1.08846044587071e-04
1.86681034482759e+00 2.85130840429178e-02 1.10019899699236e-04
1.92801724137931e+00 2.83439815887477e-02 1.11146553491432e-04
1.98922413793103e+00 2.81758820296516e-02 1.12228085484560e-04
2.05043103448276e+00 2.80087794177726e-02 1.13266428787549e-04
2.11163793103448e+00 2.78426678413420e-02 1.14263385555703e-04
2.17284482758621e+00 2.76775414220270e-02 1.15220639314018e-04
2.23405172413793e+00 2.75133943171688e-02 1.16139765710383e-04
2.29525862068966e+00 2.73502207194921e-02 1.17022243141484e-04
2.35646551724138e+00 2.71880148546956e-02 1.17869461030017e-04
2.41767241379310e+00 2.70267709834581e-02 1.18682727122646e-04
2.47887931034483e+00 2.68664834011605e-02 1.19463275082154e-04
2.54008620689655e+00 2.67071464356829e-02 1.20212270207454e-04
2.60129310344828e+00 2.65487544492137e-02 1.20930814520448e-04
2.66250000000000e+00 2.63913018379836e-02 1.21619952376612e-04
2.72370689655172e+00 2.62347830302386e-02 1.22280674400364e-04
2.78491379310345e+00 2.60791924884439e-02 1.22913921548483e-04
2.84612068965517e+00 2.59245247067747e-02 1.23520588831690e-04
2.90732758620690e+00 2.57707742126274e-02 1.24101528120821e-04
2.96853448275862e+00 2.56179355663738e-02 1.24657551750770e-04
3.02974137931034e+00 2.54660033596035e-02 1.25189434889593e-04
3.09094827586207e+00 2.53149722165043e-02 1.25697917678358e-04
3.15215517241379e+00 2.51648367936276e-02 1.26183708093130e-04
3.21336206896552e+00 2.50155917782499e-02 1.26647483693398e-04
3.27456896551724e+00 2.48672318896385e-02 1.27089893206438e-04
3.33577586206897e+00 2.47197518788275e-02 1.27511558850692e-04
3.39698275862069e+00 2.45731465270838e-02 1.27913077638670e-04
3.45818965517241e+00 2.44274106470733e-02 1.28295022560011e-04
3.51939655172414e+00 2.42825390826441e-02 1.28657944505212e-04
3.58060344827586e+00 2.41385267073885e-02 1.29002373243027e-04
3.64181034482759e+00 2.39953684257189e-02 1.29328818308647e-04
3.70301724137931e+00 2.38530591726589e-02 1.29637770625080e-04
3.76422413793103e+00 2.37115939124900e-02 1.29929703238683e-04
3.82543103448276e+00 2.35709676397494e-02 1.30205071987799e-04
3.88663793103448e+00 2.34311753790251e-02 1.30464316891108e-04
3.94784482758621e+00 2.32922121836822e-02 1.30707862700861e-04
4.00905172413793e+00 2.31540731367883e-02 1.30936119405998e-04
4.07025862068966e+00 2.30167533509140e-02 1.31149483437815e-04
4.13146551724138e+00 2.28802479669302e-02 1.31348338084351e-04
4.19267241379310e+00 2.27445521548690e-02 1.31533053867038e-04
4.25387931034483e+00 2.26096611137295e-02 1.31703989601037e-04
4.31508620689655e+00 2.24755700703388e-02 1.31861492702801e-04
4.37629310344828e+00 2.23422742801559e-02 1.32005899469141e-04
4.43750000000000e+00 2.22097690270804e-02 1.32137536020248e-04
4.49870689655172e+00 2.20780496223747e-02 1.32256718452220e-04
4.55991379310345e+00 2.19471114057009e-02 1.32363753328865e-04
4.62112068965517e+00 2.18169497437823e-02 1.32458938168012e-04
4.68232758620690e+00 2.16875600311108e-02 1.32542561529185e-04
4.74353448275862e+00 2.15589376897640e-02 1.32614903801663e-04
4.80474137931034e+00 2.14310781684240e-02 1.32676237331446e-04
4.86594827586207e+00 2.13039769430386e-02 1.32726826533724e-04
4.92715517241379e+00 2.11776295166447e-02 1.32766928610674e-04
4.98836206896552e+00 2.10520314184319e-02 1.32796793634885e-04
5.04956896551724e+00 2.09271782043640e-02 1.32816664621097e-04
5.11077586206896e+00 2.08030654570054e-02 1.32826778184722e-04
5.17198275862069e+00 2.06796887846291e-02 1.32827364590644e-04
5.23318965517241e+00 2.05570438217993e-02 1.32818647792518e-04
5.29439655172414e+00 2.04351262292022e-02 1.32800846040754e-04
5.35560344827586e+00 2.03139316927948e-02 1.32774171903729e-04
5.41681034482759e+00 2.01934559243514e-02 1.32738832281145e-04
5.47801724137931e+00 2.00736946612992e-02 1.32695028968516e-04
5.53922413793103e+00 1.99546436659040e-02 1.32642958656185e-04
5.60043103448276e+00 1.98362987257851e-02 1.32582812922077e-04
5.66163793103448e+00 1.97186556537539e-02 1.32514778758387e-04
5.72284482758621e+00 1.96017102870348e-02 1.32439038552642e-04
5.78405172413793e+00 1.94854584877506e-02 1.32355770064076e-04
5.84525862068965e+00 1.93698961427641e-02 1.32265146917173e-04
5.90646551724138e+00 1.92550191629321e-02 1.32167338568289e-04
5.96767241379310e+00 1.91408234835632e-02 1.32062510268915e-04
6.02887931034483e+00 1.90273050642621e-02 1.31950823529968e-04
6.09008620689655e+00 1.89144598882153e-02 1.31832436076827e-04
6.15129310344828e+00 1.88022839626227e-02 1.31707501802122e-04
6.21250000000000e+00 1.86907733185452e-02 1.31576171203967e-04
6.27370689655172e+00 1.85799240102190e-02 1.31438591280373e-04
6.33491379310345e+00 1.84697321156378e-02 1.31294905679513e-04
6.39612068965517e+00 1.83601937357062e-02 1.31145254857393e-04
6.45732758620690e+00 1.82513049946282e-02 1.30989775964646e-04
6.51853448275862e+00 1.81430620397603e-02 1.30828603244988e-04
6.57974137931034e+00 1.80354610409745e-02 1.30661867970986e-04
6.64094827586207e+00 1.79284981910249e-02 1.30489698378917e-04
6.70215517241379e+00 1.78221697054045e-02 1.30312220047648e-04
6.76336206896552e+00 1.77164718217322e-02 1.30129555829578e-04
6.82456896551724e+00 1.76114008001001e-02 1.29941825780860e-04
6.88577586206897e+00 1.75069529229327e-02 1.29749147522503e-04
6.94698275862069e+00 1.74031244943974e-02 1.29551636167547e-04
7.00818965517241e+00 1.72999118407332e-02 1.29349404247636e-04
7.06939655172414e+00 1.71973113101127e-02 1.29142562057869e-04
7.13060344827586e+00 1.70953192720745e-02 1.28931217581176e-04
7.19181034482759e+00 1.69939321178345e-02 1.28715476412090e-04
7.25301724137931e+00 1.68931462601507e-02 1.28495442086685e-04
7.31422413793103e+00 1.67929581327765e-02 1.28271216004771e-04
7.37543103448276e+00 1.66933641907554e-02 1.28042897351690e-04
7.43663793103448e+00 1.65943609102891e-02 1.27810583414525e-04
7.49784482758621e+00 1.64959447882094e-02 1.27574369502619e-04
7.55905172413793e+00 1.63981123422589e-02 1.27334348868083e-04
7.62025862068965e+00 1.63008601109606e-02 1.27090613009235e-04
7.68146551724138e+00 1.62041846531093e-02 1.26843251589964e-04
7.74267241379310e+00 1.61080825480374e-02 1.26592352359435e-04
7.80387931034483e+00 1.60125503954873e-02 1.26338001443660e-04
7.86508620689655e+00 1.59175848151205e-02 1.26080283264175e-04
7.92629310344828e+00 1.58231824467702e-02 1.25819280457297e-04
7.98750000000000e+00 1.57293399503154e-02 1.25555074154610e-04
8.04870689655172e+00 1.56360540052078e-02 1.25287743863150e-04
8.10991379310345e+00 1.55433213108252e-02 1.25017367537565e-04
8.17112068965517e+00 1.54511385858910e-02 1.24744021659010e-04
8.23232758620690e+00 1.53595025687040e-02 1.24467781115004e-04
8.29353448275862e+00 1.52684100170170e-02 1.24188719461645e-04
8.35474137931034e+00 1.51778577075911e-02 1.23906908842877e-04
8.41594827586207e+00 1.50878424364140e-02 1.23622419910532e-04
8.47715517241379e+00 1.49983610185810e-02 1.23335322077263e-04
8.53836206896552e+00 1.49094102878645e-02 1.23045683436274e-04
8.59956896551724e+00 1.48209870969205e-02 1.22753570681738e-04
8.66077586206896e+00 1.47330883171731e-02 1.22459049352990e-04
8.72198275862069e+00 1.46457108383969e-02 1.22162183754886e-04
8.78318965517241e+00 1.45588515689147e-02 1.21863036878778e-04
8.84439655172414e+00 1.44725074354825e-02 1.21561670638469e-04
8.90560344827586e+00 1.43866753828872e-02 1.21258145791303e-04
8.96681034482759e+00 1.43013523741330e-02 1.20952521859860e-04
9.02801724137931e+00 1.42165353903302e-02 1.20644857360112e-04
9.08922413793103e+00 1.41322214303041e-02 1.20335209723368e-04
9.15043103448276e+00 1.40484075107738e-02 1.20023635218821e-04
9.21163793103448e+00 1.39650906662421e-02 1.19710189174302e-04
9.27284482758621e+00 1.38822679486172e-02 1.19394925899136e-04
9.33405172413793e+00 1.37999364273829e-02 1.19077898607712e-04
9.39525862068965e+00 1.37180931894903e-02 1.18759159633158e-04
9.45646551724138e+00 1.36367353389916e-02 1.18438760351187e-04
9.51767241379310e+00 1.35558599972020e-02 1.18116751104767e-04
9.57887931034483e+00 1.34754643025933e-02 1.17793181411064e-04
9.64008620689655e+00 1.33955454104394e-02 1.17468099886352e-04
9.70129310344828e+00 1.33161004929701e-02 1.17141554171829e-04
9.76250000000000e+00 1.32371267392670e-02 1.16813591134169e-04
9.82370689655172e+00 1.31586213549194e-02 1.16484256762419e-04
9.88491379310345e+00 1.30805815622501e-02 1.16153596211593e-04
9.94612068965517e+00 1.30030045998973e-02 1.15821653851442e-04
1.00073275862069e+01 1.29258877229551e-02 1.15488473079624e-04
1.00685344827586e+01 1.28492282030999e-02 1.15154096766419e-04
1.01297413793103e+01 1.27730233275799e-02 1.14818567012426e-04
1.01909482758621e+01 1.26972704000382e-02 1.14481924933389e-04
1.02521551724138e+01 1.26219667401089e-02 1.14144211020567e-04
1.03133620689655e+01 1.25471096833228e-02 1.13805465038854e-04
1.03745689655172e+01 1.24726965810127e-02 1.13465726040474e-04
1.04357758620690e+01 1.23987248002197e-02 1.13125032378368e-04
1.04969827586207e+01 1.23251917236004e-02 1.12783421719255e-04
1.05581896551724e+01 1.22520947493341e-02 1.12440931056396e-04
1.06193965517241e+01 1.21794312910303e-02 1.12097596722073e-04
1.06806034482759e+01 1.21071987776381e-02 1.11753454399881e-04
1.07418103448276e+01 1.20353946533541e-02 1.11408539136479e-04
1.08030172413793e+01 1.19640163775330e-02 1.11062885353242e-04
1.08642241379310e+01 1.18930614245972e-02 1.10716526857816e-04
1.09254310344828e+01 1.18225272839477e-02 1.10369496855183e-04
1.09866379310345e+01 1.17524114598748e-02 1.10021827958571e-04
1.10478448275862e+01 1.16827114714702e-02 1.09673552200097e-04
1.11090517241379e+01 1.16134248525393e-02 1.09324701041190e-04
1.11702586206897e+01 1.15445491515135e-02 1.08975305382821e-04
1.12314655172414e+01 1.14760819313638e-02 1.08625395575470e-04
1.12926724137931e+01 1.14080207695144e-02 1.08275001428895e-04
1.13538793103448e+01 1.13403632577572e-02 1.07924152221700e-04
1.14150862068966e+01 1.12731070021662e-02 1.07572876710700e-04
1.14762931034483e+01 1.12062496230134e-02 1.07221203140063e-04
1.15375000000000e+01 1.11397887546838e-02 1.06869159022899e-04
1.15987068965517e+01 1.10737220461606e-02 1.06516771835497e-04
1.16599137931034e+01 1.10080471592276e-02 1.06164068567322e-04
1.17211206896552e+01 1.09427617701102e-02 1.05811075266448e-04
1.17823275862069e+01 1.08778635688155e-02 1.05457817744801e-04
1.18435344827586e+01 1.08133502590504e-02 1.05104321352811e-04
1.19047413793103e+01 1.07492195581404e-02 1.04750610987303e-04
1.19659482758621e+01 1.06854691969487e-02 1.04396711099278e-04
1.20271551724138e+01 1.06220969197964e-02 1.04042645701522e-04
1.20883620689655e+01 1.05591004843821e-02 1.03688438376051e-04
1.21495689655172e+01 1.04964776617028e-02 1.03334112281420e-04
1.22107758620690e+01 1.04342262359751e-02 1.02979690159878e-04
1.22719827586207e+01 1.03723440045566e-02 1.02625194344396e-04
1.23331896551724e+01 1.03108287778683e-02 1.02270646765544e-04
1.23943965517241e+01 1.02496783793168e-02 1.01916068958239e-04
1.24556034482759e+01 1.01888906452175e-02 1.01561482068408e-04
1.25168103448276e+01 1.01284634247177e-02 1.01206906859376e-04
1.25780172413793e+01 1.00683945797209e-02 1.00852363718245e-04
1.26392241379310e+01 1.00086819848110e-02 1.00497872662223e-04
1.27004310344828e+01 9.94932352717722e-03 1.00143453344688e-04
1.27616379310345e+01 9.89031710653906e-03 9.97891250612100e-05
1.28228448275862e+01 9.83166063507220e-03 9.94349067554556e-05
1.28840517241379e+01 9.77335203733456e-03 9.90808170249453e-05
1.29452586206897e+01 9.71538925019286e-03 9.87268741267267e-05
1.30064655172414e+01 9.65777022274964e-03 9.83730959829624e-05
1.30676724137931e+01 9.60049291627070e-03 9.80195001863794e-05
1.31288793103448e+01 9.54355530411293e-03 9.76661040056461e-05
1.31900862068966e+01 9.48695537165261e-03 9.73129243906270e-05
1.32512931034483e+01 9.43069111621417e-03 9.69599779775443e-05
1.33125000000000e+01 9.37476054699926e-03 9.66072809158833e-05
1.33737068965517e+01 9.31916168543084e-03 9.62548494104075e-05
1.34349137931034e+01 9.26389256383302e-03 9.59026993668203e-05
1.34961206896552e+01 9.20895122661835e-03 9.55508460337840e-05
1.35573275862069e+01 9.15433572979738e-03 9.51993045536533e-05
1.36185344827586e+01 9.10004414090985e-03 9.48480897842524e-05
1.36797413793103e+01 9.04607453895635e-03 9.44972163034176e-05
1.37409482758621e+01 8.99242501433031e-03 9.41466984134637e-05
1.38021551724138e+01 8.93909366875045e-03 9.37965501455800e-05
1.38633620689655e+01 8.88607861519365e-03 9.34467852641391e-05
1.39245689655172e+01 8.83337797782811e-03 9.30974172709406e-05
1.39857758620690e+01 8.78098989194703e-03 9.27484594093711e-05
1.40469827586207e+01 8.72891250390262e-03 9.23999246684866e-05
1.41081896551724e+01 8.67714397104050e-03 9.20518257870389e-05
1.41693965517241e+01 8.62568246163450e-03 9.17041752574215e-05
1.42306034482759e+01 8.57452615482186e-03 9.13569853295767e-05
1.42918103448276e+01 8.52367324053876e-03 9.10102680147527e-05
1.43530172413793e+01 8.47312191945634e-03 9.06640350892545e-05
1.44142241379310e+01 8.42287040291704e-03 9.03182980981872e-05
1.44754310344828e+01 8.37291691287127e-03 8.99730683590475e-05
1.45366379310345e+01 8.32325968181453e-03 8.96283569652901e-05
1.45978448275862e+01 8.27389695272483e-03 8.92841747898224e-05
1.46590517241379e+01 8.22482697900054e-03 8.89405324884524e-05
1.47202586206897e+01 8.17604802439860e-03 8.85974405032646e-05
1.47814655172414e+01 8.12755836297306e-03 8.82549090659481e-05
1.48426724137931e+01 8.07935627901405e-03 8.79129482010771e-05
1.49038793103448e+01 8.03144006698703e-03 8.75715677293132e-05
1.49650862068966e+01 7.98380803147248e-03 8.72307772705868e-05
1.50262931034483e+01 7.93645848710590e-03 8.68905862471948e-05
1.50875000000000e+01 7.88938975851816e-03 8.65510037459967e-05
1.51487068965517e+01 7.84260018058406e-03 8.62120389459765e-05
1.52099137931034e+01 7.79608809743511e-03 8.58737008372575e-05
1.52711206896552e+01 7.74985186333410e-03 8.55359979372052e-05
1.53323275862069e+01 7.70388984230421e-03 8.51989387248983e-05
1.53935344827586e+01 7.65820040807109e-03 8.48625314994176e-05
1.54547413793103e+01 7.61278194400533e-03 8.45267843826152e-05
1.55159482758621e+01 7.56763284306525e-03 8.41917053218436e-05
1.55771551724138e+01 7.52275150774005e-03 8.38573020926471e-05
1.56383620689655e+01 7.47813634999328e-03 8.35235823014049e-05
1.56995689655172e+01 7.43378579120663e-03 8.31905533879165e-05
1.57607758620690e+01 7.38969826212411e-03 8.28582226279609e-05
1.58219827586207e+01 7.34587220279651e-03 8.25265971358268e-05
1.58831896551724e+01 7.30230606252620e-03 8.21956838667801e-05
1.59443965517241e+01 7.25899829981227e-03 8.18654896195100e-05
1.60056034482759e+01 7.21594738229595e-03 8.15360210385457e-05
1.60668103448276e+01 7.17315178670641e-03 8.12072846165624e-05
1.61280172413793e+01 7.13060999880691e-03 8.08792866967262e-05
1.61892241379310e+01 7.08832051334118e-03 8.05520334750122e-05
1.62504310344828e+01 7.04628183398018e-03 8.02255310024379e-05
1.63116379310345e+01 7.00449247326912e-03 7.98997851872858e-05
1.63728448275862e+01 6.96295095257488e-03 7.95748017972780e-05
1.64340517241379e+01 6.92165580203363e-03 7.92505864617359e-05
1.64952586206897e+01 6.88060556049888e-03 7.89271446736932e-05
1.65564655172414e+01 6.83979877548975e-03 7.86044817919690e-05
1.66176724137931e+01 6.79923400313955e-03 7.82826030432251e-05
1.66788793103448e+01 6.75890980814478e-03 7.79615135239961e-05
1.67400862068965e+01 6.71882476371423e-03 7.76412182026585e-05
1.68012931034483e+01 6.67897745151858e-03 7.73217219213984e-05
1.68625000000000e+01 6.63936646164019e-03 7.70030292859957e-05
1.69237068965517e+01 6.59999039275505e-03 7.66851450056773e-05
1.69849137931034e+01 6.56084785138413e-03 7.63680736689980e-05
1.70461206896552e+01 6.52193745254672e-03 7.60518195173355e-05
1.71073275862069e+01 6.48325781947602e-03 7.57363867902761e-05
1.71685344827586e+01 6.44480758357040e-03 7.54217796123553e-05
1.72297413793103e+01 6.40658538434500e-03 7.51080019948087e-05
1.72909482758621e+01 6.36858986938358e-03 7.47950578373220e-05
1.73521551724138e+01 6.33081969429066e-03 7.44829509297322e-05
1.74133620689655e+01 6.29327352264396e-03 7.41716849537041e-05
1.74745689655172e+01 6.25595002594713e-03 7.38612634843881e-05
1.75357758620690e+01 6.21884788358271e-03 7.35516899920572e-05
1.75969827586207e+01 6.18196578276542e-03 7.32429678437134e-05
1.76581896551724e+01 6.14530241849571e-03 7.29351003046653e-05
1.77193965517241e+01 6.10885649351359e-03 7.26280905400921e-05
1.77806034482759e+01 6.07262671825271e-03 7.23219416165972e-05
1.78418103448276e+01 6.03661181079474e-03 7.20166565036935e-05
1.79030172413793e+01 6.00081049682401e-03 7.17122380752853e-05
1.79642241379310e+01 5.96522150958247e-03 7.14086891111748e-05
1.80254310344828e+01 5.92984358982479e-03 7.11060122985047e-05
1.80866379310345e+01 5.89467548577387e-03 7.08042102331760e-05
1.81478448275862e+01 5.85971595307649e-03 7.05032854212512e-05
1.82090517241379e+01 5.82496375475935e-03 7.02032402803493e-05
1.82702586206897e+01 5.79041766118521e-03 6.99040771410087e-05
1.83314655172414e+01 5.75607645000947e-03 6.96057982480263e-05
1.83926724137931e+01 5.72193890613688e-03 6.93084057617849e-05
1.84538793103448e+01 5.68800382167853e-03 6.90119017595672e-05
1.85150862068966e+01 5.65426999590914e-03 6.87162882368355e-05
1.85762931034483e+01 5.62073623522459e-03 6.84215671085061e-05
1.86375000000000e+01 5.58740135309963e-03 6.81277401204226e-05
1.86987068965517e+01 5.55426417022249e-03 6.78348091211193e-05
1.87599137931034e+01 5.52132351392085e-03 6.75427758821513e-05
1.88211206896552e+01 5.48857821865531e-03 6.72516419164888e-05
1.88823275862069e+01 5.45602712579893e-03 6.69614087547180e-05
1.89435344827586e+01 5.42366908359623e-03 6.66720778541174e-05
1.90047413793103e+01 5.39150294712243e-03 6.63836505997986e-05
1.90659482758621e+01 5.35952757824298e-03 6.60961283058408e-05
1.91271551724138e+01 5.32774184557323e-03 6.58095122164140e-05
1.91883620689655e+01 5.29614462443843e-03 6.55238035068649e-05
1.92495689655172e+01 5.26473479683396e-03 6.52390032847986e-05
1.93107758620690e+01 5.23351125138572e-03 6.49551125911586e-05
