Energy (eV)          EEDF (eV^-(3/2))     First Anisotropy
1.17826086956522e-02 5.69754277128357e-01 4.40855320098099e-04
3.53478260869565e-02 5.61261152249339e-01 7.24988857485297e-04
5.89130434782609e-02 5.52894631370049e-01 9.49182716959818e-04
8.24782608695652e-02 5.44652827250310e-01 1.11478180994620e-03
1.06043478260870e-01 5.36533880780993e-01 1.24903976404664e-03
1.29608695652174e-01 5.28535960566513e-01 1.36238832053755e-03
1.53173913043478e-01 5.20657262531444e-01 1.46028921044258e-03
1.76739130434783e-01 5.12896009422528e-01 1.54607806926931e-03
2.00304347826087e-01 5.05250450578364e-01 1.62199168279720e-03
2.23869565217391e-01 4.97718861344597e-01 1.68962811214650e-03
2.47434782608696e-01 4.90299542854719e-01 1.75018285641091e-03
2.71000000000000e-01 4.82990821524107e-01 1.80458215154558e-03
2.94565217391304e-01 4.75791048693488e-01 1.85356368011229e-03
3.18130434782609e-01 4.68698600332075e-01 1.89772820366104e-03
3.41695652173913e-01 4.61711876589680e-01 1.93757405892546e-03
3.65260869565217e-01 4.54829301447389e-01 1.97352103257910e-03
3.88826086956522e-01 4.48049322417952e-01 2.00592740695276e-03
4.12391304347826e-01 4.41370410120230e-01 2.03510242904604e-03
4.35956521739130e-01 4.34791058005162e-01 2.06131563650610e-03
4.59521739130435e-01 4.28309781963153e-01 2.08480397339102e-03
4.83086956521739e-01 4.21925119995395e-01 2.10577729564301e-03
5.06652173913044e-01 4.15635631923455e-01 2.12442271282754e-03
5.30217391304348e-01 4.09439899011508e-01 2.14090804516864e-03
5.53782608695652e-01 4.03336523696704e-01 2.15538461220687e-03
5.77347826086957e-01 3.97324129236321e-01 2.16798951201158e-03
6.00913043478261e-01 3.91401359400963e-01 2.17884748909926e-03
6.24478260869565e-01 3.85566878198050e-01 2.18807249502999e-03
6.48043478260870e-01 3.79819369530976e-01 2.19576899182862e-03
6.71608695652174e-01 3.74157536940090e-01 2.20203305168788e-03
6.95173913043478e-01 3.68580103282025e-01 2.20695329582784e-03
7.18739130434783e-01 3.63085810444025e-01 2.21061168980061e-03
7.42304347826087e-01 3.57673419083065e-01 2.21308423517733e-03
7.65869565217391e-01 3.52341708315631e-01 2.21444156466939e-03
7.89434782608696e-01 3.47089475471834e-01 2.21474945939675e-03
8.13000000000000e-01 3.41915535802134e-01 2.21406930461737e-03
8.36565217391304e-01 3.36818722211742e-01 2.21245848313121e-03
8.60130434782609e-01 3.31797885015680e-01 2.20997072792807e-03
8.83695652173913e-01 3.26851891660527e-01 2.20665643437549e-03
9.07260869565217e-01 3.21979626470293e-01 2.20256293220000e-03
9.30826086956522e-01 3.17179990410696e-01 2.19773473383791e-03
9.54391304347826e-01 3.12451900819998e-01 2.19221375399046e-03
9.77956521739131e-01 3.07794291185350e-01 2.18603950646413e-03
1.00152173913043e+00 3.03206110886846e-01 2.17924928531245e-03
1.02508695652174e+00 2.98686324952705e-01 2.17187832050713e-03
1.04865217391304e+00 2.94233913853207e-01 2.16395991915779e-03
1.07221739130435e+00 2.89847873297114e-01 2.15552561550318e-03
1.09578260869565e+00 2.85527213881164e-01 2.14660527952556e-03
1.11934782608696e+00 2.81270960992314e-01 2.13722721183713e-03
1.14291304347826e+00 2.77078154582243e-01 2.12741827273905e-03
1.16647826086957e+00 2.72947848840254e-01 2.11720395986728e-03
1.19004347826087e+00 2.68879112091659e-01 2.10660848311499e-03
1.21360869565217e+00 2.64871026549714e-01 2.09565485216385e-03
1.23717391304348e+00 2.60922688140505e-01 2.08436495545550e-03
1.26073913043478e+00 2.57033206202915e-01 2.07275961801143e-03
1.28430434782609e+00 2.53201703384865e-01 2.06085865396854e-03
1.30786956521739e+00 2.49427315412564e-01 2.04868093216744e-03
1.33143478260870e+00 2.45709190923345e-01 2.03624443545032e-03
1.35500000000000e+00 2.42046491189590e-01 2.02356630198149e-03
1.37856521739130e+00 2.38438390014493e-01 2.01066286289704e-03
1.40213043478261e+00 2.34884073517056e-01 1.99754969280831e-03
1.42569565217391e+00 2.31382739972854e-01 1.98424165550041e-03
1.44926086956522e+00 2.27933599559311e-01 1.97075293402397e-03
1.47282608695652e+00 2.24535874252229e-01 1.95709705815377e-03
1.49639130434783e+00 2.21188797625178e-01 1.94328694418395e-03
1.51995652173913e+00 2.17891614698045e-01 1.92933493093202e-03
1.54352173913043e+00 2.14643581701514e-01 1.91525280198872e-03
1.56708695652174e+00 2.11443965975229e-01 1.90105180602552e-03
1.59065217391304e+00 2.08292045780416e-01 1.88674268877191e-03
1.61421739130435e+00 2.05187110156026e-01 1.87233572192126e-03
1.63778260869565e+00 2.02128458700549e-01 1.85784071978170e-03
1.66134782608696e+00 1.99115401472479e-01 1.84326705186412e-03
1.68491304347826e+00 1.96147258832443e-01 1.82862367942616e-03
1.70847826086957e+00 1.93223361237137e-01 1.81391916605012e-03
1.73204347826087e+00 1.90343049141616e-01 1.79916168996715e-03
1.75560869565217e+00 1.87505672832469e-01 1.78435906666795e-03
1.77917391304348e+00 1.84710592296858e-01 1.76951876928888e-03
1.80273913043478e+00 1.81957177031099e-01 1.75464793890262e-03
1.82630434782609e+00 1.79244805945994e-01 1.73975339385172e-03
1.84986956521739e+00 1.76572867210666e-01 1.72484164866416e-03
1.87343478260870e+00 1.73940758128457e-01 1.70991893107159e-03
1.89700000000000e+00 1.71347884958910e-01 1.69499118986723e-03
1.92056521739130e+00 1.68793662826356e-01 1.68006410199954e-03
1.94413043478261e+00 1.66277515573654e-01 1.66514308857109e-03
1.96769565217391e+00 1.63798875644661e-01 1.65023332919848e-03
1.99126086956522e+00 1.61357183918499e-01 1.63533976802804e-03
2.01482608695652e+00 1.58951889621549e-01 1.62046711913202e-03
2.03839130434783e+00 1.56582450190391e-01 1.60561988016910e-03
2.06195652173913e+00 1.54248331160572e-01 1.59080234461433e-03
2.08552173913044e+00 1.51949006012152e-01 1.57601860636488e-03
2.10908695652174e+00 1.49683956085194e-01 1.56127256383648e-03
2.13265217391304e+00 1.47452670451269e-01 1.54656793172345e-03
2.15621739130435e+00 1.45254645808223e-01 1.53190825149890e-03
2.17978260869565e+00 1.43089386336133e-01 1.51729689493142e-03
2.20334782608696e+00 1.40956403616311e-01 1.50273706558232e-03
2.22691304347826e+00 1.38855216520053e-01 1.48823181540844e-03
2.25047826086957e+00 1.36785351071940e-01 1.47378404584081e-03
2.27404347826087e+00 1.34746340371390e-01 1.45939651029844e-03
2.29760869565217e+00 1.32737724477713e-01 1.44507182336066e-03
2.32117391304348e+00 1.30759050314794e-01 1.43081246891812e-03
2.34473913043478e+00 1.28809871543432e-01 1.41662080235408e-03
2.36830434782609e+00 1.26889748486387e-01 1.40249905240662e-03
2.39186956521739e+00 1.24998248020516e-01 1.38844932920359e-03
2.41543478260870e+00 1.23134943486688e-01 1.37447363138259e-03
2.43900000000000e+00 1.21299414570505e-01 1.36057384771439e-03
2.46256521739130e+00 1.19491247230771e-01 1.34675175845336e-03
2.48613043478261e+00 1.17710033598250e-01 1.33300904241073e-03
2.50969565217391e+00 1.15955371890555e-01 1.31934728320462e-03
2.53326086956522e+00 1.14226866300632e-01 1.30576797044240e-03
2.55682608695652e+00 1.12524126928583e-01 1.29227250066775e-03
2.58039130434783e+00 1.10846769686614e-01 1.27886218361450e-03
2.60395652173913e+00 1.09194416218635e-01 1.26553824771670e-03
2.62752173913043e+00 1.07566693795968e-01 1.25230184094102e-03
2.65108695652174e+00 1.05963235252418e-01 1.23915403141553e-03
2.67465217391304e+00 1.04383678895016e-01 1.22609581298000e-03
2.69821739130435e+00 1.02827668428098e-01 1.21312811006197e-03
2.72178260869565e+00 1.01294852855708e-01 1.20025177823161e-03
2.74534782608696e+00 9.97848864198326e-02 1.18746760356612e-03
2.76891304347826e+00 9.82974285218343e-02 1.17477631165685e-03
2.79247826086957e+00 9.68321436296145e-02 1.16217856686370e-03
2.81604347826087e+00 9.53887012181029e-02 1.14967497255066e-03
2.83960869565217e+00 9.39667756892363e-02 1.13726607561187e-03
2.86317391304348e+00 9.25660463033379e-02 1.12495237042850e-03
2.88673913043478e+00 9.11861970921865e-02 1.11273429908013e-03
2.91030434782609e+00 8.98269168024770e-02 1.10061225141250e-03
2.93386956521739e+00 8.84878988206403e-02 1.08858656908823e-03
2.95743478260870e+00 8.71688411080721e-02 1.07665754911783e-03
2.98100000000000e+00 8.58694461197076e-02 1.06482544392245e-03
3.00456521739130e+00 8.45894207503378e-02 1.05309046126930e-03
3.02813043478261e+00 8.33284762639675e-02 1.04145276790570e-03
3.05169565217391e+00 8.20863282326874e-02 1.02991249271819e-03
3.07526086956522e+00 8.08626964603821e-02 1.01846972667722e-03
3.09882608695652e+00 7.96573049317865e-02 1.00712452266910e-03
3.12239130434783e+00 7.84698817461001e-02 9.95876898763398e-04
3.14595652173913e+00 7.73001590593046e-02 9.84726841045293e-04
3.16952173913044e+00 7.61478730126621e-02 9.73674303467577e-04
3.19308695652174e+00 7.50127636843972e-02 9.62719207601951e-04
3.21665217391304e+00 7.38945750273018e-02 9.51861445582692e-04
3.24021739130435e+00 7.27930548143125e-02 9.41100882650956e-04
3.26378260869565e+00 7.17079545714803e-02 9.30437356934309e-04
3.28734782608696e+00 7.06390295321641e-02 9.19870678481121e-04
3.31091304347826e+00 6.95860385814970e-02 9.09400634547235e-04
3.33447826086957e+00 6.85487441925315e-02 8.99026988601290e-04
3.35804347826087e+00 6.75269123822251e-02 8.88749479984633e-04
3.38160869565217e+00 6.65203126554309e-02 8.78567826366188e-04
3.40517391304348e+00 6.55287179557717e-02 8.68481725853765e-04
3.42873913043478e+00 6.45519046057546e-02 8.58490856691453e-04
3.45230434782609e+00 6.35896522650741e-02 8.48594876881612e-04
3.47586956521739e+00 6.26417438779560e-02 8.38793426406118e-04
3.49943478260870e+00 6.17079656268203e-02 8.29086129131491e-04
3.52300000000000e+00 6.07881068761058e-02 8.19472592471260e-04
3.54656521739130e+00 5.98819601327837e-02 8.09952406980536e-04
3.57013043478261e+00 5.89893209968495e-02 8.00525148368659e-04
3.59369565217391e+00 5.81099881176195e-02 7.91190379220285e-04
3.61726086956522e+00 5.72437631410269e-02 7.81947648632400e-04
3.64082608695652e+00 5.63904506722396e-02 7.72796491789960e-04
3.66439130434783e+00 5.55498582291089e-02 7.63736431791580e-04
3.68795652173913e+00 5.47217962009527e-02 7.54766981206428e-04
3.71152173913043e+00 5.39060777991002e-02 7.45887641693317e-04
3.73508695652174e+00 5.31025190215129e-02 7.37097903564445e-04
3.75865217391304e+00 5.23109386090082e-02 7.28397247443339e-04
3.78221739130435e+00 5.15311580063936e-02 7.19785145674594e-04
3.80578260869565e+00 5.07630013160500e-02 7.11261061931437e-04
3.82934782608696e+00 5.00062952644580e-02 7.02824450343390e-04
3.85291304347826e+00 4.92608691629244e-02 6.94474758728815e-04
3.87647826086957e+00 4.85265548633260e-02 6.86211427717996e-04
3.90004347826087e+00 4.78031867259933e-02 6.78033890312643e-04
3.92360869565217e+00 4.70906015803852e-02 6.69941573285510e-04
3.94717391304348e+00 4.63886386900315e-02 6.61933898364354e-04
3.97073913043478e+00 4.56971397109856e-02 6.54010281834965e-04
3.99430434782609e+00 4.50159486614515e-02 6.46170134101328e-04
4.01786956521739e+00 4.43449118847967e-02 6.38412860959781e-04
4.04143478260870e+00 4.36838780164984e-02 6.30737864673665e-04
4.06500000000000e+00 4.30326979451351e-02 6.23144543576236e-04
4.08856521739130e+00 4.23912247836672e-02 6.15632291634652e-04
4.11213043478261e+00 4.17593138346474e-02 6.08200499610721e-04
4.13569565217391e+00 4.11368225590590e-02 6.00848556037049e-04
4.15926086956522e+00 4.05236105396850e-02 5.93575846822767e-04
4.18282608695652e+00 3.99195394539584e-02 5.86381754823719e-04
4.20639130434783e+00 3.93244730412387e-02 5.79265660900692e-04
4.22995652173913e+00 3.87382770734335e-02 5.72226944806640e-04
4.25352173913044e+00 3.81608193205980e-02 5.65264984797475e-04
4.27708695652174e+00 3.75919695252737e-02 5.58379157210470e-04
4.30065217391304e+00 3.70315993717052e-02 5.51568837429571e-04
4.32421739130435e+00 3.64795824581469e-02 5.44833400692289e-04
4.34778260869565e+00 3.59357942645516e-02 5.38172221707394e-04
4.37134782608696e+00 3.54001121283206e-02 5.31584673958257e-04
4.39491304347826e+00 3.48724152165208e-02 5.25070131727336e-04
4.41847826086957e+00 3.43525844950602e-02 5.18627969402519e-04
4.44204347826087e+00 3.38405027054419e-02 5.12257561075605e-04
4.46560869565217e+00 3.33360543370981e-02 5.05958281362865e-04
4.48917391304348e+00 3.28391256024217e-02 4.99729506087091e-04
4.51273913043478e+00 3.23496044078091e-02 4.93570611912925e-04
4.53630434782609e+00 3.18673803316990e-02 4.87480975956663e-04
4.55986956521739e+00 3.13923445985445e-02 4.81459976535867e-04
4.58343478260870e+00 3.09243900552779e-02 4.75506993790398e-04
4.60700000000000e+00 3.04634111441062e-02 4.69621409327648e-04
4.63056521739130e+00 3.00093038817658e-02 4.63802605844402e-04
4.65413043478261e+00 2.95619658350345e-02 4.58049967811846e-04
4.67769565217391e+00 2.91212960985497e-02 4.52362882041318e-04
4.70126086956522e+00 2.86871952692461e-02 4.46740737340087e-04
4.72482608695652e+00 2.82595654267632e-02 4.41182924145732e-04
4.74839130434783e+00 2.78383101104047e-02 4.35688835152421e-04
4.77195652173913e+00 2.74233342982325e-02 4.30257865826404e-04
4.79552173913044e+00 2.70145443830467e-02 4.24889414072822e-04
4.81908695652174e+00 2.66118481538828e-02 4.19582879882923e-04
4.84265217391304e+00 2.62151547743335e-02 4.14337665906841e-04
4.86621739130435e+00 2.58243747628445e-02 4.09153177923416e-04
4.88978260869565e+00 2.54394199701429e-02 4.04028824518367e-04
4.91334782608696e+00 2.50602035617654e-02 3.98964016554319e-04
4.93691304347826e+00 2.46866399984009e-02 3.93958168458342e-04
4.96047826086957e+00 2.43186450143483e-02 3.89010697696813e-04
4.98404347826087e+00 2.39561356007785e-02 3.84121024446692e-04
5.00760869565217e+00 2.35990299862448e-02 3.79288572084314e-04
5.03117391304348e+00 2.32472476189238e-02 3.74512767583814e-04
5.05473913043478e+00 2.29007091463681e-02 3.69793041216883e-04
5.07830434782609e+00 2.25593363997053e-02 3.65128826236953e-04
5.10186956521739e+00 2.22230523752982e-02 3.60519559326539e-04
5.12543478260870e+00 2.18917812180088e-02 3.55964680960547e-04
5.14900000000000e+00 2.15654482021679e-02 3.51463635117557e-04
5.17256521739130e+00 2.12439797166586e-02 3.47015868976757e-04
5.19613043478261e+00 2.09273032476586e-02 3.42620833327447e-04
5.21969565217391e+00 2.06153473628694e-02 3.38277982900376e-04
5.24326086956522e+00 2.03080416936271e-02 3.33986776090467e-04
5.26682608695652e+00 2.00053169208234e-02 3.29746674666338e-04
5.29039130434783e+00 1.97071047586657e-02 3.25557144145179e-04
5.31395652173913e+00 1.94133379398152e-02 3.21417654095064e-04
5.33752173913043e+00 1.91239501985706e-02 3.17327677868908e-04
5.36108695652174e+00 1.88388762575802e-02 3.13286692326312e-04
5.38465217391304e+00 1.85580518125591e-02 3.09294178176913e-04
5.40821739130435e+00 1.82814135182850e-02 3.05349620256101e-04
5.43178260869565e+00 1.80088989727887e-02 3.01452507270088e-04
5.45534782608696e+00 1.77404467048142e-02 2.97602331402076e-04
5.47891304347826e+00 1.74759961599089e-02 2.93798589139718e-04
5.50247826086957e+00 1.72154876853309e-02 2.90040780886007e-04
5.52604347826087e+00 1.69588625180409e-02 2.86328410702875e-04
5.54960869565217e+00 1.67060627709588e-02 2.82660986604719e-04
5.57317391304348e+00 1.64570314203444e-02 2.79038020792383e-04
5.59673913043478e+00 1.62117122916081e-02 2.75459029417939e-04
5.62030434782609e+00 1.59700500479792e-02 2.71923532339748e-04
5.64386956521739e+00 1.57319901775727e-02 2.68431053391323e-04
5.66743478260870e+00 1.54974789814981e-02 2.64981120594770e-04
5.69100000000000e+00 1.52664635605180e-02 2.61573265935915e-04
5.71456521739130e+00 1.50388918043570e-02 2.58207025130428e-04
5.73813043478261e+00 1.48147123795288e-02 2.54881937870151e-04
5.76169565217391e+00 1.45938747181329e-02 2.51597548017790e-04
5.78526086956522e+00 1.43763290053092e-02 2.48353403392057e-04
5.80882608695652e+00 1.41620261691517e-02 2.45149055544586e-04
5.83239130434783e+00 1.39509178692516e-02 2.41984059985580e-04
5.85595652173913e+00 1.37429564861415e-02 2.38857976361353e-04
5.87952173913044e+00 1.35380951094991e-02 2.35770368249247e-04
5.90308695652174e+00 1.33362875286305e-02 2.32720802944918e-04
5.92665217391304e+00 1.31374882216887e-02 2.29708851669044e-04
5.95021739130435e+00 1.29416523457273e-02 2.26734089729259e-04
5.97378260869565e+00 1.27487357256072e-02 2.23796096324470e-04
5.99734782608696e+00 1.25586948450197e-02 2.20894454255888e-04
6.02091304347826e+00 1.23714868366431e-02 2.18028750462812e-04
6.04447826086957e+00 1.21870694715501e-02 2.15198575737698e-04
6.06804347826087e+00 1.20054011506140e-02 2.12403524531234e-04
6.09160869565217e+00 1.18264408948115e-02 2.09643195129142e-04
6.11517391304348e+00 1.16501483362612e-02 2.06917189789422e-04
6.13873913043478e+00 1.14764837082625e-02 2.04225114562911e-04
6.16230434782609e+00 1.13054078371896e-02 2.01566579107668e-04
6.18586956521739e+00 1.11368821333637e-02 1.98941196850947e-04
6.20943478260870e+00 1.09708685826107e-02 1.96348585114285e-04
6.23300000000000e+00 1.08073297368923e-02 1.93788364942525e-04
6.25656521739131e+00 1.06462287066610e-02 1.91260160927189e-04
6.28013043478261e+00 1.04875291522685e-02 1.88763601354823e-04
6.30369565217391e+00 1.03311952760114e-02 1.86298318320993e-04
6.32726086956522e+00 1.01771918133206e-02 1.83863947567462e-04
6.35082608695652e+00 1.00254840255499e-02 1.81460128314150e-04
6.37439130434783e+00 9.87603769188985e-03 1.79086503395014e-04
6.39795652173913e+00 9.72881910187386e-03 1.76742719361887e-04
6.42152173913044e+00 9.58379504709078e-03 1.74428426329507e-04
6.44508695652174e+00 9.44093281438436e-03 1.72143277815707e-04
6.46865217391304e+00 9.30020017824191e-03 1.69886930865860e-04
6.49221739130435e+00 9.16156539373414e-03 1.67659046147450e-04
6.51578260869565e+00 9.02499718872029e-03 1.65459287802599e-04
6.53934782608696e+00 8.89046475743474e-03 1.63287323237667e-04
6.56291304347826e+00 8.75793775352019e-03 1.61142823472072e-04
6.58647826086957e+00 8.62738628258333e-03 1.59025462931103e-04
6.61004347826087e+00 8.49878089605677e-03 1.56934919300011e-04
6.63360869565217e+00 8.37209258435226e-03 1.54870873630345e-04
6.65717391304348e+00 8.24729277050075e-03 1.52833010419880e-04
6.68073913043478e+00 8.12435330314997e-03 1.50821017477864e-04
6.70430434782609e+00 8.00324645077630e-03 1.48834585786397e-04
6.72786956521739e+00 7.88394489524000e-03 1.46873409597773e-04
6.75143478260870e+00 7.76642172579356e-03 1.44937186507178e-04
6.77500000000000e+00 7.65065043249488e-03 1.43025617324618e-04
6.79856521739130e+00 7.53660490074924e-03 1.41138405943221e-04
6.82213043478261e+00 7.42425940524290e-03 1.39275259428351e-04
6.84569565217391e+00 7.31358860429853e-03 1.37435888083708e-04
6.86926086956522e+00 7.20456753367902e-03 1.35620005329608e-04
6.89282608695652e+00 7.09717160144107e-03 1.33827327577936e-04
6.91639130434783e+00 6.99137658222477e-03 1.32057574313685e-04
6.93995652173913e+00 6.88715861193609e-03 1.30310468155043e-04
6.96352173913044e+00 6.78449418191806e-03 1.28585734737745e-04
6.98708695652174e+00 6.68336013409825e-03 1.26883102596349e-04
7.01065217391304e+00 6.58373365561351e-03 1.25202303238864e-04
7.03421739130435e+00 6.48559227380050e-03 1.23543071201309e-04
7.05778260869565e+00 6.38891385071240e-03 1.21905143937879e-04
7.08134782608696e+00 6.29367657854363e-03 1.20288261668472e-04
7.10491304347826e+00 6.19985897469909e-03 1.18692167606716e-04
7.12847826086957e+00 6.10743987655665e-03 1.17116607809999e-04
7.15204347826087e+00 6.01639843708915e-03 1.15561331071317e-04
7.17560869565217e+00 5.92671412002855e-03 1.14026088982896e-04
7.19917391304348e+00 5.83836669535380e-03 1.12510635982070e-04
7.22273913043478e+00 5.75133623436345e-03 1.11014729251166e-04
7.24630434782609e+00 5.66560310554817e-03 1.09538128614896e-04
7.26986956521739e+00 5.58114797003851e-03 1.08080596598529e-04
7.29343478260870e+00 5.49795177735430e-03 1.06641898469476e-04
7.31700000000000e+00 5.41599576076908e-03 1.05221802142275e-04
7.34056521739130e+00 5.33526143341869e-03 1.03820078081249e-04
7.36413043478261e+00 5.25573058401608e-03 1.02436499353677e-04
7.38769565217391e+00 5.17738527284723e-03 1.01070841667478e-04
7.41126086956522e+00 5.10020782740972e-03 9.97228832810291e-05
7.43482608695652e+00 5.02418083874433e-03 9.83924049108592e-05
