Energy (eV)          EEDF (eV^-(3/2))     First Anisotropy
2.00000000000000e-02 1.21664346083389e+00 2.42952851144185e-01
6.00000000000000e-02 1.21063037390276e+00 2.57010816273734e-01
1.00000000000000e-01 1.19291217039806e+00 3.48551658987495e-01
1.40000000000000e-01 1.16976963633852e+00 3.67688287921267e-01
1.80000000000000e-01 1.14342545848485e+00 3.65283847545521e-01
2.20000000000000e-01 1.11490602858073e+00 3.57858943199543e-01
2.60000000000000e-01 1.08530963956119e+00 3.49800334907973e-01
3.00000000000000e-01 1.05502085285963e+00 3.39930422071588e-01
3.40000000000000e-01 1.02440798031811e+00 3.30426004779750e-01
3.80000000000000e-01 9.93746891567938e-01 3.20790251621960e-01
4.20000000000000e-01 9.63175650374536e-01 3.12583488112747e-01
4.60000000000000e-01 9.32955704865367e-01 3.05906790554350e-01
5.00000000000000e-01 9.03144576990516e-01 2.99180476153916e-01
5.40000000000000e-01 8.73819724415305e-01 2.92830364370207e-01
5.80000000000000e-01 8.45047070773548e-01 2.86541111086292e-01
6.20000000000000e-01 8.16855363131288e-01 2.80083106725741e-01
6.60000000000000e-01 7.89254518244732e-01 2.73652438693775e-01
7.00000000000000e-01 7.62234346773665e-01 2.67513908856436e-01
7.40000000000000e-01 7.35778487190844e-01 2.61836123491699e-01
7.80000000000000e-01 7.09867124309922e-01 2.56477243412076e-01
8.20000000000000e-01 6.84483031973723e-01 2.51167216944219e-01
8.60000000000000e-01 6.59633672839962e-01 2.45696301383924e-01
9.00000000000000e-01 6.35343767287828e-01 2.39988581653698e-01
9.40000000000000e-01 6.11635947360861e-01 2.34123101901675e-01
9.80000000000000e-01 5.88519136909032e-01 2.28218339090194e-01
1.02000000000000e+00 5.65992267896013e-01 2.22164333530983e-01
1.06000000000000e+00 5.43997397219906e-01 2.16402468907631e-01
1.10000000000000e+00 5.22452087855056e-01 2.11201715843056e-01
1.14000000000000e+00 5.01250165394931e-01 2.06134439606595e-01
1.18000000000000e+00 4.80318205109377e-01 2.01262113825977e-01
1.22000000000000e+00 4.59629155509448e-01 1.95870278650771e-01
1.26000000000000e+00 4.39107093686767e-01 1.89877963591108e-01
1.30000000000000e+00 4.18767414904913e-01 1.84132263958835e-01
1.34000000000000e+00 3.98634819282707e-01 1.78756990247906e-01
1.38000000000000e+00 3.78725849079101e-01 1.73600806075007e-01
1.42000000000000e+00 3.59053837352813e-01 1.68505596326069e-01
1.46000000000000e+00 3.39632555745050e-01 1.63462368327157e-01
1.50000000000000e+00 3.20476728093473e-01 1.58117844440153e-01
1.54000000000000e+00 3.01621041761419e-01 1.52185180948733e-01
1.58000000000000e+00 2.83100075968293e-01 1.46051822830451e-01
1.62000000000000e+00 2.64932865730103e-01 1.39561715439386e-01
1.66000000000000e+00 2.47037401237652e-01 1.33226016497329e-01
1.70000000000000e+00 2.29334992241032e-01 1.27627823062700e-01
1.74000000000000e+00 2.11710158871865e-01 1.21977853247299e-01
1.78000000000000e+00 1.94205489991746e-01 1.15693864936263e-01
1.82000000000000e+00 1.77002081246721e-01 1.05755918868475e-01
1.86000000000000e+00 1.60025220291272e-01 9.35986535014443e-02
1.90000000000000e+00 1.43531210748776e-01 8.23567866458535e-02
1.94000000000000e+00 1.27807228042997e-01 7.18004198359818e-02
1.98000000000000e+00 1.13145241556068e-01 6.17372594711484e-02
2.02000000000000e+00 9.97537790855082e-02 5.26127295607232e-02
2.06000000000000e+00 8.76806366194266e-02 4.47295403077745e-02
2.10000000000000e+00 7.68522053555636e-02 3.81706101154080e-02
2.14000000000000e+00 6.72211393935762e-02 3.28979439555823e-02
2.18000000000000e+00 5.86924931911163e-02 2.85186137419328e-02
2.22000000000000e+00 5.11365984466757e-02 2.47760510407880e-02
2.26000000000000e+00 4.44908216530215e-02 2.14413384385714e-02
2.30000000000000e+00 3.87091630601639e-02 1.84139432614077e-02
2.34000000000000e+00 3.37112671915529e-02 1.57875935041555e-02
2.38000000000000e+00 2.93944543384071e-02 1.35497903456361e-02
2.42000000000000e+00 2.56626663759857e-02 1.16380483698739e-02
2.46000000000000e+00 2.24488444854175e-02 9.96367899937187e-03
2.50000000000000e+00 1.97003807579922e-02 8.48667861347613e-03
2.54000000000000e+00 1.73602145999995e-02 7.22376511185025e-03
2.58000000000000e+00 1.53661073613423e-02 6.16613195312289e-03
2.62000000000000e+00 1.36605238850131e-02 5.28971145623530e-03
2.66000000000000e+00 1.21986189582502e-02 4.55838400857794e-03
2.70000000000000e+00 1.09418964804079e-02 3.95643425158093e-03
2.74000000000000e+00 9.85956937360525e-03 3.47166916246230e-03
2.78000000000000e+00 8.92693515674858e-03 3.06583780620428e-03
2.82000000000000e+00 8.12184882252323e-03 2.74231079788021e-03
2.86000000000000e+00 7.42414597122097e-03 2.50178413223980e-03
2.90000000000000e+00 6.81091182951978e-03 2.31679779299920e-03
2.94000000000000e+00 6.26713552081367e-03 2.16419769272273e-03
2.98000000000000e+00 5.78594629742791e-03 2.02059966968686e-03
3.02000000000000e+00 5.36352183993515e-03 1.85516225629337e-03
3.06000000000000e+00 4.99045134557002e-03 1.68064609928596e-03
3.10000000000000e+00 4.66033835918346e-03 1.53052051469372e-03
3.14000000000000e+00 4.36783464284962e-03 1.40635043419463e-03
3.18000000000000e+00 4.10792312973133e-03 1.30355316508997e-03
3.22000000000000e+00 3.87561234517963e-03 1.21175999784856e-03
3.26000000000000e+00 3.66587258828597e-03 1.12943123059069e-03
3.30000000000000e+00 3.47534152778849e-03 1.05850743555020e-03
3.34000000000000e+00 3.30089892342718e-03 9.95882612100879e-04
3.38000000000000e+00 3.13992803669907e-03 9.42082237403406e-04
3.42000000000000e+00 2.99038845315284e-03 8.96593083919803e-04
3.46000000000000e+00 2.85086629192387e-03 8.56011963217407e-04
3.50000000000000e+00 2.72057335099947e-03 8.17554117246836e-04
3.54000000000000e+00 2.59873247499164e-03 7.80447463792398e-04
3.58000000000000e+00 2.48456591816163e-03 7.45578808039327e-04
3.62000000000000e+00 2.37744457291374e-03 7.12617504498266e-04
3.66000000000000e+00 2.27705158570708e-03 6.79693744174861e-04
3.70000000000000e+00 2.18332391171378e-03 6.45783554682113e-04
3.74000000000000e+00 2.09597374560525e-03 6.11944018080776e-04
3.78000000000000e+00 2.01442724344282e-03 5.80564564955813e-04
3.82000000000000e+00 1.93806008228063e-03 5.52710190225076e-04
3.86000000000000e+00 1.86630082689815e-03 5.28157680168268e-04
3.90000000000000e+00 1.79862638393712e-03 5.06428944739532e-04
3.94000000000000e+00 1.73452795731576e-03 4.87008347730090e-04
3.98000000000000e+00 1.67356259260978e-03 4.69838836964529e-04
4.02000000000000e+00 1.61537679038153e-03 4.54155952328789e-04
4.06000000000000e+00 1.55966024754594e-03 4.39140070188754e-04
4.10000000000000e+00 1.50629436601579e-03 4.24771175660292e-04
4.14000000000000e+00 1.45516650848239e-03 4.11021714759670e-04
4.18000000000000e+00 1.40616944759660e-03 3.97865410539120e-04
4.22000000000000e+00 1.35920134373309e-03 3.85098321276440e-04
4.26000000000000e+00 1.31413092207060e-03 3.72701454422639e-04
4.30000000000000e+00 1.27087107329692e-03 3.60814447984787e-04
4.34000000000000e+00 1.22933950188029e-03 3.49408630942137e-04
4.38000000000000e+00 1.18945883820041e-03 3.38457019422374e-04
4.42000000000000e+00 1.15115590698894e-03 3.27791812100393e-04
4.46000000000000e+00 1.11432893220352e-03 3.17410070769202e-04
4.50000000000000e+00 1.07891335301822e-03 3.07301565018269e-04
4.54000000000000e+00 1.04481729702950e-03 2.97329778961348e-04
4.58000000000000e+00 1.01195466638328e-03 2.87627429976316e-04
4.62000000000000e+00 9.80273681997910e-04 2.78354795165876e-04
4.66000000000000e+00 9.49736783477405e-04 2.69484381580016e-04
4.70000000000000e+00 9.20297219589076e-04 2.60937908532127e-04
4.74000000000000e+00 8.91907706291125e-04 2.52689265603502e-04
4.78000000000000e+00 8.64523627535959e-04 2.44733940765864e-04
4.82000000000000e+00 8.38105379871198e-04 2.36942850298321e-04
4.86000000000000e+00 8.12585738362106e-04 2.29316821662077e-04
4.90000000000000e+00 7.87930843422869e-04 2.21825779450437e-04
4.94000000000000e+00 7.64074926819612e-04 2.14338658157608e-04
4.98000000000000e+00 7.40957464191300e-04 2.07515428443912e-04
5.02000000000000e+00 7.18677560775905e-04 2.01603225542206e-04
5.06000000000000e+00 6.97244437074012e-04 1.95385163213907e-04
5.10000000000000e+00 6.76454305447745e-04 1.88863601058097e-04
5.14000000000000e+00 6.56314735369324e-04 1.82799377479515e-04
5.18000000000000e+00 6.36830711912639e-04 1.77058468404084e-04
5.22000000000000e+00 6.17978035328667e-04 1.71509382284808e-04
5.26000000000000e+00 5.99729801885652e-04 1.66145381067925e-04
5.30000000000000e+00 5.82064049316377e-04 1.60999961365232e-04
5.34000000000000e+00 5.64966689797206e-04 1.56089049773604e-04
5.38000000000000e+00 5.48423736888557e-04 1.51376424316418e-04
5.42000000000000e+00 5.32414703101150e-04 1.46805146654935e-04
5.46000000000000e+00 5.16913479808907e-04 1.42371117457862e-04
5.50000000000000e+00 5.01901724815223e-04 1.38080310819216e-04
5.54000000000000e+00 4.87358769697884e-04 1.33916731293206e-04
5.58000000000000e+00 4.73264970621144e-04 1.29886812934334e-04
5.62000000000000e+00 4.59604555144485e-04 1.26058015507046e-04
5.66000000000000e+00 4.46379316716610e-04 1.22418946567764e-04
5.70000000000000e+00 4.33573389997186e-04 1.18904552004408e-04
5.74000000000000e+00 4.21171551361112e-04 1.15512188314130e-04
5.78000000000000e+00 4.09158733583122e-04 1.12241366901072e-04
5.82000000000000e+00 3.97520050282444e-04 1.09053852966621e-04
5.86000000000000e+00 3.86231251334461e-04 1.05948096897164e-04
5.90000000000000e+00 3.75279425622837e-04 1.02970139543505e-04
5.94000000000000e+00 3.64656947578091e-04 1.00130086626564e-04
5.98000000000000e+00 3.54356242639738e-04 9.74062786550288e-05
6.02000000000000e+00 3.44365271562674e-04 9.47922176573253e-05
6.06000000000000e+00 3.34677378225582e-04 9.22787072672321e-05
6.10000000000000e+00 3.25282034872117e-04 8.98280152640582e-05
6.14000000000000e+00 3.16163824252743e-04 8.74213370261254e-05
6.18000000000000e+00 3.07308207953384e-04 8.50745116187478e-05
6.22000000000000e+00 2.98706534443147e-04 8.28014166618211e-05
6.26000000000000e+00 2.90350477796326e-04 8.05993668078929e-05
6.30000000000000e+00 2.82232023843588e-04 7.84565943186401e-05
6.34000000000000e+00 2.74340625136310e-04 7.63625908005929e-05
6.38000000000000e+00 2.66666273312094e-04 7.43247283609301e-05
6.42000000000000e+00 2.59202164441690e-04 7.23549157792747e-05
6.46000000000000e+00 2.51943495027879e-04 7.04503777478383e-05
6.50000000000000e+00 2.44883829647372e-04 6.86036154127850e-05
6.54000000000000e+00 2.38016961078820e-04 6.68126134443724e-05
6.58000000000000e+00 2.31336904125695e-04 6.50754355302040e-05
6.62000000000000e+00 2.24837883856101e-04 6.33757590095734e-05
6.66000000000000e+00 2.18509650483553e-04 6.17132420520941e-05
6.70000000000000e+00 2.12347123646676e-04 6.01000920642836e-05
6.74000000000000e+00 2.06345391832171e-04 5.85346712498400e-05
6.78000000000000e+00 2.00499706168634e-04 5.70154018999022e-05
6.82000000000000e+00 1.94805474471040e-04 5.55490813976303e-05
6.86000000000000e+00 1.89261016004146e-04 5.41334573814615e-05
6.90000000000000e+00 1.83861854711143e-04 5.27552339303875e-05
6.94000000000000e+00 1.78602348525636e-04 5.14095801855261e-05
6.98000000000000e+00 1.73477119498888e-04 5.00992698206709e-05
7.02000000000000e+00 1.68482296007506e-04 4.88316607637295e-05
7.06000000000000e+00 1.63616042190720e-04 4.76043234438025e-05
7.10000000000000e+00 1.58874757161426e-04 4.64109847525228e-05
7.14000000000000e+00 1.54254975327800e-04 4.52511630973124e-05
7.18000000000000e+00 1.49753281098019e-04 4.41240720113774e-05
7.22000000000000e+00 1.45366286906490e-04 4.30283320223224e-05
7.26000000000000e+00 1.41090682174294e-04 4.19626590322044e-05
7.30000000000000e+00 1.36923357095623e-04 4.09262415488704e-05
7.34000000000000e+00 1.32861305133240e-04 3.99183686387072e-05
7.38000000000000e+00 1.28901594047900e-04 3.89382535925983e-05
7.42000000000000e+00 1.25041356680229e-04 3.79795176179857e-05
7.46000000000000e+00 1.21277295507404e-04 3.70367019611823e-05
7.50000000000000e+00 1.17607767626543e-04 3.61099056027243e-05
7.54000000000000e+00 1.14031127962355e-04 3.51991518218505e-05
7.58000000000000e+00 1.10545730811836e-04 3.43044488408114e-05
7.62000000000000e+00 1.07149931323509e-04 3.34277075553237e-05
7.66000000000000e+00 1.03842276051980e-04 3.25705064624797e-05
7.70000000000000e+00 1.00620761603311e-04 3.17321592089487e-05
7.74000000000000e+00 9.74833845695510e-05 3.09117265014931e-05
7.78000000000000e+00 9.44282413910506e-05 3.01086687127417e-05
7.82000000000000e+00 9.14535539959988e-05 2.93237762983719e-05
7.86000000000000e+00 8.85576718054443e-05 2.85576634163692e-05
7.90000000000000e+00 8.57386732049381e-05 2.78084346231048e-05
7.94000000000000e+00 8.29945154760432e-05 2.70730046743804e-05
7.98000000000000e+00 8.03234842375329e-05 2.63500503954971e-05
8.02000000000000e+00 7.77243146159324e-05 2.56383576326460e-05
8.06000000000000e+00 7.51946428519518e-05 2.49400709348970e-05
8.10000000000000e+00 7.27328864512408e-05 2.42581786723319e-05
8.14000000000000e+00 7.03374948042364e-05 2.35925457746423e-05
8.18000000000000e+00 6.80069276374606e-05 2.29429553546964e-05
8.22000000000000e+00 6.57396489753958e-05 2.23078740087744e-05
8.26000000000000e+00 6.35340057293805e-05 2.16860016973261e-05
8.30000000000000e+00 6.13887518170593e-05 2.10775005573986e-05
8.34000000000000e+00 5.93026729321149e-05 2.04826840610974e-05
8.38000000000000e+00 5.72745181042827e-05 1.99015955394748e-05
8.42000000000000e+00 5.53029805914011e-05 1.93328218313297e-05
8.46000000000000e+00 5.33866201772107e-05 1.87751876476884e-05
8.50000000000000e+00 5.15243969631906e-05 1.82288181448462e-05
8.54000000000000e+00 4.97152766814840e-05 1.76938706984014e-05
8.58000000000000e+00 4.79582061136677e-05 1.71703922838054e-05
8.62000000000000e+00 4.62521067513455e-05 1.66587237179988e-05
8.66000000000000e+00 4.45959502640610e-05 1.61591188889015e-05
8.70000000000000e+00 4.29885904616579e-05 1.56706912537054e-05
8.74000000000000e+00 4.14287956654207e-05 1.51919807426261e-05
8.78000000000000e+00 3.99154922859569e-05 1.47224127160677e-05
8.82000000000000e+00 3.84478390627984e-05 1.42628580346025e-05
8.86000000000000e+00 3.70250817556378e-05 1.38139946154608e-05
8.90000000000000e+00 3.56462119401593e-05 1.33749187692316e-05
8.94000000000000e+00 3.43101165547888e-05 1.29441143889880e-05
8.98000000000000e+00 3.30158495454400e-05 1.25210332185511e-05
9.02000000000000e+00 3.17627163379522e-05 1.21076787024753e-05
9.06000000000000e+00 3.05502481599403e-05 1.17056092776391e-05
9.10000000000000e+00 2.93773644021333e-05 1.13143716899396e-05
9.14000000000000e+00 2.82429692666716e-05 1.09333731653261e-05
9.18000000000000e+00 2.71460298565613e-05 1.05622950324380e-05
9.22000000000000e+00 2.60856007419959e-05 1.02010873653104e-05
9.26000000000000e+00 2.50607546987036e-05 9.84967540570329e-06
9.30000000000000e+00 2.40705544704627e-05 9.50777404482911e-06
9.34000000000000e+00 2.31140540767101e-05 9.17498872002340e-06
9.38000000000000e+00 2.21903489586000e-05 8.85109403652580e-06
9.42000000000000e+00 2.12985921834624e-05 8.53606059430425e-06
9.46000000000000e+00 2.04379553070659e-05 8.22983277420293e-06
9.50000000000000e+00 1.96075952986128e-05 7.93223722415191e-06
9.54000000000000e+00 1.88066735470030e-05 7.64306510122488e-06
9.58000000000000e+00 1.80343718993755e-05 7.36215661175277e-06
9.62000000000000e+00 1.72898981059863e-05 7.08964861265543e-06
9.66000000000000e+00 1.65725098278418e-05 6.82560798104220e-06
9.70000000000000e+00 1.58813859341796e-05 6.56970492635435e-06
9.74000000000000e+00 1.52157001698228e-05 6.32151265657353e-06
9.78000000000000e+00 1.45746719749376e-05 6.08077616054482e-06
9.82000000000000e+00 1.39575829535294e-05 5.84753199373368e-06
9.86000000000000e+00 1.33637517219949e-05 5.62176889423536e-06
9.90000000000000e+00 1.27924510151552e-05 5.40309845927962e-06
9.94000000000000e+00 1.22429350027053e-05 5.19098257098155e-06
9.98000000000000e+00 1.17145176685215e-05 4.98514409158721e-06
1.00200000000000e+01 1.12065983671226e-05 4.78601005299115e-06
1.00600000000000e+01 1.07186424989892e-05 4.59393035854991e-06
1.01000000000000e+01 1.02499519825292e-05 4.40874874340020e-06
1.01400000000000e+01 9.79984835718081e-06 4.23025600262695e-06
1.01800000000000e+01 9.36767318605557e-06 4.05824971401400e-06
1.02200000000000e+01 8.95278793251949e-06 3.89248288364977e-06
1.02600000000000e+01 8.55456458461118e-06 3.73272616818111e-06
1.03000000000000e+01 8.17241184003534e-06 3.57880180004401e-06
1.03400000000000e+01 7.80575533135340e-06 3.43053453259816e-06
1.03800000000000e+01 7.45403739709741e-06 3.28775280456532e-06
1.04200000000000e+01 7.11671680063747e-06 3.15027262175927e-06
1.04600000000000e+01 6.79326567586813e-06 3.01791784730729e-06
1.05000000000000e+01 6.48317779755210e-06 2.89053211648713e-06
1.05400000000000e+01 6.18596223282083e-06 2.76796295165300e-06
1.05800000000000e+01 5.90114259097344e-06 2.65005969817147e-06
1.06200000000000e+01 5.62825657788903e-06 2.53666409296099e-06
1.06600000000000e+01 5.36685447660776e-06 2.42762395225725e-06
1.07000000000000e+01 5.11650419663423e-06 2.32279948305888e-06
1.07400000000000e+01 4.87678707062733e-06 2.22205386844746e-06
1.07800000000000e+01 4.64729761452740e-06 2.12525360903594e-06
1.08200000000000e+01 4.42764325575324e-06 2.03226232992203e-06
1.08600000000000e+01 4.21744292599444e-06 1.94294854263851e-06
1.09000000000000e+01 4.01633017107109e-06 1.85718944431972e-06
1.09400000000000e+01 3.82395037913349e-06 1.77486508494456e-06
1.09800000000000e+01 3.63996056413668e-06 1.69585870159970e-06
1.10200000000000e+01 3.46402911030035e-06 1.62004353466484e-06
1.10600000000000e+01 3.29583309193500e-06 1.54729956171897e-06
1.11000000000000e+01 3.13506537685010e-06 1.47752165033712e-06
1.11400000000000e+01 2.98142900647983e-06 1.41060712450604e-06
1.11800000000000e+01 2.83463700921453e-06 1.34645614989921e-06
1.12200000000000e+01 2.69441217520142e-06 1.28496194761909e-06
1.12600000000000e+01 2.56048497163213e-06 1.22602322031026e-06
1.13000000000000e+01 2.43259886286103e-06 1.16955077730342e-06
1.13400000000000e+01 2.31050617656041e-06 1.11545811426823e-06
1.13800000000000e+01 2.19396764893223e-06 1.06366039279260e-06
1.14200000000000e+01 2.08275212526799e-06 1.01407130425894e-06
1.14600000000000e+01 1.97663594615854e-06 9.66607900146255e-07
1.15000000000000e+01 1.87540466716821e-06 9.21192505302515e-07
1.15400000000000e+01 1.77885143351337e-06 8.77749587060607e-07
1.15800000000000e+01 1.68677680828919e-06 8.36205927010512e-07
1.16200000000000e+01 1.59898857828696e-06 7.96468886049236e-07
1.16600000000000e+01 1.51529732221462e-06 7.58454725931606e-07
1.17000000000000e+01 1.43552908463097e-06 7.22101912937508e-07
1.17400000000000e+01 1.35951604151241e-06 6.87350571943048e-07
1.17800000000000e+01 1.28709620346662e-06 6.54142052912106e-07
1.18200000000000e+01 1.21811321325027e-06 6.22322428062860e-07
1.18600000000000e+01 1.15239711698633e-06 5.91770719061638e-07
1.19000000000000e+01 1.08982277087890e-06 5.62454876811618e-07
1.19400000000000e+01 1.03026794569980e-06 5.34341115431127e-07
1.19800000000000e+01 9.73613485406003e-07 5.07395685293661e-07
1.20200000000000e+01 9.19743388047238e-07 4.81653371896926e-07
1.20600000000000e+01 8.68587451343748e-07 4.57049795867111e-07
1.21000000000000e+01 8.20033658630931e-07 4.33481959044153e-07
1.21400000000000e+01 7.73973251399499e-07 4.10918928613330e-07
1.21800000000000e+01 7.30300685613973e-07 3.89329543424181e-07
1.22200000000000e+01 6.88913618148267e-07 3.68728913774698e-07
1.22600000000000e+01 6.49722649544649e-07 3.49115977186239e-07
1.23000000000000e+01 6.12622193154948e-07 3.30448527919809e-07
1.23400000000000e+01 5.77511046559116e-07 3.12686245106255e-07
1.23800000000000e+01 5.44292355108589e-07 2.95790420634422e-07
1.24200000000000e+01 5.12873507561725e-07 2.79803401715305e-07
1.24600000000000e+01 4.83182926158314e-07 2.64740273719439e-07
1.25000000000000e+01 4.55119145007558e-07 2.50547520939350e-07
1.25400000000000e+01 4.28586591883322e-07 2.37175975764279e-07
1.25800000000000e+01 4.03495185870470e-07 2.24579247690917e-07
1.26200000000000e+01 3.79759988473549e-07 2.12650508383639e-07
