Energy (eV)          EEDF (eV^-(3/2))     First Anisotropy
2.98000000000000e-02 1.35716506707909e+00 2.17715626917541e-03
8.94000000000000e-02 1.26663892846757e+00 3.48692518461121e-03
1.49000000000000e-01 1.18215109865930e+00 4.32517703775667e-03
2.08600000000000e-01 1.10329880809215e+00 4.81267694090782e-03
2.68200000000000e-01 1.02970615289205e+00 5.10876434654131e-03
3.27800000000000e-01 9.61022302867555e-01 5.27938442921218e-03
3.87400000000000e-01 8.96919829035615e-01 5.36122483779264e-03
4.47000000000000e-01 8.37093142705292e-01 5.37773420873951e-03
5.06600000000000e-01 7.81257038678312e-01 5.34514272391776e-03
5.66200000000000e-01 7.29145335621619e-01 5.27526862122591e-03
6.25800000000000e-01 6.80509607130306e-01 5.17701767470930e-03
6.85400000000000e-01 6.35117997431666e-01 5.05726427734151e-03
7.45000000000000e-01 5.92754116084610e-01 4.92140687801280e-03
8.04600000000000e-01 5.53216006405253e-01 4.77373759195457e-03
8.64200000000000e-01 5.16315182700968e-01 4.61769890099612e-03
9.23800000000000e-01 4.81875731723230e-01 4.45606819253995e-03
9.83400000000000e-01 4.49733474055678e-01 4.29109422176164e-03
1.04300000000000e+00 4.19735181439598e-01 4.12460040883715e-03
1.10260000000000e+00 3.91737846305658e-01 3.95806457291100e-03
1.16220000000000e+00 3.65608000029605e-01 3.79268149645906e-03
1.22180000000000e+00 3.41221076661944e-01 3.62941270317790e-03
1.28140000000000e+00 3.18460819098347e-01 3.46902653168564e-03
1.34100000000000e+00 2.97218724859914e-01 3.31213072172071e-03
1.40060000000000e+00 2.77393528841211e-01 3.15919913905556e-03
1.46020000000000e+00 2.58890720560244e-01 3.01059385351429e-03
1.51980000000000e+00 2.41622093609002e-01 2.86658349146551e-03
1.57940000000000e+00 2.25505325156727e-01 2.72735857188672e-03
1.63900000000000e+00 2.10463583501316e-01 2.59304437878027e-03
1.69860000000000e+00 1.96425161797978e-01 2.46371180588459e-03
1.75820000000000e+00 1.83323136219052e-01 2.33938652109965e-03
1.81780000000000e+00 1.71095046915396e-01 2.22005673013086e-03
1.87740000000000e+00 1.59682600258391e-01 2.10567976615196e-03
1.93700000000000e+00 1.49031390943128e-01 1.99618769095637e-03
1.99660000000000e+00 1.39090642627961e-01 1.89149206033735e-03
2.05620000000000e+00 1.29812965874027e-01 1.79148798028802e-03
2.11580000000000e+00 1.21154132230775e-01 1.69605755954720e-03
2.17540000000000e+00 1.13072863390519e-01 1.60507284691809e-03
2.23500000000000e+00 1.05530634406900e-01 1.51839832780978e-03
2.29460000000000e+00 9.84914900391253e-02 1.43589304295246e-03
2.35420000000000e+00 9.19218733465028e-02 1.35741238271958e-03
2.41380000000000e+00 8.57904657161133e-02 1.28280960256996e-03
2.47340000000000e+00 8.00680375610255e-02 1.21193709849754e-03
2.53300000000000e+00 7.47273089772922e-02 1.14464747580870e-03
2.59260000000000e+00 6.97428196954572e-02 1.08079443984825e-03
2.65220000000000e+00 6.50908077066059e-02 1.02023353331305e-03
2.71180000000000e+00 6.07490959843471e-02 9.62822741406030e-04
2.77140000000000e+00 5.66969867627082e-02 9.08422983193572e-04
2.83100000000000e+00 5.29151628659460e-02 8.56898505056041e-04
2.89060000000000e+00 4.93855956198939e-02 8.08117189998157e-04
2.95020000000000e+00 4.60914589058420e-02 7.61950794759049e-04
3.00980000000000e+00 4.30170489472267e-02 7.18275125085941e-04
3.06940000000000e+00 4.01477094467400e-02 6.76970158173291e-04
3.12900000000000e+00 3.74697617169708e-02 6.37920120089467e-04
3.18860000000000e+00 3.49704394714995e-02 6.01013524989530e-04
3.24820000000000e+00 3.26378279655811e-02 5.66143182023391e-04
3.30780000000000e+00 3.04608071962898e-02 5.33206175074730e-04
3.36740000000000e+00 2.84289988913489e-02 5.02103819791982e-04
3.42700000000000e+00 2.65327170339319e-02 4.72741601784738e-04
3.48660000000000e+00 2.47629216875776e-02 4.45029099345685e-04
3.54620000000000e+00 2.31111759010920e-02 4.18879893609968e-04
3.60580000000000e+00 2.15696054879970e-02 3.94211468671937e-04
3.66540000000000e+00 2.01308614887852e-02 3.70945103836619e-04
3.72500000000000e+00 1.87880851370307e-02 3.49005759883420e-04
3.78460000000000e+00 1.75348751623454e-02 3.28321960957313e-04
3.84420000000000e+00 1.63652572743042e-02 3.08825673473253e-04
3.90380000000000e+00 1.52736556818659e-02 2.90452183218759e-04
3.96340000000000e+00 1.42548665125164e-02 2.73139971664000e-04
4.02300000000000e+00 1.33040330044181e-02 2.56830592335111e-04
4.08260000000000e+00 1.24166223533019e-02 2.41468547972342e-04
4.14220000000000e+00 1.15884041037268e-02 2.27001169077430e-04
4.20180000000000e+00 1.08154299816940e-02 2.13378494352394e-04
4.26140000000000e+00 1.00940150724729e-02 2.00553153442878e-04
4.32100000000000e+00 9.42072025391180e-03 1.88480252321652e-04
4.38060000000000e+00 8.79233580148813e-03 1.77117261580573e-04
4.44020000000000e+00 8.20586608694067e-03 1.66423907840878e-04
4.49980000000000e+00 7.65851529753972e-03 1.56362068441190e-04
4.55940000000000e+00 7.14767410791577e-03 1.46895669518972e-04
4.61900000000000e+00 6.67090724090893e-03 1.37990587563670e-04
4.67860000000000e+00 6.22594185813928e-03 1.29614554487592e-04
4.73820000000000e+00 5.81065672495386e-03 1.21737066233088e-04
4.79780000000000e+00 5.42307209809734e-03 1.14329294911233e-04
4.85740000000000e+00 5.06134028789930e-03 1.07364004447473e-04
4.91700000000000e+00 4.72373684998586e-03 1.00815469693106e-04
4.97660000000000e+00 4.40865236452528e-03 9.46593989476900e-05
5.03620000000000e+00 4.11458476381735e-03 8.88728598260604e-05
5.09580000000000e+00 3.84013217165079e-03 8.34342083944043e-05
5.15540000000000e+00 3.58398622029263e-03 7.83230214924061e-05
5.21500000000000e+00 3.34492581325025e-03 7.35200321526728e-05
5.27460000000000e+00 3.12181130407201e-03 6.90070680242201e-05
5.33420000000000e+00 2.91357906343577e-03 6.47669927035882e-05
5.39380000000000e+00 2.71923640862549e-03 6.07836498749779e-05
5.45340000000000e+00 2.53785687122387e-03 5.70418101595084e-05
5.51300000000000e+00 2.36857578046104e-03 5.35271205731822e-05
5.57260000000000e+00 2.21058614116452e-03 5.02260564932747e-05
5.63220000000000e+00 2.06313478665963e-03 4.71258760335468e-05
5.69180000000000e+00 1.92551878828063e-03 4.42145767298315e-05
5.75140000000000e+00 1.79708210437604e-03 4.14808544390801e-05
5.81100000000000e+00 1.67721245283323e-03 3.89140643568144e-05
5.87060000000000e+00 1.56533839221307e-03 3.65041840600480e-05
5.93020000000000e+00 1.46092659757984e-03 3.42417784850733e-05
5.98980000000000e+00 1.36347931803981e-03 3.21179667520055e-05
6.04940000000000e+00 1.27253200386798e-03 3.01243907505986e-05
6.10900000000000e+00 1.18765109191115e-03 2.82531854045646e-05
6.16860000000000e+00 1.10843193870988e-03 2.64969505344077e-05
6.22820000000000e+00 1.03449689148609e-03 2.48487242416009e-05
6.28780000000000e+00 9.65493487800419e-04 2.33019577397694e-05
6.34740000000000e+00 9.01092775296706e-04 2.18504915613812e-05
6.40700000000000e+00 8.40987743523513e-04 2.04885330712550e-05
6.46660000000000e+00 7.84891860356872e-04 1.92106352209877e-05
6.52620000000000e+00 7.32537706047137e-04 1.80116764811427e-05
6.58580000000000e+00 6.83675698378140e-04 1.68868418907371e-05
6.64540000000000e+00 6.38072902861277e-04 1.58316051661962e-05
6.70500000000000e+00 5.95511922292475e-04 1.48417118145174e-05
6.76460000000000e+00 5.55789860378352e-04 1.39131631978830e-05
6.82420000000000e+00 5.18717354490975e-04 1.30422014993919e-05
6.88380000000000e+00 4.84117672940181e-04 1.22252955419272e-05
6.94340000000000e+00 4.51825872459978e-04 1.14591274144544e-05
7.00300000000000e+00 4.21688011892607e-04 1.07405798622379e-05
7.06260000000000e+00 3.93560418321751e-04 1.00667243995771e-05
7.12220000000000e+00 3.67309002156406e-04 9.43481010570066e-06
7.18180000000000e+00 3.42808617900277e-04 8.84225306641217e-06
7.24140000000000e+00 3.19942467559391e-04 8.28662642595798e-06
7.30100000000000e+00 2.98601543843829e-04 7.76565101538789e-06
7.36060000000000e+00 2.78684110509233e-04 7.27718652540345e-06
7.42020000000000e+00 2.60095217360771e-04 6.81922319333791e-06
7.47980000000000e+00 2.42746247607487e-04 6.38987397548828e-06
7.53940000000000e+00 2.26554495409200e-04 5.98736717752609e-06
7.59900000000000e+00 2.11442771602019e-04 5.61003951715025e-06
7.65860000000000e+00 1.97339035722917e-04 5.25632959451625e-06
7.71820000000000e+00 1.84176052579132e-04 4.92477174728144e-06
7.77780000000000e+00 1.71891071725207e-04 4.61399026834978e-06
7.83740000000000e+00 1.60425528319679e-04 4.32269396558309e-06
7.89700000000000e+00 1.49724763935334e-04 4.04967104387141e-06
7.95660000000000e+00 1.39737765992082e-04 3.79378429102522e-06
8.01620000000000e+00 1.30416924570284e-04 3.55396654996859e-06
8.07580000000000e+00 1.21717805445199e-04 3.32921646067821e-06
8.13540000000000e+00 1.13598938260588e-04 3.11859445622916e-06
8.19500000000000e+00 1.06021618831625e-04 2.92121899817778e-06
8.25460000000000e+00 9.89497246346905e-05 2.73626303733612e-06
8.31420000000000e+00 9.23495426044234e-05 2.56295068677426e-06
8.37380000000000e+00 8.61896084171239e-05 2.40055409462678e-06
8.43340000000000e+00 8.04405564943354e-05 2.24839050498142e-06
8.49300000000000e+00 7.50749800115439e-05 2.10581949579149e-06
8.55260000000000e+00 7.00673002446299e-05 1.97224038338262e-06
8.61220000000000e+00 6.53936446312236e-05 1.84708978371876e-06
8.67180000000000e+00 6.10317329656568e-05 1.72983932115511e-06
8.73140000000000e+00 5.69607711849834e-05 1.61999347593744e-06
8.79100000000000e+00 5.31613522397236e-05 1.51708756221025e-06
8.85060000000000e+00 4.96153635767667e-05 1.42068582877149e-06
8.91020000000000e+00 4.63059007933833e-05 1.33037967526036e-06
8.96980000000000e+00 4.32171870507210e-05 1.24578597688931e-06
9.02940000000000e+00 4.03344978626113e-05 1.16654551123146e-06
9.08900000000000e+00 3.76440909011419e-05 1.09232148095313e-06
9.14860000000000e+00 3.51331404843647e-05 1.02279812673801e-06
9.20820000000000e+00 3.27896764338296e-05 9.57679424986453e-07
9.26780000000000e+00 3.06025270104651e-05 8.96687865191171e-07
9.32740000000000e+00 2.85612656567733e-05 8.39563302190429e-07
9.38700000000000e+00 2.66561612914457e-05 7.86061878782691e-07
9.44660000000000e+00 2.48781319194466e-05 7.35955014453215e-07
9.50620000000000e+00 2.32187013364151e-05 6.89028456214550e-07
9.56580000000000e+00 2.16699587209858e-05 6.45081387799820e-07
9.62540000000000e+00 2.02245209223975e-05 6.03925593671008e-07
9.68500000000000e+00 1.88754972636094e-05 5.65384674514870e-07
9.74460000000000e+00 1.76164566921316e-05 5.29293311097389e-07
9.80420000000000e+00 1.64413971219747e-05 4.95496573534410e-07
9.86380000000000e+00 1.53447168205634e-05 4.63849273211981e-07
9.92340000000000e+00 1.43211877042114e-05 4.34215354755592e-07
9.98300000000000e+00 1.33659304148517e-05 4.06467325603435e-07
1.00426000000000e+01 1.24743910592083e-05 3.80485720885653e-07
1.01022000000000e+01 1.16423194995201e-05 3.56158601449730e-07
1.01618000000000e+01 1.08657490923254e-05 3.33381083002300e-07
1.02214000000000e+01 1.01409777787182e-05 3.12054894460001e-07
1.02810000000000e+01 9.46455043592833e-06 2.92087963717246e-07
1.03406000000000e+01 8.83324240609406e-06 2.73394029147131e-07
1.04002000000000e+01 8.24404412370434e-06 2.55892275253632e-07
1.04598000000000e+01 7.69414676842736e-06 2.39506990989171e-07
1.05194000000000e+01 7.18092887492948e-06 2.24167249341793e-07
1.05790000000000e+01 6.70194383585117e-06 2.09806606881028e-07
1.06386000000000e+01 6.25490823836416e-06 1.96362822031267e-07
1.06982000000000e+01 5.83769097870796e-06 1.83777590916458e-07
1.07578000000000e+01 5.44830310281273e-06 1.71996299690444e-07
1.08174000000000e+01 5.08488832457669e-06 1.60967792333497e-07
1.08770000000000e+01 4.74571417659711e-06 1.50644152957956e-07
1.09366000000000e+01 4.42916375116845e-06 1.40980501724357e-07
1.09962000000000e+01 4.13372799217571e-06 1.31934803524508e-07
1.10558000000000e+01 3.85799850113674e-06 1.23467688639624e-07
1.11154000000000e+01 3.60066082309864e-06 1.15542284630268e-07
1.11750000000000e+01 3.36048818038095e-06 1.08124058760430e-07
1.12346000000000e+01 3.13633562429289e-06 1.01180670300990e-07
1.12942000000000e+01 2.92713457694519e-06 9.46818320980799e-08
1.13538000000000e+01 2.73188773713586e-06 8.85991808296968e-08
1.14134000000000e+01 2.54966432602563e-06 8.29061554094463e-08
1.14730000000000e+01 2.37959564993810e-06 7.75778830296874e-08
1.15326000000000e+01 2.22087095913167e-06 7.25910723676735e-08
1.15922000000000e+01 2.07273358280122e-06 6.79239135077247e-08
1.16518000000000e+01 1.93447732188446e-06 6.35559841601026e-08
1.17114000000000e+01 1.80544308247653e-06 5.94681617832002e-08
1.17710000000000e+01 1.68501573380402e-06 5.56425412400203e-08
1.18306000000000e+01 1.57262117577943e-06 5.20623576427884e-08
1.18902000000000e+01 1.46772360215689e-06 4.87119140610067e-08
1.19498000000000e+01 1.36982294624179e-06 4.55765137884107e-08
1.20094000000000e+01 1.27845249697767e-06 4.26423968832006e-08
1.20690000000000e+01 1.19317667404583e-06 3.98966807136697e-08
1.21286000000000e+01 1.11358895137106e-06 3.73273042580161e-08
1.21882000000000e+01 1.03930991913445e-06 3.49229759227493e-08
1.22478000000000e+01 9.69985475054650e-07 3.26731246587804e-08
1.23074000000000e+01 9.05285136314835e-07 3.05678541680453e-08
1.23670000000000e+01 8.44900464088286e-07 2.85979000064313e-08
1.24266000000000e+01 7.88543593151782e-07 2.67545894008883e-08
1.24862000000000e+01 7.35945859577312e-07 2.50298036099823e-08
1.25458000000000e+01 6.86856519960003e-07 2.34159426678101e-08
1.26054000000000e+01 6.41041556076592e-07 2.19058923611996e-08
1.26650000000000e+01 5.98282559276031e-07 2.04929932995071e-08
1.27246000000000e+01 5.58375689283879e-07 1.91710119451260e-08
1.27842000000000e+01 5.21130702456929e-07 1.79341134810764e-08
1.28438000000000e+01 4.86370044855556e-07 1.67768363997934e-08
1.29034000000000e+01 4.53928005810301e-07 1.56940687044909e-08
1.29630000000000e+01 4.23649927947579e-07 1.46810256212930e-08
1.30226000000000e+01 3.95391469908544e-07 1.37332287267104e-08
1.30822000000000e+01 3.69017918246366e-07 1.28464864010298e-08
1.31418000000000e+01 3.44403545221600e-07 1.20168755238025e-08
1.32014000000000e+01 3.21431009434118e-07 1.12407243328842e-08
1.32610000000000e+01 2.99990796434335e-07 1.05145963734150e-08
1.33206000000000e+01 2.79980696646981e-07 9.83527546776157e-09
1.33802000000000e+01 2.61305318118608e-07 9.19975164178057e-09
1.34398000000000e+01 2.43875631766000e-07 8.60520794683535e-09
1.34994000000000e+01 2.27608546957583e-07 8.04900812081117e-09
1.35590000000000e+01 2.12426515404582e-07 7.52868503495052e-09
1.36186000000000e+01 1.98257161473566e-07 7.04192987668376e-09
1.36782000000000e+01 1.85032937158031e-07 6.58658202177177e-09
1.37378000000000e+01 1.72690800064202e-07 6.16061955202350e-09
1.37974000000000e+01 1.61171912875944e-07 5.76215037761221e-09
1.38570000000000e+01 1.50421362866079e-07 5.38940392560162e-09
1.39166000000000e+01 1.40387900116968e-07 5.04072335871872e-09
1.39762000000000e+01 1.31023693202398e-07 4.71455829068302e-09
1.40358000000000e+01 1.22284101166075e-07 4.40945796653217e-09
1.40954000000000e+01 1.14127460709688e-07 4.12406487837998e-09
1.41550000000000e+01 1.06514887576038e-07 3.85710878891409e-09
1.42146000000000e+01 9.94100911803860e-08 3.60740113669324e-09
1.42742000000000e+01 9.27792016063289e-08 3.37382979894655e-09
1.43338000000000e+01 8.65906081414621e-08 3.15535418911711e-09
1.43934000000000e+01 8.08148085830991e-08 2.95100066783407e-09
1.44530000000000e+01 7.54242685956574e-08 2.75985824734869e-09
1.45126000000000e+01 7.03932904492404e-08 2.58107457073594e-09
1.45722000000000e+01 6.56978905136699e-08 2.41385214834992e-09
1.46318000000000e+01 6.13156849239561e-08 2.25744483513213e-09
1.46914000000000e+01 5.72257828721546e-08 2.11115453341330e-09
1.47510000000000e+01 5.34086870169091e-08 1.97432810682483e-09
1.48106000000000e+01 4.98462005359151e-08 1.84635449184930e-09
1.48702000000000e+01 4.65213403782054e-08 1.72666199439620e-09
1.49298000000000e+01 4.34182563027139e-08 1.61471575959043e-09
1.49894000000000e+01 4.05221553171611e-08 1.51001540371225e-09
1.50490000000000e+01 3.78192311570442e-08 1.41209279793137e-09
1.51086000000000e+01 3.52965984685473e-08 1.32050999413658e-09
1.51682000000000e+01 3.29422313816076e-08 1.23485728377960e-09
1.52278000000000e+01 3.07449061803047e-08 1.15475138123038e-09
1.52874000000000e+01 2.86941477972707e-08 1.07983372368219e-09
1.53470000000000e+01 2.67801798770510e-08 1.00976888015243e-09
1.54066000000000e+01 2.49938781703571e-08 9.44243062599837e-10
1.54662000000000e+01 2.33267270370346e-08 8.82962732623722e-10
1.55258000000000e+01 2.17707788503855e-08 8.25653297627758e-10
1.55854000000000e+01 2.03186161093195e-08 7.72057890720597e-10
1.56450000000000e+01 1.89633160777153e-08 7.21936228991384e-10
1.57046000000000e+01 1.76984177824195e-08 6.75063545140261e-10
1.57642000000000e+01 1.65178912125585e-08 6.31229587764369e-10
1.58238000000000e+01 1.54161085733290e-08 5.90237685899993e-10
1.58834000000000e+01 1.43878174572296e-08 5.51903873702444e-10
1.59430000000000e+01 1.34281158048344e-08 5.16056071408374e-10
1.60026000000000e+01 1.25324285357427e-08 4.82533318971578e-10
1.60622000000000e+01 1.16964857383010e-08 4.51185058994021e-10
1.61218000000000e+01 1.09163023141205e-08 4.21870465789816e-10
1.61814000000000e+01 1.01881589803556e-08 3.94457817622086e-10
1.62410000000000e+01 9.50858453917445e-09 3.68823909342023e-10
1.63006000000000e+01 8.87433932989842e-09 3.44853502836685e-10
1.63602000000000e+01 8.28239978492314e-09 3.22438812858081e-10
1.64198000000000e+01 7.72994401579640e-09 3.01479025961472e-10
1.64794000000000e+01 7.21433836073889e-09 2.81879850426285e-10
1.65390000000000e+01 6.73312482947737e-09 2.63553095169223e-10
1.65986000000000e+01 6.28400938553725e-09 2.46416275786679e-10
1.66582000000000e+01 5.86485101013424e-09 2.30392245982902e-10
1.67178000000000e+01 5.47365149553033e-09 2.15408852752099e-10
1.67774000000000e+01 5.10854591919730e-09 2.01398613787277e-10
1.68370000000000e+01 4.76779375337612e-09 1.88298415686518e-10
1.68966000000000e+01 4.44977056764995e-09 1.76049231619075e-10
1.69562000000000e+01 4.15296028497517e-09 1.64595857199434e-10
1.70158000000000e+01 3.87594795425367e-09 1.53886663397835e-10
1.70754000000000e+01 3.61741300499171e-09 1.43873365390908e-10
1.71350000000000e+01 3.37612295188902e-09 1.34510806326442e-10
1.71946000000000e+01 3.15092751934693e-09 1.25756755042191e-10
1.72542000000000e+01 2.94075315788563e-09 1.17571716840234e-10
1.73138000000000e+01 2.74459792632956e-09 1.09918756476141e-10
1.73734000000000e+01 2.56152671536312e-09 1.02763332576201e-10
1.74330000000000e+01 2.39066678968667e-09 9.60731427464801e-11
1.74926000000000e+01 2.23120362752124e-09 8.98179786848474e-11
1.75522000000000e+01 2.08237703762824e-09 8.39695906513233e-11
1.76118000000000e+01 1.94347753533315e-09 7.85015606935913e-11
1.76714000000000e+01 1.81384296027708e-09 7.33891840632719e-11
1.77310000000000e+01 1.69285531977232e-09 6.86093582948625e-11
1.77906000000000e+01 1.57993784271361e-09 6.41404794532157e-11
1.78502000000000e+01 1.47455223000054e-09 5.99623450872183e-11
1.79098000000000e+01 1.37619608836326e-09 5.60560634570802e-11
1.79694000000000e+01 1.28440053535821e-09 5.24039686304850e-11
1.80290000000000e+01 1.19872796411626e-09 4.89895410689109e-11
1.80886000000000e+01 1.11876995718751e-09 4.57973333498037e-11
1.81482000000000e+01 1.04414533953756e-09 4.28129006931060e-11
1.82078000000000e+01 9.74498361413612e-10 4.00227359819929e-11
1.82674000000000e+01 9.09497002417694e-10 3.74142089876426e-11
1.83270000000000e+01 8.48831388702236e-10 3.49755095265669e-11
1.83866000000000e+01 7.92212315742483e-10 3.26955942965188e-11
1.84462000000000e+01 7.39369869643481e-10 3.05641371533604e-11
1.85058000000000e+01 6.90052140409186e-10 2.85714826065939e-11
1.85654000000000e+01 6.44024021039572e-10 2.67086023255896e-11
1.86250000000000e+01 6.01066086730825e-10 2.49670544619527e-11
1.86846000000000e+01 5.60973548835546e-10 2.33389456060171e-11
1.87442000000000e+01 5.23555278596304e-10 2.18168952071971e-11
1.88038000000000e+01 4.88632895998472e-10 2.03940022989104e-11
