Energy (eV)          EEDF (eV^-(3/2))     First Anisotropy
6.85714285714286e-02 8.48598403545447e-02 8.42048895606188e-05
2.05714285714286e-01 8.27944092850995e-02 1.37817376001431e-04
3.42857142857143e-01 8.07792494100173e-02 1.78707952452129e-04
4.80000000000000e-01 7.88131371622897e-02 2.07876474637870e-04
6.17142857142857e-01 7.68948787523232e-02 2.30681701600238e-04
7.54285714285714e-01 7.50233094544612e-02 2.49206408201209e-04
8.91428571428571e-01 7.31972928869496e-02 2.64556588812309e-04
1.02857142857143e+00 7.14157203269764e-02 2.77416659482339e-04
1.16571428571429e+00 6.96775100322095e-02 2.88251219002467e-04
1.30285714285714e+00 6.79816066096484e-02 2.97395962385467e-04
1.44000000000000e+00 6.63269803246265e-02 3.05104617010079e-04
1.57714285714286e+00 6.47126265201368e-02 3.11575588659115e-04
1.71428571428571e+00 6.31375649917661e-02 3.16968196911349e-04
1.85142857142857e+00 6.16008394013953e-02 3.21413121362640e-04
1.98857142857143e+00 6.01015166693599e-02 3.25019422291359e-04
2.12571428571429e+00 5.86386864355935e-02 3.27879431745276e-04
2.26285714285714e+00 5.72114605042164e-02 3.30072268906165e-04
2.40000000000000e+00 5.58189722840726e-02 3.31666426318341e-04
2.53714285714286e+00 5.44603762829900e-02 3.32721717269279e-04
2.67428571428571e+00 5.31348475874842e-02 3.33290771878800e-04
2.81142857142857e+00 5.18415813666558e-02 3.33420204646108e-04
2.94857142857143e+00 5.05797923689244e-02 3.33151538428378e-04
3.08571428571429e+00 4.93487144600776e-02 3.32521945847003e-04
3.22285714285714e+00 4.81476001569288e-02 3.31564854168282e-04
3.36000000000000e+00 4.69757201617882e-02 3.30310439855187e-04
3.49714285714286e+00 4.58323629314894e-02 3.28786038897804e-04
3.63428571428571e+00 4.47168342413372e-02 3.27016491273276e-04
3.77142857142857e+00 4.36284567665379e-02 3.25024431432232e-04
3.90857142857143e+00 4.25665696619246e-02 3.22830534475810e-04
4.04571428571429e+00 4.15305281698710e-02 3.20453726583772e-04
4.18285714285714e+00 4.05197032281755e-02 3.17911368099628e-04
4.32000000000000e+00 3.95334810806188e-02 3.15219410463766e-04
4.45714285714286e+00 3.85712629119041e-02 3.12392533060059e-04
4.59428571428571e+00 3.76324644814897e-02 3.09444263842401e-04
4.73142857142857e+00 3.67165157708123e-02 3.06387085347831e-04
4.86857142857143e+00 3.58228606311865e-02 3.03232527798643e-04
5.00571428571429e+00 3.49509564522173e-02 2.99991251506915e-04
5.14285714285714e+00 3.41002738319517e-02 2.96673121653099e-04
5.28000000000000e+00 3.32702962503441e-02 2.93287273818634e-04
5.41714285714286e+00 3.24605197608062e-02 2.89842172866541e-04
5.55428571428571e+00 3.16704526824659e-02 2.86345666527150e-04
5.69142857142857e+00 3.08996153029951e-02 2.82805033665629e-04
5.82857142857143e+00 3.01475395831651e-02 2.79227027512316e-04
5.96571428571429e+00 2.94137688769031e-02 2.75617914733602e-04
6.10285714285714e+00 2.86978576537730e-02 2.71983512033694e-04
6.24000000000000e+00 2.79993712248622e-02 2.68329218500880e-04
6.37714285714286e+00 2.73178854824992e-02 2.64660045245599e-04
6.51428571428571e+00 2.66529866415049e-02 2.60980643006204e-04
6.65142857142857e+00 2.60042709889297e-02 2.57295327401535e-04
6.78857142857143e+00 2.53713446359354e-02 2.53608101786254e-04
6.92571428571429e+00 2.47538232816740e-02 2.49922678175363e-04
7.06285714285714e+00 2.41513319797758e-02 2.46242497371117e-04
7.20000000000000e+00 2.35635049080824e-02 2.42570746747642e-04
7.33714285714286e+00 2.29899851491740e-02 2.38910376768799e-04
7.47428571428572e+00 2.24304244727585e-02 2.35264116655797e-04
7.61142857142857e+00 2.18844831249512e-02 2.31634488860988e-04
7.74857142857143e+00 2.13518296197890e-02 2.28023822229039e-04
7.88571428571429e+00 2.08321405401880e-02 2.24434264141869e-04
8.02285714285714e+00 2.03251003414498e-02 2.20867792477741e-04
8.16000000000000e+00 1.98304011577415e-02 2.17326226116526e-04
8.29714285714286e+00 1.93477426171234e-02 2.13811234792412e-04
8.43428571428571e+00 1.88768316585048e-02 2.10324348582658e-04
8.57142857142857e+00 1.84173823542389e-02 2.06866966727999e-04
8.70857142857143e+00 1.79691157348773e-02 2.03440365658734e-04
8.84571428571429e+00 1.75317596214476e-02 2.00045706434891e-04
8.98285714285714e+00 1.71050484601036e-02 1.96684042235367e-04
9.12000000000000e+00 1.66887231594408e-02 1.93356324869562e-04
9.25714285714286e+00 1.62825309346494e-02 1.90063410929228e-04
9.39428571428572e+00 1.58862251535306e-02 1.86806067793618e-04
9.53142857142857e+00 1.54995651871505e-02 1.83584979232419e-04
9.66857142857143e+00 1.51223162624997e-02 1.80400750492461e-04
9.80571428571429e+00 1.47542493211993e-02 1.77253913023178e-04
9.94285714285714e+00 1.43951408803564e-02 1.74144929461761e-04
1.00800000000000e+01 1.40447728947299e-02 1.71074197180899e-04
1.02171428571429e+01 1.37029326306318e-02 1.68042053389691e-04
1.03542857142857e+01 1.33694125257656e-02 1.65048778166854e-04
1.04914285714286e+01 1.30440100762474e-02 1.62094598226871e-04
1.06285714285714e+01 1.27265277007755e-02 1.59179690797336e-04
1.07657142857143e+01 1.24167726301795e-02 1.56304185211820e-04
1.09028571428571e+01 1.21145567899419e-02 1.53468168179815e-04
1.10400000000000e+01 1.18196966775286e-02 1.50671685185634e-04
1.11771428571429e+01 1.15320132621371e-02 1.47914743396763e-04
1.13142857142857e+01 1.12513318652622e-02 1.45197314344309e-04
1.14514285714286e+01 1.09774820649461e-02 1.42519336144963e-04
1.15885714285714e+01 1.07102975823900e-02 1.39880716176997e-04
1.17257142857143e+01 1.04496161883253e-02 1.37281331913450e-04
1.18628571428571e+01 1.01952796041821e-02 1.34721034745528e-04
1.20000000000000e+01 9.94713339944114e-03 1.32199650712734e-04
1.21371428571429e+01 9.70502690649599e-03 1.29716982475952e-04
1.22742857142857e+01 9.46881312086884e-03 1.27272811126776e-04
1.24114285714286e+01 9.23834861993989e-03 1.24866897651049e-04
1.25485714285714e+01 9.01349346817663e-03 1.22498984776313e-04
1.26857142857143e+01 8.79411113785905e-03 1.20168797349818e-04
1.28228571428571e+01 8.58006842592913e-03 1.17876045150496e-04
1.29600000000000e+01 8.37123536802468e-03 1.15620423215250e-04
1.30971428571429e+01 8.16748516628046e-03 1.13401613186569e-04
1.32342857142857e+01 7.96869410587395e-03 1.11219284539580e-04
1.33714285714286e+01 7.77474148613502e-03 1.09073095544193e-04
1.35085714285714e+01 7.58550954125997e-03 1.06962694548674e-04
1.36457142857143e+01 7.40088337325042e-03 1.04887720084462e-04
1.37828571428571e+01 7.22075088195313e-03 1.02847802954872e-04
1.39200000000000e+01 7.04500269301605e-03 1.00842566317620e-04
1.40571428571429e+01 6.87353209673075e-03 9.88716266060016e-05
1.41942857142857e+01 6.70623497817731e-03 9.69345943596938e-05
1.43314285714286e+01 6.54300975888864e-03 9.50310748502117e-05
1.44685714285714e+01 6.38375733046785e-03 9.31606689740286e-05
1.46057142857143e+01 6.22838099789965e-03 9.13229731957438e-05
1.47428571428571e+01 6.07678642068614e-03 8.95175811106789e-05
1.48800000000000e+01 5.92888155243762e-03 8.77440833826261e-05
1.50171428571429e+01 5.78457658911398e-03 8.60020683703156e-05
1.51542857142857e+01 5.64378391051301e-03 8.42911226852072e-05
1.52914285714286e+01 5.50641803091316e-03 8.26108315886628e-05
1.54285714285714e+01 5.37239554345901e-03 8.09607796113655e-05
1.55657142857143e+01 5.24163507226873e-03 7.93405504043226e-05
1.57028571428571e+01 5.11405722290432e-03 7.77497279137784e-05
1.58400000000000e+01 4.98958453169607e-03 7.61878962363101e-05
1.59771428571429e+01 4.86814142196972e-03 7.46546400398068e-05
1.61142857142857e+01 4.74965415500907e-03 7.31495449317097e-05
1.62514285714286e+01 4.63405078832305e-03 7.16721977007256e-05
1.63885714285714e+01 4.52126112902853e-03 7.02221867428003e-05
1.65257142857143e+01 4.41121669340783e-03 6.87991018636269e-05
1.66628571428571e+01 4.30385066523245e-03 6.74025351650171e-05
1.68000000000000e+01 4.19909785323708e-03 6.60320808566280e-05
1.69371428571429e+01 4.09689465412230e-03 6.46873355329592e-05
1.70742857142857e+01 3.99717901143828e-03 6.33678984095263e-05
1.72114285714286e+01 3.89989038031801e-03 6.20733714588069e-05
1.73485714285714e+01 3.80496968838463e-03 6.08033596988345e-05
1.74857142857143e+01 3.71235930161356e-03 5.95574709746468e-05
1.76228571428571e+01 3.62200298926371e-03 5.83353166282864e-05
1.77600000000000e+01 3.53384588817956e-03 5.71365112919485e-05
1.78971428571429e+01 3.44783447153583e-03 5.59606730639859e-05
1.80342857142857e+01 3.36391651434940e-03 5.48074236531188e-05
1.81714285714286e+01 3.28204106369043e-03 5.36763884428803e-05
1.83085714285714e+01 3.20215840588767e-03 5.25671966824960e-05
1.84457142857143e+01 3.12422003772173e-03 5.14794812643446e-05
1.85828571428571e+01 3.04817863691580e-03 5.04128792307715e-05
1.87200000000000e+01 2.97398803216162e-03 4.93670315641410e-05
1.88571428571429e+01 2.90160317672588e-03 4.83415832921931e-05
1.89942857142857e+01 2.83098011951216e-03 4.73361835685177e-05
1.91314285714286e+01 2.76207597990888e-03 4.63504856893101e-05
1.92685714285714e+01 2.69484892026928e-03 4.53841472148551e-05
1.94057142857143e+01 2.62925812161011e-03 4.44368297533672e-05
1.95428571428571e+01 2.56526375878002e-03 4.35081993442108e-05
1.96800000000000e+01 2.50282697528617e-03 4.25979262542835e-05
1.98171428571429e+01 2.44190986101381e-03 4.17056850342974e-05
1.99542857142857e+01 2.38247542793828e-03 4.08311545555076e-05
2.00914285714286e+01 2.32448758889490e-03 3.99740179953747e-05
2.02285714285714e+01 2.26791113447916e-03 3.91339629100074e-05
2.03657142857143e+01 2.21271171255083e-03 3.83106810303936e-05
2.05028571428571e+01 2.15885580733853e-03 3.75038685517331e-05
2.06400000000000e+01 2.10631071829387e-03 3.67132259416345e-05
2.07771428571429e+01 2.05504454128892e-03 3.59384579627060e-05
2.09142857142857e+01 2.00502614822598e-03 3.51792736797408e-05
2.10514285714286e+01 1.95622516912300e-03 3.44353864258699e-05
2.11885714285714e+01 1.90861197271938e-03 3.37065138406421e-05
2.13257142857143e+01 1.86215764919325e-03 3.29923776818266e-05
2.14628571428571e+01 1.81683399257792e-03 3.22927040432898e-05
2.16000000000000e+01 1.77261348299641e-03 3.16072231778989e-05
2.17371428571429e+01 1.72946927079790e-03 3.09356694974266e-05
2.18742857142857e+01 1.68737515943611e-03 3.02777815602859e-05
2.20114285714286e+01 1.64630559035615e-03 2.96333020262149e-05
2.21485714285714e+01 1.60623562670818e-03 2.90019776706125e-05
2.22857142857143e+01 1.56714093877665e-03 2.83835592132613e-05
2.24228571428571e+01 1.52899778918365e-03 2.77778014817681e-05
2.25600000000000e+01 1.49178301796123e-03 2.71844632503984e-05
2.26971428571429e+01 1.45547402917042e-03 2.66033072251442e-05
2.28342857142857e+01 1.42004877652157e-03 2.60341000191622e-05
2.29714285714286e+01 1.38548575062732e-03 2.54766121015464e-05
2.31085714285714e+01 1.35176396532353e-03 2.49306177955855e-05
2.32457142857143e+01 1.31886294538692e-03 2.43958951245903e-05
2.33828571428571e+01 1.28676271408346e-03 2.38722259338619e-05
2.35200000000000e+01 1.25544378062362e-03 2.33593957456072e-05
2.36571428571429e+01 1.22488712887762e-03 2.28571937347576e-05
2.37942857142857e+01 1.19507420529668e-03 2.23654126971560e-05
2.39314285714286e+01 1.16598690816352e-03 2.18838489961898e-05
2.40685714285714e+01 1.13760757610160e-03 2.14123025504981e-05
2.42057142857143e+01 1.10991897772291e-03 2.09505766963712e-05
2.43428571428571e+01 1.08290430114983e-03 2.04984782781452e-05
2.44800000000000e+01 1.05654714347167e-03 2.00558175186860e-05
2.46171428571429e+01 1.03083150122942e-03 1.96224079899016e-05
2.47542857142857e+01 1.00574176026820e-03 1.91980665772041e-05
2.48914285714286e+01 9.81262686673883e-04 1.87826134265170e-05
2.50285714285714e+01 9.57379417119035e-04 1.83758719253972e-05
2.51657142857143e+01 9.34077450138743e-04 1.79776685810470e-05
2.53028571428571e+01 9.11342637313015e-04 1.75878330867082e-05
2.54400000000000e+01 8.89161174404494e-04 1.72061982068128e-05
2.55771428571429e+01 8.67519593336435e-04 1.68325997449449e-05
2.57142857142857e+01 8.46404753666549e-04 1.64668765069976e-05
2.58514285714286e+01 8.25803834946265e-04 1.61088702501820e-05
2.59885714285714e+01 8.05704328608871e-04 1.57584256603818e-05
2.61257142857143e+01 7.86094030618082e-04 1.54153902445896e-05
2.62628571428571e+01 7.66961034047795e-04 1.50796143791039e-05
2.64000000000000e+01 7.48293721632260e-04 1.47509512082343e-05
2.65371428571429e+01 7.30080759003844e-04 1.44292566116019e-05
2.66742857142857e+01 7.12311087528366e-04 1.41143891676254e-05
2.68114285714286e+01 6.94973917864542e-04 1.38062101055250e-05
2.69485714285714e+01 6.78058723147202e-04 1.35045832808900e-05
2.70857142857143e+01 6.61555232793167e-04 1.32093750812536e-05
2.72228571428571e+01 6.45453426256902e-04 1.29204544605414e-05
2.73600000000000e+01 6.29743526767524e-04 1.26376928501257e-05
2.74971428571429e+01 6.14415995629206e-04 1.23609641267327e-05
2.76342857142857e+01 5.99461526199956e-04 1.20901445773213e-05
2.77714285714286e+01 5.84871038463357e-04 1.18251128546335e-05
2.79085714285714e+01 5.70635673299525e-04 1.15657499523407e-05
2.80457142857143e+01 5.56746787266546e-04 1.13119391224611e-05
2.81828571428571e+01 5.43195947345652e-04 1.10635658994661e-05
2.83200000000000e+01 5.29974925675624e-04 1.08205180224663e-05
2.84571428571429e+01 5.17075694749351e-04 1.05826854045444e-05
2.85942857142857e+01 5.04490422353105e-04 1.03499600996830e-05
2.87314285714286e+01 4.92211466991937e-04 1.01222362621068e-05
2.88685714285714e+01 4.80231373074371e-04 9.89941012193029e-06
2.90057142857143e+01 4.68542866516082e-04 9.68137991315578e-06
2.91428571428571e+01 4.57138850317781e-04 9.46804589004686e-06
2.92800000000000e+01 4.46012400137882e-04 9.25931025926718e-06
2.94171428571429e+01 4.35156760244711e-04 9.05507715113441e-06
2.95542857142857e+01 4.24565339262695e-04 8.85525258896624e-06
2.96914285714286e+01 4.14231706317522e-04 8.65974445225155e-06
2.98285714285714e+01 4.04149586988517e-04 8.46846245339479e-06
2.99657142857143e+01 3.94312859605254e-04 8.28131807510849e-06
3.01028571428571e+01 3.84715551526182e-04 8.09822458104765e-06
3.02400000000000e+01 3.75351835415901e-04 7.91909695678514e-06
3.03771428571429e+01 3.66216025834420e-04 7.74385188325676e-06
3.05142857142857e+01 3.57302575661353e-04 7.57240770869108e-06
3.06514285714286e+01 3.48606072847851e-04 7.40468441551105e-06
3.07885714285714e+01 3.40121237014030e-04 7.24060359853862e-06
3.09257142857143e+01 3.31842916329484e-04 7.08008841067990e-06
3.10628571428571e+01 3.23766084381610e-04 6.92306356934237e-06
3.12000000000000e+01 3.15885837045175e-04 6.76945530521498e-06
3.13371428571429e+01 3.08197389608611e-04 6.61919133801232e-06
3.14742857142857e+01 3.00696073767920e-04 6.47220085101792e-06
3.16114285714286e+01 2.93377334890093e-04 6.32841446152958e-06
3.17485714285714e+01 2.86236729152588e-04 6.18776420072059e-06
3.18857142857143e+01 2.79269920915840e-04 6.05018346661384e-06
3.20228571428571e+01 2.72472680087821e-04 5.91560702743773e-06
3.21600000000000e+01 2.65840879491547e-04 5.78397097726828e-06
3.22971428571429e+01 2.59370492444019e-04 5.65521271407336e-06
3.24342857142857e+01 2.53057590228906e-04 5.52927091680522e-06
3.25714285714286e+01 2.46898339791072e-04 5.40608551915130e-06
3.27085714285714e+01 2.40889001331600e-04 5.28559769113239e-06
3.28457142857143e+01 2.35025926094813e-04 5.16774979845889e-06
3.29828571428571e+01 2.29305554150437e-04 5.05248540370129e-06
3.31200000000000e+01 2.23724412179746e-04 4.93974922794280e-06
3.32571428571429e+01 2.18279111435976e-04 4.82948713105096e-06
3.33942857142857e+01 2.12966345619421e-04 4.72164609119673e-06
3.35314285714286e+01 2.07782888935263e-04 4.61617418164679e-06
3.36685714285714e+01 2.02725594071492e-04 4.51302055409797e-06
3.38057142857143e+01 1.97791390335127e-04 4.41213540360406e-06
3.39428571428571e+01 1.92977281785804e-04 4.31346996822066e-06
3.40800000000000e+01 1.88280345373911e-04 4.21697649590535e-06
3.42171428571429e+01 1.83697729222471e-04 4.12260822689927e-06
3.43542857142857e+01 1.79226650840486e-04 4.03031937551368e-06
3.44914285714286e+01 1.74864395486906e-04 3.94006510969080e-06
3.46285714285714e+01 1.70608314470399e-04 3.85180153602065e-06
3.47657142857143e+01 1.66455823579738e-04 3.76548566951672e-06
3.49028571428571e+01 1.62404401513129e-04 3.68107543222868e-06
3.50400000000000e+01 1.58451588312309e-04 3.59852962471239e-06
3.51771428571429e+01 1.54594983915310e-04 3.51780791037582e-06
3.53142857142857e+01 1.50832246654131e-04 3.43887079935609e-06
3.54514285714286e+01 1.47161091876671e-04 3.36167963057885e-06
3.55885714285714e+01 1.43579290517048e-04 3.28619655836917e-06
3.57257142857143e+01 1.40084667773774e-04 3.21238452643774e-06
3.58628571428571e+01 1.36675101787958e-04 3.14020726582868e-06
3.60000000000000e+01 1.33348522326283e-04 3.06962927035856e-06
3.61371428571429e+01 1.30102909561998e-04 3.00061578276890e-06
3.62742857142857e+01 1.26936292811614e-04 2.93313278050941e-06
3.64114285714286e+01 1.23846749374184e-04 2.86714696003618e-06
3.65485714285714e+01 1.20832403329068e-04 2.80262572490837e-06
3.66857142857143e+01 1.17891424422817e-04 2.73953716342310e-06
3.68228571428571e+01 1.15022026956817e-04 2.67785004616810e-06
3.69600000000000e+01 1.12222468679549e-04 2.61753380490118e-06
3.70971428571429e+01 1.09491049759870e-04 2.55855852034687e-06
3.72342857142857e+01 1.06826111724660e-04 2.50089490970290e-06
3.73714285714286e+01 1.04226036481209e-04 2.44451431293313e-06
3.75085714285714e+01 1.01689245306206e-04 2.38938868223125e-06
3.76457142857143e+01 9.92141979084084e-05 2.33549056281195e-06
3.77828571428571e+01 9.67993914925377e-05 2.28279309026382e-06
3.79200000000000e+01 9.44433598275423e-05 2.23126997240584e-06
3.80571428571429e+01 9.21446723818705e-05 2.18089547856815e-06
3.81942857142857e+01 8.99019334300693e-05 2.13164442864522e-06
3.83314285714286e+01 8.77137812294263e-05 2.08349218115737e-06
3.84685714285714e+01 8.55788871697342e-05 2.03641462395947e-06
3.86057142857143e+01 8.34959549840134e-05 1.99038815775796e-06
3.87428571428571e+01 8.14637199607293e-05 1.94538969340369e-06
3.88800000000000e+01 7.94809481600712e-05 1.90139663632000e-06
3.90171428571429e+01 7.75464356856889e-05 1.85838687711401e-06
3.91542857142857e+01 7.56590079333464e-05 1.81633878201028e-06
3.92914285714286e+01 7.38175188975068e-05 1.77523118247326e-06
3.94285714285714e+01 7.20208504562810e-05 1.73504336704089e-06
3.95657142857143e+01 7.02679117068343e-05 1.69575506719267e-06
3.97028571428571e+01 6.85576383024250e-05 1.65734645467912e-06
3.98400000000000e+01 6.68889917931703e-05 1.61979812816838e-06
3.99771428571429e+01 6.52609590127311e-05 1.58309110504371e-06
4.01142857142857e+01 6.36725514464143e-05 1.54720681306263e-06
4.02514285714286e+01 6.21228046472123e-05 1.51212708135267e-06
4.03885714285714e+01 6.06107776344235e-05 1.47783413325441e-06
4.05257142857143e+01 5.91355523340603e-05 1.44431057421414e-06
4.06628571428571e+01 5.76962330209321e-05 1.41153938921569e-06
4.08000000000000e+01 5.62919457641100e-05 1.37950393133825e-06
4.09371428571429e+01 5.49218379104358e-05 1.34818791460613e-06
4.10742857142857e+01 5.35850775530647e-05 1.31757540673152e-06
4.12114285714286e+01 5.22808530397004e-05 1.28765082131444e-06
4.13485714285714e+01 5.10083724667999e-05 1.25839891158631e-06
4.14857142857143e+01 4.97668632084068e-05 1.22980476004451e-06
4.16228571428571e+01 4.85555714466321e-05 1.20185377602838e-06
4.17600000000000e+01 4.73737617051817e-05 1.17453168592151e-06
4.18971428571429e+01 4.62207164144154e-05 1.14782452693145e-06
4.20342857142857e+01 4.50957354643541e-05 1.12171864078685e-06
4.21714285714286e+01 4.39981357905657e-05 1.09620066699049e-06
4.23085714285714e+01 4.29272509487515e-05 1.07125753736249e-06
4.24457142857143e+01 4.18824307180395e-05 1.04687646717188e-06
4.25828571428571e+01 4.08630407058582e-05 1.02304495288116e-06
4.27200000000000e+01 3.98684619555327e-05 9.99750763762213e-07
4.28571428571429e+01 3.88980905800297e-05 9.76981936494799e-07
4.29942857142857e+01 3.79513373859940e-05 9.54726769701689e-07
4.31314285714286e+01 3.70276275250349e-05 9.32973818120321e-07
4.32685714285714e+01 3.61264001359098e-05 9.11711887853082e-07
