Energy (eV)          EEDF (eV^-(3/2))     First Anisotropy
1.44285714285714e-02 2.25517171499222e-01 1.42564569859304e-04
4.32857142857143e-02 2.23296142523766e-01 2.35045550193809e-04
7.21428571428571e-02 2.21096987585165e-01 3.09310554065061e-04
1.01000000000000e-01 2.18919491247867e-01 3.65139659135132e-04
1.29857142857143e-01 2.16763440213945e-01 4.11215628563679e-04
1.58714285714286e-01 2.14628623266490e-01 4.50835882916562e-04
1.87571428571429e-01 2.12514831280367e-01 4.85714037407807e-04
2.16428571428571e-01 2.10421857189666e-01 5.16889147440119e-04
2.45285714285714e-01 2.08349495967347e-01 5.45053122950122e-04
2.74142857142857e-01 2.06297544605827e-01 5.70696949966587e-04
3.03000000000000e-01 2.04265802096749e-01 5.94185522271721e-04
3.31857142857143e-01 2.02254069417675e-01 6.15799756565670e-04
3.60714285714286e-01 2.00262149493035e-01 6.35762022626158e-04
3.89571428571429e-01 1.98289847195042e-01 6.54252360783712e-04
4.18428571428571e-01 1.96336969317618e-01 6.71419287831082e-04
4.47285714285714e-01 1.94403324557402e-01 6.87387256206075e-04
4.76142857142857e-01 1.92488723495170e-01 7.02261960570809e-04
5.05000000000000e-01 1.90592978577191e-01 7.16134209374396e-04
5.33857142857143e-01 1.88715904100456e-01 7.29082813285738e-04
5.62714285714286e-01 1.86857316183486e-01 7.41176779014675e-04
5.91571428571429e-01 1.85017032759567e-01 7.52477004566464e-04
6.20428571428571e-01 1.83194873555075e-01 7.63037610471877e-04
6.49285714285714e-01 1.81390660071797e-01 7.72906996537293e-04
6.78142857142857e-01 1.79604215569504e-01 7.82128691969038e-04
7.07000000000000e-01 1.77835365048605e-01 7.90742046126892e-04
7.35857142857143e-01 1.76083935235413e-01 7.98782796500360e-04
7.64714285714286e-01 1.74349754557830e-01 8.06283537819312e-04
7.93571428571428e-01 1.72632653136007e-01 8.13274113585531e-04
8.22428571428571e-01 1.70932462763174e-01 8.19781946685760e-04
8.51285714285714e-01 1.69249016889143e-01 8.25832318389339e-04
8.80142857142857e-01 1.67582150604027e-01 8.31448606385141e-04
9.09000000000000e-01 1.65931700622069e-01 8.36652488651194e-04
9.37857142857143e-01 1.64297505267399e-01 8.41464120067396e-04
9.66714285714286e-01 1.62679404452860e-01 8.45902284433914e-04
9.95571428571429e-01 1.61077239669745e-01 8.49984526778228e-04
1.02442857142857e+00 1.59490853970433e-01 8.53727269583422e-04
1.05328571428571e+00 1.57920091957401e-01 8.57145917707228e-04
1.08214285714286e+00 1.56364799744540e-01 8.60254942411425e-04
1.11100000000000e+00 1.54824824990663e-01 8.63067963804033e-04
1.13985714285714e+00 1.53300016839830e-01 8.65597826208578e-04
1.16871428571429e+00 1.51790225921862e-01 8.67856656860075e-04
1.19757142857143e+00 1.50295304325392e-01 8.69855919037869e-04
1.22642857142857e+00 1.48815105621066e-01 8.71606466327241e-04
1.25528571428571e+00 1.47349484808617e-01 8.73118593376348e-04
1.28414285714286e+00 1.45898298304724e-01 8.74402066349999e-04
1.31300000000000e+00 1.44461403963136e-01 8.75466165407403e-04
1.34185714285714e+00 1.43038661025771e-01 8.76319721759345e-04
1.37071428571429e+00 1.41629930120839e-01 8.76971144547224e-04
1.39957142857143e+00 1.40235073239362e-01 8.77428445868378e-04
1.42842857142857e+00 1.38853953751686e-01 8.77699269371021e-04
1.45728571428571e+00 1.37486436363429e-01 8.77790918067723e-04
1.48614285714286e+00 1.36132387103712e-01 8.77710366513111e-04
1.51500000000000e+00 1.34791673339538e-01 8.77464285005270e-04
1.54385714285714e+00 1.33464163734727e-01 8.77059060556536e-04
1.57271428571429e+00 1.32149728246590e-01 8.76500810304716e-04
1.60157142857143e+00 1.30848238105180e-01 8.75795394358752e-04
1.63042857142857e+00 1.29559565825124e-01 8.74948432726717e-04
1.65928571428571e+00 1.28283585168217e-01 8.73965322423997e-04
1.68814285714286e+00 1.27020171132160e-01 8.72851241672221e-04
1.71700000000000e+00 1.25769199960874e-01 8.71611165239525e-04
1.74585714285714e+00 1.24530549109390e-01 8.70249877554853e-04
1.77471428571429e+00 1.23304097239646e-01 8.68771979730668e-04
1.80357142857143e+00 1.22089724201962e-01 8.67181896515703e-04
1.83242857142857e+00 1.20887311043504e-01 8.65483887250511e-04
1.86128571428571e+00 1.19696739976035e-01 8.63682057358607e-04
1.89014285714286e+00 1.18517894365230e-01 8.61780358804726e-04
1.91900000000000e+00 1.17350658738025e-01 8.59782600640830e-04
1.94785714285714e+00 1.16194918752199e-01 8.57692457866631e-04
1.97671428571429e+00 1.15050561191650e-01 8.55513475163372e-04
2.00557142857143e+00 1.13917473949729e-01 8.53249070756329e-04
2.03442857142857e+00 1.12795546035232e-01 8.50902544014494e-04
2.06328571428571e+00 1.11684667544268e-01 8.48477083706818e-04
2.09214285714286e+00 1.10584729650173e-01 8.45975766647682e-04
2.12100000000000e+00 1.09495624608656e-01 8.43401565410961e-04
2.14985714285714e+00 1.08417245731174e-01 8.40757354689446e-04
2.17871428571429e+00 1.07349487379920e-01 8.38045913231611e-04
2.20757142857143e+00 1.06292244952757e-01 8.35269925983985e-04
2.23642857142857e+00 1.05245414887339e-01 8.32431989657218e-04
2.26528571428571e+00 1.04208894636366e-01 8.29534618972187e-04
2.29414285714286e+00 1.03182582658083e-01 8.26580244435991e-04
2.32300000000000e+00 1.02166378419772e-01 8.23571218258301e-04
2.35185714285714e+00 1.01160182374252e-01 8.20509819137052e-04
2.38071428571429e+00 1.00163895954747e-01 8.17398253170709e-04
2.40957142857143e+00 9.91774215611919e-02 8.14238655000281e-04
2.43842857142857e+00 9.82006625629497e-02 8.11033092063583e-04
2.46728571428571e+00 9.72335232768846e-02 8.07783569510664e-04
2.49614285714286e+00 9.62759089584274e-02 8.04492027596646e-04
2.52500000000000e+00 9.53277258038139e-02 8.01160346386541e-04
2.55385714285714e+00 9.43888809292054e-02 7.97790349492803e-04
2.58271428571429e+00 9.34592823655418e-02 7.94383804387263e-04
2.61157142857143e+00 9.25388390460575e-02 7.90942422942665e-04
2.64042857142857e+00 9.16274608079234e-02 7.87467864795187e-04
2.66928571428571e+00 9.07250583726999e-02 7.83961741331457e-04
2.69814285714286e+00 8.98315433379537e-02 7.80425612957281e-04
2.72700000000000e+00 8.89468281785348e-02 7.76860992944279e-04
2.75585714285714e+00 8.80708262279237e-02 7.73269350435269e-04
2.78471428571429e+00 8.72034516731473e-02 7.69652110399155e-04
2.81357142857143e+00 8.63446195433627e-02 7.66010653804962e-04
2.84242857142857e+00 8.54942457106780e-02 7.62346320350637e-04
2.87128571428571e+00 8.46522468726405e-02 7.58660411773155e-04
2.90014285714286e+00 8.38185405443783e-02 7.54954189133368e-04
2.92900000000000e+00 8.29930450591422e-02 7.51228876028811e-04
2.95785714285714e+00 8.21756795515654e-02 7.47485661066770e-04
2.98671428571429e+00 8.13663639526938e-02 7.43725697607017e-04
3.01557142857143e+00 8.05650189795220e-02 7.39950103708719e-04
3.04442857142857e+00 7.97715661351844e-02 7.36159964391808e-04
3.07328571428571e+00 7.89859276932023e-02 7.32356334435099e-04
3.10214285714286e+00 7.82080266901236e-02 7.28540235752525e-04
3.13100000000000e+00 7.74377869255015e-02 7.24712660121782e-04
3.15985714285714e+00 7.66751329468120e-02 7.20874571256747e-04
3.18871428571429e+00 7.59199900446347e-02 7.17026904426578e-04
3.21757142857143e+00 7.51722842430427e-02 7.13170566262883e-04
3.24642857142857e+00 7.44319422993119e-02 7.09306436665222e-04
3.27528571428571e+00 7.36988916897007e-02 7.05435371200063e-04
3.30414285714286e+00 7.29730606025606e-02 7.01558198607429e-04
3.33300000000000e+00 7.22543779378846e-02 6.97675723148600e-04
3.36185714285714e+00 7.15427732936746e-02 6.93788726368430e-04
3.39071428571429e+00 7.08381769612950e-02 6.89897966646185e-04
3.41957142857143e+00 7.01405199166322e-02 6.86004178918379e-04
3.44842857142857e+00 6.94497338194387e-02 6.82108076306145e-04
3.47728571428571e+00 6.87657510004564e-02 6.78210352194858e-04
3.50614285714286e+00 6.80885044549717e-02 6.74311677889447e-04
3.53500000000000e+00 6.74179278420375e-02 6.70412704655319e-04
3.56385714285714e+00 6.67539554721171e-02 6.66514065234452e-04
3.59271428571429e+00 6.60965223026242e-02 6.62616373363329e-04
3.62157142857143e+00 6.54455639297800e-02 6.58720223447322e-04
3.65042857142857e+00 6.48010165876814e-02 6.54826191965428e-04
3.67928571428571e+00 6.41628171366114e-02 6.50934839289432e-04
3.70814285714286e+00 6.35309030570118e-02 6.47046707493660e-04
3.73700000000000e+00 6.29052124484620e-02 6.43162322143950e-04
3.76585714285714e+00 6.22856840184500e-02 6.39282193614584e-04
3.79471428571429e+00 6.16722570781102e-02 6.35406816595497e-04
3.82357142857143e+00 6.10648715347120e-02 6.31536669741764e-04
3.85242857142857e+00 6.04634678905242e-02 6.27672216896895e-04
3.88128571428571e+00 5.98679872321792e-02 6.23813908695574e-04
3.91014285714286e+00 5.92783712250378e-02 6.19962180526873e-04
3.93900000000000e+00 5.86945621119889e-02 6.16117454113062e-04
3.96785714285714e+00 5.81165027032242e-02 6.12280138662322e-04
3.99671428571429e+00 5.75441363721757e-02 6.08450630379481e-04
4.02557142857143e+00 5.69774070485803e-02 6.04629312106186e-04
4.05442857142857e+00 5.64162592171972e-02 6.00816554393989e-04
4.08328571428571e+00 5.58606379081111e-02 5.97012716924550e-04
4.11214285714286e+00 5.53104886914648e-02 5.93218146621353e-04
4.14100000000000e+00 5.47657576761320e-02 5.89433179050694e-04
4.16985714285714e+00 5.42263915003872e-02 5.85658139437153e-04
4.19871428571429e+00 5.36923373280440e-02 5.81893342187012e-04
4.22757142857143e+00 5.31635428420455e-02 5.78139090529171e-04
4.25642857142857e+00 5.26399562430798e-02 5.74395677462018e-04
4.28528571428571e+00 5.21215262407224e-02 5.70663387018145e-04
4.31414285714286e+00 5.16082020485155e-02 5.66942492517320e-04
4.34300000000000e+00 5.10999333825531e-02 5.63233257815304e-04
4.37185714285714e+00 5.05966704529543e-02 5.59535938203239e-04
4.40071428571429e+00 5.00983639601992e-02 5.55850779949241e-04
4.42957142857143e+00 4.96049650892017e-02 5.52178019946745e-04
4.45842857142857e+00 4.91164255078567e-02 5.48517886554188e-04
4.48728571428571e+00 4.86326973589389e-02 5.44870600725774e-04
4.51614285714286e+00 4.81537332555048e-02 5.41236374397387e-04
4.54500000000000e+00 4.76794862794230e-02 5.37615411604136e-04
4.57385714285714e+00 4.72099099735705e-02 5.34007909280431e-04
4.60271428571429e+00 4.67449583383621e-02 5.30414056822892e-04
4.63157142857143e+00 4.62845858262647e-02 5.26834035750429e-04
4.66042857142857e+00 4.58287473403060e-02 5.23268020452066e-04
4.68928571428571e+00 4.53773982266536e-02 5.19716179201393e-04
4.71814285714286e+00 4.49304942703193e-02 5.16178672666652e-04
4.74700000000000e+00 4.44879916936610e-02 5.12655654913966e-04
4.77585714285714e+00 4.40498471492305e-02 5.09147274121862e-04
4.80471428571429e+00 4.36160177164912e-02 5.05653672167225e-04
4.83357142857143e+00 4.31864608967383e-02 5.02174984299663e-04
4.86242857142857e+00 4.27611346115907e-02 4.98711339809890e-04
4.89128571428571e+00 4.23399971961847e-02 4.95262862942481e-04
4.92014285714286e+00 4.19230073951622e-02 4.91829671521398e-04
4.94900000000000e+00 4.15101243611634e-02 4.88411877853106e-04
4.97785714285714e+00 4.11013076482640e-02 4.85009589366796e-04
5.00671428571429e+00 4.06965172088758e-02 4.81622908223958e-04
5.03557142857143e+00 4.02957133890388e-02 4.78251931008563e-04
5.06442857142857e+00 3.98988569269148e-02 4.74896749326301e-04
5.09328571428571e+00 3.95059089465382e-02 4.71557450627765e-04
5.12214285714286e+00 3.91168309540684e-02 4.68234116941048e-04
5.15100000000000e+00 3.87315848362907e-02 4.64926825686729e-04
5.17985714285714e+00 3.83501328545871e-02 4.61635650252968e-04
5.20871428571429e+00 3.79724376420124e-02 4.58360659628798e-04
5.23757142857143e+00 3.75984621989297e-02 4.55101918110731e-04
5.26642857142857e+00 3.72281698915195e-02 4.51859485841392e-04
5.29528571428571e+00 3.68615244460348e-02 4.48633419553721e-04
5.32414285714286e+00 3.64984899453024e-02 4.45423771402405e-04
5.35300000000000e+00 3.61390308272430e-02 4.42230589700796e-04
5.38185714285714e+00 3.57831118793273e-02 4.39053919438874e-04
5.41071428571429e+00 3.54306982358205e-02 4.35893801939638e-04
5.43957142857143e+00 3.50817553737342e-02 4.32750274582378e-04
5.46842857142857e+00 3.47362491113607e-02 4.29623371288052e-04
5.49728571428571e+00 3.43941456029890e-02 4.26513123193157e-04
5.52614285714286e+00 3.40554113356363e-02 4.23419557572484e-04
5.55500000000000e+00 3.37200131275986e-02 4.20342698506652e-04
5.58385714285714e+00 3.33879181233478e-02 4.17282567349539e-04
5.61271428571429e+00 3.30590937909374e-02 4.14239182407110e-04
5.64157142857143e+00 3.27335079182461e-02 4.11212558677107e-04
5.67042857142857e+00 3.24111286115460e-02 4.08202708287237e-04
5.69928571428571e+00 3.20919242906375e-02 4.05209641106477e-04
5.72814285714286e+00 3.17758636857977e-02 4.02233363751970e-04
5.75700000000000e+00 3.14629158363667e-02 3.99273880194698e-04
5.78585714285714e+00 3.11530500860489e-02 3.96331192182133e-04
5.81471428571429e+00 3.08462360804701e-02 3.93405298938340e-04
5.84357142857143e+00 3.05424437636922e-02 3.90496196919777e-04
5.87242857142857e+00 3.02416433768208e-02 3.87603880211694e-04
5.90128571428571e+00 2.99438054535225e-02 3.84728341083372e-04
5.93014285714286e+00 2.96489008171755e-02 3.81869569072534e-04
5.95900000000000e+00 2.93569005794984e-02 3.79027551535660e-04
5.98785714285714e+00 2.90677761362186e-02 3.76202274030737e-04
6.01671428571429e+00 2.87814991647759e-02 3.73393720037731e-04
6.04557142857143e+00 2.84980416210853e-02 3.70601870729881e-04
6.07442857142857e+00 2.82173757381906e-02 3.67826705332681e-04
6.10328571428571e+00 2.79394740221296e-02 3.65068201628976e-04
6.13214285714286e+00 2.76643092492748e-02 3.62326335114768e-04
6.16100000000000e+00 2.73918544650078e-02 3.59601079499837e-04
6.18985714285714e+00 2.71220829797241e-02 3.56892407054878e-04
6.21871428571429e+00 2.68549683666748e-02 3.54200288351120e-04
6.24757142857143e+00 2.65904844589600e-02 3.51524692046472e-04
6.27642857142857e+00 2.63286053482302e-02 3.48865585211201e-04
6.30528571428571e+00 2.60693053808710e-02 3.46222933787825e-04
6.33414285714286e+00 2.58125591555209e-02 3.43596701812634e-04
6.36300000000000e+00 2.55583415217937e-02 3.40986851871657e-04
6.39185714285714e+00 2.53066275765923e-02 3.38393345415880e-04
6.42071428571429e+00 2.50573926620799e-02 3.35816142518937e-04
6.44957142857143e+00 2.48106123628881e-02 3.33255201677330e-04
6.47842857142857e+00 2.45662625048671e-02 3.30710480106230e-04
6.50728571428571e+00 2.43243191515643e-02 3.28181934158729e-04
6.53614285714286e+00 2.40847586019062e-02 3.25669518607804e-04
6.56500000000000e+00 2.38475573889721e-02 3.23173187061993e-04
6.59385714285714e+00 2.36126922765892e-02 3.20692892252028e-04
6.62271428571429e+00 2.33801402574287e-02 3.18228585805460e-04
6.65157142857143e+00 2.31498785504105e-02 3.15780218060150e-04
6.68042857142857e+00 2.29218845995052e-02 3.13347738333293e-04
6.70928571428571e+00 2.26961360704810e-02 3.10931095303993e-04
6.73814285714286e+00 2.24726108487400e-02 3.08530236350796e-04
6.76700000000000e+00 2.22512870381430e-02 3.06145107931027e-04
6.79585714285714e+00 2.20321429578638e-02 3.03775655841674e-04
6.82471428571429e+00 2.18151571406023e-02 3.01421825009845e-04
6.85357142857143e+00 2.16003083301720e-02 2.99083559318893e-04
6.88242857142857e+00 2.13875754803540e-02 2.96760801853258e-04
6.91128571428571e+00 2.11769377518905e-02 2.94453495247768e-04
6.94014285714286e+00 2.09683745104648e-02 2.92161581076503e-04
6.96900000000000e+00 2.07618653255779e-02 2.89885000199190e-04
6.99785714285714e+00 2.05573899676410e-02 2.87623692998842e-04
7.02671428571429e+00 2.03549284062985e-02 2.85377599187050e-04
7.05557142857143e+00 2.01544608081854e-02 2.83146657641928e-04
7.08442857142857e+00 1.99559675358334e-02 2.80930806631185e-04
7.11328571428571e+00 1.97594291448900e-02 2.78729984131372e-04
7.14214285714286e+00 1.95648263822342e-02 2.76544127263829e-04
7.17100000000000e+00 1.93721401849037e-02 2.74373172611332e-04
7.19985714285714e+00 1.91813516774061e-02 2.72217056434768e-04
7.22871428571429e+00 1.89924421701463e-02 2.70075714492199e-04
7.25757142857143e+00 1.88053931573417e-02 2.67949081887944e-04
7.28642857142857e+00 1.86201863159782e-02 2.65837093275939e-04
7.31528571428571e+00 1.84368035032393e-02 2.63739683151748e-04
7.34414285714286e+00 1.82552267547460e-02 2.61656785331931e-04
7.37300000000000e+00 1.80754382835355e-02 2.59588333243576e-04
7.40185714285714e+00 1.78974204775738e-02 2.57534260122052e-04
7.43071428571429e+00 1.77211558982806e-02 2.55494498842960e-04
7.45957142857143e+00 1.75466272785908e-02 2.53468981781592e-04
7.48842857142857e+00 1.73738175219609e-02 2.51457640998519e-04
7.51728571428571e+00 1.72027096999898e-02 2.49460408506798e-04
7.54614285714286e+00 1.70332870507761e-02 2.47477215791297e-04
7.57500000000000e+00 1.68655329779468e-02 2.45507994073705e-04
7.60385714285714e+00 1.66994310483544e-02 2.43552674493110e-04
7.63271428571429e+00 1.65349649906950e-02 2.41611187949882e-04
7.66157142857143e+00 1.63721186937050e-02 2.39683464974881e-04
7.69042857142857e+00 1.62108762052168e-02 2.37769435898959e-04
7.71928571428571e+00 1.60512217299560e-02 2.35869031097594e-04
7.74814285714286e+00 1.58931396280087e-02 2.33982180547042e-04
7.77700000000000e+00 1.57366144138980e-02 2.32108814067019e-04
7.80585714285714e+00 1.55816307544530e-02 2.30248861485669e-04
7.83471428571429e+00 1.54281734675128e-02 2.28402252494649e-04
7.86357142857143e+00 1.52762275202493e-02 2.26568916527383e-04
7.89242857142857e+00 1.51257780282710e-02 2.24748782913912e-04
7.92128571428571e+00 1.49768102535828e-02 2.22941781105105e-04
7.95014285714286e+00 1.48293096031556e-02 2.21147840262663e-04
7.97900000000000e+00 1.46832616280503e-02 2.19366889481460e-04
8.00785714285714e+00 1.45386520214436e-02 2.17598857940402e-04
8.03671428571429e+00 1.43954666174146e-02 2.15843674767858e-04
8.06557142857143e+00 1.42536913893833e-02 2.14101268928391e-04
8.09442857142857e+00 1.41133124492617e-02 2.12371569364340e-04
8.12328571428571e+00 1.39743160455637e-02 2.10654505201339e-04
8.15214285714286e+00 1.38366885620696e-02 2.08950005369556e-04
8.18100000000000e+00 1.37004165169965e-02 2.07257998807528e-04
8.20985714285714e+00 1.35654865611689e-02 2.05578414600159e-04
8.23871428571429e+00 1.34318854768818e-02 2.03911181853766e-04
8.26757142857143e+00 1.32996001764487e-02 2.02256229590724e-04
8.29642857142857e+00 1.31686177013966e-02 2.00613486879006e-04
8.32528571428571e+00 1.30389252207147e-02 1.98982883020637e-04
8.35414285714286e+00 1.29105100296083e-02 1.97364347201700e-04
8.38300000000000e+00 1.27833595487131e-02 1.95757808679330e-04
8.41185714285714e+00 1.26574613223997e-02 1.94163196908003e-04
8.44071428571429e+00 1.25328030177094e-02 1.92580441423509e-04
8.46957142857143e+00 1.24093724230020e-02 1.91009471744968e-04
8.49842857142857e+00 1.22871574471949e-02 1.89450217493380e-04
8.52728571428571e+00 1.21661461181395e-02 1.87902608564582e-04
8.55614285714286e+00 1.20463265814580e-02 1.86366574805753e-04
8.58500000000000e+00 1.19276870998005e-02 1.84842046186959e-04
8.61385714285714e+00 1.18102160512730e-02 1.83328952916860e-04
8.64271428571429e+00 1.16939019284409e-02 1.81827225334957e-04
8.67157142857143e+00 1.15787333370710e-02 1.80336793820468e-04
8.70042857142857e+00 1.14646989954113e-02 1.78857588900888e-04
8.72928571428571e+00 1.13517877326862e-02 1.77389541410719e-04
8.75814285714286e+00 1.12399884880106e-02 1.75932582192483e-04
8.78700000000000e+00 1.11292903096878e-02 1.74486642254172e-04
8.81585714285714e+00 1.10196823537520e-02 1.73051652875242e-04
8.84471428571429e+00 1.09111538830352e-02 1.71627545506596e-04
8.87357142857143e+00 1.08036942659964e-02 1.70214251685803e-04
8.90242857142857e+00 1.06972929760409e-02 1.68811703136577e-04
8.93128571428571e+00 1.05919395901249e-02 1.67419831914543e-04
8.96014285714286e+00 1.04876237877422e-02 1.66038570130780e-04
8.98900000000000e+00 1.03843353502610e-02 1.64667850096434e-04
9.01785714285714e+00 1.02820641595717e-02 1.63307604419854e-04
9.04671428571429e+00 1.01808001972143e-02 1.61957765913711e-04
9.07557142857143e+00 1.00805335432874e-02 1.60618267516185e-04
9.10442857142857e+00 9.98125437580650e-03 1.59289042382129e-04
