Energy (eV)          EEDF (eV^-(3/2))     First Anisotropy
5.88235294117647e-03 4.91726474189863e-01 2.56855281524077e-04
1.76470588235294e-02 4.88404942951472e-01 4.24134430772439e-04
2.94117647058824e-02 4.85105848109465e-01 5.59887909428737e-04
4.11764705882353e-02 4.81829038120634e-01 6.63010201669773e-04
5.29411764705882e-02 4.78574362441117e-01 7.49006647624196e-04
6.47058823529412e-02 4.75341671557902e-01 8.23738548080968e-04
7.64705882352941e-02 4.72130816967580e-01 8.90238607195920e-04
8.82352941176471e-02 4.68941651169739e-01 9.50337874947954e-04
1.00000000000000e-01 4.65774027660362e-01 1.00525053120065e-03
1.11764705882353e-01 4.62627800924968e-01 1.05583458892359e-03
1.23529411764706e-01 4.59502826429144e-01 1.10272508674304e-03
1.35294117647059e-01 4.56398960618161e-01 1.14640892158617e-03
1.47058823529412e-01 4.53316060906809e-01 1.18726996158771e-03
1.58823529411765e-01 4.50253985692694e-01 1.22561777553696e-03
1.70588235294118e-01 4.47212594288930e-01 1.26170673291470e-03
1.82352941176471e-01 4.44191746980155e-01 1.29574916833510e-03
1.94117647058824e-01 4.41191304994695e-01 1.32792473958488e-03
2.05882352941176e-01 4.38211130498205e-01 1.35838723798747e-03
2.17647058823529e-01 4.35251086587213e-01 1.38726966013181e-03
2.29411764705882e-01 4.32311037283142e-01 1.41468805609560e-03
2.41176470588235e-01 4.29390847525894e-01 1.44074449839618e-03
2.52941176470588e-01 4.26490383167652e-01 1.46552940517819e-03
2.64705882352941e-01 4.23609510977734e-01 1.48912338861482e-03
2.76470588235294e-01 4.20748098602903e-01 1.51159873259760e-03
2.88235294117647e-01 4.17906014595446e-01 1.53302059122187e-03
3.00000000000000e-01 4.15083128395542e-01 1.55344797730473e-03
3.11764705882353e-01 4.12279310325238e-01 1.57293457449219e-03
3.23529411764706e-01 4.09494431582527e-01 1.59152941518658e-03
3.35294117647059e-01 4.06728364235466e-01 1.60927744970157e-03
3.47058823529412e-01 4.03980981216257e-01 1.62622002625672e-03
3.58823529411765e-01 4.01252156323025e-01 1.64239530362170e-03
3.70588235294118e-01 3.98541764190893e-01 1.65783859907983e-03
3.82352941176471e-01 3.95849680309669e-01 1.67258268751414e-03
3.94117647058824e-01 3.93175781010202e-01 1.68665806548778e-03
4.05882352941176e-01 3.90519943458701e-01 1.70009317659182e-03
4.17647058823529e-01 3.87882045651058e-01 1.71291460915778e-03
4.29411764705882e-01 3.85261966407316e-01 1.72514726959004e-03
4.41176470588235e-01 3.82659585366062e-01 1.73681453493165e-03
4.52941176470588e-01 3.80074782978903e-01 1.74793838671121e-03
4.64705882352941e-01 3.77507440510485e-01 1.75853953321358e-03
4.76470588235294e-01 3.74957440016308e-01 1.76863751389849e-03
4.88235294117647e-01 3.72424664354237e-01 1.77825079237308e-03
5.00000000000000e-01 3.69908997173411e-01 1.78739684413536e-03
5.11764705882353e-01 3.67410322908885e-01 1.79609223182752e-03
5.23529411764706e-01 3.64928526776338e-01 1.80435267382851e-03
5.35294117647059e-01 3.62463494766804e-01 1.81219310616193e-03
5.47058823529412e-01 3.60015113641428e-01 1.81962773770804e-03
5.58823529411765e-01 3.57583270930584e-01 1.82667010338135e-03
5.70588235294118e-01 3.55167854915611e-01 1.83333310867989e-03
5.82352941176471e-01 3.52768754636915e-01 1.83962907010945e-03
5.94117647058824e-01 3.50385859884416e-01 1.84556975600050e-03
6.05882352941176e-01 3.48019061192481e-01 1.85116642078497e-03
6.17647058823529e-01 3.45668249834887e-01 1.85642983714761e-03
6.29411764705882e-01 3.43333317819851e-01 1.86137032554547e-03
6.41176470588235e-01 3.41014157885055e-01 1.86599778135915e-03
6.52941176470588e-01 3.38710663492719e-01 1.87032169921150e-03
6.64705882352941e-01 3.36422728828124e-01 1.87435119810482e-03
6.76470588235294e-01 3.34150248784404e-01 1.87809504135593e-03
6.88235294117647e-01 3.31893118968164e-01 1.88156165493269e-03
7.00000000000000e-01 3.29651235691167e-01 1.88475914785200e-03
7.11764705882353e-01 3.27424495965567e-01 1.88769532844736e-03
7.23529411764706e-01 3.25212797499187e-01 1.89037772014498e-03
7.35294117647059e-01 3.23016038690816e-01 1.89281357615008e-03
7.47058823529412e-01 3.20834118625545e-01 1.89500989252591e-03
7.58823529411765e-01 3.18666937072954e-01 1.89697342278597e-03
7.70588235294118e-01 3.16514394473953e-01 1.89871068859436e-03
7.82352941176471e-01 3.14376391944838e-01 1.90022798968350e-03
7.94117647058823e-01 3.12252831269851e-01 1.90153141615878e-03
8.05882352941176e-01 3.10143614896662e-01 1.90262685766135e-03
8.17647058823529e-01 3.08048645931885e-01 1.90352001254668e-03
8.29411764705882e-01 3.05967828136639e-01 1.90421639650875e-03
8.41176470588235e-01 3.03901065922119e-01 1.90472135069047e-03
8.52941176470588e-01 3.01848264345209e-01 1.90504004877755e-03
8.64705882352941e-01 2.99809329106448e-01 1.90517750579545e-03
8.76470588235294e-01 2.97784166538645e-01 1.90513858380539e-03
8.88235294117647e-01 2.95772683609689e-01 1.90492799720786e-03
9.00000000000000e-01 2.93774787915888e-01 1.90455032042356e-03
9.11764705882353e-01 2.91790387677715e-01 1.90400999304902e-03
9.23529411764706e-01 2.89819391735602e-01 1.90331132525402e-03
9.35294117647059e-01 2.87861709545750e-01 1.90245850289426e-03
9.47058823529412e-01 2.85917251175967e-01 1.90145559187506e-03
9.58823529411765e-01 2.83985927303530e-01 1.90030654418867e-03
9.70588235294118e-01 2.82067649205059e-01 1.89901520130274e-03
9.82352941176471e-01 2.80162328758512e-01 1.89758529731896e-03
9.94117647058824e-01 2.78269878437097e-01 1.89602046437913e-03
1.00588235294118e+00 2.76390211305249e-01 1.89432423772265e-03
1.01764705882353e+00 2.74523241007324e-01 1.89250005109541e-03
1.02941176470588e+00 2.72668881796467e-01 1.89055125363048e-03
1.04117647058824e+00 2.70827048468969e-01 1.88848110347470e-03
1.05294117647059e+00 2.68997656431961e-01 1.88629277290563e-03
1.06470588235294e+00 2.67180621629426e-01 1.88398935627434e-03
1.07647058823529e+00 2.65375860590432e-01 1.88157385513042e-03
1.08823529411765e+00 2.63583290424334e-01 1.87904920685978e-03
1.10000000000000e+00 2.61802828767413e-01 1.87641827027475e-03
1.11176470588235e+00 2.60034393844639e-01 1.87368383175967e-03
1.12352941176471e+00 2.58277904401677e-01 1.87084860833201e-03
1.13529411764706e+00 2.56533279764104e-01 1.86791524916819e-03
1.14705882352941e+00 2.54800439771992e-01 1.86488634230271e-03
1.15882352941176e+00 2.53079304822136e-01 1.86176440051230e-03
1.17058823529412e+00 2.51369795863564e-01 1.85855188705677e-03
1.18235294117647e+00 2.49671834350162e-01 1.85525120202687e-03
1.19411764705882e+00 2.47985342294941e-01 1.85186468755045e-03
1.20588235294118e+00 2.46310242209692e-01 1.84839463383242e-03
1.21764705882353e+00 2.44646457143643e-01 1.84484326555358e-03
1.22941176470588e+00 2.42993910679209e-01 1.84121276591858e-03
1.24117647058824e+00 2.41352526888162e-01 1.83750526352666e-03
1.25294117647059e+00 2.39722230381488e-01 1.83372283706577e-03
1.26470588235294e+00 2.38102946253574e-01 1.82986752079339e-03
1.27647058823529e+00 2.36494600117723e-01 1.82594129148629e-03
1.28823529411765e+00 2.34897118102062e-01 1.82194609097434e-03
1.30000000000000e+00 2.33310426808940e-01 1.81788381353287e-03
1.31176470588235e+00 2.31734453360824e-01 1.81375631016140e-03
1.32352941176471e+00 2.30169125348572e-01 1.80956539032411e-03
1.33529411764706e+00 2.28614370875611e-01 1.80531282253749e-03
1.34705882352941e+00 2.27070118507971e-01 1.80100033918767e-03
1.35882352941176e+00 2.25536297305756e-01 1.79662962431262e-03
1.37058823529412e+00 2.24012836819294e-01 1.79220233417153e-03
1.38235294117647e+00 2.22499667052664e-01 1.78772008544216e-03
1.39411764705882e+00 2.20996718504496e-01 1.78318445899115e-03
1.40588235294118e+00 2.19503922121530e-01 1.77859700432061e-03
1.41764705882353e+00 2.18021209327641e-01 1.77395922787617e-03
1.42941176470588e+00 2.16548512020175e-01 1.76927261242589e-03
1.44117647058824e+00 2.15085762535968e-01 1.76453860577676e-03
1.45294117647059e+00 2.13632893689092e-01 1.75975862425253e-03
1.46470588235294e+00 2.12189838727612e-01 1.75493405680867e-03
1.47647058823529e+00 2.10756531360429e-01 1.75006625386379e-03
1.48823529411765e+00 2.09332905753738e-01 1.74515654558749e-03
1.50000000000000e+00 2.07918896499360e-01 1.74020623111059e-03
1.51176470588235e+00 2.06514438649700e-01 1.73521658175616e-03
1.52352941176471e+00 2.05119467677421e-01 1.73018884214746e-03
1.53529411764706e+00 2.03733919509208e-01 1.72512423041508e-03
1.54705882352941e+00 2.02357730486694e-01 1.72002394189659e-03
1.55882352941176e+00 2.00990837390462e-01 1.71488913871238e-03
1.57058823529412e+00 1.99633177436705e-01 1.70972096660560e-03
1.58235294117647e+00 1.98284688248524e-01 1.70452054486864e-03
1.59411764705882e+00 1.96945307887274e-01 1.69928896925355e-03
1.60588235294118e+00 1.95614974816060e-01 1.69402731543210e-03
1.61764705882353e+00 1.94293627921989e-01 1.68873662903759e-03
1.62941176470588e+00 1.92981206512974e-01 1.68341794160789e-03
1.64117647058824e+00 1.91677650290865e-01 1.67807226096937e-03
1.65294117647059e+00 1.90382899380593e-01 1.67270057395595e-03
1.66470588235294e+00 1.89096894296008e-01 1.66730384964737e-03
1.67647058823529e+00 1.87819575960558e-01 1.66188302986597e-03
1.68823529411765e+00 1.86550885704205e-01 1.65643904428624e-03
1.70000000000000e+00 1.85290765238255e-01 1.65097280124857e-03
1.71176470588235e+00 1.84039156682478e-01 1.64548519031290e-03
1.72352941176471e+00 1.82796002533111e-01 1.63997708302126e-03
1.73529411764706e+00 1.81561245689103e-01 1.63444933293799e-03
1.74705882352941e+00 1.80334829421042e-01 1.62890277860070e-03
1.75882352941176e+00 1.79116697389765e-01 1.62333823465069e-03
1.77058823529412e+00 1.77906793643441e-01 1.61775650582381e-03
1.78235294117647e+00 1.76705062594611e-01 1.61215837837318e-03
1.79411764705882e+00 1.75511449044670e-01 1.60654462240021e-03
1.80588235294118e+00 1.74325898154702e-01 1.60091599463572e-03
1.81764705882353e+00 1.73148355462815e-01 1.59527322996771e-03
1.82941176470588e+00 1.71978766881337e-01 1.58961705472970e-03
1.84117647058824e+00 1.70817078675243e-01 1.58394817851288e-03
1.85294117647059e+00 1.69663237485000e-01 1.57826729636073e-03
1.86470588235294e+00 1.68517190299174e-01 1.57257509138969e-03
1.87647058823529e+00 1.67378884470595e-01 1.56687222670231e-03
1.88823529411765e+00 1.66248267713655e-01 1.56115935801732e-03
1.90000000000000e+00 1.65125288084017e-01 1.55543712584666e-03
1.91176470588235e+00 1.64009893999958e-01 1.54970615757001e-03
1.92352941176471e+00 1.62902034216615e-01 1.54396706798883e-03
1.93529411764706e+00 1.61801657846675e-01 1.53822045929155e-03
1.94705882352941e+00 1.60708714335322e-01 1.53246692346247e-03
1.95882352941176e+00 1.59623153474863e-01 1.52670703472694e-03
1.97058823529412e+00 1.58544925402164e-01 1.52094136129149e-03
1.98235294117647e+00 1.57473980580051e-01 1.51517045803291e-03
1.99411764705882e+00 1.56410269816670e-01 1.50939486840761e-03
2.00588235294118e+00 1.55353744241897e-01 1.50361512673295e-03
2.01764705882353e+00 1.54304355321003e-01 1.49783175096796e-03
2.02941176470588e+00 1.53262054852193e-01 1.49204525388922e-03
2.04117647058824e+00 1.52226794949067e-01 1.48625613610809e-03
2.05294117647059e+00 1.51198528058748e-01 1.48046488787729e-03
2.06470588235294e+00 1.50177206939653e-01 1.47467199125058e-03
2.07647058823529e+00 1.49162784674278e-01 1.46887791318777e-03
2.08823529411765e+00 1.48155214666820e-01 1.46308311619858e-03
2.10000000000000e+00 1.47154450626634e-01 1.45728805166786e-03
2.11176470588235e+00 1.46160446585219e-01 1.45149316157067e-03
2.12352941176471e+00 1.45173156875258e-01 1.44569887889074e-03
2.13529411764706e+00 1.44192536147107e-01 1.43990562755293e-03
2.14705882352941e+00 1.43218539348377e-01 1.43411382441975e-03
2.15882352941176e+00 1.42251121735549e-01 1.42832387284220e-03
2.17058823529412e+00 1.41290238871718e-01 1.42253617258200e-03
2.18235294117647e+00 1.40335846611362e-01 1.41675111356665e-03
2.19411764705882e+00 1.39387901115817e-01 1.41096907747674e-03
2.20588235294118e+00 1.38446358834000e-01 1.40519043964285e-03
2.21764705882353e+00 1.37511176513284e-01 1.39941556287927e-03
2.22941176470588e+00 1.36582311197336e-01 1.39364480694553e-03
2.24117647058824e+00 1.35659720211715e-01 1.38787852257737e-03
2.25294117647059e+00 1.34743361178397e-01 1.38211705299385e-03
2.26470588235294e+00 1.33833191997567e-01 1.37636073569897e-03
2.27647058823529e+00 1.32929170857819e-01 1.37060989658790e-03
2.28823529411765e+00 1.32031256234064e-01 1.36486485897239e-03
2.30000000000000e+00 1.31139406873912e-01 1.35912593787165e-03
2.31176470588235e+00 1.30253581811322e-01 1.35339344144691e-03
2.32352941176471e+00 1.29373740349379e-01 1.34766767132671e-03
2.33529411764706e+00 1.28499842073560e-01 1.34194892252724e-03
2.34705882352941e+00 1.27631846834942e-01 1.33623748512436e-03
2.35882352941176e+00 1.26769714759509e-01 1.33053363873413e-03
2.37058823529412e+00 1.25913406246156e-01 1.32483766094574e-03
2.38235294117647e+00 1.25062881954118e-01 1.31914982197288e-03
2.39411764705882e+00 1.24218102815437e-01 1.31347038598718e-03
2.40588235294118e+00 1.23379030019077e-01 1.30779961271133e-03
2.41764705882353e+00 1.22545625019661e-01 1.30213775213785e-03
2.42941176470588e+00 1.21717849535548e-01 1.29648505258070e-03
2.44117647058824e+00 1.20895665536928e-01 1.29084175556017e-03
2.45294117647059e+00 1.20079035257544e-01 1.28520809707183e-03
2.46470588235294e+00 1.19267921179662e-01 1.27958430910262e-03
2.47647058823529e+00 1.18462286042272e-01 1.27397061457995e-03
2.48823529411765e+00 1.17662092839239e-01 1.26836723506177e-03
2.50000000000000e+00 1.16867304808017e-01 1.26277438584078e-03
2.51176470588235e+00 1.16077885440686e-01 1.25719227715511e-03
2.52352941176471e+00 1.15293798469709e-01 1.25162111444621e-03
2.53529411764706e+00 1.14515007878675e-01 1.24606109827663e-03
2.54705882352941e+00 1.13741477888390e-01 1.24051242574197e-03
2.55882352941176e+00 1.12973172964383e-01 1.23497528573505e-03
2.57058823529412e+00 1.12210057815148e-01 1.22944986614386e-03
2.58235294117647e+00 1.11452097381684e-01 1.22393634926019e-03
2.59411764705882e+00 1.10699256847615e-01 1.21843491290797e-03
2.60588235294118e+00 1.09951501626011e-01 1.21294573179043e-03
2.61764705882353e+00 1.09208797366442e-01 1.20746897295580e-03
2.62941176470588e+00 1.08471109953287e-01 1.20200480267761e-03
2.64117647058824e+00 1.07738405495806e-01 1.19655338206064e-03
2.65294117647059e+00 1.07010650337679e-01 1.19111486811645e-03
2.66470588235294e+00 1.06287811044504e-01 1.18568941504791e-03
2.67647058823529e+00 1.05569854410443e-01 1.18027716990977e-03
2.68823529411765e+00 1.04856747456579e-01 1.17487827918649e-03
2.70000000000000e+00 1.04148457421504e-01 1.16949288458426e-03
2.71176470588235e+00 1.03444951770302e-01 1.16412112405874e-03
2.72352941176471e+00 1.02746198182694e-01 1.15876313202260e-03
2.73529411764706e+00 1.02052164561789e-01 1.15341903926668e-03
2.74705882352941e+00 1.01362819022495e-01 1.14808897415884e-03
2.75882352941176e+00 1.00678129897611e-01 1.14277305857073e-03
2.77058823529412e+00 9.99980657362657e-02 1.13747141404424e-03
2.78235294117647e+00 9.93225952951736e-02 1.13218415784050e-03
2.79411764705882e+00 9.86516875468935e-02 1.12691140390018e-03
2.80588235294118e+00 9.79853116688259e-02 1.12165326398917e-03
2.81764705882353e+00 9.73234370489500e-02 1.11640984379657e-03
2.82941176470588e+00 9.66660332843205e-02 1.11118124883385e-03
2.84117647058824e+00 9.60130701727551e-02 1.10596758065171e-03
2.85294117647059e+00 9.53645177206312e-02 1.10076893775682e-03
2.86470588235294e+00 9.47203461324336e-02 1.09558541670533e-03
2.87647058823529e+00 9.40805258161641e-02 1.09041710836630e-03
2.88823529411765e+00 9.34450273818879e-02 1.08526410356657e-03
2.90000000000000e+00 9.28138216338324e-02 1.08012648946574e-03
2.91176470588235e+00 9.21868795777486e-02 1.07500435043289e-03
2.92352941176471e+00 9.15641724109794e-02 1.06989776821604e-03
2.93529411764706e+00 9.09456715296341e-02 1.06480682186837e-03
2.94705882352941e+00 9.03313485188763e-02 1.05973158877097e-03
2.95882352941176e+00 8.97211751578933e-02 1.05467214112205e-03
2.97058823529412e+00 8.91151234185124e-02 1.04962855123539e-03
2.98235294117647e+00 8.85131654578485e-02 1.04460088813353e-03
2.99411764705882e+00 8.79152736250817e-02 1.03958921836857e-03
3.00588235294118e+00 8.73214204522242e-02 1.03459360700057e-03
3.01764705882353e+00 8.67315786588069e-02 1.02961411423246e-03
3.02941176470588e+00 8.61457211505462e-02 1.02465080048289e-03
3.04117647058824e+00 8.55638210123454e-02 1.01970372312204e-03
3.05294117647059e+00 8.49858515147007e-02 1.01477293725613e-03
3.06470588235294e+00 8.44117861049201e-02 1.00985849666250e-03
3.07647058823529e+00 8.38415984115461e-02 1.00496045056522e-03
3.08823529411765e+00 8.32752622430679e-02 1.00007884849275e-03
3.10000000000000e+00 8.27127515812598e-02 9.95213737148665e-04
3.11176470588235e+00 8.21540405872380e-02 9.90365161162699e-04
3.12352941176471e+00 8.15991035931046e-02 9.85533163230324e-04
3.13529411764706e+00 8.10479151078545e-02 9.80717784044804e-04
3.14705882352941e+00 8.05004498091998e-02 9.75919063173238e-04
3.15882352941176e+00 7.99566825476407e-02 9.71137036024656e-04
3.17058823529412e+00 7.94165883452384e-02 9.66371738414092e-04
3.18235294117647e+00 7.88801423894054e-02 9.61623203619480e-04
3.19411764705882e+00 7.83473200384914e-02 9.56891463085589e-04
3.20588235294118e+00 7.78180968140020e-02 9.52176547262601e-04
3.21764705882353e+00 7.72924484044420e-02 9.47478482698716e-04
3.22941176470588e+00 7.67703506641331e-02 9.42797296412629e-04
3.24117647058824e+00 7.62517796072955e-02 9.38133013072273e-04
3.25294117647059e+00 7.57367114133348e-02 9.33485655668266e-04
3.26470588235294e+00 7.52251224194314e-02 9.28855246316033e-04
3.27647058823529e+00 7.47169891241731e-02 9.24241803468609e-04
3.28823529411765e+00 7.42122881864111e-02 9.19645346106319e-04
3.30000000000000e+00 7.37109964196221e-02 9.15065891030676e-04
3.31176470588235e+00 7.32130907969106e-02 9.10503453509754e-04
3.32352941176471e+00 7.27185484439511e-02 9.05958047393767e-04
3.33529411764706e+00 7.22273466438699e-02 9.01429685053913e-04
3.34705882352941e+00 7.17394628303353e-02 8.96918378134793e-04
3.35882352941176e+00 7.12548745909047e-02 8.92424134931014e-04
3.37058823529412e+00 7.07735596659368e-02 8.87946964327845e-04
3.38235294117647e+00 7.02954959433248e-02 8.83486873253987e-04
3.39411764705882e+00 6.98206614631197e-02 8.79043867287148e-04
3.40588235294118e+00 6.93490344109456e-02 8.74617951375034e-04
3.41764705882353e+00 6.88805931211637e-02 8.70209127318742e-04
3.42941176470588e+00 6.84153160758224e-02 8.65817397549846e-04
3.44117647058824e+00 6.79531818996345e-02 8.61442762687609e-04
3.45294117647059e+00 6.74941693643556e-02 8.57085222118805e-04
3.46470588235294e+00 6.70382573825078e-02 8.52744774687783e-04
3.47647058823529e+00 6.65854250103726e-02 8.48421416282924e-04
3.48823529411765e+00 6.61356514469755e-02 8.44115143457675e-04
3.50000000000000e+00 6.56889160292960e-02 8.39825951086605e-04
3.51176470588235e+00 6.52451982364144e-02 8.35553832921289e-04
3.52352941176471e+00 6.48044776835285e-02 8.31298781686851e-04
3.53529411764706e+00 6.43667341260030e-02 8.27060789027018e-04
3.54705882352941e+00 6.39319474535076e-02 8.22839846152065e-04
3.55882352941176e+00 6.35000976927795e-02 8.18635941565513e-04
3.57058823529412e+00 6.30711650066567e-02 8.14449064472658e-04
3.58235294117647e+00 6.26451296895975e-02 8.10279202572854e-04
3.59411764705882e+00 6.22219721715186e-02 8.06126342581683e-04
3.60588235294118e+00 6.18016730122044e-02 8.01990470852094e-04
3.61764705882353e+00 6.13842129039201e-02 7.97871571192979e-04
3.62941176470588e+00 6.09695726704788e-02 7.93769628137929e-04
3.64117647058824e+00 6.05577332629647e-02 7.89684624826809e-04
3.65294117647059e+00 6.01486757633710e-02 7.85616543506168e-04
3.66470588235294e+00 5.97423813792662e-02 7.81565366124307e-04
3.67647058823529e+00 5.93388314462683e-02 7.77531072238191e-04
3.68823529411765e+00 5.89380074271421e-02 7.73513642148627e-04
3.70000000000000e+00 5.85398909077170e-02 7.69513054866687e-04
3.71176470588235e+00 5.81444636003358e-02 7.65529288593965e-04
