Energy (eV)          EEDF (eV^-(3/2))     First Anisotropy
1.04166666666667e-03 6.15328998509879e-01 2.96892645825908e-08
3.12500000000000e-03 6.15328978747021e-01 8.58751389797081e-08
5.20833333333333e-03 6.15328932441552e-01 2.02720312715958e-07
7.29166666666667e-03 6.15328857840621e-01 3.50281409594839e-07
9.37500000000000e-03 6.15328755740949e-01 5.16982211764207e-07
1.14583333333333e-02 6.15328627677634e-01 7.02939073755219e-07
1.35416666666667e-02 6.15328472463215e-01 9.09438657429391e-07
1.56250000000000e-02 6.15328290297693e-01 1.12398074318985e-06
1.77083333333333e-02 6.15328083994785e-01 1.33811217854980e-06
1.97916666666667e-02 6.15327855559526e-01 1.55239516202648e-06
2.18750000000000e-02 6.15327606573084e-01 1.76807106994214e-06
2.39583333333333e-02 6.15327337972861e-01 1.98881689188800e-06
2.60416666666667e-02 6.15327049846559e-01 2.21666075163484e-06
2.81250000000000e-02 6.15326742360848e-01 2.45064042059470e-06
3.02083333333333e-02 6.15326415742732e-01 2.68577365660144e-06
3.22916666666667e-02 6.15326071306505e-01 2.91967012912750e-06
3.43750000000000e-02 6.15325709662813e-01 3.15828954056389e-06
3.64583333333333e-02 6.15325330496376e-01 3.40507916259547e-06
3.85416666666667e-02 6.15324933559190e-01 3.65948588534889e-06
4.06250000000000e-02 6.15324518668566e-01 3.92400478031610e-06
4.27083333333333e-02 6.15324085028098e-01 4.20055056205826e-06
4.47916666666667e-02 6.15323632085132e-01 4.48762183856505e-06
4.68750000000000e-02 6.15323159419781e-01 4.78455749568866e-06
4.89583333333333e-02 6.15322666646370e-01 5.09111156642287e-06
5.10416666666667e-02 6.15322153412916e-01 5.39518979919311e-06
5.31250000000000e-02 6.15321621735029e-01 5.69639405944450e-06
5.52083333333333e-02 6.15321071222920e-01 6.00668882675280e-06
5.72916666666667e-02 6.15320501507750e-01 6.32596188608277e-06
5.93750000000000e-02 6.15319912239856e-01 6.65412452820376e-06
6.14583333333333e-02 6.15319303082927e-01 6.99129584943357e-06
6.35416666666667e-02 6.15318673680655e-01 7.33793885988840e-06
6.56250000000000e-02 6.15318023629611e-01 7.69435037084088e-06
6.77083333333333e-02 6.15317352538171e-01 8.06049232015761e-06
6.97916666666667e-02 6.15316660026188e-01 8.42940904985880e-06
7.18750000000000e-02 6.15315946906704e-01 8.79005557196319e-06
7.39583333333333e-02 6.15315214631854e-01 9.14865628514949e-06
7.60416666666667e-02 6.15314462877710e-01 9.51562612229573e-06
7.81250000000000e-02 6.15313691328531e-01 9.89093645241036e-06
8.02083333333333e-02 6.15312899677264e-01 1.02745910071540e-05
8.22916666666667e-02 6.15312087618997e-01 1.06667458793819e-05
8.43750000000000e-02 6.15311254833156e-01 1.10675940460222e-05
8.64583333333333e-02 6.15310400995734e-01 1.14771541825384e-05
8.85416666666667e-02 6.15309525793959e-01 1.18953242618865e-05
9.06250000000000e-02 6.15308628929099e-01 1.23220233534557e-05
9.27083333333333e-02 6.15307710109398e-01 1.27573395659918e-05
9.47916666666667e-02 6.15306769031261e-01 1.32013998702089e-05
9.68750000000000e-02 6.15305805392192e-01 1.36542330073113e-05
9.89583333333333e-02 6.15304818892254e-01 1.41158731428293e-05
1.01041666666667e-01 6.15303809231557e-01 1.45637107993671e-05
1.03125000000000e-01 6.15302779395681e-01 1.49959490382008e-05
1.05208333333333e-01 6.15301729261031e-01 1.54338106278993e-05
1.07291666666667e-01 6.15300658703090e-01 1.58773115568298e-05
1.09375000000000e-01 6.15299567595890e-01 1.63264718916345e-05
1.11458333333333e-01 6.15298455812091e-01 1.67813113697308e-05
1.13541666666667e-01 6.15297323223060e-01 1.72418494342335e-05
1.15625000000000e-01 6.15296169698932e-01 1.77081052691421e-05
1.17708333333333e-01 6.15294995108673e-01 1.81800978381681e-05
1.19791666666667e-01 6.15293799320135e-01 1.86578458991374e-05
1.21875000000000e-01 6.15292582200103e-01 1.91413680290788e-05
1.23958333333333e-01 6.15291343614343e-01 1.96306826670240e-05
1.26041666666667e-01 6.15290083427636e-01 2.01258081222109e-05
1.28125000000000e-01 6.15288801503820e-01 2.06267625860412e-05
1.30208333333333e-01 6.15287497705824e-01 2.11335641601270e-05
1.32291666666667e-01 6.15286171895690e-01 2.16462308523847e-05
1.34375000000000e-01 6.15284823934611e-01 2.21647806125326e-05
1.36458333333333e-01 6.15283453682949e-01 2.26892313476553e-05
1.38541666666667e-01 6.15282061000258e-01 2.32196009174533e-05
1.40625000000000e-01 6.15280645745305e-01 2.37559071495715e-05
1.42708333333333e-01 6.15279207776091e-01 2.42981678404518e-05
1.44791666666667e-01 6.15277746949863e-01 2.48464007783193e-05
1.46875000000000e-01 6.15276263123137e-01 2.54006237410960e-05
1.48958333333333e-01 6.15274756151703e-01 2.59608544992475e-05
1.51041666666667e-01 6.15273225890645e-01 2.65271108427849e-05
1.53125000000000e-01 6.15271672194350e-01 2.70994105670741e-05
1.55208333333333e-01 6.15270094916516e-01 2.76777714744992e-05
1.57291666666667e-01 6.15268493910166e-01 2.82622113858087e-05
1.59375000000000e-01 6.15266869027655e-01 2.88527481448438e-05
1.61458333333333e-01 6.15265220120679e-01 2.94493996300624e-05
1.63541666666667e-01 6.15263547040279e-01 3.00521837423814e-05
1.65625000000000e-01 6.15261849636849e-01 3.06611184160990e-05
1.67708333333333e-01 6.15260127760146e-01 3.12762216168456e-05
1.69791666666667e-01 6.15258381259290e-01 3.18975111419388e-05
1.71875000000000e-01 6.15256609982794e-01 3.25250040173831e-05
1.73958333333333e-01 6.15254813778633e-01 3.31587153732849e-05
1.76041666666667e-01 6.15252992494395e-01 3.37986563494905e-05
1.78125000000000e-01 6.15251145977570e-01 3.44448303198012e-05
1.80208333333333e-01 6.15249274076095e-01 3.50972269156600e-05
1.82291666666667e-01 6.15247376639274e-01 3.57558141279500e-05
1.84375000000000e-01 6.15245453519127e-01 3.64205302776235e-05
1.86458333333333e-01 6.15243504572112e-01 3.70912790355159e-05
1.88541666666667e-01 6.15241529660927e-01 3.77679176277738e-05
1.90625000000000e-01 6.15239528657384e-01 3.84502701211514e-05
1.92708333333333e-01 6.15237501442694e-01 3.91381787425075e-05
1.94791666666667e-01 6.15235447904905e-01 3.98315284736773e-05
1.96875000000000e-01 6.15233367936694e-01 4.05302468940197e-05
1.98958333333333e-01 6.15231261432929e-01 4.12343011759455e-05
2.01041666666667e-01 6.15229128288905e-01 4.18978298646303e-05
2.03125000000000e-01 6.15226973402401e-01 4.25194622279095e-05
2.05208333333333e-01 6.15224796758370e-01 4.31439971920041e-05
2.07291666666667e-01 6.15222598341561e-01 4.37714204480761e-05
2.09375000000000e-01 6.15220378136633e-01 4.44017169277629e-05
2.11458333333333e-01 6.15218136128140e-01 4.50348719804458e-05
2.13541666666667e-01 6.15215872300531e-01 4.56708713692403e-05
2.15625000000000e-01 6.15213586638136e-01 4.63097012536021e-05
2.17708333333333e-01 6.15211279125159e-01 4.69513481671345e-05
2.19791666666667e-01 6.15208949745676e-01 4.75957990209500e-05
2.21875000000000e-01 6.15206598483623e-01 4.82430410993441e-05
2.23958333333333e-01 6.15204225322789e-01 4.88930620304684e-05
2.26041666666667e-01 6.15201830246817e-01 4.95458497872871e-05
2.28125000000000e-01 6.15199413239192e-01 5.02013926841299e-05
2.30208333333333e-01 6.15196974283237e-01 5.08596793560259e-05
2.32291666666667e-01 6.15194513362112e-01 5.15206987538878e-05
2.34375000000000e-01 6.15192030458804e-01 5.21844401432196e-05
2.36458333333333e-01 6.15189525556127e-01 5.28508930889519e-05
2.38541666666667e-01 6.15186998636714e-01 5.35200474482598e-05
2.40625000000000e-01 6.15184449683017e-01 5.41918933762885e-05
2.42708333333333e-01 6.15181878677301e-01 5.48664213109203e-05
2.44791666666667e-01 6.15179285601640e-01 5.55436219537771e-05
2.46875000000000e-01 6.15176670437914e-01 5.62234862806444e-05
2.48958333333333e-01 6.15174033167808e-01 5.69060055331831e-05
2.51041666666667e-01 6.15171373772806e-01 5.75911711998120e-05
2.53125000000000e-01 6.15168692234191e-01 5.82789750323470e-05
2.55208333333333e-01 6.15165988533039e-01 5.89694090185151e-05
2.57291666666667e-01 6.15163262650221e-01 5.96624653794110e-05
2.59375000000000e-01 6.15160514566396e-01 6.03581365743116e-05
2.61458333333333e-01 6.15157744262012e-01 6.10564152971846e-05
2.63541666666667e-01 6.15154951717302e-01 6.17572944622337e-05
2.65625000000000e-01 6.15152136912285e-01 6.24607671990710e-05
2.67708333333333e-01 6.15149299826759e-01 6.31668268454972e-05
2.69791666666667e-01 6.15146440440306e-01 6.38754668890535e-05
2.71875000000000e-01 6.15143558732288e-01 6.45866807640051e-05
2.73958333333333e-01 6.15140654681872e-01 6.53004614738956e-05
2.76041666666667e-01 6.15137728268060e-01 6.60168009167541e-05
2.78125000000000e-01 6.15134779469769e-01 6.67356886518767e-05
2.80208333333333e-01 6.15131808265971e-01 6.74571099704730e-05
2.82291666666667e-01 6.15128814635945e-01 6.81810433131772e-05
2.84375000000000e-01 6.15125798559637e-01 6.89074575184171e-05
2.86458333333333e-01 6.15122760018139e-01 6.96363101024303e-05
2.88541666666667e-01 6.15119698994199e-01 7.03675436221257e-05
2.90625000000000e-01 6.15116615472988e-01 7.11010902056522e-05
2.92708333333333e-01 6.15113509442195e-01 7.18368885640453e-05
2.94791666666667e-01 6.15110380891301e-01 7.25748924274619e-05
2.96875000000000e-01 6.15107229810943e-01 7.33150703096066e-05
2.98958333333333e-01 6.15104056192237e-01 7.40574042479347e-05
3.01041666666667e-01 6.15100860026276e-01 7.47852446152218e-05
3.03125000000000e-01 6.15097643003853e-01 7.55338239024840e-05
3.05208333333333e-01 6.15094402098051e-01 7.63540524100848e-05
3.07291666666667e-01 6.15091134403080e-01 7.72437355706362e-05
3.09375000000000e-01 6.15087837130135e-01 7.82007352609176e-05
3.11458333333333e-01 6.15084507603465e-01 7.92229675632042e-05
3.13541666666667e-01 6.15081143256591e-01 8.03084012103716e-05
3.15625000000000e-01 6.15077741628650e-01 8.14550560742838e-05
3.17708333333333e-01 6.15074300360878e-01 8.26610017135395e-05
3.19791666666667e-01 6.15070817193221e-01 8.39243559675921e-05
3.21875000000000e-01 6.15067289961063e-01 8.52432836304236e-05
3.23958333333333e-01 6.15063716592067e-01 8.66159951265908e-05
3.26041666666667e-01 6.15060095103141e-01 8.80407452124208e-05
3.28125000000000e-01 6.15056423597495e-01 8.95158317712108e-05
3.30208333333333e-01 6.15052700261815e-01 9.10395946325076e-05
3.32291666666667e-01 6.15048923363526e-01 9.26104144181678e-05
3.34375000000000e-01 6.15045091248158e-01 9.42267114015846e-05
3.36458333333333e-01 6.15041202336795e-01 9.58869444489318e-05
3.38541666666667e-01 6.15037255123623e-01 9.75896099723399e-05
3.40625000000000e-01 6.15033248173551e-01 9.93332409025124e-05
3.42708333333333e-01 6.15029180119924e-01 1.01116405711638e-04
3.44791666666667e-01 6.15025049662304e-01 1.02937707458978e-04
3.46875000000000e-01 6.15020855564337e-01 1.04795782856975e-04
3.48958333333333e-01 6.15016596651686e-01 1.06689301359765e-04
3.51041666666667e-01 6.15012271810035e-01 1.08616964325712e-04
3.53125000000000e-01 6.15007879983160e-01 1.10577504152623e-04
3.55208333333333e-01 6.15003420171067e-01 1.12569683450407e-04
3.57291666666667e-01 6.14998891428191e-01 1.14592294247483e-04
3.59375000000000e-01 6.14994292861655e-01 1.16644157222916e-04
3.61458333333333e-01 6.14989623629589e-01 1.18724120942032e-04
3.63541666666667e-01 6.14984882939498e-01 1.20831061137351e-04
3.65625000000000e-01 6.14980070046697e-01 1.22963880012685e-04
3.67708333333333e-01 6.14975184252784e-01 1.25121505516789e-04
3.69791666666667e-01 6.14970224904169e-01 1.27302890662454e-04
3.71875000000000e-01 6.14965191390661e-01 1.29507012787466e-04
3.73958333333333e-01 6.14960083144091e-01 1.31732872745166e-04
3.76041666666667e-01 6.14954899637003e-01 1.33979493943818e-04
3.78125000000000e-01 6.14949640381398e-01 1.36245921105380e-04
3.80208333333333e-01 6.14944304927557e-01 1.38531218698885e-04
3.82291666666667e-01 6.14938892862943e-01 1.40834469129546e-04
3.84375000000000e-01 6.14933403811201e-01 1.43154770977742e-04
3.86458333333333e-01 6.14927837431227e-01 1.45491237712319e-04
3.88541666666667e-01 6.14922193416297e-01 1.47842995185350e-04
3.90625000000000e-01 6.14916471493353e-01 1.50209183524344e-04
3.92708333333333e-01 6.14910671422004e-01 1.52588965385829e-04
3.94791666666667e-01 6.14904792993203e-01 1.54981529555764e-04
3.96875000000000e-01 6.14898836027995e-01 1.57386090402017e-04
3.98958333333333e-01 6.14892800376279e-01 1.59801886452048e-04
4.01041666666667e-01 6.14886685915698e-01 1.62174465648899e-04
4.03125000000000e-01 6.14880497273434e-01 1.64543254132589e-04
4.05208333333333e-01 6.14874231342480e-01 1.67000442869214e-04
4.07291666666667e-01 6.14867885140537e-01 1.69543278978540e-04
4.09375000000000e-01 6.14861455806136e-01 1.72169078925285e-04
4.11458333333333e-01 6.14854940594870e-01 1.74875226858328e-04
4.13541666666667e-01 6.14848336875743e-01 1.77659172997445e-04
4.15625000000000e-01 6.14841642127625e-01 1.80518432068440e-04
4.17708333333333e-01 6.14834853935819e-01 1.83450581791964e-04
4.19791666666667e-01 6.14827969988721e-01 1.86453261389487e-04
4.21875000000000e-01 6.14820988074589e-01 1.89524170139550e-04
4.23958333333333e-01 6.14813906078400e-01 1.92661065996906e-04
4.26041666666667e-01 6.14806721978802e-01 1.95861764191154e-04
4.28125000000000e-01 6.14799433845159e-01 1.99124135914229e-04
4.30208333333333e-01 6.14792039834678e-01 2.02446107041941e-04
4.32291666666667e-01 6.14784538189623e-01 2.05825656844328e-04
4.34375000000000e-01 6.14776927234607e-01 2.09260816752436e-04
4.36458333333333e-01 6.14769205373973e-01 2.12749669166723e-04
4.38541666666667e-01 6.14761371089234e-01 2.16290346294996e-04
4.40625000000000e-01 6.14753422936608e-01 2.19881028996905e-04
4.42708333333333e-01 6.14745359544604e-01 2.23519945678798e-04
4.44791666666667e-01 6.14737179611694e-01 2.27205371225239e-04
4.46875000000000e-01 6.14728881904046e-01 2.30935625901084e-04
4.48958333333333e-01 6.14720465253318e-01 2.34709074341350e-04
4.51041666666667e-01 6.14711928554525e-01 2.38524124558514e-04
4.53125000000000e-01 6.14703270763961e-01 2.42379226940473e-04
4.55208333333333e-01 6.14694490897180e-01 2.46272873304720e-04
4.57291666666667e-01 6.14685588027039e-01 2.50203595957524e-04
4.59375000000000e-01 6.14676561281794e-01 2.54169966788381e-04
4.61458333333333e-01 6.14667409843253e-01 2.58170596377513e-04
4.63541666666667e-01 6.14658132944976e-01 2.62204133126588e-04
4.65625000000000e-01 6.14648729870534e-01 2.66269262426060e-04
4.67708333333333e-01 6.14639199951813e-01 2.70364705828962e-04
4.69791666666667e-01 6.14629542567365e-01 2.74489220215208e-04
4.71875000000000e-01 6.14619757140809e-01 2.78641596935388e-04
4.73958333333333e-01 6.14609843139283e-01 2.82820660957108e-04
4.76041666666667e-01 6.14599800071940e-01 2.87025269932613e-04
4.78125000000000e-01 6.14589627488496e-01 2.91254313094174e-04
4.80208333333333e-01 6.14579324977838e-01 2.95506709947141e-04
4.82291666666667e-01 6.14568892166701e-01 2.99781408810442e-04
4.84375000000000e-01 6.14558328718403e-01 3.04077385340962e-04
4.86458333333333e-01 6.14547634331654e-01 3.08393641338653e-04
4.88541666666667e-01 6.14536808739408e-01 3.12729203253492e-04
4.90625000000000e-01 6.14525851707790e-01 3.17083123549835e-04
4.92708333333333e-01 6.14514763034873e-01 3.21454484832162e-04
4.94791666666667e-01 6.14503542549345e-01 3.25842401504684e-04
4.96875000000000e-01 6.14492190109187e-01 3.30246019368701e-04
4.98958333333333e-01 6.14480705600392e-01 3.34664514251633e-04
5.01041666666667e-01 6.14469088935778e-01 3.39045804208193e-04
5.03125000000000e-01 6.14457344088297e-01 3.43395483841323e-04
5.05208333333333e-01 6.14445470583898e-01 3.47770129450131e-04
5.07291666666667e-01 6.14433467997927e-01 3.52168348920942e-04
5.09375000000000e-01 6.14421335953629e-01 3.56588783395847e-04
5.11458333333333e-01 6.14409074120674e-01 3.61030107082282e-04
5.13541666666667e-01 6.14396682213704e-01 3.65491026591017e-04
5.15625000000000e-01 6.14384159990927e-01 3.69970280283158e-04
5.17708333333333e-01 6.14371507252746e-01 3.74466637664236e-04
5.19791666666667e-01 6.14358723840420e-01 3.78978898768993e-04
5.21875000000000e-01 6.14345809634761e-01 3.83505893546896e-04
5.23958333333333e-01 6.14332764554862e-01 3.88046481271734e-04
5.26041666666667e-01 6.14319588556864e-01 3.92599549980806e-04
5.28125000000000e-01 6.14306281632742e-01 3.97164015911397e-04
5.30208333333333e-01 6.14292843809138e-01 4.01738822954595e-04
5.32291666666667e-01 6.14279275146203e-01 4.06322942093847e-04
5.34375000000000e-01 6.14265575736494e-01 4.10915370884681e-04
5.36458333333333e-01 6.14251745703872e-01 4.15515132936498e-04
5.38541666666667e-01 6.14237785202450e-01 4.20121277403358e-04
5.40625000000000e-01 6.14223694415555e-01 4.24732878500748e-04
5.42708333333333e-01 6.14209473554720e-01 4.29349035003846e-04
5.44791666666667e-01 6.14195122858700e-01 4.33968869772370e-04
5.46875000000000e-01 6.14180642592517e-01 4.38591529279133e-04
5.48958333333333e-01 6.14166033046524e-01 4.43216183152600e-04
5.51041666666667e-01 6.14151294535497e-01 4.47842023722054e-04
5.53125000000000e-01 6.14136427397746e-01 4.52468265590828e-04
5.55208333333333e-01 6.14121431994252e-01 4.57094145201048e-04
5.57291666666667e-01 6.14106308707825e-01 4.61718920391647e-04
5.59375000000000e-01 6.14091057942279e-01 4.66341869998781e-04
5.61458333333333e-01 6.14075680121636e-01 4.70962293450183e-04
5.63541666666667e-01 6.14060175689343e-01 4.75579510351877e-04
5.65625000000000e-01 6.14044545107513e-01 4.80192860118248e-04
5.67708333333333e-01 6.14028788856182e-01 4.84801701562827e-04
5.69791666666667e-01 6.14012907432590e-01 4.89405412523428e-04
5.71875000000000e-01 6.13996901350473e-01 4.94003389457011e-04
5.73958333333333e-01 6.13980771139384e-01 4.98595046987643e-04
5.76041666666667e-01 6.13964517344029e-01 5.03179817428461e-04
5.78125000000000e-01 6.13948140523625e-01 5.07757150155135e-04
5.80208333333333e-01 6.13931641251291e-01 5.12326510874809e-04
5.82291666666667e-01 6.13915020113468e-01 5.16887380733679e-04
5.84375000000000e-01 6.13898277709374e-01 5.21439255527360e-04
5.86458333333333e-01 6.13881414650484e-01 5.25981645434686e-04
5.88541666666667e-01 6.13864431560013e-01 5.30514074249500e-04
5.90625000000000e-01 6.13847329072455e-01 5.35036079392559e-04
5.92708333333333e-01 6.13830107833064e-01 5.39547215075623e-04
5.94791666666667e-01 6.13812768497195e-01 5.44047054421741e-04
5.96875000000000e-01 6.13795311729648e-01 5.48535188875003e-04
5.98958333333333e-01 6.13777738204059e-01 5.53011226436578e-04
6.01041666666667e-01 6.13760048602387e-01 5.57585488607271e-04
6.03125000000000e-01 6.13742236566437e-01 5.62474790408543e-04
6.05208333333333e-01 6.13724289017697e-01 5.67779313683902e-04
6.07291666666667e-01 6.13706193322866e-01 5.73486963082833e-04
6.09375000000000e-01 6.13687937282231e-01 5.79585915921440e-04
6.11458333333333e-01 6.13669509118359e-01 5.86064615756781e-04
6.13541666666667e-01 6.13650897465077e-01 5.92911766513124e-04
6.15625000000000e-01 6.13632091356727e-01 6.00116326752036e-04
6.17708333333333e-01 6.13613080217705e-01 6.07667504042033e-04
6.19791666666667e-01 6.13593853852250e-01 6.15554749492532e-04
6.21875000000000e-01 6.13574402434502e-01 6.23767752423683e-04
6.23958333333333e-01 6.13554716498802e-01 6.32296435134454e-04
6.26041666666667e-01 6.13534786930243e-01 6.41130947787599e-04
6.28125000000000e-01 6.13514604955456e-01 6.50261663426740e-04
6.30208333333333e-01 6.13494162133628e-01 6.59679173071512e-04
6.32291666666667e-01 6.13473450347746e-01 6.69374280946535e-04
6.34375000000000e-01 6.13452461796065e-01 6.79337999818453e-04
6.36458333333333e-01 6.13431188983783e-01 6.89561546395291e-04
6.38541666666667e-01 6.13409624714935e-01 7.00036336876015e-04
6.40625000000000e-01 6.13387762084485e-01 7.10753982567090e-04
6.42708333333333e-01 6.13365594470614e-01 7.21706285587736e-04
6.44791666666667e-01 6.13343115527215e-01 7.32885234682147e-04
6.46875000000000e-01 6.13320319176559e-01 7.44283001137358e-04
6.48958333333333e-01 6.13297199602163e-01 7.55891934749471e-04
6.51041666666667e-01 6.13273751241824e-01 7.67704559913835e-04
6.53125000000000e-01 6.13249968780835e-01 7.79713571767384e-04
6.55208333333333e-01 6.13225847145374e-01 7.91911832435378e-04
6.57291666666667e-01 6.13201381496052e-01 8.04292367380937e-04
