Energy (eV)          EEDF (eV^-(3/2))     First Anisotropy
3.32857142857143e-02 2.51501655963321e-01 2.49130736505645e-04
9.98571428571429e-02 2.45370808075423e-01 4.07742238140140e-04
1.66428571428571e-01 2.39389411680740e-01 5.28699436446248e-04
2.33000000000000e-01 2.33553823580470e-01 6.14969467467846e-04
2.99571428571429e-01 2.27860489442135e-01 6.82408770383160e-04
3.66142857142857e-01 2.22305941521557e-01 7.37180607619841e-04
4.32714285714286e-01 2.16886796647130e-01 7.82557974180711e-04
4.99285714285714e-01 2.11599754090216e-01 8.20566380663640e-04
5.65857142857143e-01 2.06441593597390e-01 8.52580857273705e-04
6.32428571428571e-01 2.01409173424726e-01 8.79594967323539e-04
6.99000000000000e-01 1.96499428395545e-01 9.02359697054044e-04
7.65571428571429e-01 1.91709368069025e-01 9.21462310777447e-04
8.32142857142857e-01 1.87036074888443e-01 9.37374391657673e-04
8.98714285714286e-01 1.82476702430334e-01 9.50482753137195e-04
9.65285714285714e-01 1.78028473647812e-01 9.61110219110053e-04
1.03185714285714e+00 1.73688679195196e-01 9.69530102591960e-04
1.09842857142857e+00 1.69454675764446e-01 9.75976601813915e-04
1.16500000000000e+00 1.65323884496567e-01 9.80652456430897e-04
1.23157142857143e+00 1.61293789425850e-01 9.83734720599426e-04
1.29814285714286e+00 1.57361935849559e-01 9.85379183439801e-04
1.36471428571429e+00 1.53525928938605e-01 9.85723819418455e-04
1.43128571428571e+00 1.49783432242464e-01 9.84891531548552e-04
1.49785714285714e+00 1.46132166265875e-01 9.82992346469374e-04
1.56442857142857e+00 1.42569907080974e-01 9.80125199857498e-04
1.63100000000000e+00 1.39094484972448e-01 9.76379401541976e-04
1.69757142857143e+00 1.35703783136047e-01 9.71835856098625e-04
1.76414285714286e+00 1.32395736327575e-01 9.66568077914201e-04
1.83071428571429e+00 1.29168329668389e-01 9.60643047072539e-04
1.89728571428571e+00 1.26019597396441e-01 9.54121944040055e-04
1.96385714285714e+00 1.22947621668847e-01 9.47060773035145e-04
2.03042857142857e+00 1.19950531394028e-01 9.39510900359855e-04
2.09700000000000e+00 1.17026501091911e-01 9.31519519844360e-04
2.16357142857143e+00 1.14173749795222e-01 9.23130062381522e-04
2.23014285714286e+00 1.11390539924309e-01 9.14382549643267e-04
2.29671428571429e+00 1.08675176270247e-01 9.05313904926903e-04
2.36328571428571e+00 1.06026004948140e-01 8.95958233186763e-04
2.42985714285714e+00 1.03441412389718e-01 8.86347065329911e-04
2.49642857142857e+00 1.00919824360663e-01 8.76509576839589e-04
2.56300000000000e+00 9.84597050017079e-02 8.66472782421661e-04
2.62957142857143e+00 9.60595559022338e-02 8.56261713668562e-04
2.69614285714286e+00 9.37179151597758e-02 8.45899575125255e-04
2.76271428571429e+00 9.14333565180985e-02 8.35407884888258e-04
2.82928571428571e+00 8.92044884887585e-02 8.24806605938470e-04
2.89585714285714e+00 8.70299535035349e-02 8.14114262070537e-04
2.96242857142857e+00 8.49084270876374e-02 8.03348044128437e-04
3.02900000000000e+00 8.28386170529472e-02 7.92523906244745e-04
3.09557142857143e+00 8.08192627174345e-02 7.81656656164418e-04
3.16214285714286e+00 7.88491341174671e-02 7.70760034976554e-04
3.22871428571429e+00 7.69270312789358e-02 7.59846790084157e-04
3.29528571428571e+00 7.50517834794554e-02 7.48928745452543e-04
3.36185714285714e+00 7.32222485352744e-02 7.38016863754181e-04
3.42842857142857e+00 7.14373121056385e-02 7.27121304292100e-04
3.49500000000000e+00 6.96958870140373e-02 7.16251476013326e-04
3.56157142857143e+00 6.79969125907446e-02 7.05416088421469e-04
3.62814285714286e+00 6.63393540123159e-02 6.94623196393266e-04
3.69471428571429e+00 6.47222016860730e-02 6.83880241615715e-04
3.76128571428571e+00 6.31444706301423e-02 6.73194093568102e-04
3.82785714285714e+00 6.16051998735033e-02 6.62571085627816e-04
3.89442857142857e+00 6.01034518707086e-02 6.52017049160282e-04
3.96100000000000e+00 5.86383119308231e-02 6.41537344896866e-04
4.02757142857143e+00 5.72088876638083e-02 6.31136893686260e-04
4.09414285714286e+00 5.58143084262406e-02 6.20820203342893e-04
4.16071428571429e+00 5.44537248019839e-02 6.10591393635969e-04
4.22728571428571e+00 5.31263080810894e-02 6.00454221640835e-04
4.29385714285714e+00 5.18312497550322e-02 5.90412103881061e-04
4.36042857142857e+00 5.05677610242825e-02 5.80468137451789e-04
4.42700000000000e+00 4.93350723178495e-02 5.70625119511590e-04
4.49357142857143e+00 4.81324328271900e-02 5.60885566749122e-04
4.56014285714286e+00 4.69591100408158e-02 5.51251732168658e-04
4.62671428571429e+00 4.58143893063865e-02 5.41725620777874e-04
4.69328571428571e+00 4.46975733926173e-02 5.32309005908840e-04
4.75985714285714e+00 4.36079820645996e-02 5.23003443296789e-04
4.82642857142857e+00 4.25449516694958e-02 5.13810284629487e-04
4.89300000000000e+00 4.15078347323105e-02 5.04730690051832e-04
4.95957142857143e+00 4.04959995635369e-02 4.95765640887589e-04
5.02614285714286e+00 3.95088298682470e-02 4.86915950430974e-04
5.09271428571429e+00 3.85457243769982e-02 4.78182274055545e-04
5.15928571428571e+00 3.76060964774730e-02 4.69565120008520e-04
5.22585714285714e+00 3.66893738571773e-02 4.61064858574210e-04
5.29242857142857e+00 3.57949981548649e-02 4.52681730962690e-04
5.35900000000000e+00 3.49224246204428e-02 4.44415857497804e-04
5.42557142857143e+00 3.40711217847193e-02 4.36267246107778e-04
5.49214285714286e+00 3.32405711309637e-02 4.28235799381368e-04
5.55871428571429e+00 3.24302667839110e-02 4.20321321182779e-04
5.62528571428571e+00 3.16397152000006e-02 4.12523523916745e-04
5.69185714285714e+00 3.08684348667633e-02 4.04842034573977e-04
5.75842857142857e+00 3.01159560095471e-02 3.97276400639746e-04
5.82500000000000e+00 2.93818203053807e-02 3.89826095516164e-04
5.89157142857143e+00 2.86655806050145e-02 3.82490524262063e-04
5.95814285714286e+00 2.79668006569061e-02 3.75269028243043e-04
6.02471428571429e+00 2.72850548452411e-02 3.68160889488089e-04
6.09128571428571e+00 2.66199279294277e-02 3.61165335628985e-04
6.15785714285714e+00 2.59710147911778e-02 3.54281543909618e-04
6.22442857142857e+00 2.53379201877607e-02 3.47508645134896e-04
6.29100000000000e+00 2.47202585112648e-02 3.40845727273349e-04
6.35757142857143e+00 2.41176535546631e-02 3.34291839361133e-04
6.42414285714286e+00 2.35297382798179e-02 3.27845994564871e-04
6.49071428571429e+00 2.29561545968325e-02 3.21507173045242e-04
6.55728571428571e+00 2.23965531449560e-02 3.15274325328211e-04
6.62385714285714e+00 2.18505930797910e-02 3.09146374956750e-04
6.69042857142857e+00 2.13179418656947e-02 3.03122221124906e-04
6.75700000000000e+00 2.07982750732345e-02 2.97200741060393e-04
6.82357142857143e+00 2.02912761823148e-02 2.91380792679788e-04
6.89014285714286e+00 1.97966363871541e-02 2.85661216586962e-04
6.95671428571429e+00 1.93140544104745e-02 2.80040837934155e-04
7.02328571428571e+00 1.88432363192244e-02 2.74518468718126e-04
7.08985714285714e+00 1.83838953455472e-02 2.69092909513862e-04
7.15642857142857e+00 1.79357517121183e-02 2.63762951214133e-04
7.22300000000000e+00 1.74985324617358e-02 2.58527376583778e-04
7.28957142857143e+00 1.70719712916422e-02 2.53384962054062e-04
7.35614285714286e+00 1.66558083895639e-02 2.48334478999774e-04
7.42271428571429e+00 1.62497902772573e-02 2.43374694920725e-04
7.48928571428571e+00 1.58536696555093e-02 2.38504374992466e-04
7.55585714285714e+00 1.54672052535107e-02 2.33722283173812e-04
7.62242857142857e+00 1.50901616819040e-02 2.29027183332715e-04
7.68900000000000e+00 1.47223092894103e-02 2.24417840234023e-04
7.75557142857143e+00 1.43634240234076e-02 2.19893020735381e-04
7.82214285714286e+00 1.40132872920728e-02 2.15451494572977e-04
7.88871428571429e+00 1.36716858326584e-02 2.11092035080337e-04
7.95528571428571e+00 1.33384115811159e-02 2.06813420218671e-04
8.02185714285714e+00 1.30132615453663e-02 2.02614433255734e-04
8.08842857142857e+00 1.26960376816630e-02 1.98493863469030e-04
8.15500000000000e+00 1.23865467739651e-02 1.94450506745172e-04
8.22157142857143e+00 1.20846003166139e-02 1.90483166357896e-04
8.28814285714286e+00 1.17900143984140e-02 1.86590653419129e-04
8.35471428571429e+00 1.15026095917393e-02 1.82771787283042e-04
8.42128571428571e+00 1.12222108428655e-02 1.79025396212015e-04
8.48785714285714e+00 1.09486473653464e-02 1.75350317762440e-04
8.55442857142857e+00 1.06817525359921e-02 1.71745399197043e-04
8.62100000000000e+00 1.04213637933807e-02 1.68209497818664e-04
8.68757142857143e+00 1.01673225391323e-02 1.64741481456293e-04
8.75414285714286e+00 9.91947404043094e-03 1.61340228689409e-04
8.82071428571429e+00 9.67766733667384e-03 1.58004629039366e-04
8.88728571428572e+00 9.44175514721998e-03 1.54733583380381e-04
8.95385714285714e+00 9.21159378168327e-03 1.51526004126335e-04
9.02042857142857e+00 8.98704305241392e-03 1.48380815444077e-04
9.08700000000000e+00 8.76796618911195e-03 1.45296953406979e-04
9.15357142857143e+00 8.55422975575197e-03 1.42273366277736e-04
9.22014285714286e+00 8.34570356860844e-03 1.39309014580925e-04
9.28671428571429e+00 8.14226061767681e-03 1.36402871152608e-04
9.35328571428571e+00 7.94377698907129e-03 1.33553921373756e-04
9.41985714285714e+00 7.75013178955055e-03 1.30761163223704e-04
9.48642857142857e+00 7.56120707288419e-03 1.28023607358850e-04
9.55300000000000e+00 7.37688776801325e-03 1.25340277145732e-04
9.61957142857143e+00 7.19706160914588e-03 1.22710208803467e-04
9.68614285714286e+00 7.02161906681704e-03 1.20132451376806e-04
9.75271428571429e+00 6.85045328174716e-03 1.17606066693362e-04
9.81928571428571e+00 6.68345999956188e-03 1.15130129474578e-04
9.88585714285714e+00 6.52053750729209e-03 1.12703727301763e-04
9.95242857142857e+00 6.36158657142268e-03 1.10325960605519e-04
1.00190000000000e+01 6.20651037745073e-03 1.07995942595289e-04
1.00855714285714e+01 6.05521447121118e-03 1.05712799309537e-04
1.01521428571429e+01 5.90760670087455e-03 1.03475669862740e-04
1.02187142857143e+01 5.76359715946388e-03 1.01283705565213e-04
1.02852857142857e+01 5.62309813446985e-03 9.91360703615995e-05
1.03518571428571e+01 5.48602405011757e-03 9.70319415241370e-05
1.04184285714286e+01 5.35229141545612e-03 9.49705081438832e-05
1.04850000000000e+01 5.22181877735178e-03 9.29509717706353e-05
1.05515714285714e+01 5.09452666694838e-03 9.09725468019535e-05
1.06181428571429e+01 4.97033755260075e-03 8.90344598787298e-05
1.06847142857143e+01 4.84917579154217e-03 8.71359494428914e-05
1.07512857142857e+01 4.73096758720616e-03 8.52762660446640e-05
1.08178571428571e+01 4.61564094081234e-03 8.34546728415535e-05
1.08844285714286e+01 4.50312560768237e-03 8.16704443098556e-05
1.09510000000000e+01 4.39335305755197e-03 7.99228667255759e-05
1.10175714285714e+01 4.28625642966825e-03 7.82112384406208e-05
1.10841428571429e+01 4.18177049314173e-03 7.65348693428314e-05
1.11507142857143e+01 4.07983160632095e-03 7.48930804502705e-05
1.12172857142857e+01 3.98037768076567e-03 7.32852041241860e-05
1.12838571428571e+01 3.88334814063655e-03 7.17105844413281e-05
1.13504285714286e+01 3.78868388593472e-03 7.01685760951921e-05
1.14170000000000e+01 3.69632725900309e-03 6.86585447556652e-05
1.14835714285714e+01 3.60622200685775e-03 6.71798672613749e-05
1.15501428571429e+01 3.51831324779277e-03 6.57319311408515e-05
1.16167142857143e+01 3.43254743723038e-03 6.43141342449401e-05
1.16832857142857e+01 3.34887233731734e-03 6.29258848902321e-05
1.17498571428571e+01 3.26723698285260e-03 6.15666021349865e-05
1.18164285714286e+01 3.18759165035362e-03 6.02357148432755e-05
1.18830000000000e+01 3.10988782978926e-03 5.89326619521951e-05
1.19495714285714e+01 3.03407819297270e-03 5.76568926021952e-05
1.20161428571429e+01 2.96011656543548e-03 5.64078657149284e-05
1.20827142857143e+01 2.88795789771903e-03 5.51850496633435e-05
1.21492857142857e+01 2.81755823972297e-03 5.39879223641743e-05
1.22158571428571e+01 2.74887471211203e-03 5.28159714806159e-05
1.22824285714286e+01 2.68186548028608e-03 5.16686936259877e-05
1.23490000000000e+01 2.61648973053300e-03 5.05455945605922e-05
1.24155714285714e+01 2.55270764350252e-03 4.94461892764602e-05
1.24821428571429e+01 2.49048037051991e-03 4.83700016269332e-05
1.25487142857143e+01 2.42977000945054e-03 4.73165640327816e-05
1.26152857142857e+01 2.37053958306187e-03 4.62854175376930e-05
1.26818571428571e+01 2.31275301502425e-03 4.52761119554292e-05
1.27484285714286e+01 2.25637510800743e-03 4.42882051927438e-05
1.28150000000000e+01 2.20137152356653e-03 4.33212633928285e-05
1.28815714285714e+01 2.14770875987603e-03 4.23748609868329e-05
1.29481428571429e+01 2.09535413178368e-03 4.14485803701059e-05
1.30147142857143e+01 2.04427575051864e-03 4.05420116419776e-05
1.30812857142857e+01 1.99444250544266e-03 3.96547526346902e-05
1.31478571428571e+01 1.94582404390319e-03 3.87864090186130e-05
1.32144285714286e+01 1.89839075280262e-03 3.79365937269397e-05
1.32810000000000e+01 1.85211374163591e-03 3.71049270587077e-05
1.33475714285714e+01 1.80696482379760e-03 3.62910367063834e-05
1.34141428571429e+01 1.76291649978651e-03 3.54945574738058e-05
1.34807142857143e+01 1.71994194014436e-03 3.47151310469122e-05
1.35472857142857e+01 1.67801497006807e-03 3.39524060039081e-05
1.36138571428571e+01 1.63711005249427e-03 3.32060378889443e-05
1.36804285714286e+01 1.59720227259071e-03 3.24756887235624e-05
1.37470000000000e+01 1.55826732345425e-03 3.17610270792565e-05
1.38135714285714e+01 1.52028149041513e-03 3.10617280880787e-05
1.38801428571429e+01 1.48322163689559e-03 3.03774731975896e-05
1.39467142857143e+01 1.44706519006414e-03 2.97079499696750e-05
1.40132857142857e+01 1.41179012786224e-03 2.90528520777605e-05
1.40798571428571e+01 1.37737496480008e-03 2.84118793569096e-05
1.41464285714286e+01 1.34379873890705e-03 2.77847373891316e-05
1.42130000000000e+01 1.31104099967447e-03 2.71711375531216e-05
1.42795714285714e+01 1.27908179487492e-03 2.65707970230772e-05
1.43461428571429e+01 1.24790165865603e-03 2.59834385562990e-05
1.44127142857143e+01 1.21748159947758e-03 2.54087903172723e-05
1.44792857142857e+01 1.18780308917540e-03 2.48465858662150e-05
1.45458571428571e+01 1.15884805103230e-03 2.42965641916780e-05
1.46124285714286e+01 1.13059884879776e-03 2.37584693586922e-05
1.46790000000000e+01 1.10303827652446e-03 2.32320505415322e-05
1.47455714285714e+01 1.07614954749843e-03 2.27170620145910e-05
1.48121428571429e+01 1.04991628421501e-03 2.22132629686551e-05
1.48787142857143e+01 1.02432250823536e-03 2.17204173575347e-05
1.49452857142857e+01 9.99352630968661e-04 2.12382938810957e-05
1.50118571428571e+01 9.74991443652748e-04 2.07666660049993e-05
1.50784285714286e+01 9.51224108114934e-04 2.03053116622716e-05
1.51450000000000e+01 9.28036148205985e-04 1.98540132735489e-05
1.52115714285714e+01 9.05413440501927e-04 1.94125577328503e-05
1.52781428571429e+01 8.83342205865169e-04 1.89807362489384e-05
1.53447142857143e+01 8.61809000914566e-04 1.85583442119448e-05
1.54112857142857e+01 8.40800710256924e-04 1.81451811731790e-05
1.54778571428571e+01 8.20304538070723e-04 1.77410508555345e-05
1.55444285714286e+01 8.00308000332061e-04 1.73457609004442e-05
1.56110000000000e+01 7.80798917595743e-04 1.69591228790058e-05
1.56775714285714e+01 7.61765407184493e-04 1.65809522747195e-05
1.57441428571429e+01 7.43195876084782e-04 1.62110683467224e-05
1.58107142857143e+01 7.25079013773608e-04 1.58492940140610e-05
1.58772857142857e+01 7.07403785672083e-04 1.54954558339197e-05
1.59438571428571e+01 6.90159426075100e-04 1.51493840053606e-05
1.60104285714286e+01 6.73335431610108e-04 1.48109121548203e-05
1.60770000000000e+01 6.56921555154068e-04 1.44798773406931e-05
1.61435714285714e+01 6.40907799271541e-04 1.41561200345222e-05
1.62101428571429e+01 6.25284410234334e-04 1.38394840032527e-05
1.62767142857143e+01 6.10041871989050e-04 1.35298162090134e-05
1.63432857142857e+01 5.95170900641017e-04 1.32269667869238e-05
1.64098571428571e+01 5.80662438514152e-04 1.29307890441763e-05
1.64764285714286e+01 5.66507648647099e-04 1.26411392782479e-05
1.65430000000000e+01 5.52697909667776e-04 1.23578767768854e-05
1.66095714285714e+01 5.39224810280222e-04 1.20808637988042e-05
1.66761428571429e+01 5.26080144230433e-04 1.18099654724412e-05
1.67427142857143e+01 5.13255905233134e-04 1.15450497093156e-05
1.68092857142857e+01 5.00744282324292e-04 1.12859871822100e-05
1.68758571428571e+01 4.88537654870124e-04 1.10326513211017e-05
1.69424285714286e+01 4.76628587936096e-04 1.07849181591323e-05
1.70090000000000e+01 4.65009827968696e-04 1.05426663294516e-05
1.70755714285714e+01 4.53674298163054e-04 1.03057770461564e-05
1.71421428571429e+01 4.42615094225398e-04 1.00741340173243e-05
1.72087142857143e+01 4.31825480106427e-04 9.84762337022955e-06
1.72752857142857e+01 4.21298884085935e-04 9.62613363042786e-06
1.73418571428571e+01 4.11028894579012e-04 9.40955571565221e-06
1.74084285714286e+01 4.01009256239497e-04 9.19778280532689e-06
1.74750000000000e+01 3.91233866322110e-04 8.99071033535769e-06
1.75415714285714e+01 3.81696770789871e-04 8.78823597979663e-06
1.76081428571429e+01 3.72392160747216e-04 8.59025957621828e-06
1.76747142857143e+01 3.63314368851641e-04 8.39668306125461e-06
1.77412857142857e+01 3.54457866015359e-04 8.20741045091588e-06
1.78078571428571e+01 3.45817257881123e-04 8.02234783327346e-06
1.78744285714286e+01 3.37387281543666e-04 7.84140325793700e-06
1.79410000000000e+01 3.29162802485213e-04 7.66448672959206e-06
1.80075714285714e+01 3.21138811304345e-04 7.49151019070163e-06
1.80741428571429e+01 3.13310420713698e-04 7.32238745752871e-06
1.81407142857143e+01 3.05672862522004e-04 7.15703416463607e-06
1.82072857142857e+01 2.98221484855722e-04 6.99536774663154e-06
1.82738571428571e+01 2.90951749197381e-04 6.83730743023269e-06
1.83404285714286e+01 2.83859227627011e-04 6.68277414066831e-06
1.84070000000000e+01 2.76939600240824e-04 6.53169049454570e-06
1.84735714285714e+01 2.70188652402151e-04 6.38398078376885e-06
1.85401428571429e+01 2.63602272214416e-04 6.23957092073406e-06
1.86067142857143e+01 2.57176447982857e-04 6.09838839060039e-06
1.86732857142857e+01 2.50907265874303e-04 5.96036223454417e-06
1.87398571428571e+01 2.44790907428113e-04 5.82542304163150e-06
1.88064285714286e+01 2.38823647235127e-04 5.69350286956372e-06
1.88730000000000e+01 2.33001850763471e-04 5.56453523729202e-06
1.89395714285714e+01 2.27321972048113e-04 5.43845511023883e-06
1.90061428571429e+01 2.21780551563921e-04 5.31519885338566e-06
1.90727142857143e+01 2.16374214090790e-04 5.19470419026803e-06
1.91392857142857e+01 2.11099666742579e-04 5.07691018775321e-06
1.92058571428571e+01 2.05953696875121e-04 4.96175724801601e-06
1.92724285714286e+01 2.00933170133313e-04 4.84918704143868e-06
1.93390000000000e+01 1.96035028619930e-04 4.73914249926579e-06
1.94055714285714e+01 1.91256288953725e-04 4.63156780014961e-06
1.94721428571429e+01 1.86594040479256e-04 4.52640833002132e-06
1.95387142857143e+01 1.82045443471283e-04 4.42361064689475e-06
1.96052857142857e+01 1.77607727474715e-04 4.32312246713165e-06
1.96718571428571e+01 1.73278189546270e-04 4.22489265772032e-06
1.97384285714286e+01 1.69054192611311e-04 4.12887117947260e-06
1.98050000000000e+01 1.64933163921636e-04 4.03500907991892e-06
1.98715714285714e+01 1.60912593423256e-04 3.94325848115204e-06
1.99381428571429e+01 1.56990032249701e-04 3.85357254552209e-06
2.00047142857143e+01 1.53163091211743e-04 3.76590544545216e-06
2.00712857142857e+01 1.49429439399352e-04 3.68021235112238e-06
2.01378571428571e+01 1.45786802703721e-04 3.59644942317921e-06
2.02044285714286e+01 1.42232962434728e-04 3.51457376465472e-06
2.02710000000000e+01 1.38765754022163e-04 3.43454341423093e-06
2.03375714285714e+01 1.35383065643730e-04 3.35631733532721e-06
2.04041428571429e+01 1.32082836956970e-04 3.27985538679061e-06
2.04707142857143e+01 1.28863057828952e-04 3.20511829702942e-06
2.05372857142857e+01 1.25721767158942e-04 3.13206765302797e-06
2.06038571428571e+01 1.22657051636031e-04 3.06066589356137e-06
2.06704285714286e+01 1.19667044575890e-04 2.99087626850225e-06
2.07370000000000e+01 1.16749924827054e-04 2.92266283253230e-06
2.08035714285714e+01 1.13903915617618e-04 2.85599043539874e-06
2.08701428571429e+01 1.11127283487998e-04 2.79082469688613e-06
2.09367142857143e+01 1.08418337222454e-04 2.72713198466599e-06
2.10032857142857e+01 1.05775426857663e-04 2.66487940454301e-06
