Energy (eV)          EEDF (eV^-(3/2))     First Anisotropy
8.10000000000000e-01 9.37761849255392e-02 3.00822880407845e-04
2.43000000000000e+00 6.61103531333611e-02 4.24897831149857e-04
4.05000000000000e+00 4.66064896422056e-02 3.98109491018710e-04
5.67000000000000e+00 3.28566521553322e-02 3.34612461172801e-04
7.29000000000000e+00 2.31632890428820e-02 2.68304544306735e-04
8.91000000000000e+00 1.63296600258474e-02 2.09436418722958e-04
1.05300000000000e+01 1.15120869089919e-02 1.60653316122974e-04
1.21500000000000e+01 8.11579327373687e-03 1.21725555428771e-04
1.37700000000000e+01 5.72147352454279e-03 9.13899616273796e-05
1.53900000000000e+01 4.03352552090959e-03 6.81303352204960e-05
1.70100000000000e+01 2.84355560819083e-03 5.05047646913097e-05
1.86300000000000e+01 2.00465038710109e-03 3.72670581602838e-05
2.02500000000000e+01 1.41323882076684e-03 2.73940025334267e-05
2.18700000000000e+01 9.96305379418626e-04 2.00715781153411e-05
2.34900000000000e+01 7.02375560642952e-04 1.46657860907427e-05
2.51100000000000e+01 4.95160859691809e-04 1.06902613110913e-05
2.67300000000000e+01 3.49078599412387e-04 7.77609040697506e-06
2.83500000000000e+01 2.46093499077365e-04 5.64588319118469e-06
2.99700000000000e+01 1.73491042963065e-04 4.09250897996005e-06
3.15900000000000e+01 1.22307749295522e-04 2.96216943556426e-06
3.32100000000000e+01 8.62245409460188e-05 2.14119704946486e-06
3.48300000000000e+01 6.07865936882533e-05 1.54591161575529e-06
3.64500000000000e+01 4.28533446705628e-05 1.11491373497239e-06
3.80700000000000e+01 3.02107592814323e-05 8.03281114790259e-07
3.96900000000000e+01 2.12979869687418e-05 5.78228485574036e-07
4.13100000000000e+01 1.50146590059219e-05 4.15880603253870e-07
4.29300000000000e+01 1.05850372335649e-05 2.98884275322037e-07
4.45500000000000e+01 7.46224161279748e-06 2.14648340303540e-07
4.61700000000000e+01 5.26073254718372e-06 1.54050902700578e-07
4.77900000000000e+01 3.70871225685536e-06 1.10492572223914e-07
4.94100000000000e+01 2.61456868996554e-06 7.92048782307556e-08
5.10300000000000e+01 1.84321914484257e-06 5.67462203263506e-08
5.26500000000000e+01 1.29943299212344e-06 4.06352323141188e-08
5.42700000000000e+01 9.16074524151652e-07 2.90845704478890e-08
5.58900000000000e+01 6.45814396653365e-07 2.08079256688880e-08
5.75100000000000e+01 4.55286359274090e-07 1.48803187309446e-08
5.91300000000000e+01 3.20967866333142e-07 1.06370978015701e-08
6.07500000000000e+01 2.26275988990106e-07 7.60100256349963e-09
6.23700000000000e+01 1.59520090837716e-07 5.42955217993918e-09
6.39900000000000e+01 1.12458504742126e-07 3.87713108120175e-09
6.56100000000000e+01 7.92810186003520e-08 2.76769122946889e-09
6.72300000000000e+01 5.58915479511517e-08 1.97511447956878e-09
6.88500000000000e+01 3.94024343723810e-08 1.40909640078285e-09
7.04700000000000e+01 2.77779358665589e-08 1.00500636015889e-09
7.20900000000000e+01 1.95828946433706e-08 7.16608672962971e-10
7.37100000000000e+01 1.38055528839716e-08 5.10840784703449e-10
7.53300000000000e+01 9.73264136395991e-09 3.64069330271182e-10
7.69500000000000e+01 6.86131940644255e-09 2.59407258740700e-10
7.85700000000000e+01 4.83709429297934e-09 1.84792287670052e-10
8.01900000000000e+01 3.41005567780504e-09 1.31611300624374e-10
8.18100000000000e+01 2.40402171663434e-09 9.37160205080327e-11
8.34300000000000e+01 1.69478769853093e-09 6.67189641127886e-11
8.50500000000000e+01 1.19479176216138e-09 4.74900719725699e-11
8.66700000000000e+01 8.42304529449967e-10 3.37969516728293e-11
8.82900000000000e+01 5.93808011404839e-10 2.40478538937750e-11
8.99100000000000e+01 4.18622887661338e-10 1.71081075246327e-11
9.15300000000000e+01 2.95120844966911e-10 1.21690614400084e-11
9.31500000000000e+01 2.08054350827668e-10 8.65454297044104e-12
9.47700000000000e+01 1.46674196813091e-10 6.15411323897370e-12
9.63900000000000e+01 1.03402403867943e-10 4.37545625451715e-12
9.80100000000000e+01 7.28966468403050e-11 3.11042579007767e-12
9.96300000000000e+01 5.13906923029239e-11 2.21083835365523e-12
1.01250000000000e+02 3.62294202799130e-11 1.57121891671289e-12
1.02870000000000e+02 2.55410237729740e-11 1.11650531645012e-12
1.04490000000000e+02 1.80059159194802e-11 7.93288241971719e-13
1.06110000000000e+02 1.26938141157228e-11 5.63571500601430e-13
1.07730000000000e+02 8.94888755035215e-12 4.00328395108441e-13
1.09350000000000e+02 6.30878849010841e-12 2.84337831257517e-13
1.10970000000000e+02 4.44757093984918e-12 2.01932034761759e-13
1.12590000000000e+02 3.13544942836577e-12 1.43393512265914e-13
1.14210000000000e+02 2.21042974936170e-12 1.01814307710049e-13
1.15830000000000e+02 1.55830919569635e-12 7.22843731352070e-14
1.17450000000000e+02 1.09857712062237e-12 5.13141968859217e-14
1.19070000000000e+02 7.74475112697791e-13 3.64241418250002e-14
1.20690000000000e+02 5.45989615957457e-13 2.58524027233548e-14
1.22310000000000e+02 3.84911865915174e-13 1.83473506707969e-14
1.23930000000000e+02 2.71355242283299e-13 1.30199017041799e-14
1.25550000000000e+02 1.91300071613939e-13 9.23857383500939e-15
1.27170000000000e+02 1.34862761786234e-13 6.55489892430864e-15
1.28790000000000e+02 9.50755760997066e-14 4.65041613713145e-15
1.30410000000000e+02 6.70263981766819e-14 3.29900723818470e-15
1.32030000000000e+02 4.72522832554572e-14 2.34013656382307e-15
1.33650000000000e+02 3.33119238627197e-14 1.65984080328443e-15
1.35270000000000e+02 2.34842465799253e-14 1.17722576587066e-15
1.36890000000000e+02 1.65559287328926e-14 8.34875909461602e-16
1.38510000000000e+02 1.16716018662027e-14 5.92043587512403e-16
1.40130000000000e+02 8.22824815937371e-15 4.19812844970417e-16
1.41750000000000e+02 5.80075199174560e-15 2.97665660028657e-16
1.43370000000000e+02 4.08941527017601e-15 2.11044180147185e-16
1.44990000000000e+02 2.88295677452610e-15 1.49620221966810e-16
1.46610000000000e+02 2.03242742902659e-15 1.06066953459970e-16
1.48230000000000e+02 1.43282108519947e-15 7.51871073891654e-17
1.49850000000000e+02 1.01011048801651e-15 5.32942944834961e-17
1.51470000000000e+02 7.12107888794018e-16 3.77739737491440e-17
1.53090000000000e+02 5.02021958289365e-16 2.67719365816681e-17
1.54710000000000e+02 3.53915538039474e-16 1.89732871952543e-17
1.56330000000000e+02 2.49503445013799e-16 1.34456425072780e-17
1.57950000000000e+02 1.75894987314206e-16 9.52790058389300e-18
1.59570000000000e+02 1.24002482452913e-16 6.75134074079656e-18
1.61190000000000e+02 8.74192942577561e-17 5.61139847849633e-18
