Energy (eV)          EEDF (eV^-(3/2))     First Anisotropy
2.86538461538462e-03 1.40100632076379e+00 7.18576900182782e-04
8.59615384615385e-03 1.39174141564945e+00 1.18664052777987e-03
1.43269230769231e-02 1.38253777963339e+00 1.56667435325847e-03
2.00576923076923e-02 1.37339500763654e+00 1.85549527345624e-03
2.57884615384615e-02 1.36431269713189e+00 2.09646352469313e-03
3.15192307692308e-02 1.35529044824866e+00 2.30596666841018e-03
3.72500000000000e-02 1.34632786383342e+00 2.49248215000708e-03
4.29807692307692e-02 1.33742454931820e+00 2.66112740287453e-03
4.87115384615385e-02 1.32858011274651e+00 2.81529518378753e-03
5.44423076923077e-02 1.31979416473948e+00 2.95738256583873e-03
6.01730769230769e-02 1.31106631852737e+00 3.08916335559378e-03
6.59038461538462e-02 1.30239618987945e+00 3.21199731642686e-03
7.16346153846154e-02 1.29378339709490e+00 3.32695628405433e-03
7.73653846153846e-02 1.28522756102234e+00 3.43490446602238e-03
8.30961538461538e-02 1.27672830500400e+00 3.53655184459660e-03
8.88269230769231e-02 1.26828525486413e+00 3.63249097600353e-03
9.45576923076923e-02 1.25989803892121e+00 3.72322313113132e-03
1.00288461538462e-01 1.25156628794109e+00 3.80917733444123e-03
1.06019230769231e-01 1.24328963513907e+00 3.89072453435379e-03
1.11750000000000e-01 1.23506771615485e+00 3.96818836672517e-03
1.17480769230769e-01 1.22690016896162e+00 4.04185342347816e-03
1.23211538461538e-01 1.21878663406846e+00 4.11197176323609e-03
1.28942307692308e-01 1.21072675428795e+00 4.17876808052769e-03
1.34673076923077e-01 1.20272017479481e+00 4.24244382303062e-03
1.40403846153846e-01 1.19476654305527e+00 4.30318053371076e-03
1.46134615384615e-01 1.18686550898205e+00 4.36114261492173e-03
1.51865384615385e-01 1.17901672474361e+00 4.41647961509211e-03
1.57596153846154e-01 1.17121984480818e+00 4.46932809902038e-03
1.63326923076923e-01 1.16347452592984e+00 4.51981325108702e-03
1.69057692307692e-01 1.15578042708830e+00 4.56805019952270e-03
1.74788461538462e-01 1.14813720960948e+00 4.61414517206939e-03
1.80519230769231e-01 1.14054453701197e+00 4.65819648644109e-03
1.86250000000000e-01 1.13300207503978e+00 4.70029537756725e-03
1.91980769230769e-01 1.12550949160948e+00 4.74052671425828e-03
1.97711538461538e-01 1.11806645691178e+00 4.77896964331406e-03
2.03442307692308e-01 1.11067264327835e+00 4.81569815304110e-03
2.09173076923077e-01 1.10332772520773e+00 4.85078154415909e-03
2.14903846153846e-01 1.09603137931806e+00 4.88428484538879e-03
2.20634615384615e-01 1.08878328443391e+00 4.91626920051929e-03
2.26365384615385e-01 1.08158312146913e+00 4.94679221261018e-03
2.32096153846154e-01 1.07443057344747e+00 4.97590822377842e-03
2.37826923076923e-01 1.06732532548919e+00 5.00366859018921e-03
2.43557692307692e-01 1.06026706476871e+00 5.03012190430981e-03
2.49288461538462e-01 1.05325548058661e+00 5.05531421731636e-03
2.55019230769231e-01 1.04629026426873e+00 5.07928924014738e-03
2.60750000000000e-01 1.03937110918230e+00 5.10208850560363e-03
2.66480769230769e-01 1.03249771069729e+00 5.12375151594511e-03
2.72211538461539e-01 1.02566976624935e+00 5.14431589370016e-03
2.77942307692308e-01 1.01888697524892e+00 5.16381751947275e-03
2.83673076923077e-01 1.01214903909420e+00 5.18229063932730e-03
2.89403846153846e-01 1.00545566113567e+00 5.19976796369370e-03
2.95134615384615e-01 9.98806546731407e-01 5.21628077382185e-03
3.00865384615385e-01 9.92201403164661e-01 5.23185901996818e-03
3.06596153846154e-01 9.85639939654305e-01 5.24653139051960e-03
3.12326923076923e-01 9.79121867342323e-01 5.26032539588638e-03
3.18057692307692e-01 9.72646899261176e-01 5.27326742649211e-03
3.23788461538462e-01 9.66214750381191e-01 5.28538282493295e-03
3.29519230769231e-01 9.59825137537149e-01 5.29669595321591e-03
3.35250000000000e-01 9.53477779436473e-01 5.30723023935189e-03
3.40980769230769e-01 9.47172396628855e-01 5.31700822130958e-03
3.46711538461538e-01 9.40908711548487e-01 5.32605160173174e-03
3.52442307692308e-01 9.34686448446575e-01 5.33438129928217e-03
3.58173076923077e-01 9.28505333397841e-01 5.34201748164566e-03
3.63903846153846e-01 9.22365094272130e-01 5.34897959700508e-03
3.69634615384615e-01 9.16265460772218e-01 5.35528641661719e-03
3.75365384615385e-01 9.10206164371469e-01 5.36095607501883e-03
3.81096153846154e-01 9.04186938318956e-01 5.36600609036689e-03
3.86826923076923e-01 8.98207517627876e-01 5.37045340026708e-03
3.92557692307692e-01 8.92267639049126e-01 5.37431437936669e-03
3.98288461538462e-01 8.86367041104218e-01 5.37760487139921e-03
4.04019230769231e-01 8.80505464028717e-01 5.38034021966671e-03
4.09750000000000e-01 8.74682649776058e-01 5.38253528272390e-03
4.15480769230769e-01 8.68898341992649e-01 5.38420444977463e-03
4.21211538461538e-01 8.63152286047566e-01 5.38536166682709e-03
4.26942307692308e-01 8.57444228979879e-01 5.38602046169993e-03
4.32673076923077e-01 8.51773919501486e-01 5.38619395528609e-03
4.38403846153846e-01 8.46141107973614e-01 5.38589487279557e-03
4.44134615384615e-01 8.40545546433656e-01 5.38513556548522e-03
4.49865384615385e-01 8.34986988545990e-01 5.38392803152802e-03
4.55596153846154e-01 8.29465189603972e-01 5.38228392130281e-03
4.61326923076923e-01 8.23979906519272e-01 5.38021455652281e-03
4.67057692307692e-01 8.18530897799808e-01 5.37773093489236e-03
4.72788461538462e-01 8.13117923573372e-01 5.37484374767004e-03
4.78519230769231e-01 8.07740745542440e-01 5.37156339662855e-03
4.84250000000000e-01 8.02399126985377e-01 5.36789999922301e-03
4.89980769230769e-01 7.97092832735504e-01 5.36386339404162e-03
4.95711538461538e-01 7.91821629202570e-01 5.35946315588700e-03
5.01442307692308e-01 7.86585284330300e-01 5.35470861039143e-03
5.07173076923077e-01 7.81383567597007e-01 5.34960883749714e-03
5.12903846153846e-01 7.76216249995694e-01 5.34417267528623e-03
5.18634615384615e-01 7.71083104053590e-01 5.33840873308887e-03
5.24365384615385e-01 7.65983903792202e-01 5.33232540422906e-03
5.30096153846154e-01 7.60918424727412e-01 5.32593086589962e-03
5.35826923076923e-01 7.55886443859663e-01 5.31923309107028e-03
5.41557692307692e-01 7.50887739655160e-01 5.31223984836514e-03
5.47288461538462e-01 7.45922092063193e-01 5.30495871319052e-03
5.53019230769231e-01 7.40989282479106e-01 5.29739707860060e-03
5.58750000000000e-01 7.36089093743896e-01 5.28956215635368e-03
5.64480769230769e-01 7.31221310126286e-01 5.28146097837935e-03
5.70211538461538e-01 7.26385717338541e-01 5.27310040667364e-03
5.75942307692308e-01 7.21582102501473e-01 5.26448714298571e-03
5.81673076923077e-01 7.16810254143666e-01 5.25562772916798e-03
5.87403846153846e-01 7.12069962184354e-01 5.24652854794910e-03
5.93134615384615e-01 7.07361017947874e-01 5.23719583180579e-03
5.98865384615385e-01 7.02683214130550e-01 5.22763567166861e-03
6.04596153846154e-01 6.98036344799590e-01 5.21785401473166e-03
6.10326923076923e-01 6.93420205384068e-01 5.20785667268949e-03
6.16057692307692e-01 6.88834592658687e-01 5.19764931975019e-03
6.21788461538462e-01 6.84279304756646e-01 5.18723750042618e-03
6.27519230769231e-01 6.79754141138730e-01 5.17662663720221e-03
6.33250000000000e-01 6.75258902591909e-01 5.16582202986512e-03
6.38980769230769e-01 6.70793391213787e-01 5.15482885525036e-03
6.44711538461539e-01 6.66357410424386e-01 5.14365217433645e-03
6.50442307692308e-01 6.61950764936806e-01 5.13229693924130e-03
6.56173076923077e-01 6.57573260755582e-01 5.12076799224785e-03
6.61903846153846e-01 6.53224705161788e-01 5.10907006524094e-03
6.67634615384615e-01 6.48904906723822e-01 5.09720778620494e-03
6.73365384615385e-01 6.44613675269537e-01 5.08518568564089e-03
6.79096153846154e-01 6.40350821884380e-01 5.07300819363183e-03
6.84826923076923e-01 6.36116158903120e-01 5.06067964596723e-03
6.90557692307692e-01 6.31909499895663e-01 5.04820428146602e-03
6.96288461538462e-01 6.27730659676689e-01 5.03558624781629e-03
7.02019230769231e-01 6.23579454279500e-01 5.02282960735574e-03
7.07750000000000e-01 6.19455700953981e-01 5.00993833567581e-03
7.13480769230769e-01 6.15359218152994e-01 4.99691632060961e-03
7.19211538461539e-01 6.11289825541206e-01 4.98376736763674e-03
7.24942307692308e-01 6.07247343970181e-01 4.97049520524214e-03
7.30673076923077e-01 6.03231595476192e-01 4.95710348339487e-03
7.36403846153846e-01 5.99242403267152e-01 4.94359577240120e-03
7.42134615384615e-01 5.95279591730704e-01 4.92997556792700e-03
7.47865384615385e-01 5.91342986410478e-01 4.91624629598287e-03
7.53596153846154e-01 5.87432414003778e-01 4.90241130980701e-03
7.59326923076923e-01 5.83547702353979e-01 4.88847389465033e-03
7.65057692307692e-01 5.79688680438050e-01 4.87443726491911e-03
7.70788461538462e-01 5.75855178373793e-01 4.86030456876249e-03
7.76519230769231e-01 5.72047027397473e-01 4.84607889263369e-03
7.82250000000000e-01 5.68264059861400e-01 4.83176325961878e-03
7.87980769230769e-01 5.64506109221928e-01 4.81736062810982e-03
7.93711538461539e-01 5.60773010046089e-01 4.80287389609945e-03
7.99442307692308e-01 5.57064597990229e-01 4.78830590545445e-03
8.05173076923077e-01 5.53380709797500e-01 4.77365944020522e-03
8.10903846153846e-01 5.49721183286310e-01 4.75893722516813e-03
8.16634615384615e-01 5.46085857356404e-01 4.74414192997628e-03
8.22365384615385e-01 5.42474571968441e-01 4.72927617309400e-03
8.28096153846154e-01 5.38887168141417e-01 4.71434251876620e-03
8.33826923076923e-01 5.35323487945685e-01 4.69934348088709e-03
8.39557692307692e-01 5.31783374491912e-01 4.68428152019341e-03
8.45288461538462e-01 5.28266671936509e-01 4.66915904798755e-03
8.51019230769231e-01 5.24773225462332e-01 4.65397842984976e-03
8.56750000000000e-01 5.21302881276054e-01 4.63874198390901e-03
8.62480769230769e-01 5.17855486597519e-01 4.62345197941711e-03
8.68211538461539e-01 5.14430889664717e-01 4.60811064025980e-03
8.73942307692308e-01 5.11028939715310e-01 4.59272014846377e-03
8.79673076923077e-01 5.07649486983955e-01 4.57728264246835e-03
8.85403846153846e-01 5.04292382692042e-01 4.56180021569003e-03
8.91134615384615e-01 5.00957479052250e-01 4.54627491984322e-03
8.96865384615385e-01 4.97644629250846e-01 4.53070876825631e-03
9.02596153846154e-01 4.94353687444976e-01 4.51510373299530e-03
9.08326923076923e-01 4.91084508756257e-01 4.49946174806904e-03
9.14057692307692e-01 4.87836949260954e-01 4.48378470677452e-03
9.19788461538462e-01 4.84610865994035e-01 4.46807446478805e-03
9.25519230769231e-01 4.81406116932406e-01 4.45233284325756e-03
9.31250000000000e-01 4.78222560992178e-01 4.43656162711606e-03
9.36980769230769e-01 4.75060058019190e-01 4.42076256366239e-03
9.42711538461539e-01 4.71918468792713e-01 4.40493736549561e-03
9.48442307692308e-01 4.68797655009368e-01 4.38908771345002e-03
9.54173076923077e-01 4.65697479280380e-01 4.37321525493045e-03
9.59903846153846e-01 4.62617805122426e-01 4.35732160250491e-03
9.65634615384615e-01 4.59558496961019e-01 4.34140833669301e-03
9.71365384615385e-01 4.56519420115074e-01 4.32547700875622e-03
9.77096153846154e-01 4.53500440794152e-01 4.30952913803728e-03
9.82826923076923e-01 4.50501426092579e-01 4.29356621466167e-03
9.88557692307692e-01 4.47522243980679e-01 4.27758969707738e-03
9.94288461538462e-01 4.44562763307765e-01 4.26160101466496e-03
1.00001923076923e+00 4.41622853787493e-01 4.24560157528619e-03
1.00575000000000e+00 4.38702385980982e-01 4.22959273907578e-03
1.01148076923077e+00 4.35801231358799e-01 4.21357585737137e-03
1.01721153846154e+00 4.32919262174071e-01 4.19755226366529e-03
1.02294230769231e+00 4.30056351552864e-01 4.18152324106480e-03
1.02867307692308e+00 4.27212373460265e-01 4.16549005679160e-03
1.03440384615385e+00 4.24387202694834e-01 4.14945395263706e-03
1.04013461538462e+00 4.21580714883091e-01 4.13341614543805e-03
1.04586538461538e+00 4.18792786474041e-01 4.11737782754834e-03
1.05159615384615e+00 4.16023294733719e-01 4.10134016728190e-03
1.05732692307692e+00 4.13272117739821e-01 4.08530430935868e-03
1.06305769230769e+00 4.10539134376317e-01 4.06927137535227e-03
1.06878846153846e+00 4.07824224328121e-01 4.05324246411068e-03
1.07451923076923e+00 4.05127268075794e-01 4.03721865217460e-03
1.08025000000000e+00 4.02448146890283e-01 4.02120098556371e-03
1.08598076923077e+00 3.99786742851458e-01 4.00519050617638e-03
1.09171153846154e+00 3.97142938771201e-01 3.98918823479017e-03
1.09744230769231e+00 3.94516618260398e-01 3.97319515384227e-03
1.10317307692308e+00 3.91907665699620e-01 3.95721223430109e-03
1.10890384615385e+00 3.89315966234032e-01 3.94124042715732e-03
1.11463461538462e+00 3.86741405768337e-01 3.92528066378463e-03
1.12036538461538e+00 3.84183870961754e-01 3.90933385629767e-03
1.12609615384615e+00 3.81643249223015e-01 3.89340089788898e-03
1.13182692307692e+00 3.79119428705434e-01 3.87748266316812e-03
1.13755769230769e+00 3.76612298301971e-01 3.86158000850434e-03
1.14328846153846e+00 3.74121747640339e-01 3.84569377234696e-03
1.14901923076923e+00 3.71647667078147e-01 3.82982477554497e-03
1.15475000000000e+00 3.69189947698073e-01 3.81397381401016e-03
1.16048076923077e+00 3.66748481323465e-01 3.79814168209203e-03
1.16621153846154e+00 3.64323160452027e-01 3.78232915744841e-03
1.17194230769231e+00 3.61913878313005e-01 3.76653698572042e-03
1.17767307692308e+00 3.59520528841720e-01 3.75076590433119e-03
1.18340384615385e+00 3.57143006674905e-01 3.73501663489194e-03
1.18913461538462e+00 3.54781207146060e-01 3.71928988348007e-03
1.19486538461538e+00 3.52435026280851e-01 3.70358634091689e-03
1.20059615384615e+00 3.50104360792517e-01 3.68790668302632e-03
1.20632692307692e+00 3.47789108077346e-01 3.67225157089758e-03
1.21205769230769e+00 3.45489166210148e-01 3.65662165115109e-03
1.21778846153846e+00 3.43204433939767e-01 3.64101755618661e-03
1.22351923076923e+00 3.40934810684625e-01 3.62543990443131e-03
1.22925000000000e+00 3.38680196528291e-01 3.60988929378011e-03
1.23498076923077e+00 3.36440492232666e-01 3.59436632234533e-03
1.24071153846154e+00 3.34215599180567e-01 3.57887157497285e-03
1.24644230769231e+00 3.32005419424739e-01 3.56340560958233e-03
1.25217307692308e+00 3.29809855665656e-01 3.54796897829498e-03
1.25790384615385e+00 3.27628811247236e-01 3.53256222065185e-03
1.26363461538462e+00 3.25462190152587e-01 3.51718586383100e-03
1.26936538461538e+00 3.23309896999780e-01 3.50184042286438e-03
1.27509615384615e+00 3.21171837037640e-01 3.48652640084067e-03
1.28082692307692e+00 3.19047916141594e-01 3.47124428911044e-03
1.28655769230769e+00 3.16938040809518e-01 3.45599456749497e-03
1.29228846153846e+00 3.14842118157618e-01 3.44077770448100e-03
1.29801923076923e+00 3.12760055916347e-01 3.42559415741576e-03
1.30375000000000e+00 3.10691762426336e-01 3.41044436663783e-03
1.30948076923077e+00 3.08637146649573e-01 3.39532877393574e-03
1.31521153846154e+00 3.06596118119505e-01 3.38024781051377e-03
1.32094230769231e+00 3.04568586983209e-01 3.36520188479917e-03
1.32667307692308e+00 3.02554463981961e-01 3.35019140123951e-03
1.33240384615385e+00 3.00553660447307e-01 3.33521675423958e-03
1.33813461538462e+00 2.98566088297161e-01 3.32027832833223e-03
1.34386538461538e+00 2.96591660031926e-01 3.30537649835057e-03
1.34959615384615e+00 2.94630288730637e-01 3.29051162958780e-03
1.35532692307692e+00 2.92681888047144e-01 3.27568407795957e-03
1.36105769230769e+00 2.90746372206310e-01 3.26089419017030e-03
1.36678846153846e+00 2.88823656000231e-01 3.24614230386690e-03
1.37251923076923e+00 2.86913654784484e-01 3.23142874779309e-03
1.37825000000000e+00 2.85016284474403e-01 3.21675383653455e-03
1.38398076923077e+00 2.83131461554575e-01 3.20211788696942e-03
1.38971153846154e+00 2.81259103035346e-01 3.18752120751415e-03
1.39544230769231e+00 2.79399126489208e-01 3.17296408722657e-03
1.40117307692308e+00 2.77551450033751e-01 3.15844681255973e-03
1.40690384615385e+00 2.75715992328055e-01 3.14396966193593e-03
1.41263461538462e+00 2.73892672569109e-01 3.12953290588291e-03
1.41836538461538e+00 2.72081410488256e-01 3.11513680717131e-03
1.42409615384615e+00 2.70282126347654e-01 3.10078162094165e-03
1.42982692307692e+00 2.68494740936772e-01 3.08646759483432e-03
1.43555769230769e+00 2.66719175568903e-01 3.07219496912268e-03
1.44128846153846e+00 2.64955352077698e-01 3.05796397683535e-03
1.44701923076923e+00 2.63203192813724e-01 3.04377484388003e-03
1.45275000000000e+00 2.61462620641045e-01 3.02962778433395e-03
1.45848076923077e+00 2.59733558945317e-01 3.01552301512869e-03
1.46421153846154e+00 2.58015931595757e-01 3.00146074642795e-03
1.46994230769231e+00 2.56309662976642e-01 2.98744117187785e-03
1.47567307692308e+00 2.54614677972298e-01 2.97346448356296e-03
1.48140384615385e+00 2.52930901963794e-01 2.95953086714567e-03
1.48713461538462e+00 2.51258260825655e-01 2.94564050197627e-03
1.49286538461538e+00 2.49596680922601e-01 2.93179356120266e-03
1.49859615384615e+00 2.47946089106301e-01 2.91799021187264e-03
1.50432692307692e+00 2.46306412712159e-01 2.90423061503775e-03
1.51005769230769e+00 2.44677579556113e-01 2.89051492586114e-03
1.51578846153846e+00 2.43059517931457e-01 2.87684329371607e-03
1.52151923076923e+00 2.41452156605683e-01 2.86321586228502e-03
1.52725000000000e+00 2.39855424817346e-01 2.84963276533511e-03
1.53298076923077e+00 2.38269252282974e-01 2.83609413984631e-03
1.53871153846154e+00 2.36693569163733e-01 2.82260011739260e-03
1.54444230769231e+00 2.35128306092759e-01 2.80915081540794e-03
1.55017307692308e+00 2.33573394161915e-01 2.79574635055755e-03
1.55590384615385e+00 2.32028764918756e-01 2.78238683437955e-03
1.56163461538462e+00 2.30494350363513e-01 2.76907237337372e-03
1.56736538461538e+00 2.28970082946105e-01 2.75580306909029e-03
1.57309615384615e+00 2.27455895563154e-01 2.74257901821204e-03
1.57882692307692e+00 2.25951721555045e-01 2.72940031263916e-03
1.58455769230769e+00 2.24457494702987e-01 2.71626703957569e-03
1.59028846153846e+00 2.22973149226092e-01 2.70317928160939e-03
1.59601923076923e+00 2.21498619778486e-01 2.69013711679248e-03
1.60175000000000e+00 2.20033841446428e-01 2.67714061484828e-03
1.60748076923077e+00 2.18578749754225e-01 2.66418984892298e-03
1.61321153846154e+00 2.17133280634936e-01 2.65128488785732e-03
1.61894230769231e+00 2.15697370454156e-01 2.63842578835480e-03
1.62467307692308e+00 2.14270955998295e-01 2.62561260695157e-03
1.63040384615385e+00 2.12853974471796e-01 2.61284539610441e-03
1.63613461538462e+00 2.11446363494372e-01 2.60012420426280e-03
1.64186538461538e+00 2.10048061098258e-01 2.58744907594098e-03
1.64759615384615e+00 2.08659005725481e-01 2.57482005178508e-03
1.65332692307692e+00 2.07279136225157e-01 2.56223716864125e-03
1.65905769230769e+00 2.05908391850794e-01 2.54970045962617e-03
1.66478846153846e+00 2.04546712257617e-01 2.53720995419239e-03
1.67051923076923e+00 2.03194037499916e-01 2.52476567819316e-03
1.67625000000000e+00 2.01850308028402e-01 2.51236765047446e-03
1.68198076923077e+00 2.00515464695276e-01 2.50001589340710e-03
1.68771153846154e+00 1.99189448728435e-01 2.48771042595008e-03
1.69344230769231e+00 1.97872201752201e-01 2.47545125662065e-03
1.69917307692308e+00 1.96563665776936e-01 2.46323839422211e-03
1.70490384615385e+00 1.95263783196489e-01 2.45107184433008e-03
1.71063461538462e+00 1.93972496785661e-01 2.43895160935082e-03
1.71636538461538e+00 1.92689749697685e-01 2.42687768858038e-03
1.72209615384615e+00 1.91415485461720e-01 2.41485007825858e-03
1.72782692307692e+00 1.90149647980373e-01 2.40286877162489e-03
1.73355769230769e+00 1.88892181527222e-01 2.39093375897617e-03
1.73928846153846e+00 1.87643030744370e-01 2.37904502771927e-03
1.74501923076923e+00 1.86402140639999e-01 2.36720256242446e-03
1.75075000000000e+00 1.85169456585957e-01 2.35540634176080e-03
1.75648076923077e+00 1.83944924322100e-01 2.34365634794439e-03
1.76221153846154e+00 1.82728489933542e-01 2.33195256050764e-03
1.76794230769231e+00 1.81520099868751e-01 2.32029494998360e-03
1.77367307692308e+00 1.80319700930337e-01 2.30868348753025e-03
1.77940384615385e+00 1.79127240272703e-01 2.29711814177185e-03
1.78513461538462e+00 1.77942665399724e-01 2.28559887884666e-03
1.79086538461538e+00 1.76765924162431e-01 2.27412566245501e-03
1.79659615384615e+00 1.75596964756719e-01 2.26269845390331e-03
1.80232692307692e+00 1.74435735721066e-01 2.25131721215011e-03
1.80805769230769e+00 1.73282185934265e-01 2.23998189385291e-03
