Energy (eV)          EEDF (eV^-(3/2))     First Anisotropy
3.03488372093023e-02 5.39930089609372e-02 3.08418191387539e-05
9.10465116279070e-02 5.35616229864759e-02 5.08962616538996e-05
1.51744186046512e-01 5.31336836395920e-02 6.71031924574678e-05
2.12441860465116e-01 5.27091633854749e-02 7.93637247493594e-05
2.73139534883721e-01 5.22880349041623e-02 8.95462166008916e-05
3.33837209302326e-01 5.18702710985144e-02 9.83582281746751e-05
3.94534883720930e-01 5.14558450843617e-02 1.06166492411280e-04
4.55232558139535e-01 5.10447301951747e-02 1.13192804483188e-04
5.15930232558140e-01 5.06368999759649e-02 1.19584483255262e-04
5.76627906976744e-01 5.02323281825310e-02 1.25445805052598e-04
6.37325581395349e-01 4.98309887819011e-02 1.30854074479495e-04
6.98023255813954e-01 4.94328559476794e-02 1.35868659345703e-04
7.58720930232558e-01 4.90379040611073e-02 1.40536441068572e-04
8.19418604651163e-01 4.86461077074148e-02 1.44895287386265e-04
8.80116279069767e-01 4.82574416744889e-02 1.48976363093908e-04
9.40813953488372e-01 4.78718809525717e-02 1.52805724236662e-04
1.00151162790698e+00 4.74894007308586e-02 1.56405451054886e-04
1.06220930232558e+00 4.71099763956841e-02 1.59794472879097e-04
1.12290697674419e+00 4.67335835349836e-02 1.62989184112982e-04
1.18360465116279e+00 4.63601979279851e-02 1.66003911840661e-04
1.24430232558140e+00 4.59897955446203e-02 1.68851274477206e-04
1.30500000000000e+00 4.56223525529542e-02 1.71542465671531e-04
1.36569767441860e+00 4.52578453056056e-02 1.74087478273506e-04
1.42639534883721e+00 4.48962503497074e-02 1.76495284411791e-04
1.48709302325581e+00 4.45375444144397e-02 1.78773981857600e-04
1.54779069767442e+00 4.41817044200053e-02 1.80930913597379e-04
1.60848837209302e+00 4.38287074683474e-02 1.82972768249451e-04
1.66918604651163e+00 4.34785308423557e-02 1.84905661022462e-04
1.72988372093023e+00 4.31311520106709e-02 1.86735204363589e-04
1.79058139534884e+00 4.27865486178639e-02 1.88466566507618e-04
1.85127906976744e+00 4.24446984910545e-02 1.90104521467946e-04
1.91197674418605e+00 4.21055796307182e-02 1.91653491954418e-04
1.97267441860465e+00 4.17691702167630e-02 1.93117586224900e-04
2.03337209302326e+00 4.14354485998923e-02 1.94500630083252e-04
2.09406976744186e+00 4.11043933071993e-02 1.95806194380208e-04
2.15476744186047e+00 4.07759830355689e-02 1.97037620246896e-04
2.21546511627907e+00 4.04501966506707e-02 1.98198038976298e-04
2.27616279069767e+00 4.01270131900011e-02 1.99290391698433e-04
2.33686046511628e+00 3.98064118556592e-02 2.00317445764408e-04
2.39755813953488e+00 3.94883720187064e-02 2.01281809415967e-04
2.45825581395349e+00 3.91728732123092e-02 2.02185944925786e-04
2.51895348837209e+00 3.88598951357913e-02 2.03032180254332e-04
2.57965116279070e+00 3.85494176481121e-02 2.03822719569577e-04
2.64034883720930e+00 3.82414207716385e-02 2.04559652433152e-04
2.70104651162791e+00 3.79358846870710e-02 2.05244963077066e-04
2.76174418604651e+00 3.76327897323933e-02 2.05880536895562e-04
2.82244186046512e+00 3.73321164048953e-02 2.06468168144374e-04
2.88313953488372e+00 3.70338453555301e-02 2.07009566069440e-04
2.94383720930233e+00 3.67379573919446e-02 2.07506360599392e-04
3.00453488372093e+00 3.64444334730773e-02 2.07960107598568e-04
3.06523255813953e+00 3.61532547119956e-02 2.08372293603299e-04
3.12593023255814e+00 3.58644023707188e-02 2.08744340218877e-04
3.18662790697674e+00 3.55778578628761e-02 2.09077607930985e-04
3.24732558139535e+00 3.52936027496221e-02 2.09373400456950e-04
3.30802325581395e+00 3.50116187385981e-02 2.09632967142202e-04
3.36872093023256e+00 3.47318876853134e-02 2.09857506728342e-04
3.42941860465116e+00 3.44543915885664e-02 2.10048170094116e-04
3.49011627906977e+00 3.41791125926199e-02 2.10206062894194e-04
3.55081395348837e+00 3.39060329827938e-02 2.10332248055795e-04
3.61151162790698e+00 3.36351351875106e-02 2.10427748043494e-04
3.67220930232558e+00 3.33664017740499e-02 2.10493547013941e-04
3.73290697674419e+00 3.30998154504720e-02 2.10530592632205e-04
3.79360465116279e+00 3.28353590622286e-02 2.10539798494513e-04
3.85430232558140e+00 3.25730155911622e-02 2.10522044998927e-04
3.91500000000000e+00 3.23127681564559e-02 2.10478181508099e-04
3.97569767441860e+00 3.20546000108218e-02 2.10409027729304e-04
4.03639534883721e+00 3.17984945420923e-02 2.10315375097858e-04
4.09709302325581e+00 3.15444352695373e-02 2.10197988117246e-04
4.15779069767442e+00 3.12924058453637e-02 2.10057605450195e-04
4.21848837209302e+00 3.10423900517486e-02 2.09894941594633e-04
4.27918604651163e+00 3.07943717998757e-02 2.09710687217060e-04
4.33988372093023e+00 3.05483351306353e-02 2.09505510675575e-04
4.40058139534884e+00 3.03042642112864e-02 2.09280058878059e-04
4.46127906976744e+00 3.00621433367034e-02 2.09034958174303e-04
4.52197674418605e+00 2.98219569261436e-02 2.08770815236049e-04
4.58267441860465e+00 2.95836895244237e-02 2.08488217850524e-04
4.64337209302326e+00 2.93473257987881e-02 2.08187735707757e-04
4.70406976744186e+00 2.91128505400187e-02 2.07869921001061e-04
4.76476744186047e+00 2.88802486598873e-02 2.07535309565638e-04
4.82546511627907e+00 2.86495051902462e-02 2.07184420867490e-04
4.88616279069767e+00 2.84206052834969e-02 2.06817759056367e-04
4.94686046511628e+00 2.81935342097272e-02 2.06435813456791e-04
5.00755813953488e+00 2.79682773576358e-02 2.06039059108511e-04
5.06825581395349e+00 2.77448202317533e-02 2.05627957313020e-04
5.12895348837209e+00 2.75231484533155e-02 2.05202956120941e-04
5.18965116279070e+00 2.73032477575642e-02 2.04764490827857e-04
5.25034883720930e+00 2.70851039945717e-02 2.04312984320007e-04
5.31104651162791e+00 2.68687031270260e-02 2.03848847905954e-04
5.37174418604651e+00 2.66540312293755e-02 2.03372481147284e-04
5.43244186046512e+00 2.64410744881309e-02 2.02884272637505e-04
5.49313953488372e+00 2.62298191993798e-02 2.02384600295125e-04
5.55383720930233e+00 2.60202517694741e-02 2.01873831710077e-04
5.61453488372093e+00 2.58123587126130e-02 2.01352324503307e-04
5.67523255813953e+00 2.56061266514909e-02 2.00820426642472e-04
5.73593023255814e+00 2.54015423149470e-02 2.00278476771917e-04
5.79662790697674e+00 2.51985925385752e-02 1.99726804416801e-04
5.85732558139535e+00 2.49972642627818e-02 1.99165730623783e-04
5.91802325581395e+00 2.47975445319822e-02 1.98595567721073e-04
5.97872093023256e+00 2.45994204947795e-02 1.98016619923697e-04
6.03941860465116e+00 2.44028794017893e-02 1.97429183513378e-04
6.10011627906977e+00 2.42079086061455e-02 1.96833547070663e-04
6.16081395348837e+00 2.40144955613817e-02 1.96229991722745e-04
6.22151162790698e+00 2.38226278219075e-02 1.95618791356849e-04
6.28220930232558e+00 2.36322930409450e-02 1.95000212849749e-04
6.34290697674419e+00 2.34434789709760e-02 1.94374516189252e-04
6.40360465116279e+00 2.32561734620253e-02 1.93741954987266e-04
6.46430232558140e+00 2.30703644609077e-02 1.93102776212669e-04
6.52500000000000e+00 2.28860400113159e-02 1.92457220679028e-04
6.58569767441860e+00 2.27031882519018e-02 1.91805523156520e-04
6.64639534883721e+00 2.25217974166439e-02 1.91147912533191e-04
6.70709302325581e+00 2.23418558329775e-02 1.90484611992312e-04
6.76779069767442e+00 2.21633519221392e-02 1.89815839093268e-04
6.82848837209302e+00 2.19862741976015e-02 1.89141806211163e-04
6.88918604651163e+00 2.18106112643591e-02 1.88462720265656e-04
6.94988372093023e+00 2.16363518189591e-02 1.87778783140400e-04
7.01058139534884e+00 2.14634846477571e-02 1.87090191760730e-04
7.07127906976744e+00 2.12919986271968e-02 1.86397138217646e-04
7.13197674418605e+00 2.11218827221078e-02 1.85699809907519e-04
7.19267441860465e+00 2.09531259859673e-02 1.84998389647414e-04
7.25337209302326e+00 2.07857175592384e-02 1.84293055806037e-04
7.31406976744186e+00 2.06196466696141e-02 1.83583982349899e-04
7.37476744186046e+00 2.04549026306186e-02 1.82871339211690e-04
7.43546511627907e+00 2.02914748409406e-02 1.82155292023623e-04
7.49616279069767e+00 2.01293527844096e-02 1.81436002470274e-04
7.55686046511628e+00 1.99685260284425e-02 1.80713628336313e-04
7.61755813953488e+00 1.98089842242358e-02 1.79988323596933e-04
7.67825581395349e+00 1.96507171052490e-02 1.79260238523074e-04
7.73895348837209e+00 1.94937144873822e-02 1.78529519765983e-04
7.79965116279070e+00 1.93379662674944e-02 1.77796310456401e-04
7.86034883720930e+00 1.91834624235681e-02 1.77060750228638e-04
7.92104651162791e+00 1.90301930134543e-02 1.76322975534560e-04
7.98174418604651e+00 1.88781481742506e-02 1.75583119388300e-04
8.04244186046512e+00 1.87273181222371e-02 1.74841311667892e-04
8.10313953488372e+00 1.85776931514866e-02 1.74097679143433e-04
8.16383720930233e+00 1.84292636339895e-02 1.73352345544435e-04
8.22453488372093e+00 1.82820200182956e-02 1.72605431640922e-04
8.28523255813954e+00 1.81359528296276e-02 1.71857055306620e-04
8.34593023255814e+00 1.79910526685534e-02 1.71107331595755e-04
8.40662790697674e+00 1.78473102110892e-02 1.70356372752877e-04
8.46732558139535e+00 1.77047162075697e-02 1.69604288484013e-04
8.52802325581395e+00 1.75632614820673e-02 1.68851185716027e-04
8.58872093023256e+00 1.74229369322993e-02 1.68097168857573e-04
8.64941860465116e+00 1.72837335283794e-02 1.67342339814371e-04
8.71011627906977e+00 1.71456423128902e-02 1.66586798040234e-04
8.77081395348837e+00 1.70086543996625e-02 1.65830640600728e-04
8.83151162790698e+00 1.68727609738386e-02 1.65073962221214e-04
8.89220930232558e+00 1.67379532906790e-02 1.64316855347401e-04
8.95290697674419e+00 1.66042226756168e-02 1.63559410145902e-04
9.01360465116279e+00 1.64715605232379e-02 1.62801714740743e-04
9.07430232558140e+00 1.63399582967391e-02 1.62043854988682e-04
9.13500000000000e+00 1.62094075278136e-02 1.61285914707161e-04
9.19569767441861e+00 1.60798998155271e-02 1.60527975680927e-04
9.25639534883721e+00 1.59514268263488e-02 1.59770117701240e-04
9.31709302325581e+00 1.58239802930507e-02 1.59012418616689e-04
9.37779069767442e+00 1.56975520147328e-02 1.58254954329023e-04
9.43848837209302e+00 1.55721338558780e-02 1.57497799006632e-04
9.49918604651163e+00 1.54477177458402e-02 1.56741024872931e-04
9.55988372093023e+00 1.53242956787166e-02 1.55984702412289e-04
9.62058139534884e+00 1.52018597123108e-02 1.55228900372053e-04
9.68127906976744e+00 1.50804019681367e-02 1.54473685794765e-04
9.74197674418605e+00 1.49599146304031e-02 1.53719124061169e-04
9.80267441860465e+00 1.48403899460124e-02 1.52965278920696e-04
9.86337209302325e+00 1.47218202235668e-02 1.52212212532554e-04
9.92406976744186e+00 1.46041978333622e-02 1.51459985457339e-04
9.98476744186046e+00 1.44875152065305e-02 1.50708656919587e-04
1.00454651162791e+01 1.43717648343326e-02 1.49958284498285e-04
1.01061627906977e+01 1.42569392683752e-02 1.49208923839161e-04
1.01668604651163e+01 1.41430311208934e-02 1.48460630002908e-04
1.02275581395349e+01 1.40300330608995e-02 1.47713456652802e-04
1.02882558139535e+01 1.39179378171062e-02 1.46967455343521e-04
1.03489534883721e+01 1.38067381763233e-02 1.46222676317355e-04
1.04096511627907e+01 1.36964269840489e-02 1.45479169203355e-04
1.04703488372093e+01 1.35869971408161e-02 1.44736982348333e-04
1.05310465116279e+01 1.34784416049479e-02 1.43996161801019e-04
1.05917441860465e+01 1.33707533920419e-02 1.43256753410082e-04
1.06524418604651e+01 1.32639255714627e-02 1.42518801821613e-04
1.07131395348837e+01 1.31579512689719e-02 1.41782349820589e-04
1.07738372093023e+01 1.30528236652521e-02 1.41047439063385e-04
1.08345348837209e+01 1.29485359964303e-02 1.40314110721203e-04
1.08952325581395e+01 1.28450815507464e-02 1.39582404860526e-04
1.09559302325581e+01 1.27424536710342e-02 1.38852359811250e-04
1.10166279069767e+01 1.26406457533144e-02 1.38124012867115e-04
1.10773255813953e+01 1.25396512472811e-02 1.37397400901165e-04
1.11380232558140e+01 1.24394636531363e-02 1.36672559771116e-04
1.11987209302326e+01 1.23400765239314e-02 1.35949523712949e-04
1.12594186046512e+01 1.22414834642255e-02 1.35228326010963e-04
1.13201162790698e+01 1.21436781305369e-02 1.34508999586661e-04
1.13808139534884e+01 1.20466542283355e-02 1.33791576427943e-04
1.14415116279070e+01 1.19504055142518e-02 1.33076087007154e-04
1.15022093023256e+01 1.18549257947980e-02 1.32362560922195e-04
1.15629069767442e+01 1.17602089267876e-02 1.31651027460227e-04
1.16236046511628e+01 1.16662488144743e-02 1.30941515049694e-04
1.16843023255814e+01 1.15730394116397e-02 1.30234050701678e-04
1.17450000000000e+01 1.14805747203720e-02 1.29528660623635e-04
1.18056976744186e+01 1.13888487914557e-02 1.28825370759066e-04
1.18663953488372e+01 1.12978557216506e-02 1.28124206261426e-04
1.19270930232558e+01 1.12075896556634e-02 1.27425190957842e-04
1.19877906976744e+01 1.11180447849825e-02 1.26728347936708e-04
1.20484883720930e+01 1.10292153482396e-02 1.26033700064615e-04
1.21091860465116e+01 1.09410956286204e-02 1.25341269481150e-04
1.21698837209302e+01 1.08536799557279e-02 1.24651077084026e-04
1.22305813953488e+01 1.07669627044698e-02 1.23963143091871e-04
1.22912790697674e+01 1.06809382953943e-02 1.23277487539393e-04
1.23519767441860e+01 1.05956011922250e-02 1.22594129792265e-04
1.24126744186047e+01 1.05109459036225e-02 1.21913088052758e-04
1.24733720930233e+01 1.04269669821220e-02 1.21234379898855e-04
1.25340697674419e+01 1.03436590244446e-02 1.20558022758768e-04
1.25947674418605e+01 1.02610166691499e-02 1.19884033445021e-04
1.26554651162791e+01 1.01790345983021e-02 1.19212427679684e-04
1.27161627906977e+01 1.00977075364547e-02 1.18543220611009e-04
1.27768604651163e+01 1.00170302509394e-02 1.17876427268210e-04
1.28375581395349e+01 9.93699754962990e-03 1.17212062113926e-04
1.28982558139535e+01 9.85760428251840e-03 1.16550138588298e-04
1.29589534883721e+01 9.77884534074462e-03 1.15890669604103e-04
1.30196511627907e+01 9.70071565686453e-03 1.15233667982752e-04
1.30803488372093e+01 9.62321020271853e-03 1.14579146024406e-04
1.31410465116279e+01 9.54632399092385e-03 1.13927114858428e-04
1.32017441860465e+01 9.47005207452105e-03 1.13277585766126e-04
1.32624418604651e+01 9.39438954491927e-03 1.12630569539248e-04
1.33231395348837e+01 9.31933153332659e-03 1.11986076056480e-04
1.33838372093023e+01 9.24487320985022e-03 1.11344114741879e-04
1.34445348837209e+01 9.17100978373414e-03 1.10704694968667e-04
1.35052325581395e+01 9.09773650139949e-03 1.10067825659886e-04
1.35659302325581e+01 9.02504864779933e-03 1.09433514881497e-04
1.36266279069767e+01 8.95294154555769e-03 1.08801770282076e-04
1.36873255813953e+01 8.88141055519009e-03 1.08172599480147e-04
1.37480232558140e+01 8.81045107323409e-03 1.07546009680439e-04
1.38087209302326e+01 8.74005853353283e-03 1.06922007282901e-04
1.38694186046512e+01 8.67022840641103e-03 1.06300598304472e-04
1.39301162790698e+01 8.60095619887955e-03 1.05681788750752e-04
1.39908139534884e+01 8.53223745285144e-03 1.05065584247169e-04
1.40515116279070e+01 8.46406774635832e-03 1.04451989663267e-04
1.41122093023256e+01 8.39644269276156e-03 1.03841009517372e-04
1.41729069767442e+01 8.32935794094195e-03 1.03232648333260e-04
1.42336046511628e+01 8.26280917359684e-03 1.02626910285651e-04
1.42943023255814e+01 8.19679210839320e-03 1.02023798839119e-04
1.43550000000000e+01 8.13130249721229e-03 1.01423317136423e-04
1.44156976744186e+01 8.06633612632541e-03 1.00825468340822e-04
1.44763953488372e+01 8.00188881476806e-03 1.00230255295331e-04
1.45370930232558e+01 7.93795641543322e-03 9.96376801756535e-05
1.45977906976744e+01 7.87453481434788e-03 9.90477448628614e-05
1.46584883720930e+01 7.81161993083591e-03 9.84604512720362e-05
1.47191860465116e+01 7.74920771596519e-03 9.78758010246823e-05
1.47798837209302e+01 7.68729415358460e-03 9.72937951150901e-05
1.48405813953488e+01 7.62587525963088e-03 9.67144342681287e-05
1.49012790697674e+01 7.56494708227937e-03 9.61377192547362e-05
1.49619767441860e+01 7.50450570046065e-03 9.55636505769789e-05
1.50226744186047e+01 7.44454722484421e-03 9.49922281473162e-05
1.50833720930233e+01 7.38506779717427e-03 9.44234516320967e-05
1.51440697674419e+01 7.32606359040928e-03 9.38573207545290e-05
1.52047674418605e+01 7.26753080730445e-03 9.32938349918408e-05
1.52654651162791e+01 7.20946568134521e-03 9.27329932669211e-05
1.53261627906977e+01 7.15186447611053e-03 9.21747942781492e-05
1.53868604651163e+01 7.09472348540203e-03 9.16192367903615e-05
1.54475581395349e+01 7.03803903188903e-03 9.10663193436572e-05
1.55082558139535e+01 6.98180746799469e-03 9.05160399568779e-05
1.55689534883721e+01 6.92602517528548e-03 8.99683964443607e-05
1.56296511627907e+01 6.87068856459057e-03 8.94233866954523e-05
1.56903488372093e+01 6.81579407470646e-03 8.88810083944402e-05
1.57510465116279e+01 6.76133817323823e-03 8.83412585985079e-05
1.58117441860465e+01 6.70731735635389e-03 8.78041345907160e-05
1.58724418604651e+01 6.65372814753274e-03 8.72696334629126e-05
1.59331395348837e+01 6.60056709837357e-03 8.67377518395893e-05
1.59938372093023e+01 6.54783078802631e-03 8.62084861722942e-05
1.60545348837209e+01 6.49551582329686e-03 8.56818329994509e-05
1.61152325581395e+01 6.44361883744998e-03 8.51577886855276e-05
1.61759302325581e+01 6.39213649097689e-03 8.46363491554397e-05
1.62366279069767e+01 6.34106547105003e-03 8.41175101774123e-05
1.62973255813953e+01 6.29040249161983e-03 8.36012676126347e-05
1.63580232558140e+01 6.24014429226941e-03 8.30876171643575e-05
1.64187209302326e+01 6.19028763894386e-03 8.25765541224158e-05
1.64794186046512e+01 6.14082932342705e-03 8.20680736350159e-05
1.65401162790698e+01 6.09176616343079e-03 8.15621709486689e-05
1.66008139534884e+01 6.04309500149906e-03 8.10588411668091e-05
1.66615116279070e+01 5.99481270570081e-03 8.05580790040226e-05
1.67222093023256e+01 5.94691616912792e-03 8.00598790472371e-05
1.67829069767442e+01 5.89940230997737e-03 7.95642359863372e-05
1.68436046511628e+01 5.85226807050240e-03 7.90711443819290e-05
1.69043023255814e+01 5.80551041767102e-03 7.85805984288656e-05
1.69650000000000e+01 5.75912634268407e-03 7.80925922072989e-05
1.70256976744186e+01 5.71311286105081e-03 7.76071199043671e-05
1.70863953488372e+01 5.66746701158495e-03 7.71241755907161e-05
1.71470930232558e+01 5.62218585703054e-03 7.66437529929897e-05
1.72077906976744e+01 5.57726648359934e-03 7.61658457351474e-05
1.72684883720930e+01 5.53270600104021e-03 7.56904475515779e-05
1.73291860465116e+01 5.48850154167795e-03 7.52175520720471e-05
1.73898837209302e+01 5.44465026100827e-03 7.47471526027926e-05
1.74505813953488e+01 5.40114933725361e-03 7.42792423584974e-05
1.75112790697674e+01 5.35799597142682e-03 7.38138146671976e-05
1.75719767441860e+01 5.31518738641066e-03 7.33508627633331e-05
1.76326744186047e+01 5.27272082752366e-03 7.28903795770777e-05
1.76933720930233e+01 5.23059356209344e-03 7.24323579573716e-05
1.77540697674419e+01 5.18880287951511e-03 7.19767908689623e-05
1.78147674418605e+01 5.14734609036963e-03 7.15236711932235e-05
1.78754651162791e+01 5.10622052696193e-03 7.10729915254007e-05
1.79361627906977e+01 5.06542354291107e-03 7.06247443890761e-05
1.79968604651163e+01 5.02495251320373e-03 7.01789224256548e-05
1.80575581395349e+01 4.98480483334954e-03 6.97355182026492e-05
1.81182558139535e+01 4.94497791989301e-03 6.92945240185378e-05
1.81789534883721e+01 4.90546921001979e-03 6.88559321090006e-05
1.82396511627907e+01 4.86627616160547e-03 6.84197348291564e-05
1.83003488372093e+01 4.82739625240638e-03 6.79859244690226e-05
1.83610465116279e+01 4.78882698054649e-03 6.75544929758714e-05
1.84217441860465e+01 4.75056586434570e-03 6.71254325125659e-05
1.84824418604651e+01 4.71261044153659e-03 6.66987351830499e-05
1.85431395348837e+01 4.67495826973297e-03 6.62743928502552e-05
1.86038372093023e+01 4.63760692606229e-03 6.58523973282734e-05
1.86645348837209e+01 4.60055400720753e-03 6.54327405521836e-05
1.87252325581395e+01 4.56379712865658e-03 6.50154144058439e-05
1.87859302325581e+01 4.52733392514809e-03 6.46004105465912e-05
1.88466279069767e+01 4.49116205031821e-03 6.41877205901034e-05
1.89073255813953e+01 4.45527917673865e-03 6.37773362737741e-05
1.89680232558140e+01 4.41968299519711e-03 6.33692492909000e-05
1.90287209302326e+01 4.38437121512168e-03 6.29634511219243e-05
1.90894186046512e+01 4.34934156424124e-03 6.25599332122665e-05
1.91501162790698e+01 4.31459178861995e-03 6.21586871295100e-05
