Energy (eV)          EEDF (eV^-(3/2))     First Anisotropy
4.30000000000000e-01 9.33546857178617e-02 2.28705483091795e-04
1.29000000000000e+00 7.84803977696050e-02 3.48743887241487e-04
2.15000000000000e+00 6.59760438023410e-02 3.89648293890898e-04
3.01000000000000e+00 5.54640200548811e-02 3.90535498199099e-04
3.87000000000000e+00 4.66268867206478e-02 3.73417435173128e-04
4.73000000000000e+00 3.91977819694445e-02 3.47589720311370e-04
5.59000000000000e+00 3.29523633119540e-02 3.17945419971413e-04
6.45000000000000e+00 2.77020329540447e-02 2.87271671635177e-04
7.31000000000000e+00 2.32882425616068e-02 2.57192138458149e-04
8.17000000000000e+00 1.95777054524459e-02 2.28637718661658e-04
9.03000000000000e+00 1.64583716340458e-02 2.02110027946293e-04
9.89000000000000e+00 1.38360441422681e-02 1.77839725391615e-04
1.07500000000000e+01 1.16315345019180e-02 1.55886073237891e-04
1.16100000000000e+01 9.77827141039531e-03 1.36201378627700e-04
1.24700000000000e+01 8.22029043197939e-03 1.18673428015597e-04
1.33300000000000e+01 6.91054399597198e-03 1.03153654903783e-04
1.41900000000000e+01 5.80948066439123e-03 8.94758346293883e-05
1.50500000000000e+01 4.88385076625050e-03 7.74683852282980e-05
1.59100000000000e+01 4.10570233122637e-03 6.69623079265211e-05
1.67700000000000e+01 3.45153700213882e-03 5.77961390031679e-05
1.76300000000000e+01 2.90160043667243e-03 4.98188530163430e-05
1.84900000000000e+01 2.43928577004402e-03 4.28913688306716e-05
1.93500000000000e+01 2.05063212451225e-03 3.68871132923985e-05
2.02100000000000e+01 1.72390302182829e-03 3.16919614135477e-05
2.10700000000000e+01 1.44923196761855e-03 2.72037767585561e-05
2.19300000000000e+01 1.21832450513376e-03 2.33317085406714e-05
2.27900000000000e+01 1.02420774104819e-03 1.99953542148650e-05
2.36500000000000e+01 8.61019779543765e-04 1.71238623359466e-05
2.45100000000000e+01 7.23832706055199e-04 1.46550261693287e-05
2.53700000000000e+01 6.08503775177862e-04 1.25344012299399e-05
2.62300000000000e+01 5.11550308943174e-04 1.07144676277349e-05
2.70900000000000e+01 4.30044527666846e-04 9.15384942235527e-06
2.79500000000000e+01 3.61525137494824e-04 7.81659713286501e-06
2.88100000000000e+01 3.03923004786854e-04 6.67153538632395e-06
2.96700000000000e+01 2.55498672868890e-04 5.69167489439542e-06
3.05300000000000e+01 2.14789834298807e-04 4.85368613590267e-06
3.13900000000000e+01 1.80567172424348e-04 4.13743101435404e-06
3.22500000000000e+01 1.51797238746253e-04 3.52554814750012e-06
3.31100000000000e+01 1.27611245065274e-04 3.00308718081032e-06
3.39700000000000e+01 1.07278828005107e-04 2.55718748886146e-06
3.48300000000000e+01 9.01859936580231e-05 2.17679675848383e-06
3.56900000000000e+01 7.58165763303998e-05 1.85242517769084e-06
3.65500000000000e+01 6.37366514833755e-05 1.57593124382464e-06
3.74100000000000e+01 5.35814321740141e-05 1.34033552390964e-06
3.82700000000000e+01 4.50442532985484e-05 1.13965902969635e-06
3.91300000000000e+01 3.78673109862824e-05 9.68783195556574e-07
3.99900000000000e+01 3.18338774943803e-05 8.23328760243630e-07
4.08500000000000e+01 2.67617565106305e-05 6.99551147956398e-07
4.17100000000000e+01 2.24977812288404e-05 5.94250216990374e-07
4.25700000000000e+01 1.89131890509394e-05 5.04692494094283e-07
4.34300000000000e+01 1.58997332420505e-05 4.28544239243345e-07
4.42900000000000e+01 1.33664141191361e-05 3.63813889461324e-07
4.51500000000000e+01 1.12367310623633e-05 3.08802612663259e-07
4.60100000000000e+01 9.44637236602710e-06 2.62061864653178e-07
4.68700000000000e+01 7.94127316764956e-06 2.22356985966175e-07
4.77300000000000e+01 6.67598280902343e-06 1.88636001824532e-07
4.85900000000000e+01 5.61229232712161e-06 1.60002899707043e-07
4.94500000000000e+01 4.71808062814285e-06 1.35694756476978e-07
5.03100000000000e+01 3.96634450170800e-06 1.15062172158859e-07
5.11700000000000e+01 3.33438318378670e-06 9.75525416750736e-08
5.20300000000000e+01 2.80311284396295e-06 8.26957604158170e-08
5.28900000000000e+01 2.35649029607531e-06 7.00920155707428e-08
5.37500000000000e+01 1.98102852957085e-06 5.94013637361904e-08
5.46100000000000e+01 1.66538943169416e-06 5.03348373582140e-08
5.54700000000000e+01 1.40004140162455e-06 4.26468589079192e-08
5.63300000000000e+01 1.17697151726780e-06 3.61287730469320e-08
5.71900000000000e+01 9.89443562777687e-07 3.06033340765480e-08
5.80500000000000e+01 8.31794609775124e-07 2.59200092456263e-08
5.89100000000000e+01 6.99264009468730e-07 2.19509785209561e-08
5.97700000000000e+01 5.87849631618168e-07 1.85877286382102e-08
6.06300000000000e+01 4.94187009075675e-07 1.57381540345095e-08
6.14900000000000e+01 4.15447738338964e-07 1.33240899484082e-08
6.23500000000000e+01 3.49254068037491e-07 1.12792138494860e-08
6.32100000000000e+01 2.93607096113770e-07 9.54726067908028e-09
6.40700000000000e+01 2.46826407413834e-07 8.08050536374155e-09
6.49300000000000e+01 2.07499328875937e-07 6.83847289206925e-09
6.57900000000000e+01 1.74438269936716e-07 5.78684208637590e-09
6.66500000000000e+01 1.46644859929681e-07 4.89651419346858e-09
6.75100000000000e+01 1.23279799504990e-07 4.14282168468388e-09
6.83700000000000e+01 1.03637515650247e-07 3.50485629828152e-09
6.92300000000000e+01 8.71248549501449e-08 2.96489846694295e-09
7.00900000000000e+01 7.32431716686532e-08 2.50793292638137e-09
7.09500000000000e+01 6.15732697535457e-08 2.12123756401449e-09
7.18100000000000e+01 5.17627440451968e-08 1.79403449595961e-09
7.26700000000000e+01 4.35153384222260e-08 1.51719400487263e-09
7.35300000000000e+01 3.65819995235854e-08 1.28298337199689e-09
7.43900000000000e+01 3.07533558893357e-08 1.08485382985691e-09
7.52500000000000e+01 2.58533954068415e-08 9.17259877823274e-10
7.61100000000000e+01 2.17341501352791e-08 7.75506067370617e-10
7.69700000000000e+01 1.82712280019455e-08 6.55617099544350e-10
7.78300000000000e+01 1.53600564375043e-08 5.54227702989839e-10
7.86900000000000e+01 1.29127245162830e-08 4.68489293144208e-10
7.95500000000000e+01 1.08553282412617e-08 3.95990865728492e-10
8.04100000000000e+01 9.12573880724712e-09 3.34691962350689e-10
8.12700000000000e+01 7.67172644872656e-09 2.82865872940256e-10
8.21300000000000e+01 6.44938321677049e-09 2.39051517493691e-10
8.29900000000000e+01 5.42179705634123e-09 2.02012685558550e-10
8.38500000000000e+01 4.55793714408404e-09 1.70703512272334e-10
8.47100000000000e+01 3.83171682627316e-09 1.44239239928461e-10
8.55700000000000e+01 3.22120585971691e-09 1.21871458497863e-10
8.64300000000000e+01 2.70796816704399e-09 1.02967141150705e-10
8.72900000000000e+01 2.27650510804921e-09 8.69908948819859e-11
8.81500000000000e+01 1.91378745512778e-09 7.34899346405697e-11
8.90100000000000e+01 1.60886193949417e-09 6.20813642692563e-11
8.98700000000000e+01 1.35252048675392e-09 5.24414111035010e-11
9.07300000000000e+01 1.13702215347588e-09 4.42963149653494e-11
9.15900000000000e+01 9.55859367866385e-10 3.74146179861302e-11
9.24500000000000e+01 8.03561415531650e-10 3.16006404361940e-11
9.33100000000000e+01 6.75529236034531e-10 2.66889605856310e-11
9.41700000000000e+01 5.67896541467804e-10 2.25397444608523e-11
9.50300000000000e+01 4.77413063132930e-10 1.90347949576696e-11
9.58900000000000e+01 4.01346400632884e-10 1.60742097668300e-11
9.67500000000000e+01 3.37399509439316e-10 1.35735545101649e-11
9.76100000000000e+01 2.83641335241525e-10 1.14614718390608e-11
9.84700000000000e+01 2.38448500388424e-10 9.67765940598479e-12
9.93300000000000e+01 2.00456281483350e-10 8.17115991866518e-12
1.00190000000000e+02 1.68517397763776e-10 6.89891520885490e-12
1.01050000000000e+02 1.41667365766403e-10 5.82454363395595e-12
1.01910000000000e+02 1.19095374065324e-10 4.91730638413059e-12
1.02770000000000e+02 1.00119798564950e-10 4.15123356283073e-12
1.03630000000000e+02 8.41676189638399e-11 3.50438539156051e-12
1.04490000000000e+02 7.07571148122763e-11 2.95822768443267e-12
1.05350000000000e+02 5.94833186229086e-11 2.49710395002223e-12
1.06210000000000e+02 5.00057867506573e-11 2.10778919642356e-12
1.07070000000000e+02 4.20383187495725e-11 1.77911281591374e-12
1.07930000000000e+02 3.53403147540205e-11 1.50163987229545e-12
1.08790000000000e+02 2.97095098962763e-11 1.26740176111919e-12
1.09650000000000e+02 2.49758663560438e-11 1.06966860654606e-12
1.10510000000000e+02 2.09964385953451e-11 9.02756937550498e-13
1.11370000000000e+02 1.76510567202573e-11 7.61867183454081e-13
1.12230000000000e+02 1.48386976165955e-11 6.42946372350079e-13
1.13090000000000e+02 1.24744342758843e-11 5.42572129467157e-13
1.13950000000000e+02 1.04868711880296e-11 4.57854675943572e-13
1.14810000000000e+02 8.81598835523371e-12 3.86354038784409e-13
1.15670000000000e+02 7.41132882115813e-12 3.26010114294602e-13
1.16530000000000e+02 6.23047498273075e-12 2.75083592157613e-13
1.17390000000000e+02 5.23776767259500e-12 2.32106055835643e-13
1.18250000000000e+02 4.40322933133056e-12 1.95837835794293e-13
1.19110000000000e+02 3.70165875163453e-12 1.65232412557556e-13
1.19970000000000e+02 3.11187005774510e-12 1.39406353000541e-13
1.20830000000000e+02 2.61605293897350e-12 1.17613920851866e-13
1.21690000000000e+02 2.19923481781592e-12 9.92256355584857e-14
1.22550000000000e+02 1.84882871131487e-12 8.37101662299056e-14
1.23410000000000e+02 1.55425313208564e-12 7.06190425123194e-14
1.24270000000000e+02 1.30661255086200e-12 5.95737446409535e-14
1.25130000000000e+02 1.09842877123830e-12 5.02548028596030e-14
1.25990000000000e+02 9.23415104721049e-13 4.23925938071169e-14
1.26850000000000e+02 7.76286526677297e-13 3.57595699808926e-14
1.27710000000000e+02 6.52600080310300e-13 3.01636993750515e-14
1.28570000000000e+02 5.48620709216627e-13 2.54429270207150e-14
1.29430000000000e+02 4.61208466965315e-13 2.14604994124801e-14
1.30290000000000e+02 3.87723697678544e-13 1.81010175212717e-14
1.31150000000000e+02 3.25947324277610e-13 1.52671049729493e-14
1.32010000000000e+02 2.74013837275989e-13 1.28765956091794e-14
1.32870000000000e+02 2.30354960529646e-13 1.08601595448891e-14
1.33730000000000e+02 1.93652292775159e-13 9.15929942000345e-15
1.34590000000000e+02 1.62797494835148e-13 7.72465917121352e-15
1.35450000000000e+02 1.36858820232878e-13 6.51459662569173e-15
1.36310000000000e+02 1.15052978514823e-13 5.49397879938176e-15
1.37170000000000e+02 9.67214816159304e-14 4.63316518442455e-15
1.38030000000000e+02 8.13107589802685e-14 3.90714971651343e-15
1.38890000000000e+02 6.83554409577860e-14 3.29483667818097e-15
1.39750000000000e+02 5.74643056728474e-14 2.77842964889116e-15
1.40610000000000e+02 4.83084649911298e-14 2.34291586774384e-15
1.41470000000000e+02 4.06114328272814e-14 1.97563112285928e-15
1.42330000000000e+02 3.41407758782571e-14 1.66589260188294e-15
1.43190000000000e+02 2.87010946529908e-14 1.40468909708179e-15
1.44050000000000e+02 2.41281228410674e-14 1.18441961240396e-15
1.44910000000000e+02 2.02837668344114e-14 9.98672816120743e-16
1.45770000000000e+02 1.70519356065483e-14 8.42040961359769e-16
1.46630000000000e+02 1.43350350210386e-14 7.09962891836968e-16
1.47490000000000e+02 1.20510207049744e-14 5.98591590000213e-16
1.48350000000000e+02 1.01309204908521e-14 5.04682433761393e-16
1.49210000000000e+02 8.51675161006076e-15 4.25498926410000e-16
1.50070000000000e+02 7.15976974184819e-15 3.58733169391474e-16
1.50930000000000e+02 6.01899704292528e-15 3.02438773938798e-16
1.51790000000000e+02 5.05998470746791e-15 2.54974267343936e-16
1.52650000000000e+02 4.25377268957182e-15 2.14955353312993e-16
1.53510000000000e+02 3.57601517408575e-15 1.81214642117658e-16
1.54370000000000e+02 3.00624538698112e-15 1.52767682524539e-16
1.55230000000000e+02 2.52725754416179e-15 1.28784309991405e-16
1.56090000000000e+02 2.12458727493850e-15 1.08564479631192e-16
1.56950000000000e+02 1.78607483010907e-15 9.15178824063308e-17
1.57810000000000e+02 1.50149788449687e-15 7.71467526800538e-17
1.58670000000000e+02 1.26226284539876e-15 6.50313677854018e-17
1.59530000000000e+02 1.06114534514184e-15 5.48178183503344e-17
1.60390000000000e+02 8.92072081199910e-16 4.62076939953812e-17
1.61250000000000e+02 7.49937415924836e-16 3.89493846033813e-17
1.62110000000000e+02 6.30449197611407e-16 3.28307442566335e-17
1.62970000000000e+02 5.29999147033761e-16 2.76729045019976e-17
1.63830000000000e+02 4.45553895414193e-16 2.33250569841732e-17
1.64690000000000e+02 3.74563383412608e-16 1.96600536478747e-17
1.65550000000000e+02 3.14883854989254e-16 1.65706964663965e-17
1.66410000000000e+02 2.64713120726141e-16 1.39666086952857e-17
1.67270000000000e+02 2.22536135703001e-16 1.17715965562151e-17
1.68130000000000e+02 1.87079248500333e-16 9.92142451769508e-18
1.68990000000000e+02 1.57271739750882e-16 8.36193936945749e-18
1.69850000000000e+02 1.32213488789085e-16 7.04748843506326e-18
1.70710000000000e+02 1.11147792003003e-16 5.93958582691228e-18
1.71570000000000e+02 9.34385120632464e-17 5.43909594802203e-18
