Energy (eV)          EEDF (eV^-(3/2))     First Anisotropy
5.35714285714286e-02 4.38311042340570e-02 3.09938489737337e-05
1.60714285714286e-01 4.32935356135687e-02 5.10373841097872e-05
2.67857142857143e-01 4.27625600286079e-02 6.69992821816769e-05
3.75000000000000e-01 4.22380966185065e-02 7.88993553643753e-05
4.82142857142857e-01 4.17200655131542e-02 8.86386430842575e-05
5.89285714285714e-01 4.12083878247567e-02 9.69417821655246e-05
6.96428571428571e-01 4.07029856314106e-02 1.04186684247041e-04
8.03571428571428e-01 4.02037819669498e-02 1.10603281703523e-04
9.10714285714286e-01 3.97107008091748e-02 1.16345199614122e-04
1.01785714285714e+00 3.92236670682999e-02 1.21521808940654e-04
1.12500000000000e+00 3.87426065759005e-02 1.26214653109074e-04
1.23214285714286e+00 3.82674460711283e-02 1.30486704685887e-04
1.33928571428571e+00 3.77981131934730e-02 1.34387962521356e-04
1.44642857142857e+00 3.73345364733170e-02 1.37959027250854e-04
1.55357142857143e+00 3.68766453105618e-02 1.41233485152674e-04
1.66071428571429e+00 3.64243699744759e-02 1.44239555942535e-04
1.76785714285714e+00 3.59776415922264e-02 1.47001268493550e-04
1.87500000000000e+00 3.55363921303145e-02 1.49539318172296e-04
1.98214285714286e+00 3.51005543923326e-02 1.51871707131753e-04
2.08928571428571e+00 3.46700620060016e-02 1.54014232452781e-04
2.19642857142857e+00 3.42448494150849e-02 1.55980863889442e-04
2.30357142857143e+00 3.38248518632674e-02 1.57784039951513e-04
2.41071428571429e+00 3.34100053904844e-02 1.59434903300183e-04
2.51785714285714e+00 3.30002468228029e-02 1.60943491817917e-04
2.62500000000000e+00 3.25955137577060e-02 1.62318892794910e-04
2.73214285714286e+00 3.21957445597168e-02 1.63569369754412e-04
2.83928571428571e+00 3.18008783492876e-02 1.64702468273243e-04
2.94642857142857e+00 3.14108549948925e-02 1.65725104427226e-04
3.05357142857143e+00 3.10256150997351e-02 1.66643638795160e-04
3.16071428571429e+00 3.06450999968722e-02 1.67463939048116e-04
3.26785714285714e+00 3.02692517400646e-02 1.68191434576459e-04
3.37500000000000e+00 2.98980130913912e-02 1.68831162287273e-04
3.48214285714286e+00 2.95313275161185e-02 1.69387806232856e-04
3.58928571428571e+00 2.91691391728849e-02 1.69865732527017e-04
3.69642857142857e+00 2.88113929061859e-02 1.70269019768101e-04
3.80357142857143e+00 2.84580342349774e-02 1.70601485275408e-04
3.91071428571429e+00 2.81090093474006e-02 1.70866708031524e-04
4.01785714285714e+00 2.77642650924493e-02 1.71068049938794e-04
4.12500000000000e+00 2.74237489692356e-02 1.71208673735099e-04
4.23214285714286e+00 2.70874091216544e-02 1.71291559013206e-04
4.33928571428571e+00 2.67551943295914e-02 1.71319516957397e-04
4.44642857142857e+00 2.64270540018736e-02 1.71295203517036e-04
4.55357142857143e+00 2.61029381662921e-02 1.71221130889077e-04
4.66071428571429e+00 2.57827974642831e-02 1.71099677749994e-04
4.76785714285714e+00 2.54665831433160e-02 1.70933099333586e-04
4.87500000000000e+00 2.51542470474374e-02 1.70723535767897e-04
4.98214285714286e+00 2.48457416119846e-02 1.70473019715222e-04
5.08928571428571e+00 2.45410198556534e-02 1.70183483693034e-04
5.19642857142857e+00 2.42400353739301e-02 1.69856766729348e-04
5.30357142857143e+00 2.39427423302489e-02 1.69494620145460e-04
5.41071428571429e+00 2.36490954508013e-02 1.69098712759611e-04
5.51785714285714e+00 2.33590500175733e-02 1.68670636374097e-04
5.62500000000000e+00 2.30725618599300e-02 1.68211910142297e-04
5.73214285714286e+00 2.27895873495060e-02 1.67723984654309e-04
5.83928571428571e+00 2.25100833930183e-02 1.67208246021605e-04
5.94642857142857e+00 2.22340074261715e-02 1.66666019632533e-04
6.05357142857143e+00 2.19613174057573e-02 1.66098573369346e-04
6.16071428571429e+00 2.16919718046822e-02 1.65507120512548e-04
6.26785714285714e+00 2.14259296055917e-02 1.64892823049663e-04
6.37500000000000e+00 2.11631502933310e-02 1.64256794165244e-04
6.48214285714286e+00 2.09035938500778e-02 1.63600100615297e-04
6.58928571428571e+00 2.06472207488100e-02 1.62923765212388e-04
6.69642857142857e+00 2.03939919476678e-02 1.62228769127815e-04
6.80357142857143e+00 2.01438688828536e-02 1.61516053817779e-04
6.91071428571429e+00 1.98968134639229e-02 1.60786522758997e-04
7.01785714285714e+00 1.96527880679434e-02 1.60041043604899e-04
7.12500000000000e+00 1.94117555327075e-02 1.59280449697332e-04
7.23214285714286e+00 1.91736791521396e-02 1.58505541535406e-04
7.33928571428571e+00 1.89385226703468e-02 1.57717088391429e-04
7.44642857142857e+00 1.87062502764123e-02 1.56915829815236e-04
7.55357142857143e+00 1.84768265979915e-02 1.56102476853646e-04
7.66071428571429e+00 1.82502166968830e-02 1.55277713142266e-04
7.76785714285714e+00 1.80263860636762e-02 1.54442196397481e-04
7.87500000000000e+00 1.78053006116208e-02 1.53596559378698e-04
7.98214285714286e+00 1.75869266723181e-02 1.52741410841598e-04
8.08928571428571e+00 1.73712309902967e-02 1.51877336645130e-04
8.19642857142857e+00 1.71581807182096e-02 1.51004900785102e-04
8.30357142857143e+00 1.69477434110416e-02 1.50124646200271e-04
8.41071428571428e+00 1.67398870219647e-02 1.49237095486489e-04
8.51785714285714e+00 1.65345798974331e-02 1.48342751978635e-04
8.62500000000000e+00 1.63317907716310e-02 1.47442100385589e-04
8.73214285714286e+00 1.61314887624481e-02 1.46535607432371e-04
8.83928571428571e+00 1.59336433665295e-02 1.45623722650601e-04
8.94642857142857e+00 1.57382244548489e-02 1.44706879117611e-04
9.05357142857143e+00 1.55452022674576e-02 1.43785494007601e-04
9.16071428571428e+00 1.53545474096206e-02 1.42859969072879e-04
9.26785714285714e+00 1.51662308473198e-02 1.41930691457915e-04
9.37500000000000e+00 1.49802239022169e-02 1.40998034129991e-04
9.48214285714286e+00 1.47964982479062e-02 1.40062356324622e-04
9.58928571428571e+00 1.46150259053926e-02 1.39124004129057e-04
9.69642857142857e+00 1.44357792390160e-02 1.38183311028123e-04
9.80357142857143e+00 1.42587309516818e-02 1.37240598291242e-04
9.91071428571428e+00 1.40838540812692e-02 1.36296175304077e-04
1.00178571428571e+01 1.39111219965085e-02 1.35350340297891e-04
1.01250000000000e+01 1.37405083918960e-02 1.34403380156017e-04
1.02321428571429e+01 1.35719872867381e-02 1.33455571640136e-04
1.03392857142857e+01 1.34055330158334e-02 1.32507181110534e-04
1.04464285714286e+01 1.32411202319902e-02 1.31558465074548e-04
1.05535714285714e+01 1.30787238957311e-02 1.30609670873937e-04
1.06607142857143e+01 1.29183192762604e-02 1.29661035732148e-04
1.07678571428571e+01 1.27598819475765e-02 1.28712788930838e-04
1.08750000000000e+01 1.26033877802748e-02 1.27765150905126e-04
1.09821428571429e+01 1.24488129437923e-02 1.26818333778578e-04
1.10892857142857e+01 1.22961338970018e-02 1.25872541716867e-04
1.11964285714286e+01 1.21453273902651e-02 1.24927971122334e-04
1.13035714285714e+01 1.19963704563887e-02 1.23984811228649e-04
1.14107142857143e+01 1.18492404112167e-02 1.23043243215857e-04
1.15178571428571e+01 1.17039148500738e-02 1.22103442099962e-04
1.16250000000000e+01 1.15603716405173e-02 1.21165575893657e-04
1.17321428571429e+01 1.14185889240401e-02 1.20229806046179e-04
1.18392857142857e+01 1.12785451077869e-02 1.19296287722579e-04
1.19464285714286e+01 1.11402188661057e-02 1.18365169945425e-04
1.20535714285714e+01 1.10035891325723e-02 1.17436596091722e-04
1.21607142857143e+01 1.08686351002978e-02 1.16510703078603e-04
1.22678571428571e+01 1.07353362186723e-02 1.15587623014025e-04
1.23750000000000e+01 1.06036721869356e-02 1.14667482424961e-04
1.24821428571429e+01 1.04736229554520e-02 1.13750402623920e-04
1.25892857142857e+01 1.03451687183891e-02 1.12836499932704e-04
1.26964285714286e+01 1.02182899148736e-02 1.11925885786493e-04
1.28035714285714e+01 1.00929672219341e-02 1.11018667153678e-04
1.29107142857143e+01 9.96918155459210e-03 1.10114945790957e-04
1.30178571428571e+01 9.84691406288103e-03 1.09214819692501e-04
1.31250000000000e+01 9.72614612612512e-03 1.08318382384043e-04
1.32321428571429e+01 9.60685935387649e-03 1.07425723231637e-04
1.33392857142857e+01 9.48903557942509e-03 1.06536927623113e-04
1.34464285714286e+01 9.37265686064039e-03 1.05652077044883e-04
1.35535714285714e+01 9.25770547370986e-03 1.04771249439838e-04
1.36607142857143e+01 9.14416391306581e-03 1.03894518528511e-04
1.37678571428571e+01 9.03201488865604e-03 1.03021955086380e-04
1.38750000000000e+01 8.92124132084014e-03 1.02153626300530e-04
1.39821428571429e+01 8.81182634105928e-03 1.01289596032074e-04
1.40892857142857e+01 8.70375328606706e-03 1.00429924964767e-04
1.41964285714286e+01 8.59700569852347e-03 9.95746706617617e-05
1.43035714285714e+01 8.49156732142414e-03 9.87238878729393e-05
1.44107142857143e+01 8.38742209790547e-03 9.78776279178009e-05
1.45178571428571e+01 8.28455416874480e-03 9.70359398149715e-05
1.46250000000000e+01 8.18294786779741e-03 9.61988696972539e-05
1.47321428571429e+01 8.08258772245493e-03 9.53664610362767e-05
1.48392857142857e+01 7.98345844850488e-03 9.45387547652755e-05
1.49464285714286e+01 7.88554495052878e-03 9.37157893208981e-05
1.50535714285714e+01 7.78883231693469e-03 9.28976009087043e-05
1.51607142857143e+01 7.69330581967315e-03 9.20842229430710e-05
1.52678571428571e+01 7.59895091194711e-03 9.12756870487275e-05
1.53750000000000e+01 7.50575322412434e-03 9.04720225297149e-05
1.54821428571429e+01 7.41369856402903e-03 8.96732565628549e-05
1.55892857142857e+01 7.32277291235182e-03 8.88794142998982e-05
1.56964285714286e+01 7.23296242289355e-03 8.80905188981129e-05
1.58035714285714e+01 7.14425341812676e-03 8.73065917507904e-05
1.59107142857143e+01 7.05663238884784e-03 8.65276519794119e-05
1.60178571428571e+01 6.97008599207878e-03 8.57537173237671e-05
1.61250000000000e+01 6.88460104739915e-03 8.49848036603132e-05
1.62321428571429e+01 6.80016453710641e-03 8.42209251696495e-05
1.63392857142857e+01 6.71676360210989e-03 8.34620944220042e-05
1.64464285714286e+01 6.63438554205320e-03 8.27083223993214e-05
1.65535714285714e+01 6.55301781134139e-03 8.19596186962281e-05
1.66607142857143e+01 6.47264801874895e-03 8.12159910598748e-05
1.67678571428571e+01 6.39326392549726e-03 8.04774461826035e-05
1.68750000000000e+01 6.31485344195787e-03 7.97439892653723e-05
1.69821428571429e+01 6.23740462771011e-03 7.90156241633480e-05
1.70892857142857e+01 6.16090568786183e-03 7.82923534578062e-05
1.71964285714286e+01 6.08534497307713e-03 7.75741784717363e-05
1.73035714285714e+01 6.01071097601452e-03 7.68610994456978e-05
1.74107142857143e+01 5.93699233090640e-03 7.61531151209995e-05
1.75178571428571e+01 5.86417781179721e-03 7.54502234467848e-05
1.76250000000000e+01 5.79225632957638e-03 7.47524211844587e-05
1.77321428571429e+01 5.72121693195622e-03 7.40597040347098e-05
1.78392857142857e+01 5.65104880016998e-03 7.33720666982350e-05
1.79464285714286e+01 5.58174124892646e-03 7.26895028864026e-05
1.80535714285714e+01 5.51328372321186e-03 7.20120054755888e-05
1.81607142857143e+01 5.44566579785293e-03 7.13395661296766e-05
1.82678571428571e+01 5.37887717590224e-03 7.06721759317710e-05
1.83750000000000e+01 5.31290768596443e-03 7.00098250258044e-05
1.84821428571429e+01 5.24774728211289e-03 6.93525027277018e-05
1.85892857142857e+01 5.18338604092250e-03 6.87001975768792e-05
1.86964285714286e+01 5.11981416136815e-03 6.80528973430939e-05
1.88035714285714e+01 5.05702196194952e-03 6.74105891622617e-05
1.89107142857143e+01 4.99499988024715e-03 6.67732591945782e-05
1.90178571428571e+01 4.93373847144250e-03 6.61408931896274e-05
1.91250000000000e+01 4.87322840590581e-03 6.55134761617110e-05
1.92321428571429e+01 4.81346046906636e-03 6.48909924873887e-05
1.93392857142857e+01 4.75442555874271e-03 6.42734259492715e-05
1.94464285714286e+01 4.69611468499905e-03 6.36607597399664e-05
1.95535714285714e+01 4.63851896755714e-03 6.30529765818553e-05
1.96607142857143e+01 4.58162963535264e-03 6.24500584174634e-05
1.97678571428571e+01 4.52543802517850e-03 6.18519869155944e-05
1.98750000000000e+01 4.46993557950667e-03 6.12587431771681e-05
1.99821428571429e+01 4.41511384632395e-03 6.06703078210250e-05
2.00892857142857e+01 4.36096447672712e-03 6.00866610212503e-05
2.01964285714286e+01 4.30747922474836e-03 5.95077825088914e-05
2.03035714285714e+01 4.25464994502315e-03 5.89336516778302e-05
2.04107142857143e+01 4.20246859235224e-03 5.83642473042970e-05
2.05178571428571e+01 4.15092722045816e-03 5.77995480006630e-05
2.06250000000000e+01 4.10001798001618e-03 5.72395319489074e-05
2.07321428571429e+01 4.04973311846542e-03 5.66841769762310e-05
2.08392857142857e+01 4.00006497784041e-03 5.61334605869459e-05
2.09464285714286e+01 3.95100599457444e-03 5.55873599625024e-05
2.10535714285714e+01 3.90254869739606e-03 5.50458520552140e-05
2.11607142857143e+01 3.85468570690087e-03 5.45089133341420e-05
2.12678571428571e+01 3.80740973441161e-03 5.39765201923493e-05
2.13750000000000e+01 3.76071358019683e-03 5.34486487053541e-05
2.14821428571429e+01 3.71459013326490e-03 5.29252746978868e-05
2.15892857142857e+01 3.66903236940692e-03 5.24063737711816e-05
2.16964285714286e+01 3.62403335098527e-03 5.18919213017254e-05
2.18035714285714e+01 3.57958622503450e-03 5.13818925243601e-05
2.19107142857143e+01 3.53568422284604e-03 5.08762623020067e-05
2.20178571428571e+01 3.49232065892317e-03 5.03750054914785e-05
2.21250000000000e+01 3.44948892936824e-03 4.98780967245274e-05
2.22321428571429e+01 3.40718251166579e-03 4.93855104668764e-05
2.23392857142857e+01 3.36539496291471e-03 4.88972210416111e-05
2.24464285714286e+01 3.32411991960767e-03 4.84132026269672e-05
2.25535714285714e+01 3.28335109591511e-03 4.79334293301239e-05
2.26607142857143e+01 3.24308228328507e-03 4.74578749784851e-05
2.27678571428571e+01 3.20330734948508e-03 4.69865134485154e-05
2.28750000000000e+01 3.16402023714100e-03 4.65193184672350e-05
2.29821428571429e+01 3.12521496351411e-03 4.60562636644904e-05
2.30892857142857e+01 3.08688561890297e-03 4.55973225930191e-05
2.31964285714286e+01 3.04902636641822e-03 4.51424687255442e-05
2.33035714285714e+01 3.01163144043097e-03 4.46916755203740e-05
2.34107142857143e+01 2.97469514618909e-03 4.42449162321744e-05
2.35178571428571e+01 2.93821185893889e-03 4.38021642077877e-05
2.36250000000000e+01 2.90217602260030e-03 4.33633927062139e-05
2.37321428571429e+01 2.86658214954197e-03 4.29285749449552e-05
2.38392857142857e+01 2.83142481913540e-03 4.24976841172504e-05
2.39464285714286e+01 2.79669867752881e-03 4.20706933886618e-05
2.40535714285714e+01 2.76239843624304e-03 4.16475759554605e-05
2.41607142857143e+01 2.72851887180538e-03 4.12283048730262e-05
2.42678571428571e+01 2.69505482494428e-03 4.08128533221410e-05
2.43750000000000e+01 2.66200119938759e-03 4.04011944457018e-05
2.44821428571429e+01 2.62935296163849e-03 3.99933013898491e-05
2.45892857142857e+01 2.59710513966664e-03 3.95891473187772e-05
2.46964285714286e+01 2.56525282268382e-03 3.91887054109800e-05
2.48035714285714e+01 2.53379115987258e-03 3.87919489112598e-05
2.49107142857143e+01 2.50271536003806e-03 3.83988509750765e-05
2.50178571428571e+01 2.47202069086968e-03 3.80093849084132e-05
2.51250000000000e+01 2.44170247785031e-03 3.76235240196227e-05
2.52321428571429e+01 2.41175610403557e-03 3.72412416559671e-05
2.53392857142857e+01 2.38217700886812e-03 3.68625112163460e-05
2.54464285714286e+01 2.35296068795736e-03 3.64873061473234e-05
2.55535714285714e+01 2.32410269192748e-03 3.61155999895066e-05
2.56607142857143e+01 2.29559862608758e-03 3.57473662363216e-05
2.57678571428571e+01 2.26744414975462e-03 3.53825785501927e-05
2.58750000000000e+01 2.23963497526291e-03 3.50212106280874e-05
2.59821428571429e+01 2.21216686774843e-03 3.46632362340119e-05
2.60892857142857e+01 2.18503564407416e-03 3.43086292099528e-05
2.61964285714286e+01 2.15823717261545e-03 3.39573634717785e-05
2.63035714285714e+01 2.13176737221562e-03 3.36094130506307e-05
2.64107142857143e+01 2.10562221187431e-03 3.32647519647524e-05
2.65178571428571e+01 2.07979771012667e-03 3.29233544144295e-05
2.66250000000000e+01 2.05428993414337e-03 3.25851946599422e-05
2.67321428571429e+01 2.02909499952147e-03 3.22502470504768e-05
2.68392857142857e+01 2.00420906930973e-03 3.19184860335332e-05
2.69464285714286e+01 1.97962835380091e-03 3.15898861507803e-05
2.70535714285714e+01 1.95534910958446e-03 3.12644220750205e-05
2.71607142857143e+01 1.93136763925269e-03 3.09420684938403e-05
2.72678571428571e+01 1.90768029083155e-03 3.06228002854819e-05
2.73750000000000e+01 1.88428345696260e-03 3.03065924080272e-05
2.74821428571429e+01 1.86117357470127e-03 2.99934199251484e-05
2.75892857142857e+01 1.83834712463255e-03 2.96832580141856e-05
2.76964285714286e+01 1.81580063067095e-03 2.93760819620176e-05
2.78035714285714e+01 1.79353065920090e-03 2.90718671980964e-05
2.79107142857143e+01 1.77153381880033e-03 2.87705891888004e-05
2.80178571428571e+01 1.74980675971873e-03 2.84722235961770e-05
2.81250000000000e+01 1.72834617313328e-03 2.81767461773022e-05
2.82321428571429e+01 1.70714879095523e-03 2.78841328072290e-05
2.83392857142857e+01 1.68621138502717e-03 2.75943594859211e-05
2.84464285714286e+01 1.66553076693137e-03 2.73074023341777e-05
2.85535714285714e+01 1.64510378720930e-03 2.70232376231785e-05
2.86607142857143e+01 1.62492733510210e-03 2.67418416785319e-05
2.87678571428571e+01 1.60499833807204e-03 2.64631910236212e-05
2.88750000000000e+01 1.58531376112576e-03 2.61872622881784e-05
2.89821428571429e+01 1.56587060662931e-03 2.59140322287453e-05
2.90892857142857e+01 1.54666591357907e-03 2.56434777346280e-05
2.91964285714286e+01 1.52769675741884e-03 2.53755758239109e-05
2.93035714285714e+01 1.50896024933093e-03 2.51103036698894e-05
2.94107142857143e+01 1.49045353599294e-03 2.48476385139042e-05
2.95178571428571e+01 1.47217379913889e-03 2.45875577948353e-05
2.96250000000000e+01 1.45411825494342e-03 2.43300390660339e-05
2.97321428571429e+01 1.43628415384561e-03 2.40750600135744e-05
2.98392857142857e+01 1.41866877988661e-03 2.38225984613562e-05
2.99464285714286e+01 1.40126945053564e-03 2.35726323672366e-05
3.00535714285714e+01 1.38408351604582e-03 2.33251398466934e-05
3.01607142857143e+01 1.36710835922660e-03 2.30800990936193e-05
3.02678571428571e+01 1.35034139504124e-03 2.28374884973498e-05
3.03750000000000e+01 1.33378007004631e-03 2.25972865671697e-05
3.04821428571429e+01 1.31742186222439e-03 2.23594719486030e-05
3.05892857142857e+01 1.30126428038208e-03 2.21240234277823e-05
3.06964285714286e+01 1.28530486398496e-03 2.18909199277110e-05
3.08035714285714e+01 1.26954118257205e-03 2.16601405294585e-05
3.09107142857143e+01 1.25397083554310e-03 2.14316644001767e-05
3.10178571428571e+01 1.23859145178952e-03 2.12054708988963e-05
3.11250000000000e+01 1.22340068918394e-03 2.09815395079000e-05
3.12321428571429e+01 1.20839623442185e-03 2.07598498472723e-05
3.13392857142857e+01 1.19357580247424e-03 2.05403816786304e-05
3.14464285714286e+01 1.17893713643151e-03 2.03231149015349e-05
3.15535714285714e+01 1.16447800697102e-03 2.01080295724821e-05
3.16607142857143e+01 1.15019621215851e-03 1.98951058394666e-05
3.17678571428571e+01 1.13608957710968e-03 1.96843240376580e-05
3.18750000000000e+01 1.12215595352521e-03 1.94756646270060e-05
3.19821428571429e+01 1.10839321954124e-03 1.92691082052357e-05
3.20892857142857e+01 1.09479927923152e-03 1.90646355110327e-05
3.21964285714286e+01 1.08137206246005e-03 1.88622274206077e-05
3.23035714285714e+01 1.06810952439683e-03 1.86618649647202e-05
3.24107142857143e+01 1.05500964533263e-03 1.84635292691819e-05
3.25178571428571e+01 1.04207043036866e-03 1.82672016414083e-05
3.26250000000000e+01 1.02928990899295e-03 1.80728635136788e-05
3.27321428571429e+01 1.01666613493941e-03 1.78804964547483e-05
3.28392857142857e+01 1.00419718573484e-03 1.76900821725587e-05
3.29464285714286e+01 9.91881162560233e-04 1.75016025109631e-05
3.30535714285714e+01 9.79716189810041e-04 1.73150394649914e-05
3.31607142857143e+01 9.67700414919709e-04 1.71303751267432e-05
3.32678571428571e+01 9.55832008081075e-04 1.69475917637092e-05
3.33750000000000e+01 9.44109161856274e-04 1.67666717671622e-05
3.34821428571429e+01 9.32530091045171e-04 1.65875976625375e-05
3.35892857142857e+01 9.21093032273113e-04 1.64103521117351e-05
3.36964285714286e+01 9.09796243860517e-04 1.62349179100033e-05
3.38035714285714e+01 8.98638005421728e-04 1.60612779996352e-05
