Energy (eV)          EEDF (eV^-(3/2))     First Anisotropy
6.45238095238095e-03 5.71724606326588e-01 3.28474342072822e-04
1.93571428571429e-02 5.67041735827567e-01 5.42005258599363e-04
3.22619047619048e-02 5.62397221691046e-01 7.14451482811193e-04
4.51666666666667e-02 5.57790749748364e-01 8.44818752872033e-04
5.80714285714286e-02 5.53222008404230e-01 9.53017089241192e-04
7.09761904761905e-02 5.48690688615587e-01 1.04658881150761e-03
8.38809523809524e-02 5.44196483870691e-01 1.12944426302365e-03
9.67857142857143e-02 5.39739090168374e-01 1.20394902320173e-03
1.09690476190476e-01 5.35318206005155e-01 1.27167476541365e-03
1.22595238095238e-01 5.30933532327487e-01 1.33373426601680e-03
1.35500000000000e-01 5.26584772544090e-01 1.39095269464323e-03
1.48404761904762e-01 5.22271632492588e-01 1.44396392800660e-03
1.61309523809524e-01 5.17993820419972e-01 1.49326865646970e-03
1.74214285714286e-01 5.13751046963005e-01 1.53927140852167e-03
1.87119047619048e-01 5.09543025128453e-01 1.58230519385300e-03
2.00023809523810e-01 5.05369470273704e-01 1.62264850057042e-03
2.12928571428571e-01 5.01230100107264e-01 1.66053738279137e-03
2.25833333333333e-01 4.97124634609161e-01 1.69617426410703e-03
2.38738095238095e-01 4.93052796073980e-01 1.72973449571737e-03
2.51642857142857e-01 4.89014309070889e-01 1.76137134517408e-03
2.64547619047619e-01 4.85008900425018e-01 1.79121984154762e-03
2.77452380952381e-01 4.81036299198982e-01 1.81939979002209e-03
2.90357142857143e-01 4.77096236674478e-01 1.84601816537233e-03
3.03261904761905e-01 4.73188446334299e-01 1.87117103495489e-03
3.16166666666667e-01 4.69312663844205e-01 1.89494512029814e-03
3.29071428571429e-01 4.65468627035044e-01 1.91741907752599e-03
3.41976190476190e-01 4.61656075885019e-01 1.93866455526346e-03
3.54880952380952e-01 4.57874752512788e-01 1.95874708210284e-03
3.67785714285714e-01 4.54124401127466e-01 1.97772680611055e-03
3.80690476190476e-01 4.50404768044414e-01 1.99565912004099e-03
3.93595238095238e-01 4.46715601656857e-01 2.01259520017264e-03
4.06500000000000e-01 4.43056652418865e-01 2.02858246282570e-03
4.19404761904762e-01 4.39427672828463e-01 2.04366495871817e-03
4.32309523809524e-01 4.35828417410904e-01 2.05788371432932e-03
4.45214285714286e-01 4.32258642702087e-01 2.07127702882732e-03
4.58119047619048e-01 4.28718107232065e-01 2.08388073349900e-03
4.71023809523810e-01 4.25206571508714e-01 2.09572841832444e-03
4.83928571428571e-01 4.21723798008690e-01 2.10685163569001e-03
4.96833333333333e-01 4.18269551139613e-01 2.11728007556102e-03
5.09738095238095e-01 4.14843597246174e-01 2.12704172067687e-03
5.22642857142857e-01 4.11445704586877e-01 2.13616298992027e-03
5.35547619047619e-01 4.08075643318365e-01 2.14466886236329e-03
5.48452380952381e-01 4.04733185479879e-01 2.15258298939120e-03
5.61357142857143e-01 4.01418104977809e-01 2.15992779543813e-03
5.74261904761905e-01 3.98130177570449e-01 2.16672456875281e-03
5.87166666666667e-01 3.94869180852808e-01 2.17299354339581e-03
6.00071428571429e-01 3.91634894241558e-01 2.17875397348470e-03
6.12976190476190e-01 3.88427098960122e-01 2.18402419974577e-03
6.25880952380952e-01 3.85245578028914e-01 2.18882171338649e-03
6.38785714285714e-01 3.82090116235362e-01 2.19316321028432e-03
6.51690476190476e-01 3.78960500134829e-01 2.19706464033486e-03
6.64595238095238e-01 3.75856518030955e-01 2.20054125683316e-03
6.77500000000000e-01 3.72777959961336e-01 2.20360765848727e-03
6.90404761904762e-01 3.69724617683316e-01 2.20627782883227e-03
7.03309523809524e-01 3.66696284659909e-01 2.20856517251227e-03
7.16214285714286e-01 3.63692756045834e-01 2.21048254874051e-03
7.29119047619048e-01 3.60713828673648e-01 2.21204230220313e-03
7.42023809523810e-01 3.57759301040011e-01 2.21325629093901e-03
7.54928571428571e-01 3.54828973295887e-01 2.21413591496249e-03
7.67833333333333e-01 3.51922647221395e-01 2.21469213940426e-03
7.80738095238095e-01 3.49040126224157e-01 2.21493551589655e-03
7.93642857142857e-01 3.46181215322040e-01 2.21487620600803e-03
8.06547619047619e-01 3.43345721129964e-01 2.21452400030241e-03
8.19452380952381e-01 3.40533451846824e-01 2.21388833680454e-03
8.32357142857143e-01 3.37744217242506e-01 2.21297831824349e-03
8.45261904761905e-01 3.34977828645039e-01 2.21180272817969e-03
8.58166666666667e-01 3.32234098927819e-01 2.21037004610642e-03
8.71071428571429e-01 3.29512842496956e-01 2.20868846159846e-03
8.83976190476190e-01 3.26813875278716e-01 2.20676588699721e-03
8.96880952380952e-01 3.24137014710024e-01 2.20460997167132e-03
9.09785714285714e-01 3.21482079717178e-01 2.20222811254063e-03
9.22690476190476e-01 3.18848890712621e-01 2.19962746389687e-03
9.35595238095238e-01 3.16237269579758e-01 2.19681494963211e-03
9.48500000000000e-01 3.13647039660908e-01 2.19379727242596e-03
9.61404761904762e-01 3.11078025745351e-01 2.19058092299637e-03
9.74309523809524e-01 3.08530054057478e-01 2.18717218883742e-03
9.87214285714286e-01 3.06002952245040e-01 2.18357716248192e-03
1.00011904761905e+00 3.03496549367490e-01 2.17980174984145e-03
1.01302380952381e+00 3.01010675881971e-01 2.17585167500887e-03
1.02592857142857e+00 2.98545163644012e-01 2.17173249043121e-03
1.03883333333333e+00 2.96099845878862e-01 2.16744958458365e-03
1.05173809523810e+00 2.93674557177858e-01 2.16300818941612e-03
1.06464285714286e+00 2.91269133464954e-01 2.15841337328265e-03
1.07754761904762e+00 2.88883412052977e-01 2.15367005653415e-03
1.09045238095238e+00 2.86517231564541e-01 2.14878302693190e-03
1.10335714285714e+00 2.84170431944004e-01 2.14375692967890e-03
1.11626190476190e+00 2.81842854446783e-01 2.13859628195303e-03
1.12916666666667e+00 2.79534341608428e-01 2.13330546390019e-03
1.14207142857143e+00 2.77244737294940e-01 2.12788873231877e-03
1.15497619047619e+00 2.74973886630600e-01 2.12235023423649e-03
1.16788095238095e+00 2.72721636008200e-01 2.11669399688793e-03
1.18078571428571e+00 2.70487833078737e-01 2.11092394056974e-03
1.19369047619048e+00 2.68272326722810e-01 2.10504386956174e-03
1.20659523809524e+00 2.66074967095756e-01 2.09905748429847e-03
1.21950000000000e+00 2.63895605561575e-01 2.09296839346406e-03
1.23240476190476e+00 2.61734094701693e-01 2.08678010410005e-03
1.24530952380952e+00 2.59590288305015e-01 2.08049602913407e-03
1.25821428571429e+00 2.57464041358061e-01 2.07411949428458e-03
1.27111904761905e+00 2.55355210018834e-01 2.06765372914136e-03
1.28402380952381e+00 2.53263651656449e-01 2.06110187784102e-03
1.29692857142857e+00 2.51189224791626e-01 2.05446700970688e-03
1.30983333333333e+00 2.49131789103894e-01 2.04775210967773e-03
1.32273809523810e+00 2.47091205422155e-01 2.04096008846862e-03
1.33564285714286e+00 2.45067335700344e-01 2.03409377387798e-03
1.34854761904762e+00 2.43060043053189e-01 2.02715592045480e-03
1.36145238095238e+00 2.41069191701415e-01 2.02014921916572e-03
1.37435714285714e+00 2.39094646977851e-01 2.01307628813411e-03
1.38726190476190e+00 2.37136275318399e-01 2.00593968188048e-03
1.40016666666667e+00 2.35193944239321e-01 1.99874188291341e-03
1.41307142857143e+00 2.33267522369572e-01 1.99148531054164e-03
1.42597619047619e+00 2.31356879400228e-01 1.98417232970144e-03
1.43888095238095e+00 2.29461886089671e-01 1.97680524205549e-03
1.45178571428571e+00 2.27582414254898e-01 1.96938629444416e-03
1.46469047619048e+00 2.25718336750315e-01 1.96191767078167e-03
1.47759523809524e+00 2.23869527497032e-01 1.95440150014045e-03
1.49050000000000e+00 2.22035861436079e-01 1.94683986485035e-03
1.50340476190476e+00 2.20217214532803e-01 1.93923479197467e-03
1.51630952380952e+00 2.18413463768498e-01 1.93158825805241e-03
1.52921428571429e+00 2.16624487132093e-01 1.92390219343856e-03
1.54211904761905e+00 2.14850163600591e-01 1.91617847461088e-03
1.55502380952381e+00 2.13090373165070e-01 1.90841893147867e-03
1.56792857142857e+00 2.11344996788061e-01 1.90062535471655e-03
1.58083333333333e+00 2.09613916407092e-01 1.89279948771015e-03
1.59373809523810e+00 2.07897014926739e-01 1.88494303360851e-03
1.60664285714286e+00 2.06194176200271e-01 1.87705764797146e-03
1.61954761904762e+00 2.04505285053304e-01 1.86914494552507e-03
1.63245238095238e+00 2.02830227244217e-01 1.86120650695565e-03
1.64535714285714e+00 2.01168889467096e-01 1.85324387122570e-03
1.65826190476190e+00 1.99521159344118e-01 1.84525854210580e-03
1.67116666666667e+00 1.97886925408315e-01 1.83725198116015e-03
1.68407142857143e+00 1.96266077125110e-01 1.82922561401163e-03
1.69697619047619e+00 1.94658504855508e-01 1.82118083664799e-03
1.70988095238095e+00 1.93064099858532e-01 1.81311900810807e-03
1.72278571428571e+00 1.91482754283886e-01 1.80504145654881e-03
1.73569047619048e+00 1.89914361155781e-01 1.79694947255540e-03
1.74859523809524e+00 1.88358814392562e-01 1.78884431497204e-03
1.76150000000000e+00 1.86816008772428e-01 1.78072721676864e-03
1.77440476190476e+00 1.85285839935418e-01 1.77259937808642e-03
1.78730952380952e+00 1.83768204376360e-01 1.76446196954250e-03
1.80021428571429e+00 1.82262999437885e-01 1.75631613525074e-03
1.81311904761905e+00 1.80770123295388e-01 1.74816298652335e-03
1.82602380952381e+00 1.79289474974584e-01 1.74000360722063e-03
1.83892857142857e+00 1.77820954320025e-01 1.73183905913874e-03
1.85183333333333e+00 1.76364461996606e-01 1.72367037547562e-03
1.86473809523810e+00 1.74919899482870e-01 1.71549856602901e-03
1.87764285714286e+00 1.73487169056835e-01 1.70732461120694e-03
1.89054761904762e+00 1.72066173812049e-01 1.69914946702397e-03
1.90345238095238e+00 1.70656817628181e-01 1.69097407014105e-03
1.91635714285714e+00 1.69259005172186e-01 1.68279933165431e-03
1.92926190476190e+00 1.67872641891889e-01 1.67462614195483e-03
1.94216666666667e+00 1.66497634002618e-01 1.66645536503565e-03
1.95507142857143e+00 1.65133888501893e-01 1.65828784316641e-03
1.96797619047619e+00 1.63781313141926e-01 1.65012440161140e-03
1.98088095238095e+00 1.62439816430504e-01 1.64196584273217e-03
1.99378571428571e+00 1.61109307624813e-01 1.63381295053817e-03
2.00669047619048e+00 1.59789696718838e-01 1.62566648527254e-03
2.01959523809524e+00 1.58480894456811e-01 1.61752718779611e-03
2.03250000000000e+00 1.57182812307469e-01 1.60939578400960e-03
2.04540476190476e+00 1.55895362464687e-01 1.60127297925519e-03
2.05830952380952e+00 1.54618457841541e-01 1.59315946074560e-03
2.07121428571429e+00 1.53352012064423e-01 1.58505589978309e-03
2.08411904761905e+00 1.52095939461281e-01 1.57696294667234e-03
2.09702380952381e+00 1.50850155073704e-01 1.56888123477620e-03
2.10992857142857e+00 1.49614574633148e-01 1.56081138460905e-03
2.12283333333333e+00 1.48389114561286e-01 1.55275399858256e-03
2.13573809523810e+00 1.47173691964375e-01 1.54470966496150e-03
2.14864285714286e+00 1.45968224622129e-01 1.53667895303222e-03
2.16154761904762e+00 1.44772630998812e-01 1.52866241691258e-03
2.17445238095238e+00 1.43586830220933e-01 1.52066059940216e-03
2.18735714285714e+00 1.42410742077411e-01 1.51267402699137e-03
2.20026190476190e+00 1.41244287014167e-01 1.50470321358004e-03
2.21316666666667e+00 1.40087386123599e-01 1.49674865588860e-03
2.22607142857143e+00 1.38939961154766e-01 1.48881083704134e-03
2.23897619047619e+00 1.37801934492449e-01 1.48089023018878e-03
2.25188095238095e+00 1.36673229157155e-01 1.47298729377027e-03
2.26478571428571e+00 1.35553768799915e-01 1.46510247501334e-03
2.27769047619048e+00 1.34443477692335e-01 1.45723620557176e-03
2.29059523809524e+00 1.33342280735945e-01 1.44938890490127e-03
2.30350000000000e+00 1.32250103442527e-01 1.44156098367048e-03
2.31640476190476e+00 1.31166871933977e-01 1.43375283926365e-03
2.32930952380952e+00 1.30092512937310e-01 1.42596485762194e-03
2.34221428571429e+00 1.29026953779711e-01 1.41819741492542e-03
2.35511904761905e+00 1.27970122379209e-01 1.41045087349540e-03
2.36802380952381e+00 1.26921947253110e-01 1.40272558493339e-03
2.38092857142857e+00 1.25882357499751e-01 1.39502189329353e-03
2.39383333333333e+00 1.24851282798205e-01 1.38734013086066e-03
2.40673809523810e+00 1.23828653403533e-01 1.37968062122000e-03
2.41964285714286e+00 1.22814400137950e-01 1.37204367536511e-03
2.43254761904762e+00 1.21808454398580e-01 1.36442959465727e-03
2.44545238095238e+00 1.20810748140280e-01 1.35683867382019e-03
2.45835714285714e+00 1.19821213875247e-01 1.34927119692902e-03
2.47126190476190e+00 1.18839784668462e-01 1.34172744030557e-03
2.48416666666667e+00 1.17866394129309e-01 1.33420766882134e-03
2.49707142857143e+00 1.16900976418714e-01 1.32671213869041e-03
2.50997619047619e+00 1.15943466232972e-01 1.31924110029590e-03
2.52288095238095e+00 1.14993798803263e-01 1.31179479438117e-03
2.53578571428571e+00 1.14051909891277e-01 1.30437345478271e-03
2.54869047619048e+00 1.13117735781270e-01 1.29697730491567e-03
2.56159523809524e+00 1.12191213286629e-01 1.28960656041283e-03
2.57450000000000e+00 1.11272279734637e-01 1.28226143179379e-03
2.58740476190476e+00 1.10360872965914e-01 1.27494212084751e-03
2.60030952380952e+00 1.09456931330213e-01 1.26764882205579e-03
2.61321428571429e+00 1.08560393682256e-01 1.26038172389287e-03
2.62611904761905e+00 1.07671199374270e-01 1.25314100552199e-03
2.63902380952381e+00 1.06789288261925e-01 1.24592683925778e-03
2.65192857142857e+00 1.05914600690150e-01 1.23873939305723e-03
2.66483333333333e+00 1.05047077492493e-01 1.23157882712137e-03
2.67773809523810e+00 1.04186659987125e-01 1.22444529630709e-03
2.69064285714286e+00 1.03333289969758e-01 1.21733894698826e-03
2.70354761904762e+00 1.02486909719109e-01 1.21025991938291e-03
2.71645238095238e+00 1.01647461983519e-01 1.20320834991048e-03
2.72935714285714e+00 1.00814889980264e-01 1.19618436796138e-03
2.74226190476191e+00 9.99891373917180e-02 1.18918809817729e-03
2.75516666666667e+00 9.91701483586236e-02 1.18221965746830e-03
2.76807142857143e+00 9.83578674851301e-02 1.17527915721416e-03
2.78097619047619e+00 9.75522398261632e-02 1.16836670549399e-03
2.79388095238095e+00 9.67532108866894e-02 1.16148240401706e-03
2.80678571428571e+00 9.59607266180341e-02 1.15462635027998e-03
2.81969047619048e+00 9.51747334114885e-02 1.14779863472968e-03
2.83259523809524e+00 9.43951781029523e-02 1.14099934284788e-03
2.84550000000000e+00 9.36220079610053e-02 1.13422855726086e-03
2.85840476190476e+00 9.28551706861377e-02 1.12748635482294e-03
2.87130952380952e+00 9.20946144072138e-02 1.12077280773097e-03
2.88421428571429e+00 9.13402876779647e-02 1.11408798454186e-03
2.89711904761905e+00 9.05921394709750e-02 1.10743194750420e-03
2.91002380952381e+00 8.98501191818831e-02 1.10080475450784e-03
2.92292857142857e+00 8.91141766182485e-02 1.09420646105798e-03
2.93583333333333e+00 8.83842619987444e-02 1.08763711753259e-03
2.94873809523810e+00 8.76603259497948e-02 1.08109677109446e-03
2.96164285714286e+00 8.69423194998538e-02 1.07458546315406e-03
2.97454761904762e+00 8.62301940832799e-02 1.06810323121580e-03
2.98745238095238e+00 8.55239015298106e-02 1.06165011074904e-03
3.00035714285714e+00 8.48233940637335e-02 1.05522613257962e-03
3.01326190476190e+00 8.41286243006592e-02 1.04883132470104e-03
3.02616666666667e+00 8.34395452420796e-02 1.04246570986173e-03
3.03907142857143e+00 8.27561102789402e-02 1.03612930731442e-03
3.05197619047619e+00 8.20782731816860e-02 1.02982213458900e-03
3.06488095238095e+00 8.14059880994164e-02 1.02354420501265e-03
3.07778571428571e+00 8.07392095567870e-02 1.01729552942585e-03
3.09069047619048e+00 8.00778924488331e-02 1.01107611388660e-03
3.10359523809524e+00 7.94219920442629e-02 1.00488596132954e-03
3.11650000000000e+00 7.87714639760405e-02 9.98725073246003e-04
3.12940476190476e+00 7.81262642405297e-02 9.92593447325940e-04
3.14230952380952e+00 7.74863491945184e-02 9.86491078338871e-04
3.15521428571429e+00 7.68516755522682e-02 9.80417958938167e-04
3.16811904761905e+00 7.62222003806363e-02 9.74374077500210e-04
3.18102380952381e+00 7.55978811020587e-02 9.68359419678907e-04
3.19392857142857e+00 7.49786754857397e-02 9.62373969980528e-04
3.20683333333333e+00 7.43645416467860e-02 9.56417709544720e-04
3.21973809523810e+00 7.37554380433760e-02 9.50490617670343e-04
3.23264285714286e+00 7.31513234721155e-02 9.44592669759812e-04
3.24554761904762e+00 7.25521570707883e-02 9.38723838793345e-04
3.25845238095238e+00 7.19578983100144e-02 9.32884096823517e-04
3.27135714285714e+00 7.13685069923790e-02 9.27073412863411e-04
3.28426190476190e+00 7.07839432497178e-02 9.21291754333987e-04
3.29716666666667e+00 7.02041675386932e-02 9.15539085108281e-04
3.31007142857143e+00 6.96291406433310e-02 9.09815366909832e-04
3.32297619047619e+00 6.90588236671187e-02 9.04120560730786e-04
3.33588095238095e+00 6.84931780321352e-02 8.98454624822872e-04
3.34878571428571e+00 6.79321654764440e-02 8.92817516070545e-04
3.36169047619048e+00 6.73757480498799e-02 8.87209188128936e-04
3.37459523809524e+00 6.68238881163891e-02 8.81629592751682e-04
3.38750000000000e+00 6.62765483465409e-02 8.76078681136600e-04
3.40040476190476e+00 6.57336917166607e-02 8.70556402014134e-04
3.41330952380952e+00 6.51952815063271e-02 8.65062702348285e-04
3.42621428571429e+00 6.46612812958888e-02 8.59597527977032e-04
3.43911904761905e+00 6.41316549624898e-02 8.54160821858366e-04
3.45202380952381e+00 6.36063666821879e-02 8.48752525316195e-04
3.46492857142857e+00 6.30853809229373e-02 8.43372579303632e-04
3.47783333333333e+00 6.25686624437263e-02 8.38020922602834e-04
3.49073809523810e+00 6.20561762921963e-02 8.32697493048866e-04
3.50364285714286e+00 6.15478878008529e-02 8.27402225860448e-04
3.51654761904762e+00 6.10437625890197e-02 8.22135054822945e-04
3.52945238095238e+00 6.05437665561832e-02 8.16895913488197e-04
3.54235714285714e+00 6.00478658811390e-02 8.11684733460503e-04
3.55526190476190e+00 5.95560270197057e-02 8.06501445558892e-04
3.56816666666667e+00 5.90682167011147e-02 8.01345978227873e-04
3.58107142857143e+00 5.85844019298098e-02 7.96218258660918e-04
3.59397619047619e+00 5.81045499791358e-02 7.91118213940073e-04
3.60688095238095e+00 5.76286283904938e-02 7.86045769404377e-04
3.61978571428571e+00 5.71566049711466e-02 7.81000849753692e-04
3.63269047619048e+00 5.66884477907769e-02 7.75983377534921e-04
3.64559523809524e+00 5.62241251831466e-02 7.70993274209683e-04
3.65850000000000e+00 5.57636057401081e-02 7.66030461236819e-04
3.67140476190476e+00 5.53068583107705e-02 7.61094858519179e-04
3.68430952380952e+00 5.48538519993931e-02 7.56186384964469e-04
3.69721428571429e+00 5.44045561632964e-02 7.51304958997652e-04
3.71011904761905e+00 5.39589404096107e-02 7.46450497134029e-04
3.72302380952381e+00 5.35169745967776e-02 7.41622914982423e-04
3.73592857142857e+00 5.30786288289288e-02 7.36822128262548e-04
3.74883333333333e+00 5.26438734550663e-02 7.32048051341112e-04
3.76173809523810e+00 5.22126790670574e-02 7.27300598217856e-04
3.77464285714286e+00 5.17850164965345e-02 7.22579681166779e-04
3.78754761904762e+00 5.13608568162774e-02 7.17885211689346e-04
3.80045238095238e+00 5.09401713348776e-02 7.13217101481746e-04
3.81335714285714e+00 5.05229315959304e-02 7.08575261040329e-04
3.82626190476190e+00 5.01091093761126e-02 7.03959600598765e-04
3.83916666666667e+00 4.96986766822235e-02 6.99370028833821e-04
3.85207142857143e+00 4.92916057524589e-02 6.94806453771326e-04
3.86497619047619e+00 4.88878690513436e-02 6.90268783705658e-04
3.87788095238095e+00 4.84874392689389e-02 6.85756925871644e-04
3.89078571428571e+00 4.80902893189962e-02 6.81270787335214e-04
3.90369047619048e+00 4.76963923361351e-02 6.76810273760123e-04
3.91659523809524e+00 4.73057216770155e-02 6.72375290269686e-04
3.92950000000000e+00 4.69182509155250e-02 6.67965742320778e-04
3.94240476190476e+00 4.65339538420012e-02 6.63581534438860e-04
3.95530952380952e+00 4.61528044614594e-02 6.59222570668718e-04
3.96821428571429e+00 4.57747769918345e-02 6.54888754986260e-04
3.98111904761905e+00 4.53998458613138e-02 6.50579990135293e-04
3.99402380952381e+00 4.50279857093953e-02 6.46296178438018e-04
4.00692857142857e+00 4.46591713823645e-02 6.42037222617145e-04
4.01983333333333e+00 4.42933779325351e-02 6.37803024603015e-04
4.03273809523809e+00 4.39305806165625e-02 6.33593486330593e-04
4.04564285714286e+00 4.35707548928976e-02 6.29408508631320e-04
4.05854761904762e+00 4.32138764227603e-02 6.25247992003769e-04
4.07145238095238e+00 4.28599210658415e-02 6.21111837395768e-04
