Energy (eV)          EEDF (eV^-(3/2))     First Anisotropy
1.86250000000000e-02 1.37519744537426e+00 1.76615101819757e-03
5.58750000000000e-02 1.31714075984094e+00 2.86448599650567e-03
9.31250000000000e-02 1.26153505234442e+00 3.64632131897719e-03
1.30375000000000e-01 1.20827684998964e+00 4.16375082406907e-03
1.67625000000000e-01 1.15726704819477e+00 4.53587278693963e-03
2.04875000000000e-01 1.10841072627429e+00 4.81033426944591e-03
2.42125000000000e-01 1.06161697080753e+00 5.01306070878339e-03
2.79375000000000e-01 1.01679870646402e+00 5.16042238551901e-03
3.16625000000000e-01 9.73872533970956e-01 5.26371293922914e-03
3.53875000000000e-01 9.32758574921114e-01 5.33119347132783e-03
3.91125000000000e-01 8.93380323132527e-01 5.36916172805341e-03
4.28375000000000e-01 8.55664502283325e-01 5.38256720567056e-03
4.65625000000000e-01 8.19540929556782e-01 5.37539097166231e-03
5.02875000000000e-01 7.84942385042870e-01 5.35089343579743e-03
5.40125000000000e-01 7.51804486653280e-01 5.31178324074433e-03
5.77375000000000e-01 7.20065570317155e-01 5.26033660634804e-03
6.14625000000000e-01 6.89666575234594e-01 5.19848423679265e-03
6.51875000000000e-01 6.60550933974411e-01 5.12787623946468e-03
6.89125000000000e-01 6.32664467211634e-01 5.04993168901162e-03
7.26375000000000e-01 6.05955282908867e-01 4.96587718996065e-03
7.63625000000000e-01 5.80373679753913e-01 4.87677737819920e-03
8.00875000000000e-01 5.55872054673968e-01 4.78355939785664e-03
8.38125000000000e-01 5.32404814254286e-01 4.68703279589423e-03
8.75375000000000e-01 5.09928289896483e-01 4.58790587632141e-03
9.12625000000000e-01 4.88400656558598e-01 4.48679928022434e-03
9.49875000000000e-01 4.67781854925706e-01 4.38425736414686e-03
9.87125000000000e-01 4.48033516866249e-01 4.28075781093973e-03
1.02437500000000e+00 4.29118894035385e-01 4.17671980663737e-03
1.06162500000000e+00 4.11002789492473e-01 4.07251104279188e-03
1.09887500000000e+00 3.93651492205480e-01 3.96845374830698e-03
1.13612500000000e+00 3.77032714320395e-01 3.86482991291264e-03
1.17337500000000e+00 3.61115531078953e-01 3.76188583235792e-03
1.21062500000000e+00 3.45870323272848e-01 3.65983608060128e-03
1.24787500000000e+00 3.31268722127351e-01 3.55886699490847e-03
1.28512500000000e+00 3.17283556511779e-01 3.45913974450002e-03
1.32237500000000e+00 3.03888802378581e-01 3.36079304124986e-03
1.35962500000000e+00 2.91059534336944e-01 3.26394554120546e-03
1.39687500000000e+00 2.78771879270830e-01 3.16869797784177e-03
1.43412500000000e+00 2.67002971915103e-01 3.07513506156841e-03
1.47137500000000e+00 2.55730912307112e-01 2.98332717477480e-03
1.50862500000000e+00 2.44934725034529e-01 2.89333188738489e-03
1.54587500000000e+00 2.34594320203626e-01 2.80519531431729e-03
1.58312500000000e+00 2.24690456055356e-01 2.71895333326549e-03
1.62037500000000e+00 2.15204703159662e-01 2.63463267871426e-03
1.65762500000000e+00 2.06119410121399e-01 2.55225192600383e-03
1.69487500000000e+00 1.97417670734051e-01 2.47182237747166e-03
1.73212500000000e+00 1.89083292520117e-01 2.39334886118721e-03
1.76937500000000e+00 1.81100766599620e-01 2.31683045150091e-03
1.80662500000000e+00 1.73455238830689e-01 2.24226111951963e-03
1.84387500000000e+00 1.66132482168492e-01 2.16963032066606e-03
1.88112500000000e+00 1.59118870191085e-01 2.09892352565413e-03
1.91837500000000e+00 1.52401351742937e-01 2.03012270049699e-03
1.95562500000000e+00 1.45967426648908e-01 1.96320674054208e-03
1.99287500000000e+00 1.39805122453527e-01 1.89815186298410e-03
2.03012500000000e+00 1.33902972142257e-01 1.83493196183142e-03
2.06737500000000e+00 1.28249992803306e-01 1.77351892888342e-03
2.10462500000000e+00 1.22835665190267e-01 1.71388294390913e-03
2.14187500000000e+00 1.17649914147570e-01 1.65599273689271e-03
2.17912500000000e+00 1.12683089862302e-01 1.59981582492427e-03
2.21637500000000e+00 1.07925949907529e-01 1.54531872605947e-03
2.25362500000000e+00 1.03369642043684e-01 1.49246715224546e-03
2.29087500000000e+00 9.90056877460381e-02 1.44122618320843e-03
2.32812500000000e+00 9.48259664275864e-02 1.39156042301817e-03
2.36537500000000e+00 9.08227003279977e-02 1.34343414088392e-03
2.40262500000000e+00 8.69884400405076e-02 1.29681139759132e-03
2.43987500000000e+00 8.33160506498211e-02 1.25165615886068e-03
2.47712500000000e+00 7.97986984552327e-02 1.20793239679040e-03
2.51437500000000e+00 7.64298382542552e-02 1.16560418044412e-03
2.55162500000000e+00 7.32032011630955e-02 1.12463575654584e-03
2.58887500000000e+00 7.01127829513141e-02 1.08499162116137e-03
2.62612500000000e+00 6.71528328689582e-02 1.04663658316754e-03
2.66337500000000e+00 6.43178429453813e-02 1.00953582024000e-03
2.70062500000000e+00 6.16025377398335e-02 9.73654928027606e-04
2.73787500000000e+00 5.90018645247513e-02 9.38959963123162e-04
2.77512500000000e+00 5.65109838834784e-02 9.05417480388039e-04
2.81237500000000e+00 5.41252607049238e-02 8.72994565140726e-04
2.84962500000000e+00 5.18402555583968e-02 8.41658860675711e-04
2.88687500000000e+00 4.96517164325717e-02 8.11378591539645e-04
2.92412500000000e+00 4.75555708232075e-02 7.82122582955578e-04
2.96137500000000e+00 4.55479181549004e-02 7.53860276753210e-04
2.99862500000000e+00 4.36250225227678e-02 7.26561744132917e-04
3.03587500000000e+00 4.17833057405554e-02 7.00197695563747e-04
3.07312500000000e+00 4.00193406822329e-02 6.74739488090511e-04
3.11037500000000e+00 3.83298449046874e-02 6.50159130301943e-04
3.14762500000000e+00 3.67116745396470e-02 6.26429285190797e-04
3.18487500000000e+00 3.51618184434697e-02 6.03523271117421e-04
3.22212500000000e+00 3.36773925939094e-02 5.81415061070548e-04
3.25937500000000e+00 3.22556347234352e-02 5.60079280402802e-04
3.29662500000000e+00 3.08938991791141e-02 5.39491203203446e-04
3.33387500000000e+00 2.95896519994947e-02 5.19626747457131e-04
3.37112500000000e+00 2.83404661993302e-02 5.00462469124886e-04
3.40837500000000e+00 2.71440172533660e-02 4.81975555271949e-04
3.44562500000000e+00 2.59980787707876e-02 4.64143816356344e-04
3.48287500000000e+00 2.49005183522812e-02 4.46945677782431e-04
3.52012500000000e+00 2.38492936219960e-02 4.30360170814582e-04
3.55737500000000e+00 2.28424484270252e-02 4.14366922937871e-04
3.59462500000000e+00 2.18781091973338e-02 3.98946147745059e-04
3.63187500000000e+00 2.09544814593590e-02 3.84078634422171e-04
3.66912500000000e+00 2.00698464967955e-02 3.69745736898467e-04
3.70637500000000e+00 1.92225581523532e-02 3.55929362720767e-04
3.74362500000000e+00 1.84110397645342e-02 3.42611961706518e-04
3.78087500000000e+00 1.76337812337306e-02 3.29776514425102e-04
3.81812500000000e+00 1.68893362121819e-02 3.17406520552216e-04
3.85537500000000e+00 1.61763194125649e-02 3.05485987137847e-04
3.89262500000000e+00 1.54934040302061e-02 2.93999416824587e-04
3.92987500000000e+00 1.48393192741206e-02 2.82931796049348e-04
3.96712500000000e+00 1.42128480022836e-02 2.72268583258270e-04
4.00437500000000e+00 1.36128244567329e-02 2.61995697161581e-04
4.04162500000000e+00 1.30381320942890e-02 2.52099505052416e-04
4.07887500000000e+00 1.24877015088556e-02 2.42566811210950e-04
4.11612500000000e+00 1.19605084414339e-02 2.33384845412971e-04
4.15337500000000e+00 1.14555718741488e-02 2.24541251559772e-04
4.19062500000000e+00 1.09719522047389e-02 2.16024076444302e-04
4.22787500000000e+00 1.05087494981144e-02 2.07821758666683e-04
4.26512500000000e+00 1.00651018117288e-02 1.99923117710601e-04
4.30237500000000e+00 9.64018359164854e-03 1.92317343190464e-04
4.33962500000000e+00 9.23320413633522e-03 1.84993984277889e-04
4.37687500000000e+00 8.84340612528304e-03 1.77942939314811e-04
4.41412500000000e+00 8.47006420977220e-03 1.71154445619324e-04
4.45137500000000e+00 8.11248366311660e-03 1.64619069489314e-04
4.48862500000000e+00 7.76999908789402e-03 1.58327696407987e-04
4.52587500000000e+00 7.44197317775310e-03 1.52271521454487e-04
4.56312500000000e+00 7.12779553149311e-03 1.46442039922049e-04
4.60037500000000e+00 6.82688151720972e-03 1.40831038145373e-04
4.63762500000000e+00 6.53867118439307e-03 1.35430584538237e-04
4.67487500000000e+00 6.26262822195379e-03 1.30233020841834e-04
4.71212500000000e+00 5.99823896023800e-03 1.25230953583692e-04
4.74937500000000e+00 5.74501141517427e-03 1.20417245746646e-04
4.78662500000000e+00 5.50247437277374e-03 1.15785008646823e-04
4.82387500000000e+00 5.27017651227998e-03 1.11327594019264e-04
4.86112500000000e+00 5.04768556633670e-03 1.07038586309419e-04
4.89837500000000e+00 4.83458751661072e-03 1.02911795168488e-04
4.93562500000000e+00 4.63048582337333e-03 9.89412481502550e-05
4.97287500000000e+00 4.43500068760629e-03 9.51211836068662e-05
5.01012500000000e+00 4.24776834425964e-03 9.14460437807673e-05
5.04737500000000e+00 4.06844038534591e-03 8.79104680898373e-05
5.08462500000000e+00 3.89668311161129e-03 8.45092866025909e-05
5.12187500000000e+00 3.73217691157729e-03 8.12375137001950e-05
5.15912500000000e+00 3.57461566679741e-03 7.80903419219245e-05
5.19637500000000e+00 3.42370618222203e-03 7.50631359905800e-05
5.23362500000000e+00 3.27916764061161e-03 7.21514270143175e-05
5.27087500000000e+00 3.14073107998289e-03 6.93509068612769e-05
5.30812500000000e+00 3.00813889311579e-03 6.66574227033424e-05
5.34537500000000e+00 2.88114434818951e-03 6.40669717253376e-05
5.38262500000000e+00 2.75951112965609e-03 6.15756959959304e-05
5.41987500000000e+00 2.64301289849674e-03 5.91798774965123e-05
5.45712500000000e+00 2.53143287104288e-03 5.68759333043101e-05
5.49437500000000e+00 2.42456341557817e-03 5.46604109260036e-05
5.53162500000000e+00 2.32220566597063e-03 5.25299837781209e-05
5.56887500000000e+00 2.22416915161617e-03 5.04814468105193e-05
5.60612500000000e+00 2.13027144300473e-03 4.85117122692804e-05
5.64337500000000e+00 2.04033781224953e-03 4.66178055953763e-05
5.68062500000000e+00 1.95420090794784e-03 4.47968614555161e-05
5.71787500000000e+00 1.87170044376805e-03 4.30461199016098e-05
5.75512500000000e+00 1.79268290018368e-03 4.13629226553440e-05
5.79237500000000e+00 1.71700123879931e-03 3.97447095144066e-05
5.82962500000000e+00 1.64451462873680e-03 3.81890148769598e-05
5.86687500000000e+00 1.57508818457261e-03 3.66934643810088e-05
5.90412500000000e+00 1.50859271533869e-03 3.52557716553753e-05
5.94137500000000e+00 1.44490448411972e-03 3.38737351790466e-05
5.97862500000000e+00 1.38390497779950e-03 3.25452352457289e-05
6.01587500000000e+00 1.32548068652789e-03 3.12682310305012e-05
6.05312500000000e+00 1.26952289249804e-03 3.00407577555286e-05
6.09037500000000e+00 1.21592746764075e-03 2.88609239518541e-05
6.12762500000000e+00 1.16459467985965e-03 2.77269088143596e-05
6.16487500000000e+00 1.11542900744645e-03 2.66369596470539e-05
6.20212500000000e+00 1.06833896133109e-03 2.55893893959032e-05
6.23937500000000e+00 1.02323691483592e-03 2.45825742664918e-05
6.27662500000000e+00 9.80038940617127e-04 2.36149514238660e-05
6.31387500000000e+00 9.38664654490072e-04 2.26850167719797e-05
6.35112500000000e+00 8.99037065847756e-04 2.17913228102218e-05
6.38837500000000e+00 8.61082434394244e-04 2.09324765645744e-05
6.42562500000000e+00 8.24730132926330e-04 2.01071375910145e-05
6.46287500000000e+00 7.89912515908161e-04 1.93140160488321e-05
6.50012500000000e+00 7.56564793594243e-04 1.85518708416032e-05
6.53737500000000e+00 7.24624911466586e-04 1.78195078236156e-05
6.57462500000000e+00 6.94033434761658e-04 1.71157780696091e-05
6.61187500000000e+00 6.64733437872259e-04 1.64395762057489e-05
6.64912500000000e+00 6.36670398418511e-04 1.57898387998107e-05
6.68637500000000e+00 6.09792095790856e-04 1.51655428086139e-05
6.72362500000000e+00 5.84048513976259e-04 1.45657040807983e-05
6.76087500000000e+00 5.59391748486799e-04 1.39893759130889e-05
6.79812500000000e+00 5.35775917217449e-04 1.34356476582575e-05
6.83537500000000e+00 5.13157075067175e-04 1.29036433830341e-05
6.87262500000000e+00 4.91493132164475e-04 1.23925205742787e-05
6.90987500000000e+00 4.70743775545185e-04 1.19014688917751e-05
6.94712500000000e+00 4.50870394136816e-04 1.14297089660554e-05
6.98437500000000e+00 4.31836006909827e-04 1.09764912397157e-05
7.02162500000000e+00 4.13605194062123e-04 1.05410948507288e-05
7.05887500000000e+00 3.96144031108754e-04 1.01228265563086e-05
7.09612500000000e+00 3.79420025754132e-04 9.72101969592383e-06
7.13337500000000e+00 3.63402057429321e-04 9.33503319210601e-06
7.17062500000000e+00 3.48060319381878e-04 8.96425058773542e-06
7.20787500000000e+00 3.33366263210486e-04 8.60807911853497e-06
7.24512500000000e+00 3.19292545741165e-04 8.26594881954043e-06
7.28237500000000e+00 3.05812978146215e-04 7.93731166435599e-06
7.31962500000000e+00 2.92902477211201e-04 7.62164073604205e-06
7.35687500000000e+00 2.80537018659290e-04 7.31842942852078e-06
7.39412500000000e+00 2.68693592446111e-04 7.02719067742099e-06
7.43137500000000e+00 2.57350159941918e-04 6.74745621931965e-06
7.46862500000000e+00 2.46485612921392e-04 6.47877587837125e-06
7.50587500000000e+00 2.36079734284784e-04 6.22071687935051e-06
7.54312500000000e+00 2.26113160437272e-04 5.97286318616621e-06
7.58037500000000e+00 2.16567345256568e-04 5.73481486493537e-06
7.61762500000000e+00 2.07424525581688e-04 5.50618747073777e-06
7.65487500000000e+00 1.98667688158696e-04 5.28661145720047e-06
7.69212500000000e+00 1.90280537981886e-04 5.07573160809107e-06
7.72937500000000e+00 1.82247467971509e-04 4.87320649012599e-06
7.76662500000000e+00 1.74553529931622e-04 4.67870792622724e-06
7.80387500000000e+00 1.67184406733996e-04 4.49192048848806e-06
7.84112500000000e+00 1.60126385676344e-04 4.31254101013217e-06
7.87837500000000e+00 1.53366332965283e-04 4.14027811577696e-06
7.91562500000000e+00 1.46891669276545e-04 3.97485176933436e-06
7.95287500000000e+00 1.40690346346967e-04 3.81599283890607e-06
7.99012500000000e+00 1.34750824554691e-04 3.66344267805282e-06
8.02737500000000e+00 1.29062051445868e-04 3.51695272283885e-06
8.06462500000000e+00 1.23613441167889e-04 3.37628410407284e-06
8.10187500000000e+00 1.18394854770894e-04 3.24120727418806e-06
8.13912500000000e+00 1.13396581340883e-04 3.11150164822366e-06
8.17637500000000e+00 1.08609319929338e-04 2.98695525838772e-06
8.21362500000000e+00 1.04024162245714e-04 2.86736442170133e-06
8.25087500000000e+00 9.96325760806063e-05 2.75253342024075e-06
8.28812500000000e+00 9.54263894287383e-05 2.64227419351173e-06
8.32537500000000e+00 9.13977752822328e-05 2.53640604250664e-06
8.36262500000000e+00 8.75392370658614e-05 2.43475534501134e-06
8.39987500000000e+00 8.38435946871755e-05 2.33715528174389e-06
8.43712500000000e+00 8.03039711755591e-05 2.24344557292242e-06
8.47437500000000e+00 7.69137798853394e-05 2.15347222487389e-06
8.51162500000000e+00 7.36667122391441e-05 2.06708728630932e-06
8.54887500000000e+00 7.05567259886973e-05 1.98414861390474e-06
8.58612500000000e+00 6.75780339712084e-05 1.90451964684015e-06
8.62337500000000e+00 6.47250933404331e-05 1.82806918996113e-06
8.66062500000000e+00 6.19925952523662e-05 1.75467120524033e-06
8.69787500000000e+00 5.93754549863733e-05 1.68420461122723e-06
8.73512500000000e+00 5.68688024833786e-05 1.61655309018659e-06
8.77237500000000e+00 5.44679732835015e-05 1.55160490263630e-06
8.80962500000000e+00 5.21684998462794e-05 1.48925270900624e-06
8.84687500000000e+00 4.99661032373242e-05 1.42939339814997e-06
8.88412500000000e+00 4.78566851659431e-05 1.37192792245069e-06
8.92137500000000e+00 4.58363203589067e-05 1.31676113927270e-06
8.95862500000000e+00 4.39012492561742e-05 1.26380165851833e-06
8.99587500000000e+00 4.20478710149828e-05 1.21296169605960e-06
9.03312500000000e+00 4.02727368092829e-05 1.16415693282202e-06
9.07037500000000e+00 3.85725434120515e-05 1.11730637930633e-06
9.10762500000000e+00 3.69441270485410e-05 1.07233224534196e-06
9.14487500000000e+00 3.53844575090245e-05 1.02915981487336e-06
9.18212500000000e+00 3.38906325100840e-05 9.87717325588116e-07
9.21937500000000e+00 3.24598722939480e-05 9.47935853202438e-07
9.25662500000000e+00 3.10895144558281e-05 9.09749200226898e-07
9.29387500000000e+00 2.97770089896303e-05 8.73093789041467e-07
9.33112500000000e+00 2.85199135428218e-05 8.37908559115589e-07
9.36837500000000e+00 2.73158888716220e-05 8.04134868215040e-07
9.40562500000000e+00 2.61626944880625e-05 7.71716397443209e-07
9.44287500000000e+00 2.50581844908146e-05 7.40599059970197e-07
9.48012500000000e+00 2.40003035720273e-05 7.10730913308576e-07
9.51737500000000e+00 2.29870831927432e-05 6.82062074999997e-07
9.55462500000000e+00 2.20166379197788e-05 6.54544641581862e-07
9.59187500000000e+00 2.10871619172486e-05 6.28132610708272e-07
9.62912500000000e+00 2.01969255862082e-05 6.02781806304147e-07
9.66637500000000e+00 1.93442723461600e-05 5.78449806635946e-07
9.70362500000000e+00 1.85276155524353e-05 5.55095875186908e-07
9.74087500000000e+00 1.77454355437146e-05 5.32680894228875e-07
9.77812500000000e+00 1.69962768141926e-05 5.11167300986864e-07
9.81537500000000e+00 1.62787453051260e-05 4.90519026296542e-07
9.85262500000000e+00 1.55915058107243e-05 4.70701435658397e-07
9.88987500000000e+00 1.49332794935553e-05 4.51681272596202e-07
9.92712500000000e+00 1.43028415048438e-05 4.33426604230787e-07
9.96437500000000e+00 1.36990187052327e-05 4.15906768983508e-07
1.00016250000000e+01 1.31206874817680e-05 3.99092326327104e-07
1.00388750000000e+01 1.25667716570432e-05 3.82955008504727e-07
1.00761250000000e+01 1.20362404866140e-05 3.67467674140960e-07
1.01133750000000e+01 1.15281067409552e-05 3.52604263671512e-07
1.01506250000000e+01 1.10414248683930e-05 3.38339756521148e-07
1.01878750000000e+01 1.05752892355909e-05 3.24650129962025e-07
1.02251250000000e+01 1.01288324423188e-05 3.11512319587211e-07
1.02623750000000e+01 9.70122370736627e-06 2.98904181336698e-07
1.02996250000000e+01 9.29166732259815e-06 2.86804455015585e-07
1.03368750000000e+01 8.89940117227509e-06 2.75192729246415e-07
1.03741250000000e+01 8.52369531488407e-06 2.64049407799886e-07
1.04113750000000e+01 8.16385062483964e-06 2.53355677250306e-07
1.04486250000000e+01 7.81919749152848e-06 2.43093475904187e-07
1.04858750000000e+01 7.48909457327635e-06 2.33245463952384e-07
1.05231250000000e+01 7.17292760391880e-06 2.23794994798091e-07
1.05603750000000e+01 6.87010824975488e-06 2.14726087514811e-07
1.05976250000000e+01 6.58007301475676e-06 2.06023400390222e-07
1.06348750000000e+01 6.30228219199822e-06 1.97672205513546e-07
1.06721250000000e+01 6.03621885935046e-06 1.89658364365628e-07
1.07093750000000e+01 5.78138791757684e-06 1.81968304372569e-07
1.07466250000000e+01 5.53731516903616e-06 1.74588996385219e-07
1.07838750000000e+01 5.30354643528043e-06 1.67507933048308e-07
1.08211250000000e+01 5.07964671190492e-06 1.60713108024394e-07
1.08583750000000e+01 4.86519935907794e-06 1.54192996039157e-07
1.08956250000000e+01 4.65980532624401e-06 1.47936533715844e-07
1.09328750000000e+01 4.46308240955767e-06 1.41933101167965e-07
1.09701250000000e+01 4.27466454066628e-06 1.36172504320458e-07
1.10073750000000e+01 4.09420110551815e-06 1.30644957930786e-07
1.10446250000000e+01 3.92135629192866e-06 1.25341069282469e-07
1.10818750000000e+01 3.75580846469006e-06 1.20251822524648e-07
1.11191250000000e+01 3.59724956706233e-06 1.15368563632298e-07
1.11563750000000e+01 3.44538454753123e-06 1.10682985962705e-07
1.11936250000000e+01 3.29993081076693e-06 1.06187116384762e-07
1.12308750000000e+01 3.16061769176150e-06 1.01873301958532e-07
1.12681250000000e+01 3.02718595216672e-06 9.77341971434422e-08
1.13053750000000e+01 2.89938729789501e-06 9.37627515142962e-08
1.13426250000000e+01 2.77698391708576e-06 8.99521979650864e-08
1.13798750000000e+01 2.65974803757735e-06 8.62960413814002e-08
1.14171250000000e+01 2.54746150306139e-06 8.27880477629454e-08
1.14543750000000e+01 2.43991536713035e-06 7.94222337784426e-08
1.14916250000000e+01 2.33690950446342e-06 7.61928567358288e-08
1.15288750000000e+01 2.23825223842681e-06 7.30944049513787e-08
1.15661250000000e+01 2.14375998439568e-06 7.01215885019999e-08
1.16033750000000e+01 2.05325690813397e-06 6.72693303455639e-08
1.16406250000000e+01 1.96657459859635e-06 6.45327577947299e-08
1.16778750000000e+01 1.88355175454355e-06 6.19071943302959e-08
1.17151250000000e+01 1.80403388438777e-06 5.93881517406452e-08
1.17523750000000e+01 1.72787301870976e-06 5.69713225743954e-08
