Energy (eV)          EEDF (eV^-(3/2))     First Anisotropy
3.21428571428571e-02 6.73183750668453e-02 4.25559415953838e-05
9.64285714285714e-02 6.66586816755218e-02 7.01635126888722e-05
1.60714285714286e-01 6.60054530144151e-02 9.23369488956317e-05
2.25000000000000e-01 6.53586257381430e-02 1.09008729424816e-04
2.89285714285714e-01 6.47181371137016e-02 1.22770316340314e-04
3.53571428571429e-01 6.40839250243189e-02 1.34605786189117e-04
4.17857142857143e-01 6.34559279607528e-02 1.45026511288451e-04
4.82142857142857e-01 6.28340850200024e-02 1.54342542255194e-04
5.46428571428571e-01 6.22183358938868e-02 1.62760328966733e-04
6.10714285714286e-01 6.16086208643297e-02 1.70426360330543e-04
6.75000000000000e-01 6.10048808007211e-02 1.77449497815071e-04
7.39285714285714e-01 6.04070571506745e-02 1.83913543882651e-04
8.03571428571428e-01 5.98150919356213e-02 1.89884831195661e-04
8.67857142857143e-01 5.92289277445084e-02 1.95417062452407e-04
9.32142857142857e-01 5.86485077303294e-02 2.00554534689107e-04
9.96428571428571e-01 5.80737756023773e-02 2.05334365499657e-04
1.06071428571429e+00 5.75046756204781e-02 2.09788075828171e-04
1.12500000000000e+00 5.69411525950370e-02 2.13942746418933e-04
1.18928571428571e+00 5.63831518690463e-02 2.17821878166093e-04
1.25357142857143e+00 5.58306193310261e-02 2.21446047565123e-04
1.31785714285714e+00 5.52835013903655e-02 2.24833412656735e-04
1.38214285714286e+00 5.47417449905299e-02 2.28000109359187e-04
1.44642857142857e+00 5.42052975902243e-02 2.30960568585826e-04
1.51071428571429e+00 5.36741071597154e-02 2.33727767355459e-04
1.57500000000000e+00 5.31481221863293e-02 2.36313436576270e-04
1.63928571428571e+00 5.26272916553049e-02 2.38728229904711e-04
1.70357142857143e+00 5.21115650584038e-02 2.40981863755628e-04
1.76785714285714e+00 5.16008923760133e-02 2.43083234354114e-04
1.83214285714286e+00 5.10952240847706e-02 2.45040515690712e-04
1.89642857142857e+00 5.05945111434528e-02 2.46861244216357e-04
1.96071428571429e+00 5.00987049889969e-02 2.48552387815622e-04
2.02500000000000e+00 4.96077575393769e-02 2.50120407998180e-04
2.08928571428571e+00 4.91216211787903e-02 2.51571312098210e-04
2.15357142857143e+00 4.86402487628376e-02 2.52910698676177e-04
2.21785714285714e+00 4.81635936044888e-02 2.54143797182899e-04
2.28214285714286e+00 4.76916094786981e-02 2.55275502251496e-04
2.34642857142857e+00 4.72242506110910e-02 2.56310405272670e-04
2.41071428571429e+00 4.67614716740088e-02 2.57252819531680e-04
2.47500000000000e+00 4.63032277878715e-02 2.58106805058008e-04
2.53928571428571e+00 4.58494745091318e-02 2.58876189489261e-04
2.60357142857143e+00 4.54001678334262e-02 2.59564586820596e-04
2.66785714285714e+00 4.49552641840689e-02 2.60175414277521e-04
2.73214285714286e+00 4.45147204148506e-02 2.60711907114115e-04
2.79642857142857e+00 4.40784938006027e-02 2.61177133164508e-04
2.86071428571429e+00 4.36465420333800e-02 2.61574003643294e-04
2.92500000000000e+00 4.32188232228868e-02 2.61905285153264e-04
2.98928571428571e+00 4.27952958863690e-02 2.62173609520649e-04
3.05357142857143e+00 4.23759189504732e-02 2.62381482868824e-04
3.11785714285714e+00 4.19606517415384e-02 2.62531293971432e-04
3.18214285714286e+00 4.15494539872245e-02 2.62625321590479e-04
3.24642857142857e+00 4.11422858084385e-02 2.62665742261025e-04
3.31071428571429e+00 4.07391077157007e-02 2.62654635406478e-04
3.37500000000000e+00 4.03398806089663e-02 2.62593989988982e-04
3.43928571428571e+00 3.99445657689619e-02 2.62485709707609e-04
3.50357142857143e+00 3.95531248581816e-02 2.62331617910506e-04
3.56785714285714e+00 3.91655199125345e-02 2.62133462204686e-04
3.63214285714286e+00 3.87817133421843e-02 2.61892918470385e-04
3.69642857142857e+00 3.84016679245216e-02 2.61611595515749e-04
3.76071428571429e+00 3.80253468007264e-02 2.61291037623791e-04
3.82500000000000e+00 3.76527134751942e-02 2.60932728634750e-04
3.88928571428571e+00 3.72837318079953e-02 2.60538094932350e-04
3.95357142857143e+00 3.69183660152792e-02 2.60108508334141e-04
4.01785714285714e+00 3.65565806619840e-02 2.59645288851737e-04
4.08214285714286e+00 3.61983406621336e-02 2.59149707051510e-04
4.14642857142857e+00 3.58436112726412e-02 2.58622987086686e-04
4.21071428571429e+00 3.54923580900725e-02 2.58066307972868e-04
4.27500000000000e+00 3.51445470498098e-02 2.57480806301749e-04
4.33928571428571e+00 3.48001444194146e-02 2.56867578067877e-04
4.40357142857143e+00 3.44591167986181e-02 2.56227680482153e-04
4.46785714285714e+00 3.41214311128894e-02 2.55562133732779e-04
4.53214285714286e+00 3.37870546133528e-02 2.54871922451413e-04
4.59642857142857e+00 3.34559548712733e-02 2.54157997825108e-04
4.66071428571429e+00 3.31280997750155e-02 2.53421278200367e-04
4.72500000000000e+00 3.28034575290381e-02 2.52662651003284e-04
4.78928571428571e+00 3.24819966479993e-02 2.51882973912570e-04
4.85357142857143e+00 3.21636859564569e-02 2.51083076056521e-04
4.91785714285714e+00 3.18484945831473e-02 2.50263759194700e-04
4.98214285714286e+00 3.15363919606344e-02 2.49425798667580e-04
5.04642857142857e+00 3.12273478203673e-02 2.48569944947049e-04
5.11071428571428e+00 3.09213321898276e-02 2.47696923869933e-04
5.17500000000000e+00 3.06183153914174e-02 2.46807438065087e-04
5.23928571428571e+00 3.03182680371889e-02 2.45902167735813e-04
5.30357142857143e+00 3.00211610283400e-02 2.44981771482888e-04
5.36785714285714e+00 2.97269655500925e-02 2.44046887130608e-04
5.43214285714286e+00 2.94356530711522e-02 2.43098132362236e-04
5.49642857142857e+00 2.91471953392546e-02 2.42136105906633e-04
5.56071428571429e+00 2.88615643784920e-02 2.41161387561728e-04
5.62500000000000e+00 2.85787324881396e-02 2.40174539297183e-04
5.68928571428571e+00 2.82986722379177e-02 2.39176105792211e-04
5.75357142857143e+00 2.80213564673446e-02 2.38166615020710e-04
5.81785714285714e+00 2.77467582811268e-02 2.37146578848455e-04
5.88214285714286e+00 2.74748510484894e-02 2.36116493469059e-04
5.94642857142857e+00 2.72056083991425e-02 2.35076840342495e-04
6.01071428571429e+00 2.69390042207789e-02 2.34028086098497e-04
6.07500000000000e+00 2.66750126578706e-02 2.32970683415050e-04
6.13928571428571e+00 2.64136081073904e-02 2.31905071397023e-04
6.20357142857143e+00 2.61547652180681e-02 2.30831676003796e-04
6.26785714285714e+00 2.58984588862236e-02 2.29750910493276e-04
6.33214285714286e+00 2.56446642550102e-02 2.28663175726776e-04
6.39642857142857e+00 2.53933567107477e-02 2.27568860930762e-04
6.46071428571429e+00 2.51445118805816e-02 2.26468343532548e-04
6.52500000000000e+00 2.48981056312736e-02 2.25361989877459e-04
6.58928571428571e+00 2.46541140653232e-02 2.24250155500431e-04
6.65357142857143e+00 2.44125135201609e-02 2.23133185445818e-04
6.71785714285714e+00 2.41732805643689e-02 2.22011414605339e-04
6.78214285714286e+00 2.39363919968674e-02 2.20885167934271e-04
6.84642857142857e+00 2.37018248435726e-02 2.19754761082643e-04
6.91071428571428e+00 2.34695563552067e-02 2.18620500194491e-04
6.97500000000000e+00 2.32395640060995e-02 2.17482682504779e-04
7.03928571428571e+00 2.30118254906611e-02 2.16341596537127e-04
7.10357142857143e+00 2.27863187225385e-02 2.15197522347609e-04
7.16785714285714e+00 2.25630218311763e-02 2.14050731787112e-04
7.23214285714286e+00 2.23419131609708e-02 2.12901488656079e-04
7.29642857142857e+00 2.21229712682154e-02 2.11750049236201e-04
7.36071428571428e+00 2.19061749190534e-02 2.10596662072339e-04
7.42500000000000e+00 2.16915030883013e-02 2.09441568477160e-04
7.48928571428571e+00 2.14789349562341e-02 2.08285002676633e-04
7.55357142857143e+00 2.12684499077220e-02 2.07127191998984e-04
7.61785714285714e+00 2.10600275290944e-02 2.05968357081760e-04
7.68214285714286e+00 2.08536476072785e-02 2.04808711983144e-04
7.74642857142857e+00 2.06492901270014e-02 2.03648464635846e-04
7.81071428571429e+00 2.04469352688770e-02 2.02487816623409e-04
7.87500000000000e+00 2.02465634082599e-02 2.01326963612235e-04
7.93928571428571e+00 2.00481551123082e-02 2.00166095459474e-04
8.00357142857143e+00 1.98516911391161e-02 1.99005396361471e-04
8.06785714285714e+00 1.96571524348469e-02 1.97845045019568e-04
8.13214285714286e+00 1.94645201328700e-02 1.96685214720161e-04
8.19642857142857e+00 1.92737755511937e-02 1.95526073726387e-04
8.26071428571428e+00 1.90849001906774e-02 1.94367785056095e-04
8.32500000000000e+00 1.88978757339221e-02 1.93210506855474e-04
8.38928571428571e+00 1.87126840425820e-02 1.92054392479423e-04
8.45357142857143e+00 1.85293071565027e-02 1.90899590609548e-04
8.51785714285714e+00 1.83477272910964e-02 1.89746245388546e-04
8.58214285714286e+00 1.81679268364861e-02 1.88594496477493e-04
8.64642857142857e+00 1.79898883551473e-02 1.87444479396804e-04
8.71071428571429e+00 1.78135945802369e-02 1.86296325310320e-04
8.77500000000000e+00 1.76390284145248e-02 1.85150161351156e-04
8.83928571428571e+00 1.74661729279283e-02 1.84006110681643e-04
8.90357142857143e+00 1.72950113566656e-02 1.82864292588060e-04
8.96785714285714e+00 1.71255271008464e-02 1.81724822590650e-04
9.03214285714286e+00 1.69577037236334e-02 1.80587812484162e-04
9.09642857142857e+00 1.67915249490713e-02 1.79453370636812e-04
9.16071428571428e+00 1.66269746605253e-02 1.78321601783141e-04
9.22500000000000e+00 1.64640368996566e-02 1.77192607310122e-04
9.28928571428571e+00 1.63026958641581e-02 1.76066485301753e-04
9.35357142857143e+00 1.61429359069273e-02 1.74943330615756e-04
9.41785714285714e+00 1.59847415338542e-02 1.73823234974519e-04
9.48214285714286e+00 1.58280974030027e-02 1.72706286993111e-04
9.54642857142857e+00 1.56729883226103e-02 1.71592572443002e-04
9.61071428571428e+00 1.55193992496305e-02 1.70482174055174e-04
9.67500000000000e+00 1.53673152887521e-02 1.69375171772788e-04
9.73928571428571e+00 1.52167216903172e-02 1.68271642784143e-04
9.80357142857143e+00 1.50676038495190e-02 1.67171661585220e-04
9.86785714285714e+00 1.49199473043662e-02 1.66075300055378e-04
9.93214285714286e+00 1.47737377348906e-02 1.64982627476051e-04
9.99642857142857e+00 1.46289609613014e-02 1.63893710645691e-04
1.00607142857143e+01 1.44856029430468e-02 1.62808614014098e-04
1.01250000000000e+01 1.43436497767373e-02 1.61727400094063e-04
1.01892857142857e+01 1.42030876940037e-02 1.60650128185144e-04
1.02535714285714e+01 1.40639030641667e-02 1.59576855382947e-04
1.03178571428571e+01 1.39260823887277e-02 1.58507637392741e-04
1.03821428571429e+01 1.37896123014679e-02 1.57442527380122e-04
1.04464285714286e+01 1.36544795671509e-02 1.56381576428786e-04
1.05107142857143e+01 1.35206710802422e-02 1.55324833592949e-04
1.05750000000000e+01 1.33881738636363e-02 1.54272346303407e-04
1.06392857142857e+01 1.32569750661735e-02 1.53224159346465e-04
1.07035714285714e+01 1.31270619651015e-02 1.52180315630408e-04
1.07678571428571e+01 1.29984219610997e-02 1.51140856961981e-04
1.08321428571429e+01 1.28710425783161e-02 1.50105822992404e-04
1.08964285714286e+01 1.27449114631555e-02 1.49075251631306e-04
1.09607142857143e+01 1.26200163830851e-02 1.48049179090593e-04
1.10250000000000e+01 1.24963452254459e-02 1.47027640251698e-04
1.10892857142857e+01 1.23738859951813e-02 1.46010667728381e-04
1.11535714285714e+01 1.22526268169942e-02 1.44998292563629e-04
1.12178571428571e+01 1.21325559308449e-02 1.43990544935989e-04
1.12821428571429e+01 1.20136616919377e-02 1.42987453192629e-04
1.13464285714286e+01 1.18959325695902e-02 1.41989044224386e-04
1.14107142857143e+01 1.17793571461172e-02 1.40995343502627e-04
1.14750000000000e+01 1.16639241157229e-02 1.40006375412078e-04
1.15392857142857e+01 1.15496222824196e-02 1.39022162390287e-04
1.16035714285714e+01 1.14364405619202e-02 1.38042725562181e-04
1.16678571428571e+01 1.13243679775589e-02 1.37068085383468e-04
1.17321428571429e+01 1.12133936602369e-02 1.36098260753174e-04
1.17964285714286e+01 1.11035068473674e-02 1.35133269354059e-04
1.18607142857143e+01 1.09946968818337e-02 1.34173127683716e-04
1.19250000000000e+01 1.08869532109550e-02 1.33217851356703e-04
1.19892857142857e+01 1.07802653845787e-02 1.32267454314111e-04
1.20535714285714e+01 1.06746230567416e-02 1.31321949402108e-04
1.21178571428571e+01 1.05700159819686e-02 1.30381348958682e-04
1.21821428571429e+01 1.04664340151864e-02 1.29445663998813e-04
1.22464285714286e+01 1.03638671107382e-02 1.28514904523932e-04
1.23107142857143e+01 1.02623053214121e-02 1.27589079548203e-04
1.23750000000000e+01 1.01617387974749e-02 1.26668197373228e-04
1.24392857142857e+01 1.00621577849217e-02 1.25752264861732e-04
1.25035714285714e+01 9.96355262693619e-03 1.24841287965608e-04
1.25678571428571e+01 9.86591376052696e-03 1.23935272261623e-04
1.26321428571429e+01 9.76923171641626e-03 1.23034222202917e-04
1.26964285714286e+01 9.67349711812074e-03 1.22138141400679e-04
1.27607142857143e+01 9.57870068104384e-03 1.21247032646466e-04
1.28250000000000e+01 9.48483321157439e-03 1.20360898162276e-04
1.28892857142857e+01 9.39188560547894e-03 1.19479738932896e-04
1.29535714285714e+01 9.29984884918556e-03 1.18603555188355e-04
1.30178571428571e+01 9.20871401672420e-03 1.17732346893462e-04
1.30821428571429e+01 9.11847226959583e-03 1.16866113059983e-04
1.31464285714286e+01 9.02911485591459e-03 1.16004852003360e-04
1.32107142857143e+01 8.94063310956041e-03 1.15148561361648e-04
1.32750000000000e+01 8.85301844933787e-03 1.14297238323463e-04
1.33392857142857e+01 8.76626237749804e-03 1.13450879014026e-04
1.34035714285714e+01 8.68035648086841e-03 1.12609478936343e-04
1.34678571428571e+01 8.59529242806620e-03 1.11773033418984e-04
1.35321428571429e+01 8.51106196935294e-03 1.10941536983707e-04
1.35964285714286e+01 8.42765693583377e-03 1.10114983579715e-04
1.36607142857143e+01 8.34506923866648e-03 1.09293366599744e-04
1.37250000000000e+01 8.26329086827636e-03 1.08476679088065e-04
1.37892857142857e+01 8.18231389299626e-03 1.07664913175673e-04
1.38535714285714e+01 8.10213046006156e-03 1.06858060484063e-04
1.39178571428571e+01 8.02273279306939e-03 1.06056112535161e-04
1.39821428571429e+01 7.94411319182259e-03 1.05259060169696e-04
1.40464285714286e+01 7.86626403158243e-03 1.04466893761120e-04
1.41107142857143e+01 7.78917776233019e-03 1.03679603229324e-04
1.41750000000000e+01 7.71284690803441e-03 1.02897178230620e-04
1.42392857142857e+01 7.63726406539876e-03 1.02119607637943e-04
1.43035714285714e+01 7.56242190473844e-03 1.01346879910676e-04
1.43678571428571e+01 7.48831316766153e-03 1.00578983470190e-04
1.44321428571429e+01 7.41493066690552e-03 9.98159061646999e-05
1.44964285714286e+01 7.34226728563977e-03 9.90576354648003e-05
1.45607142857143e+01 7.27031597677632e-03 9.83041584751338e-05
1.46250000000000e+01 7.19906976228594e-03 9.75554621080725e-05
1.46892857142857e+01 7.12852173204448e-03 9.68115326051897e-05
1.47535714285714e+01 7.05866504460522e-03 9.60723558762176e-05
1.48178571428571e+01 6.98949292508079e-03 9.53379178433093e-05
1.48821428571429e+01 6.92099866497506e-03 9.46082039484748e-05
1.49464285714286e+01 6.85317562153217e-03 9.38831993324471e-05
1.50107142857143e+01 6.78601721709306e-03 9.31628888446243e-05
1.50750000000000e+01 6.71951693845721e-03 9.24472572019745e-05
1.51392857142857e+01 6.65366833581907e-03 9.17362885483421e-05
1.52035714285714e+01 6.58846502344875e-03 9.10299667653080e-05
1.52678571428571e+01 6.52390067775566e-03 9.03282757879743e-05
1.53321428571429e+01 6.45996903711794e-03 8.96311991514205e-05
1.53964285714286e+01 6.39666390127482e-03 8.89387201544662e-05
1.54607142857143e+01 6.33397913072602e-03 8.82508218681318e-05
1.55250000000000e+01 6.27190864613599e-03 8.75674872811075e-05
1.55892857142857e+01 6.21044642735286e-03 8.68886988937685e-05
1.56535714285714e+01 6.14958651400852e-03 8.62144390034526e-05
1.57178571428571e+01 6.08932300374683e-03 8.55446899942875e-05
1.57821428571429e+01 6.02965005205246e-03 8.48794339194268e-05
1.58464285714286e+01 5.97056187168372e-03 8.42186526510813e-05
1.59107142857143e+01 5.91205273211197e-03 8.35623278877006e-05
1.59750000000000e+01 5.85411695896548e-03 8.29104412872461e-05
1.60392857142857e+01 5.79674893312412e-03 8.22629740930707e-05
1.61035714285714e+01 5.73994309124822e-03 8.16199073958361e-05
1.61678571428571e+01 5.68369392415638e-03 8.09812223996761e-05
1.62321428571429e+01 5.62799597665497e-03 8.03469000372575e-05
1.62964285714286e+01 5.57284384700888e-03 7.97169211072898e-05
1.63607142857143e+01 5.51823218641817e-03 7.90912662806482e-05
1.64250000000000e+01 5.46415569849905e-03 7.84699162225431e-05
1.64892857142857e+01 5.41060913844787e-03 7.78528512476299e-05
1.65535714285714e+01 5.35758731350737e-03 7.72400515606247e-05
1.66178571428571e+01 5.30508508148020e-03 7.66314975008372e-05
1.66821428571429e+01 5.25309735056053e-03 7.60271691873692e-05
1.67464285714286e+01 5.20161907883998e-03 7.54270466452456e-05
1.68107142857143e+01 5.15064527381916e-03 7.48311098105937e-05
1.68750000000000e+01 5.10017099192321e-03 7.42393386427007e-05
1.69392857142857e+01 5.05019133772952e-03 7.36517128059919e-05
1.70035714285714e+01 5.00070146437864e-03 7.30682118911667e-05
1.70678571428571e+01 4.95169657221131e-03 7.24888156399747e-05
1.71321428571429e+01 4.90317190860305e-03 7.19135036180845e-05
1.71964285714286e+01 4.85512276750303e-03 7.13422553308317e-05
1.72607142857143e+01 4.80754448897808e-03 7.07750502275989e-05
1.73250000000000e+01 4.76043245876058e-03 7.02118678046521e-05
1.73892857142857e+01 4.71378210753462e-03 6.96526873118008e-05
1.74535714285714e+01 4.66758891129816e-03 6.90974879557220e-05
1.75178571428571e+01 4.62184839011249e-03 6.85462491066645e-05
1.75821428571429e+01 4.57655610794052e-03 6.79989499967474e-05
1.76464285714286e+01 4.53170767221642e-03 6.74555698262299e-05
1.77107142857143e+01 4.48729873341997e-03 6.69160877671967e-05
1.77750000000000e+01 4.44332498465454e-03 6.63804830579806e-05
1.78392857142857e+01 4.39978216098715e-03 6.58487347325148e-05
1.79035714285714e+01 4.35666603976744e-03 6.53208218073660e-05
1.79678571428571e+01 4.31397243947962e-03 6.47967234718869e-05
1.80321428571429e+01 4.27169721958513e-03 6.42764188098850e-05
1.80964285714286e+01 4.22983628012089e-03 6.37598868972385e-05
1.81607142857143e+01 4.18838556130202e-03 6.32471068049849e-05
1.82250000000000e+01 4.14734104312796e-03 6.27380576860618e-05
1.82892857142857e+01 4.10669874477201e-03 6.22327185255281e-05
1.83535714285714e+01 4.06645472486222e-03 6.17310683126649e-05
1.84178571428571e+01 4.02660508042684e-03 6.12330862159789e-05
1.84821428571429e+01 3.98714594674173e-03 6.07387513263637e-05
1.85464285714286e+01 3.94807349695536e-03 6.02480427468059e-05
1.86107142857143e+01 3.90938394171801e-03 5.97609395949511e-05
1.86750000000000e+01 3.87107352881411e-03 5.92774210828216e-05
1.87392857142857e+01 3.83313854259740e-03 5.87974662862417e-05
1.88035714285714e+01 3.79557530423813e-03 5.83210543032581e-05
1.88678571428571e+01 3.75838017075391e-03 5.78481644152617e-05
1.89321428571429e+01 3.72154953486211e-03 5.73787758499129e-05
1.89964285714286e+01 3.68507982462995e-03 5.69128678636065e-05
1.90607142857143e+01 3.64896750312830e-03 5.64504197436030e-05
1.91250000000000e+01 3.61320906808858e-03 5.59914108813144e-05
1.91892857142857e+01 3.57780105137992e-03 5.55358205593980e-05
1.92535714285714e+01 3.54274001922658e-03 5.50836280976438e-05
1.93178571428571e+01 3.50802257131675e-03 5.46348130013602e-05
1.93821428571429e+01 3.47364534066038e-03 5.41893547424841e-05
1.94464285714286e+01 3.43960499326243e-03 5.37472328354266e-05
1.95107142857143e+01 3.40589822779988e-03 5.33084268388242e-05
1.95750000000000e+01 3.37252177530134e-03 5.28729164229373e-05
1.96392857142857e+01 3.33947239866308e-03 5.24406811730120e-05
1.97035714285714e+01 3.30674689284000e-03 5.20117007236673e-05
1.97678571428571e+01 3.27434208402587e-03 5.15859548955981e-05
1.98321428571429e+01 3.24225482951651e-03 5.11634234934282e-05
1.98964285714286e+01 3.21048201740488e-03 5.07440863754897e-05
1.99607142857143e+01 3.17902056627956e-03 5.03279234552496e-05
2.00250000000000e+01 3.14786742492572e-03 4.99149147633101e-05
2.00892857142857e+01 3.11701957187685e-03 4.95050402657610e-05
2.01535714285714e+01 3.08647401558249e-03 4.90982799880098e-05
2.02178571428571e+01 3.05622779365372e-03 4.86946141407518e-05
2.02821428571429e+01 3.02627797273184e-03 4.82940229332538e-05
