Energy (eV)          EEDF (eV^-(3/2))     First Anisotropy
4.52777777777778e-04 3.88085259840256e+01 2.06868807156920e-02
1.35833333333333e-03 3.84374337481485e+01 3.41112744782680e-02
2.26388888888889e-03 3.80698899453879e+01 4.49020618193702e-02
3.16944444444444e-03 3.77058606443011e+01 5.30220094295710e-02
4.07500000000000e-03 3.73453122398916e+01 5.97299870997784e-02
4.98055555555555e-03 3.69882114465148e+01 6.55038634685992e-02
5.88611111111111e-03 3.66345252982345e+01 7.05918766358163e-02
6.79166666666667e-03 3.62842211432868e+01 7.51444859976009e-02
7.69722222222222e-03 3.59372666429861e+01 7.92618433874666e-02
8.60277777777778e-03 3.55936297671628e+01 8.30149899380088e-02
9.50833333333333e-03 3.52532787922650e+01 8.64567022499927e-02
1.04138888888889e-02 3.49161822983620e+01 8.96275955259395e-02
1.13194444444444e-02 3.45823091647071e+01 9.25598082363012e-02
1.22250000000000e-02 3.42516285711360e+01 9.52793519833902e-02
1.31305555555556e-02 3.39241099880794e+01 9.78076763308209e-02
1.40361111111111e-02 3.35997231818272e+01 1.00162749228540e-01
1.49416666666667e-02 3.32784382041968e+01 1.02359825446093e-01
1.58472222222222e-02 3.29602253966513e+01 1.04412007129678e-01
1.67527777777778e-02 3.26450553812378e+01 1.06330661870325e-01
1.76583333333333e-02 3.23328990624065e+01 1.08125740028552e-01
1.85638888888889e-02 3.20237276241387e+01 1.09806020596839e-01
1.94694444444444e-02 3.17175125233408e+01 1.11379303373385e-01
2.03750000000000e-02 3.14142254922973e+01 1.12852561945812e-01
2.12805555555556e-02 3.11138385313054e+01 1.14232066670746e-01
2.21861111111111e-02 3.08163239105481e+01 1.15523484587150e-01
2.30916666666667e-02 3.05216541633437e+01 1.16731961439090e-01
2.39972222222222e-02 3.02298020875582e+01 1.17862189555618e-01
2.49027777777778e-02 2.99407407393654e+01 1.18918464588987e-01
2.58083333333333e-02 2.96544434334749e+01 1.19904732946126e-01
2.67138888888889e-02 2.93708837405796e+01 1.20824632469161e-01
2.76194444444444e-02 2.90900354824669e+01 1.21681526608803e-01
2.85250000000000e-02 2.88118727327905e+01 1.22478533944111e-01
2.94305555555556e-02 2.85363698116433e+01 1.23218553603374e-01
3.03361111111111e-02 2.82635012860772e+01 1.23904287263975e-01
3.12416666666667e-02 2.79932419649967e+01 1.24538258328849e-01
3.21472222222222e-02 2.77255668994692e+01 1.25122828673630e-01
3.30527777777778e-02 2.74604513779001e+01 1.25660213418478e-01
3.39583333333333e-02 2.71978709256016e+01 1.26152493727644e-01
3.48638888888889e-02 2.69378013024806e+01 1.26601628556800e-01
3.57694444444444e-02 2.66802184991030e+01 1.27009464686811e-01
3.66750000000000e-02 2.64250987366997e+01 1.27377745851335e-01
3.75805555555556e-02 2.61724184628361e+01 1.27708120877606e-01
3.84861111111111e-02 2.59221543512908e+01 1.28002150967229e-01
3.93916666666667e-02 2.56742832979270e+01 1.28261316263741e-01
4.02972222222222e-02 2.54287824204613e+01 1.28487021756869e-01
4.12027777777778e-02 2.51856290545189e+01 1.28680602673671e-01
4.21083333333333e-02 2.49448007528911e+01 1.28843329179392e-01
4.30138888888889e-02 2.47062752834284e+01 1.28976410995777e-01
4.39194444444444e-02 2.44700306257364e+01 1.29081001273527e-01
4.48250000000000e-02 2.42360449707859e+01 1.29158200281482e-01
4.57305555555556e-02 2.40042967173124e+01 1.29209058763587e-01
4.66361111111111e-02 2.37747644713562e+01 1.29234580998863e-01
4.75416666666667e-02 2.35474270428033e+01 1.29235727627033e-01
4.84472222222222e-02 2.33222634448655e+01 1.29213418232109e-01
4.93527777777778e-02 2.30992528907521e+01 1.29168533767029e-01
5.02583333333333e-02 2.28783747927786e+01 1.29101918635418e-01
5.11638888888889e-02 2.26596087604414e+01 1.29014382908797e-01
5.20694444444444e-02 2.24429345975758e+01 1.28906704097903e-01
5.29750000000000e-02 2.22283323017541e+01 1.28779628926829e-01
5.38805555555555e-02 2.20157820612142e+01 1.28633874966179e-01
5.47861111111111e-02 2.18052642542196e+01 1.28470132138236e-01
5.56916666666667e-02 2.15967594460935e+01 1.28289064132389e-01
5.65972222222222e-02 2.13902483885457e+01 1.28091309711966e-01
5.75027777777778e-02 2.11857120168067e+01 1.27877483971813e-01
5.84083333333333e-02 2.09831314486739e+01 1.27648179380960e-01
5.93138888888889e-02 2.07824879827498e+01 1.27403967008137e-01
6.02194444444444e-02 2.05837630959594e+01 1.27145397429237e-01
6.11250000000000e-02 2.03869384428368e+01 1.26873001691260e-01
6.20305555555556e-02 2.01919958528622e+01 1.26587292204937e-01
6.29361111111111e-02 1.99989173297277e+01 1.26288763572174e-01
6.38416666666667e-02 1.98076850487578e+01 1.25977893376345e-01
6.47472222222222e-02 1.96182813561579e+01 1.25655142915468e-01
6.56527777777778e-02 1.94306887665135e+01 1.25320957925552e-01
6.65583333333333e-02 1.92448899618221e+01 1.24975769148862e-01
6.74638888888889e-02 1.90608677898800e+01 1.24619993085614e-01
6.83694444444444e-02 1.88786052620908e+01 1.24254032496853e-01
6.92750000000000e-02 1.86980855526994e+01 1.23878276977558e-01
7.01805555555556e-02 1.85192919964567e+01 1.23493103488397e-01
7.10861111111111e-02 1.83422080878434e+01 1.23098876849586e-01
7.19916666666667e-02 1.81668174788029e+01 1.22695950219295e-01
7.28972222222222e-02 1.79931039779574e+01 1.22284665538066e-01
7.38027777777778e-02 1.78210515484052e+01 1.21865353978638e-01
7.47083333333333e-02 1.76506443067657e+01 1.21438336274461e-01
7.56138888888889e-02 1.74818665217020e+01 1.21003923218533e-01
7.65194444444444e-02 1.73147026119724e+01 1.20562415957831e-01
7.74250000000000e-02 1.71491371456472e+01 1.20114106358338e-01
7.83305555555556e-02 1.69851548380442e+01 1.19659277343330e-01
7.92361111111111e-02 1.68227405509428e+01 1.19198203207227e-01
8.01416666666667e-02 1.66618792905757e+01 1.18731149923813e-01
8.10472222222222e-02 1.65025562068416e+01 1.18258375432038e-01
8.19527777777778e-02 1.63447565913507e+01 1.17780129933195e-01
8.28583333333333e-02 1.61884658765006e+01 1.17296656088682e-01
8.37638888888889e-02 1.60336696341224e+01 1.16808189371620e-01
8.46694444444444e-02 1.58803535737382e+01 1.16314958245911e-01
8.55750000000000e-02 1.57285035417845e+01 1.15817184411538e-01
8.64805555555555e-02 1.55781055197751e+01 1.15315083031124e-01
8.73861111111111e-02 1.54291456235257e+01 1.14808862939429e-01
8.82916666666667e-02 1.52816101013646e+01 1.14298726851806e-01
8.91972222222222e-02 1.51354853333597e+01 1.13784871556775e-01
9.01027777777778e-02 1.49907578295757e+01 1.13267488121936e-01
9.10083333333333e-02 1.48474142291892e+01 1.12746762016135e-01
9.19138888888889e-02 1.47054412992485e+01 1.12222873369135e-01
9.28194444444444e-02 1.45648259331095e+01 1.11695997083128e-01
9.37250000000000e-02 1.44255551496783e+01 1.11166303004779e-01
9.46305555555556e-02 1.42876160917699e+01 1.10633956083278e-01
9.55361111111111e-02 1.41509960253549e+01 1.10099116515717e-01
9.64416666666667e-02 1.40156823379592e+01 1.09561939893671e-01
9.73472222222222e-02 1.38816625379159e+01 1.09022577337842e-01
9.82527777777778e-02 1.37489242528040e+01 1.08481175646261e-01
9.91583333333333e-02 1.36174552286102e+01 1.07937877370728e-01
1.00063888888889e-01 1.34872433285910e+01 1.07392821051111e-01
1.00969444444444e-01 1.33582765315845e+01 1.06846141120144e-01
1.01875000000000e-01 1.32305429325850e+01 1.06297968321559e-01
1.02780555555556e-01 1.31040307386784e+01 1.05748429586266e-01
1.03686111111111e-01 1.29787282715190e+01 1.05197648209990e-01
1.04591666666667e-01 1.28546239626637e+01 1.04645743973635e-01
1.05497222222222e-01 1.27317063560211e+01 1.04092833214253e-01
1.06402777777778e-01 1.26099641033457e+01 1.03539029056467e-01
1.07308333333333e-01 1.24893859657567e+01 1.02984441050576e-01
1.08213888888889e-01 1.23699608126499e+01 1.02429175926559e-01
1.09119444444444e-01 1.22516776182308e+01 1.01873337250973e-01
1.10025000000000e-01 1.21345254637265e+01 1.01317025599074e-01
1.10930555555556e-01 1.20184935332098e+01 1.00760338663200e-01
1.11836111111111e-01 1.19035711157082e+01 1.00203371305532e-01
1.12741666666667e-01 1.17897476011669e+01 9.96462156605186e-02
1.13647222222222e-01 1.16770124824594e+01 9.90889611835058e-02
1.14552777777778e-01 1.15653553514841e+01 9.85316948417231e-02
1.15458333333333e-01 1.14547659003876e+01 9.79745007815593e-02
1.16363888888889e-01 1.13452339205706e+01 9.74174609826424e-02
1.17269444444444e-01 1.12367492996675e+01 9.68606549428607e-02
1.18175000000000e-01 1.11293020233651e+01 9.63041598192645e-02
1.19080555555556e-01 1.10228821717769e+01 9.57480505131152e-02
1.19986111111111e-01 1.09174799211787e+01 9.51923997062440e-02
1.20891666666667e-01 1.08130855404989e+01 9.46372779417834e-02
1.21797222222222e-01 1.07096893929757e+01 9.40827536577265e-02
1.22702777777778e-01 1.06072819327582e+01 9.35288933469796e-02
1.23608333333333e-01 1.05058537058944e+01 9.29757612537896e-02
1.24513888888889e-01 1.04053953494223e+01 9.24234199448935e-02
1.25419444444444e-01 1.03058975887257e+01 9.18719300224046e-02
1.26325000000000e-01 1.02073512390364e+01 9.13213502409469e-02
1.27230555555556e-01 1.01097472022701e+01 9.07717375756052e-02
1.28136111111111e-01 1.00130764684613e+01 9.02231472470510e-02
1.29041666666667e-01 9.91733011269727e+00 8.96756327862738e-02
1.29947222222222e-01 9.82249929648878e+00 8.91292460577769e-02
1.30852777777778e-01 9.72857526479827e+00 8.85840373953163e-02
1.31758333333333e-01 9.63554934683801e+00 8.80400553261788e-02
1.32663888888889e-01 9.54341295523909e+00 8.74973470724964e-02
1.33569444444444e-01 9.45215758372756e+00 8.69559582906318e-02
1.34475000000000e-01 9.36177480836841e+00 8.64159331697570e-02
1.35380555555556e-01 9.27225628479405e+00 8.58773144869549e-02
1.36286111111111e-01 9.18359374939321e+00 8.53401436245053e-02
1.37191666666667e-01 9.09577901662272e+00 8.48044606225352e-02
1.38097222222222e-01 9.00880398014397e+00 8.42703041949349e-02
1.39002777777778e-01 8.92266061021498e+00 8.37377118455632e-02
1.39908333333333e-01 8.83734095433519e+00 8.32067196185360e-02
1.40813888888889e-01 8.75283713648516e+00 8.26773625400435e-02
1.41719444444444e-01 8.66914135507739e+00 8.21496743823828e-02
1.42625000000000e-01 8.58624588398888e+00 8.16236877477551e-02
1.43530555555556e-01 8.50414307012485e+00 8.10994341135026e-02
1.44436111111111e-01 8.42282533440606e+00 8.05769438438212e-02
1.45341666666667e-01 8.34228516940392e+00 8.00562462330923e-02
1.46247222222222e-01 8.26251514028461e+00 7.95373695166368e-02
1.47152777777778e-01 8.18350788251297e+00 7.90203409709586e-02
1.48058333333333e-01 8.10525610237278e+00 7.85051866879365e-02
1.48963888888889e-01 8.02775257627107e+00 7.79919319655230e-02
1.49869444444444e-01 7.95099014892559e+00 7.74806010944328e-02
1.50775000000000e-01 7.87496173422344e+00 7.69712174299200e-02
1.51680555555556e-01 7.79966031307295e+00 7.64638034293034e-02
1.52586111111111e-01 7.72507893422489e+00 7.59583806597019e-02
1.53491666666667e-01 7.65121071218578e+00 7.54549698340350e-02
1.54397222222222e-01 7.57804882800350e+00 7.49535908180712e-02
1.55302777777778e-01 7.50558652723977e+00 7.44542627174188e-02
1.56208333333333e-01 7.43381712038915e+00 7.39570036735458e-02
1.57113888888889e-01 7.36273398224218e+00 7.34618312102342e-02
1.58019444444444e-01 7.29233055027804e+00 7.29687620409056e-02
1.58925000000000e-01 7.22260032537936e+00 7.24778121305176e-02
1.59830555555556e-01 7.15353686993300e+00 7.19889967269430e-02
1.60736111111111e-01 7.08513380851398e+00 7.15023303658359e-02
1.61641666666667e-01 7.01738482603933e+00 7.10178269007954e-02
1.62547222222222e-01 6.95028366842241e+00 7.05354995077269e-02
1.63452777777778e-01 6.88382414077812e+00 7.00553607607169e-02
1.64358333333333e-01 6.81800010775905e+00 6.95774224478593e-02
1.65263888888889e-01 6.75280549297241e+00 6.91016958791880e-02
1.66169444444444e-01 6.68823427755133e+00 6.86281917127257e-02
1.67075000000000e-01 6.62428050075031e+00 6.81569200081476e-02
1.67980555555556e-01 6.56093825826216e+00 6.76878902532113e-02
1.68886111111111e-01 6.49820170278777e+00 6.72211113665440e-02
1.69791666666667e-01 6.43606504239904e+00 6.67565917230737e-02
1.70697222222222e-01 6.37452254108418e+00 6.62943391564518e-02
1.71602777777778e-01 6.31356851715517e+00 6.58343610255142e-02
1.72508333333333e-01 6.25319734351627e+00 6.53766640480099e-02
1.73413888888889e-01 6.19340344713002e+00 6.49212545748482e-02
1.74319444444444e-01 6.13418130774467e+00 6.44681384330707e-02
1.75225000000000e-01 6.07552545839042e+00 6.40173209726002e-02
1.76130555555556e-01 6.01743048388450e+00 6.35688070886353e-02
1.77036111111111e-01 5.95989102130613e+00 6.31226012229058e-02
1.77941666666667e-01 5.90290175854167e+00 6.26787073852623e-02
1.78847222222222e-01 5.84645743473909e+00 6.22371291546836e-02
1.79752777777778e-01 5.79055283889207e+00 6.17978697376791e-02
1.80658333333333e-01 5.73518281005301e+00 6.13609318181982e-02
1.81563888888889e-01 5.68034223684398e+00 6.09263178023017e-02
1.82469444444444e-01 5.62602605632102e+00 6.04940296764066e-02
1.83375000000000e-01 5.57222925438766e+00 6.00640690481447e-02
1.84280555555556e-01 5.51894686446458e+00 5.96364371654425e-02
1.85186111111111e-01 5.46617396788534e+00 5.92111349166920e-02
1.86091666666667e-01 5.41390569260107e+00 5.87881628491433e-02
1.86997222222222e-01 5.36213721355914e+00 5.83675211688867e-02
1.87902777777778e-01 5.31086375144188e+00 5.79492097923464e-02
1.88808333333333e-01 5.26008057283417e+00 5.75332282107665e-02
1.89713888888889e-01 5.20978298977549e+00 5.71195757088133e-02
1.90619444444444e-01 5.15996635874462e+00 5.67082512365941e-02
1.91525000000000e-01 5.11062608100407e+00 5.62992534455045e-02
1.92430555555556e-01 5.06175760141405e+00 5.58925807045367e-02
1.93336111111111e-01 5.01335640876202e+00 5.54882310996596e-02
1.94241666666667e-01 4.96541803460744e+00 5.50862024495758e-02
1.95147222222222e-01 4.91793805359694e+00 5.46864923049595e-02
1.96052777777778e-01 4.87091208233896e+00 5.42890979939639e-02
1.96958333333333e-01 4.82433577953415e+00 5.38940164998441e-02
1.97863888888889e-01 4.77820484556491e+00 5.35012446565420e-02
1.98769444444444e-01 4.73251502158643e+00 5.31107790331078e-02
1.99675000000000e-01 4.68726208981321e+00 5.27226159652240e-02
2.00580555555556e-01 4.64244187246007e+00 5.23367515692120e-02
2.01486111111111e-01 4.59805023201619e+00 5.19531817408507e-02
2.02391666666667e-01 4.55408307021318e+00 5.15719021689063e-02
2.03297222222222e-01 4.51053632828709e+00 5.11929083338607e-02
2.04202777777778e-01 4.46740598597281e+00 5.08161955482130e-02
2.05108333333333e-01 4.42468806160388e+00 5.04417588459304e-02
2.06013888888889e-01 4.38237861173651e+00 5.00695931576493e-02
2.06919444444444e-01 4.34047373033455e+00 4.96996932062642e-02
2.07825000000000e-01 4.29896954900760e+00 4.93320535347228e-02
2.08730555555556e-01 4.25786223606393e+00 4.89666685180924e-02
2.09636111111111e-01 4.21714799673809e+00 4.86035323619822e-02
2.10541666666667e-01 4.17682307226773e+00 4.82426391142053e-02
2.11447222222222e-01 4.13688374011113e+00 4.78839826631495e-02
2.12352777777778e-01 4.09732631304722e+00 4.75275567735339e-02
2.13258333333333e-01 4.05814713925048e+00 4.71733549865150e-02
2.14163888888889e-01 4.01934260194648e+00 4.68213707767987e-02
2.15069444444444e-01 3.98090911868016e+00 4.64715974582903e-02
2.15975000000000e-01 3.94284314151322e+00 4.61240282086483e-02
2.16880555555556e-01 3.90514115617613e+00 4.57786560797020e-02
2.17786111111111e-01 3.86779968225668e+00 4.54354739956149e-02
2.18691666666667e-01 3.83081527237307e+00 4.50944747629640e-02
2.19597222222222e-01 3.79418451235397e+00 4.47556510688661e-02
2.20502777777778e-01 3.75790402043218e+00 4.44189955127607e-02
2.21408333333333e-01 3.72197044729916e+00 4.40845005161164e-02
2.22313888888889e-01 3.68638047578934e+00 4.37521584634498e-02
2.23219444444444e-01 3.65113082022251e+00 4.34219616170378e-02
2.24125000000000e-01 3.61621822656704e+00 4.30939021386500e-02
2.25030555555556e-01 3.58163947167959e+00 4.27679720985660e-02
2.25936111111111e-01 3.54739136346091e+00 4.24441634735776e-02
2.26841666666667e-01 3.51347074011427e+00 4.21224681557129e-02
2.27747222222222e-01 3.47987447029407e+00 4.18028779502106e-02
2.28652777777778e-01 3.44659945238251e+00 4.14853846038191e-02
2.29558333333333e-01 3.41364261452753e+00 4.11699797231454e-02
2.30463888888889e-01 3.38100091435351e+00 4.08566549013401e-02
2.31369444444444e-01 3.34867133836962e+00 4.05454016409767e-02
2.32275000000000e-01 3.31665090210434e+00 4.02362113733210e-02
2.33180555555556e-01 3.28493664942300e+00 3.99290754661506e-02
2.34086111111111e-01 3.25352565265610e+00 3.96239852216576e-02
2.34991666666667e-01 3.22241501193352e+00 3.93209318840226e-02
2.35897222222222e-01 3.19160185530671e+00 3.90199066373122e-02
2.36802777777778e-01 3.16108333809913e+00 3.87209006306941e-02
2.37708333333333e-01 3.13085664293072e+00 3.84239049045798e-02
2.38613888888889e-01 3.10091897945281e+00 3.81289105045328e-02
2.39519444444444e-01 3.07126758381523e+00 3.78359084114990e-02
2.40425000000000e-01 3.04189971877674e+00 3.75448895589170e-02
2.41330555555556e-01 3.01281267309186e+00 3.72558448395147e-02
2.42236111111111e-01 2.98400376161601e+00 3.69687651031686e-02
2.43141666666667e-01 2.95547032470715e+00 3.66836411634862e-02
2.44047222222222e-01 2.92720972832587e+00 3.64004637956691e-02
2.44952777777778e-01 2.89921936345138e+00 3.61192237590198e-02
2.45858333333333e-01 2.87149664609521e+00 3.58399117301130e-02
2.46763888888889e-01 2.84403901705818e+00 3.55625184052758e-02
2.47669444444444e-01 2.81684394145011e+00 3.52870344374568e-02
2.48575000000000e-01 2.78990890877997e+00 3.50134504514377e-02
2.49480555555556e-01 2.76323143240438e+00 3.47417570497413e-02
2.50386111111111e-01 2.73680904961339e+00 3.44719448104961e-02
2.51291666666667e-01 2.71063932109214e+00 3.42040042931683e-02
2.52197222222222e-01 2.68471983100237e+00 3.39379260364251e-02
2.53102777777778e-01 2.65904818645693e+00 3.36737005782419e-02
2.54008333333333e-01 2.63362201752478e+00 3.34113183954093e-02
2.54913888888889e-01 2.60843897700825e+00 3.31507699958066e-02
2.55819444444444e-01 2.58349674000972e+00 3.28920458612490e-02
2.56725000000000e-01 2.55879300400475e+00 3.26351364610240e-02
2.57630555555556e-01 2.53432548834569e+00 3.23800322570447e-02
2.58536111111111e-01 2.51009193433107e+00 3.21267237017390e-02
2.59441666666667e-01 2.48609010472099e+00 3.18752012430449e-02
2.60347222222222e-01 2.46231778380292e+00 3.16254553223120e-02
2.61252777777778e-01 2.43877277691850e+00 3.13774763922757e-02
2.62158333333333e-01 2.41545291046161e+00 3.11312548622838e-02
2.63063888888889e-01 2.39235603167424e+00 3.08867811814287e-02
2.63969444444444e-01 2.36948000825522e+00 3.06440457867916e-02
2.64875000000000e-01 2.34682272841909e+00 3.04030391155013e-02
2.65780555555556e-01 2.32438210044892e+00 3.01637516092295e-02
2.66686111111111e-01 2.30215605275202e+00 2.99261737121324e-02
2.67591666666667e-01 2.28014253342323e+00 2.96902958752032e-02
2.68497222222222e-01 2.25833951029765e+00 2.94561085542339e-02
2.69402777777778e-01 2.23674497052415e+00 2.92236022259031e-02
2.70308333333333e-01 2.21535692055801e+00 2.89927673381571e-02
2.71213888888889e-01 2.19417338597378e+00 2.87635943851477e-02
2.72119444444444e-01 2.17319241111176e+00 2.85360738603509e-02
2.73025000000000e-01 2.15241205912498e+00 2.83101962673232e-02
2.73930555555556e-01 2.13183041157592e+00 2.80859521236224e-02
2.74836111111111e-01 2.11144556848084e+00 2.78633319588144e-02
2.75741666666667e-01 2.09125564791596e+00 2.76423263182802e-02
2.76647222222222e-01 2.07125878605919e+00 2.74229257612396e-02
2.77552777777778e-01 2.05145313680547e+00 2.72051208751597e-02
2.78458333333333e-01 2.03183687175521e+00 2.69889022307976e-02
2.79363888888889e-01 2.01240818004269e+00 2.67742604497895e-02
2.80269444444444e-01 1.99316526801650e+00 2.65611861621687e-02
2.81175000000000e-01 1.97410635927646e+00 2.63496700159653e-02
2.82080555555556e-01 1.95522969430980e+00 2.61397026806324e-02
2.82986111111111e-01 1.93653353052589e+00 2.59312748451281e-02
2.83891666666667e-01 1.91801614190083e+00 2.57243772212437e-02
2.84797222222222e-01 1.89967581901006e+00 2.55190005417038e-02
2.85702777777778e-01 1.88151086868116e+00 2.53151355730816e-02
