Energy (eV)          EEDF (eV^-(3/2))     First Anisotropy
4.67105263157895e-02 3.40294509126023e-02 2.06781736743024e-05
1.40131578947368e-01 3.37218923828481e-02 3.41058955489963e-05
2.33552631578947e-01 3.34171135704928e-02 4.49187389073344e-05
3.26973684210526e-01 3.31150893517282e-02 5.30697710712531e-05
4.20394736842105e-01 3.28157948306639e-02 5.98154276751868e-05
5.13815789473684e-01 3.25192053371327e-02 6.56322762642534e-05
6.07236842105263e-01 3.22252964223030e-02 7.07676930338861e-05
7.00657894736842e-01 3.19340438595834e-02 7.53715052394612e-05
7.94078947368421e-01 3.16454236403925e-02 7.95433722230764e-05
8.87500000000000e-01 3.13594119735972e-02 8.33539355216946e-05
9.80921052631579e-01 3.10759852834139e-02 8.68556382511710e-05
1.07434210526316e+00 3.07951202061970e-02 9.00888109954477e-05
1.16776315789474e+00 3.05167935911307e-02 9.30853455095503e-05
1.26118421052632e+00 3.02409824954259e-02 9.58710367644221e-05
1.35460526315789e+00 2.99676641816706e-02 9.84671415245550e-05
1.44802631578947e+00 2.96968161222524e-02 1.00891454984832e-04
1.54144736842105e+00 2.94284159908660e-02 1.03159076326854e-04
1.63486842105263e+00 2.91624416630433e-02 1.05282966363837e-04
1.72828947368421e+00 2.88988712127686e-02 1.07274363267000e-04
1.82171052631579e+00 2.86376829153813e-02 1.09143098907876e-04
1.91513157894737e+00 2.83788552408804e-02 1.10897843415082e-04
2.00855263157895e+00 2.81223668525960e-02 1.12546295633249e-04
2.10197368421053e+00 2.78681966093920e-02 1.14095335607090e-04
2.19539473684211e+00 2.76163235598061e-02 1.15551147057925e-04
2.28881578947368e+00 2.73667269417307e-02 1.16919316334585e-04
2.38223684210526e+00 2.71193861796800e-02 1.18204913633386e-04
2.47565789473684e+00 2.68742808862925e-02 1.19412560667120e-04
2.56907894736842e+00 2.66313908573465e-02 1.20546487160871e-04
2.66250000000000e+00 2.63906960712282e-02 1.21610577853738e-04
2.75592105263158e+00 2.61521766864217e-02 1.22608412321178e-04
2.84934210526316e+00 2.59158130425261e-02 1.23543299300567e-04
2.94276315789474e+00 2.56815856559068e-02 1.24418306131166e-04
3.03618421052632e+00 2.54494752190275e-02 1.25236283680213e-04
3.12960526315789e+00 2.52194625981246e-02 1.25999887964073e-04
3.22302631578947e+00 2.49915288338732e-02 1.26711599330185e-04
3.31644736842105e+00 2.47656551375239e-02 1.27373739246958e-04
3.40986842105263e+00 2.45418228901475e-02 1.27988484644715e-04
3.50328947368421e+00 2.43200136404636e-02 1.28557880585491e-04
3.59671052631579e+00 2.41002091052474e-02 1.29083851807190e-04
3.69013157894737e+00 2.38823911658506e-02 1.29568213076290e-04
3.78355263157895e+00 2.36665418668163e-02 1.30012677629677e-04
3.87697368421053e+00 2.34526434161407e-02 1.30418865477974e-04
3.97039473684211e+00 2.32406781820248e-02 1.30788310778044e-04
4.06381578947368e+00 2.30306286920239e-02 1.31122468114250e-04
4.15723684210526e+00 2.28224776311131e-02 1.31422718185924e-04
4.25065789473684e+00 2.26162078417842e-02 1.31690373243106e-04
4.34407894736842e+00 2.24118023210752e-02 1.31926682024644e-04
4.43750000000000e+00 2.22092442196970e-02 1.32132833924606e-04
4.53092105263158e+00 2.20085168402049e-02 1.32309962807773e-04
4.62434210526316e+00 2.18096036369682e-02 1.32459150763231e-04
4.71776315789474e+00 2.16124882134343e-02 1.32581431547004e-04
4.81118421052632e+00 2.14171543212439e-02 1.32677793441539e-04
4.90460526315789e+00 2.12235858584990e-02 1.32749181900912e-04
4.99802631578947e+00 2.10317668696318e-02 1.32796502235913e-04
5.09144736842105e+00 2.08416815428712e-02 1.32820622096928e-04
5.18486842105263e+00 2.06533142093554e-02 1.32822373492505e-04
5.27828947368421e+00 2.04666493414867e-02 1.32802554674008e-04
5.37171052631579e+00 2.02816715527219e-02 1.32761932115277e-04
5.46513157894737e+00 2.00983655952155e-02 1.32701242415376e-04
5.55855263157895e+00 1.99167163586076e-02 1.32621193520671e-04
5.65197368421053e+00 1.97367088697710e-02 1.32522466394497e-04
5.74539473684210e+00 1.95583282905673e-02 1.32405716518425e-04
5.83881578947368e+00 1.93815599169647e-02 1.32271575049104e-04
5.93223684210526e+00 1.92063891775333e-02 1.32120649914898e-04
6.02565789473684e+00 1.90328016331395e-02 1.31953527051735e-04
6.11907894736842e+00 1.88607829748454e-02 1.31770771566155e-04
6.21250000000000e+00 1.86903190230377e-02 1.31572928598589e-04
6.30592105263158e+00 1.85213957259925e-02 1.31360524148576e-04
6.39934210526316e+00 1.83539991595278e-02 1.31134066046676e-04
6.49276315789474e+00 1.81881155250326e-02 1.30894044873917e-04
6.58618421052632e+00 1.80237311486085e-02 1.30640934615407e-04
6.67960526315790e+00 1.78608324796996e-02 1.30375193290386e-04
6.77302631578947e+00 1.76994060907129e-02 1.30097263730777e-04
6.86644736842105e+00 1.75394386751633e-02 1.29807574321143e-04
6.95986842105263e+00 1.73809170468308e-02 1.29506539499625e-04
7.05328947368421e+00 1.72238281384514e-02 1.29194560244965e-04
7.14671052631579e+00 1.70681590013124e-02 1.28872024710438e-04
7.24013157894737e+00 1.69138968035029e-02 1.28539308872098e-04
7.33355263157895e+00 1.67610288288802e-02 1.28196776743397e-04
7.42697368421053e+00 1.66095424766520e-02 1.27844780972061e-04
7.52039473684211e+00 1.64594252596982e-02 1.27483663366069e-04
7.61381578947368e+00 1.63106648037570e-02 1.27113755214656e-04
7.70723684210526e+00 1.61632488462153e-02 1.26735377605514e-04
7.80065789473684e+00 1.60171652356764e-02 1.26348841883399e-04
7.89407894736842e+00 1.58724019303717e-02 1.25954450090633e-04
7.98750000000000e+00 1.57289469973665e-02 1.25552495218893e-04
8.08092105263158e+00 1.55867886114009e-02 1.25143261460494e-04
8.17434210526316e+00 1.54459150544474e-02 1.24727024595722e-04
8.26776315789474e+00 1.53063147142057e-02 1.24304052366068e-04
8.36118421052632e+00 1.51679760833277e-02 1.23874604672791e-04
8.45460526315789e+00 1.50308877583082e-02 1.23438933777264e-04
8.54802631578947e+00 1.48950384390334e-02 1.22997284631594e-04
8.64144736842105e+00 1.47604169273545e-02 1.22549895198217e-04
8.73486842105263e+00 1.46270121263318e-02 1.22096996607086e-04
8.82828947368421e+00 1.44948130391714e-02 1.21638813316202e-04
8.92171052631579e+00 1.43638087687699e-02 1.21175563396584e-04
9.01513157894737e+00 1.42339885163589e-02 1.20707458841071e-04
9.10855263157895e+00 1.41053415806291e-02 1.20234705558360e-04
9.20197368421053e+00 1.39778573572752e-02 1.19757503665455e-04
9.29539473684211e+00 1.38515253376889e-02 1.19276047737130e-04
9.38881578947368e+00 1.37263351082390e-02 1.18790526910344e-04
9.48223684210526e+00 1.36022763492826e-02 1.18301124993615e-04
9.57565789473684e+00 1.34793388347099e-02 1.17808020691732e-04
9.66907894736842e+00 1.33575124307008e-02 1.17311387824465e-04
9.76250000000000e+00 1.32367870950252e-02 1.16811395409397e-04
9.85592105263158e+00 1.31171528760940e-02 1.16308207750137e-04
9.94934210526316e+00 1.29985999125051e-02 1.15801984634289e-04
1.00427631578947e+01 1.28811184318601e-02 1.15292881582727e-04
1.01361842105263e+01 1.27646987498537e-02 1.14781049580152e-04
1.02296052631579e+01 1.26493312707332e-02 1.14266635895058e-04
1.03230263157895e+01 1.25350064835553e-02 1.13749783492073e-04
1.04164473684211e+01 1.24217149655590e-02 1.13230631500870e-04
1.05098684210526e+01 1.23094473769658e-02 1.12709315291967e-04
1.06032894736842e+01 1.21981944645501e-02 1.12185966533294e-04
1.06967105263158e+01 1.20879470566170e-02 1.11660713597906e-04
1.07901315789474e+01 1.19786960654173e-02 1.11133680595446e-04
1.08835526315789e+01 1.18704324863412e-02 1.10604989037699e-04
1.09769736842105e+01 1.17631473941494e-02 1.10074756907662e-04
1.10703947368421e+01 1.16568319462454e-02 1.09543098970939e-04
1.11638157894737e+01 1.15514773780118e-02 1.09010126909697e-04
1.12572368421053e+01 1.14470750059513e-02 1.08475949361021e-04
1.13506578947368e+01 1.13436162231770e-02 1.07940672043812e-04
1.14440789473684e+01 1.12410925024290e-02 1.07404397793171e-04
1.15375000000000e+01 1.11394953917117e-02 1.06867226680720e-04
1.16309210526316e+01 1.10388165171918e-02 1.06329256045433e-04
1.17243421052632e+01 1.09390475789773e-02 1.05790580607820e-04
1.18177631578947e+01 1.08401803539014e-02 1.05251292497527e-04
1.19111842105263e+01 1.07422066914378e-02 1.04711481361806e-04
1.20046052631579e+01 1.06451185163761e-02 1.04171234390171e-04
1.20980263157895e+01 1.05489078248670e-02 1.03630636417568e-04
1.21914473684211e+01 1.04535666869948e-02 1.03089769946327e-04
1.22848684210526e+01 1.03590872429474e-02 1.02548715244359e-04
1.23782894736842e+01 1.02654617054897e-02 1.02007550364684e-04
1.24717105263158e+01 1.01726823562543e-02 1.01466351437277e-04
1.25651315789474e+01 1.00807415473911e-02 1.00925191891508e-04
1.26585526315789e+01 9.98963170089566e-03 1.00384143731283e-04
1.27519736842105e+01 9.89934530580040e-03 9.98432767876482e-05
1.28453947368421e+01 9.80987492045072e-03 9.93026589418012e-05
1.29388157894737e+01 9.72121316904504e-03 9.87623562087720e-05
1.30322368421053e+01 9.63335274382549e-03 9.82224327494781e-05
1.31256578947368e+01 9.54628640172385e-03 9.76829509506546e-05
1.32190789473684e+01 9.46000696647014e-03 9.71439714353431e-05
1.33125000000000e+01 9.37450732534051e-03 9.66055531392929e-05
1.34059210526316e+01 9.28978043118729e-03 9.60677533199816e-05
1.34993421052632e+01 9.20581929928511e-03 9.55306276297199e-05
1.35927631578947e+01 9.12261700928558e-03 9.49942301233467e-05
1.36861842105263e+01 9.04016670215810e-03 9.44586133282034e-05
1.37796052631579e+01 8.95846158207237e-03 9.39238282506204e-05
1.38730263157895e+01 8.87749491343028e-03 9.33899244429293e-05
1.39664473684211e+01 8.79726002267944e-03 9.28569500088634e-05
1.40598684210526e+01 8.71775029543277e-03 9.23249516677781e-05
1.41532894736842e+01 8.63895917821583e-03 9.17939747590259e-05
1.42467105263158e+01 8.56088017567108e-03 9.12640634597379e-05
1.43401315789474e+01 8.48350685170430e-03 9.07352601622287e-05
1.44335526315789e+01 8.40683282892463e-03 9.02076064673328e-05
1.45269736842105e+01 8.33085178650895e-03 8.96811425856687e-05
1.46203947368421e+01 8.25555746181592e-03 8.91559075041124e-05
1.47138157894737e+01 8.18094364776870e-03 8.86319390417272e-05
1.48072368421053e+01 8.10700419441094e-03 8.81092738509097e-05
1.49006578947368e+01 8.03373300636499e-03 8.75879474711425e-05
1.49940789473684e+01 7.96112404433211e-03 8.70679943294724e-05
1.50875000000000e+01 7.88917132262359e-03 8.65494477921662e-05
1.51809210526316e+01 7.81786891060737e-03 8.60323401645964e-05
1.52743421052632e+01 7.74721093030958e-03 8.55167027409121e-05
1.53677631578947e+01 7.67719155780978e-03 8.50025658033797e-05
1.54611842105263e+01 7.60780502091042e-03 8.44899586701667e-05
1.55546052631579e+01 7.53904560048272e-03 8.39789096941836e-05
1.56480263157895e+01 7.47090762820180e-03 8.34694463090670e-05
1.57414473684211e+01 7.40338548784514e-03 8.29615950275719e-05
1.58348684210526e+01 7.33647361309117e-03 8.24553814858492e-05
1.59282894736842e+01 7.27016648877214e-03 8.19508304414102e-05
1.60217105263158e+01 7.20445864873407e-03 8.14479659397444e-05
1.61151315789474e+01 7.13934467664350e-03 8.09468108150079e-05
1.62085526315789e+01 7.07481920551942e-03 8.04473874727682e-05
1.63019736842105e+01 7.01087691608584e-03 7.99497174095325e-05
1.63953947368421e+01 6.94751253793206e-03 7.94538213401540e-05
1.64888157894737e+01 6.88472084750378e-03 7.89597192369569e-05
1.65822368421053e+01 6.82249666922312e-03 7.84674303263160e-05
1.66756578947368e+01 6.76083487353482e-03 7.79769731263939e-05
1.67690789473684e+01 6.69973037798756e-03 7.74883654434593e-05
1.68625000000000e+01 6.63917814533349e-03 7.70016244082917e-05
1.69559210526316e+01 6.57917318457226e-03 7.65167664722681e-05
1.70493421052632e+01 6.51971054910222e-03 7.60338074424917e-05
1.71427631578947e+01 6.46078533772859e-03 7.55527624776690e-05
1.72361842105263e+01 6.40239269286466e-03 7.50736461220319e-05
1.73296052631579e+01 6.34452780150537e-03 7.45964723010265e-05
1.74230263157895e+01 6.28718589347699e-03 7.41212543540584e-05
1.75164473684211e+01 6.23036224237746e-03 7.36480050300121e-05
1.76098684210526e+01 6.17405216387294e-03 7.31767365188987e-05
1.77032894736842e+01 6.11825101660616e-03 7.27074604472247e-05
1.77967105263158e+01 6.06295420053835e-03 7.22401880075422e-05
1.78901315789474e+01 6.00815715752198e-03 7.17749295568630e-05
1.79835526315789e+01 5.95385537090882e-03 7.13116952385574e-05
1.80769736842105e+01 5.90004436426455e-03 7.08504945956930e-05
1.81703947368421e+01 5.84671970221168e-03 7.03913366701508e-05
1.82638157894737e+01 5.79387698886967e-03 6.99342300308563e-05
1.83572368421053e+01 5.74151186866944e-03 6.94791827685994e-05
1.84506578947368e+01 5.68962002483462e-03 6.90262025233449e-05
1.85440789473684e+01 5.63819718016858e-03 6.85752964789769e-05
1.86375000000000e+01 5.58723909557554e-03 6.81264713897078e-05
1.87309210526316e+01 5.53674157082118e-03 6.76797335747691e-05
1.88243421052632e+01 5.48670044309239e-03 6.72350889439595e-05
1.89177631578947e+01 5.43711158773241e-03 6.67925429922759e-05
1.90111842105263e+01 5.38797091683800e-03 6.63521008246345e-05
1.91046052631579e+01 5.33927437997009e-03 6.59137671504626e-05
1.91980263157895e+01 5.29101796278729e-03 6.54775463076311e-05
1.92914473684211e+01 5.24319768773282e-03 6.50434422570063e-05
1.93848684210526e+01 5.19580961270330e-03 6.46114586056087e-05
1.94782894736842e+01 5.14884983171292e-03 6.41815986011519e-05
1.95717105263158e+01 5.10231447359632e-03 6.37538652339203e-05
1.96651315789474e+01 5.05619970241749e-03 6.33282609127807e-05
1.97585526315789e+01 5.01050171714132e-03 6.29047879623810e-05
1.98519736842105e+01 4.96521675062145e-03 6.24834483110497e-05
1.99453947368421e+01 4.92034107021753e-03 6.20642435687631e-05
2.00388157894737e+01 4.87587097657282e-03 6.16471750479689e-05
2.01322368421053e+01 4.83180280421109e-03 6.12322437579676e-05
2.02256578947368e+01 4.78813292034528e-03 6.08194504250867e-05
2.03190789473684e+01 4.74485772545481e-03 6.04087954870699e-05
2.04125000000000e+01 4.70197365212437e-03 6.00002791126326e-05
2.05059210526316e+01 4.65947716560223e-03 5.95939011958663e-05
2.05993421052632e+01 4.61736476266844e-03 5.91896613751823e-05
2.06927631578947e+01 4.57563297217476e-03 5.87875590277353e-05
2.07861842105263e+01 4.53427835394133e-03 5.83875932877946e-05
2.08796052631579e+01 4.49329749927898e-03 5.79897630411835e-05
2.09730263157895e+01 4.45268702991351e-03 5.75940669430867e-05
2.10664473684211e+01 4.41244359849100e-03 5.72005034125218e-05
2.11598684210526e+01 4.37256388752888e-03 5.68090706496131e-05
2.12532894736842e+01 4.33304460990483e-03 5.64197666300856e-05
2.13467105263158e+01 4.29388250783396e-03 5.60325891860379e-05
2.14401315789474e+01 4.25507435316169e-03 5.56475357437912e-05
2.15335526315789e+01 4.21661694708830e-03 5.52646037233660e-05
2.16269736842105e+01 4.17850711936598e-03 5.48837902858373e-05
2.17203947368421e+01 4.14074172875363e-03 5.45050923951581e-05
2.18138157894737e+01 4.10331766205160e-03 5.41285068337736e-05
2.19072368421053e+01 4.06623183454171e-03 5.37540301971579e-05
2.20006578947368e+01 4.02948118904587e-03 5.33816589089605e-05
2.20940789473684e+01 3.99306269635180e-03 5.30113892155899e-05
2.21875000000000e+01 3.95697335429481e-03 5.26432172009042e-05
2.22809210526316e+01 3.92121018816982e-03 5.22771387808500e-05
2.23743421052632e+01 3.88577024983555e-03 5.19131497177212e-05
2.24677631578947e+01 3.85065061811333e-03 5.15512456148393e-05
2.25611842105263e+01 3.81584839791315e-03 5.11914219303984e-05
2.26546052631579e+01 3.78136072061961e-03 5.08336739721943e-05
2.27480263157895e+01 3.74718474323928e-03 5.04779969110574e-05
2.28414473684211e+01 3.71331764877427e-03 5.01243857756420e-05
2.29348684210526e+01 3.67975664539024e-03 4.97728354654730e-05
2.30282894736842e+01 3.64649896677802e-03 4.94233407457764e-05
2.31217105263158e+01 3.61354187134175e-03 4.90758963119282e-05
2.32151315789474e+01 3.58088264240893e-03 4.87304965767704e-05
2.33085526315789e+01 3.54851858799929e-03 4.83871359928382e-05
2.34019736842105e+01 3.51644704018382e-03 4.80458088473114e-05
2.34953947368421e+01 3.48466535542146e-03 4.77065093113538e-05
2.35888157894737e+01 3.45317091379200e-03 4.73692314519514e-05
2.36822368421053e+01 3.42196111932196e-03 4.70339692268752e-05
2.37756578947368e+01 3.39103339923603e-03 4.67007164961779e-05
2.38690789473684e+01 3.36038520427241e-03 4.63694670172194e-05
2.39625000000000e+01 3.33001400795228e-03 4.60402144558359e-05
2.40559210526316e+01 3.29991730688504e-03 4.57129523814264e-05
2.41493421052632e+01 3.27009262005523e-03 4.53876742777976e-05
2.42427631578947e+01 3.24053748911807e-03 4.50643735383132e-05
2.43361842105263e+01 3.21124947770334e-03 4.47430434764311e-05
2.44296052631579e+01 3.18222617170155e-03 4.44236773209092e-05
2.45230263157895e+01 3.15346517858433e-03 4.41062682260505e-05
2.46164473684211e+01 3.12496412768152e-03 4.37908092669660e-05
2.47098684210526e+01 3.09672066951765e-03 4.34772934495257e-05
2.48032894736842e+01 3.06873247608027e-03 4.31657137056895e-05
2.48967105263158e+01 3.04099724017208e-03 4.28560629451750e-05
2.49901315789474e+01 3.01351267556137e-03 4.25483338824835e-05
2.50835526315789e+01 2.98627651678798e-03 4.22425192976919e-05
2.51769736842105e+01 2.95928651864902e-03 4.19386118696354e-05
2.52703947368421e+01 2.93254045644891e-03 4.16366042154679e-05
2.53638157894737e+01 2.90603612538658e-03 4.13364888997195e-05
2.54572368421053e+01 2.87977134079751e-03 4.10382584297859e-05
2.55506578947368e+01 2.85374393755540e-03 4.07419052647344e-05
2.56440789473684e+01 2.82795177030650e-03 4.04474218108566e-05
2.57375000000000e+01 2.80239271288530e-03 4.01548004302251e-05
2.58309210526316e+01 2.77706465854152e-03 3.98640334363139e-05
2.59243421052632e+01 2.75196551936934e-03 3.95751131023160e-05
2.60177631578947e+01 2.72709322652728e-03 3.92880316568158e-05
2.61111842105263e+01 2.70244572968077e-03 3.90027812918890e-05
2.62046052631579e+01 2.67802099721502e-03 3.87193541588317e-05
2.62980263157895e+01 2.65381701569058e-03 3.84377423760346e-05
2.63914473684211e+01 2.62983179004952e-03 3.81579380247774e-05
2.64848684210526e+01 2.60606334308359e-03 3.78799331568818e-05
2.65782894736842e+01 2.58250971563392e-03 3.76037197905671e-05
2.66717105263158e+01 2.55916896607149e-03 3.73292899520409e-05
2.67651315789474e+01 2.53603917040457e-03 3.70566355345216e-05
2.68585526315789e+01 2.51311842211577e-03 3.67857485098966e-05
2.69519736842105e+01 2.49040483174760e-03 3.65166207927179e-05
2.70453947368421e+01 2.46789652708856e-03 3.62492442720457e-05
2.71388157894737e+01 2.44559165268129e-03 3.59836108184284e-05
2.72322368421053e+01 2.42348837000289e-03 3.57197122799330e-05
2.73256578947368e+01 2.40158485698435e-03 3.54575404889301e-05
2.74190789473684e+01 2.37987930818515e-03 3.51970872581838e-05
2.75125000000000e+01 2.35836993432380e-03 3.49383443874611e-05
2.76059210526316e+01 2.33705496244689e-03 3.46813036596742e-05
2.76993421052632e+01 2.31593263547045e-03 3.44259568473078e-05
2.77927631578947e+01 2.29500121234364e-03 3.41722957086238e-05
2.78861842105263e+01 2.27425896760056e-03 3.39203119939089e-05
2.79796052631579e+01 2.25370419151891e-03 3.36699974417420e-05
2.80730263157895e+01 2.23333518968195e-03 3.34213437850795e-05
2.81664473684211e+01 2.21315028313215e-03 3.31743427475662e-05
2.82598684210526e+01 2.19314780794319e-03 3.29289860494585e-05
2.83532894736842e+01 2.17332611536876e-03 3.26852654040027e-05
2.84467105263158e+01 2.15368357142431e-03 3.24431725510191e-05
2.85401315789474e+01 2.13421855696329e-03 3.22026991417717e-05
2.86335526315789e+01 2.11492946754034e-03 3.19638369111731e-05
2.87269736842105e+01 2.09581471307596e-03 3.17265775666871e-05
2.88203947368421e+01 2.07687271799524e-03 3.14909128140407e-05
2.89138157894737e+01 2.05810192083157e-03 3.12568343626344e-05
2.90072368421053e+01 2.03950077436101e-03 3.10243339220842e-05
2.91006578947368e+01 2.02106774521496e-03 3.07934032074829e-05
2.91940789473684e+01 2.00280131401028e-03 3.05640339359956e-05
2.92875000000000e+01 1.98469997497078e-03 3.03362178319818e-05
2.93809210526316e+01 1.96676223605318e-03 3.01099466236475e-05
2.94743421052632e+01 1.94898661857715e-03 2.98852120480319e-05
