Energy (eV)          EEDF (eV^-(3/2))     First Anisotropy
1.40740740740741e-02 1.21727222056113e-01 6.20454472065235e-05
4.22222222222222e-02 1.20951557129684e-01 1.02472733234109e-04
7.03703703703704e-02 1.20180834860951e-01 1.35323484955060e-04
9.85185185185185e-02 1.19415023755681e-01 1.60309621683523e-04
1.26666666666667e-01 1.18654092515050e-01 1.81172527781277e-04
1.54814814814815e-01 1.17898010049237e-01 1.99325725828513e-04
1.82962962962963e-01 1.17146745460405e-01 2.15500202036565e-04
2.11111111111111e-01 1.16400268047906e-01 2.30137074565108e-04
2.39259259259259e-01 1.15658547306841e-01 2.43528702221830e-04
2.67407407407407e-01 1.14921552926861e-01 2.55881578621330e-04
2.95555555555556e-01 1.14189254790786e-01 2.67348458344848e-04
3.23703703703704e-01 1.13461622971065e-01 2.78046402110865e-04
3.51851851851852e-01 1.12738627735704e-01 2.88067654341167e-04
3.80000000000000e-01 1.12020239539587e-01 2.97486567591638e-04
4.08148148148148e-01 1.11306429025868e-01 3.06364206043340e-04
4.36296296296296e-01 1.10597167024785e-01 3.14751518753657e-04
4.64444444444444e-01 1.09892424552471e-01 3.22691592848376e-04
4.92592592592593e-01 1.09192172808308e-01 3.30221293862563e-04
5.20740740740741e-01 1.08496383178206e-01 3.37372487451226e-04
5.48888888888889e-01 1.07805027228847e-01 3.44172966257999e-04
5.77037037037037e-01 1.07118076708096e-01 3.50647164067953e-04
6.05185185185185e-01 1.06435503543841e-01 3.56816715446996e-04
6.33333333333333e-01 1.05757279842860e-01 3.62700899502408e-04
6.61481481481481e-01 1.05083377889677e-01 3.68316996193074e-04
6.89629629629630e-01 1.04413770144446e-01 3.73680574862790e-04
7.17777777777778e-01 1.03748429244824e-01 3.78805731201477e-04
7.45925925925926e-01 1.03087328001787e-01 3.83705283115817e-04
7.74074074074074e-01 1.02430439399566e-01 3.88390933268831e-04
8.02222222222222e-01 1.01777736594535e-01 3.92873405998053e-04
8.30370370370370e-01 1.01129192914131e-01 3.97162562911188e-04
8.58518518518518e-01 1.00484781855750e-01 4.01267501316882e-04
8.86666666666667e-01 9.98444770849454e-02 4.05196637995883e-04
9.14814814814815e-01 9.92082524365596e-02 4.08957781793151e-04
9.42962962962963e-01 9.85760819114045e-02 4.12558196415721e-04
9.71111111111111e-01 9.79479396759628e-02 4.16004654443611e-04
9.99259259259259e-01 9.73238000613315e-02 4.19303484592097e-04
1.02740740740741e+00 9.67036375639599e-02 4.22460614392965e-04
1.05555555555556e+00 9.60874268380385e-02 4.25481605776816e-04
1.08370370370370e+00 9.54751427023238e-02 4.28371686789500e-04
1.11185185185185e+00 9.48667601360035e-02 4.31135781552981e-04
1.14000000000000e+00 9.42622542777316e-02 4.33778534299624e-04
1.16814814814815e+00 9.36616004297546e-02 4.36304334905061e-04
1.19629629629630e+00 9.30647740412154e-02 4.38717337345405e-04
1.22444444444444e+00 9.24717507229988e-02 4.41021476066063e-04
1.25259259259259e+00 9.18825062413731e-02 4.43220485246303e-04
1.28074074074074e+00 9.12970165170449e-02 4.45317911816257e-04
1.30888888888889e+00 9.07152576286168e-02 4.47317131416819e-04
1.33703703703704e+00 9.01372057981092e-02 4.49221358839495e-04
1.36518518518519e+00 8.95628374036130e-02 4.51033657346546e-04
1.39333333333333e+00 8.89921289737296e-02 4.52756951319359e-04
1.42148148148148e+00 8.84250571866179e-02 4.54394034556722e-04
1.44962962962963e+00 8.78615988690596e-02 4.55947577900065e-04
1.47777777777778e+00 8.73017309993025e-02 4.57420139233790e-04
1.50592592592593e+00 8.67454306946033e-02 4.58814168984149e-04
1.53407407407407e+00 8.61926752219131e-02 4.60132015043291e-04
1.56222222222222e+00 8.56434419930216e-02 4.61375931087865e-04
1.59037037037037e+00 8.50977085636718e-02 4.62548080588972e-04
1.61851851851852e+00 8.45554526359777e-02 4.63650544041985e-04
1.64666666666667e+00 8.40166520473650e-02 4.64685322240225e-04
1.67481481481481e+00 8.34812847799003e-02 4.65654339196549e-04
1.70296296296296e+00 8.29493289559420e-02 4.66559448362095e-04
1.73111111111111e+00 8.24207628372587e-02 4.67402435656231e-04
1.75925925925926e+00 8.18955648241430e-02 4.68185022320481e-04
1.78740740740741e+00 8.13737134574509e-02 4.68908870137241e-04
1.81555555555556e+00 8.08551874088703e-02 4.69575583157938e-04
1.84370370370370e+00 8.03399654889739e-02 4.70186709219930e-04
1.87185185185185e+00 7.98280266433493e-02 4.70743744591332e-04
1.90000000000000e+00 7.93193499517545e-02 4.71248135184402e-04
1.92814814814815e+00 7.88139146298764e-02 4.71701280709425e-04
1.95629629629630e+00 7.83117000205525e-02 4.72104535636219e-04
1.98444444444444e+00 7.78126856009176e-02 4.72459210014804e-04
2.01259259259259e+00 7.73168509788730e-02 4.72766573254589e-04
2.04074074074074e+00 7.68241758922671e-02 4.73027854750978e-04
2.06888888888889e+00 7.63346402104252e-02 4.73244247296536e-04
2.09703703703704e+00 7.58482239261853e-02 4.73416907550721e-04
2.12518518518519e+00 7.53649071622745e-02 4.73546956408744e-04
2.15333333333333e+00 7.48846701680768e-02 4.73635482165426e-04
2.18148148148148e+00 7.44074933188285e-02 4.73683541286873e-04
2.20962962962963e+00 7.39333571148221e-02 4.73692159170327e-04
2.23777777777778e+00 7.34622421827098e-02 4.73662332933757e-04
2.26592592592593e+00 7.29941292683507e-02 4.73595031507773e-04
2.29407407407407e+00 7.25289992424318e-02 4.73491195660298e-04
2.32222222222222e+00 7.20668330975279e-02 4.73351740630037e-04
2.35037037037037e+00 7.16076119473386e-02 4.73177556078801e-04
2.37851851851852e+00 7.11513170278238e-02 4.72969508503947e-04
2.40666666666667e+00 7.06979296906529e-02 4.72728441132330e-04
2.43481481481481e+00 7.02474314082686e-02 4.72455173763837e-04
2.46296296296296e+00 6.97998037711698e-02 4.72150505076058e-04
2.49111111111111e+00 6.93550284871648e-02 4.71815212882232e-04
2.51925925925926e+00 6.89130873806246e-02 4.71450054403953e-04
2.54740740740741e+00 6.84739623934602e-02 4.71055768341444e-04
2.57555555555556e+00 6.80376355791812e-02 4.70633074613890e-04
2.60370370370370e+00 6.76040891074016e-02 4.70182674061113e-04
2.63185185185185e+00 6.71733052613501e-02 4.69705250446388e-04
2.66000000000000e+00 6.67452664371530e-02 4.69201470134643e-04
2.68814814814815e+00 6.63199551446896e-02 4.68671983941913e-04
2.71629629629630e+00 6.58973540021097e-02 4.68117426794942e-04
2.74444444444444e+00 6.54774457399232e-02 4.67538417361316e-04
2.77259259259259e+00 6.50602131986805e-02 4.66935559850958e-04
2.80074074074074e+00 6.46456393282769e-02 4.66309443632290e-04
2.82888888888889e+00 6.42337071887049e-02 4.65660644900685e-04
2.85703703703704e+00 6.38243999449803e-02 4.64989726286893e-04
2.88518518518519e+00 6.34177008708641e-02 4.64297236440385e-04
2.91333333333333e+00 6.30135933466980e-02 4.63583711665890e-04
2.94148148148148e+00 6.26120608587258e-02 4.62849675882839e-04
2.96962962962963e+00 6.22130869984214e-02 4.62095640609551e-04
2.99777777777778e+00 6.18166554631355e-02 4.61322106456506e-04
3.02592592592593e+00 6.14227500514458e-02 4.60529562695751e-04
3.05407407407407e+00 6.10313546665047e-02 4.59718486810966e-04
3.08222222222222e+00 6.06424533140327e-02 4.58889345970383e-04
3.11037037037037e+00 6.02560301016714e-02 4.58042596577113e-04
3.13851851851852e+00 5.98720692395496e-02 4.57178685640356e-04
3.16666666666667e+00 5.94905550359583e-02 4.56298050328532e-04
3.19481481481481e+00 5.91114719004129e-02 4.55401117506051e-04
3.22296296296296e+00 5.87348043417720e-02 4.54488305091301e-04
3.25111111111111e+00 5.83605369676065e-02 4.53560021936218e-04
3.27925925925926e+00 5.79886544835713e-02 4.52616667730684e-04
3.30740740740741e+00 5.76191416938935e-02 4.51658634249523e-04
3.33555555555556e+00 5.72519834973871e-02 4.50686304897342e-04
3.36370370370370e+00 5.68871648902211e-02 4.49700054238537e-04
3.39185185185185e+00 5.65246709641697e-02 4.48700249238196e-04
3.42000000000000e+00 5.61644869060064e-02 4.47687248799483e-04
3.44814814814815e+00 5.58065979979308e-02 4.46661404921655e-04
3.47629629629630e+00 5.54509896138459e-02 4.45623062245050e-04
3.50444444444444e+00 5.50976472219011e-02 4.44572557584041e-04
3.53259259259259e+00 5.47465563828429e-02 4.43510221081808e-04
3.56074074074074e+00 5.43977027494287e-02 4.42436375750984e-04
3.58888888888889e+00 5.40510720667999e-02 4.41351338552607e-04
3.61703703703704e+00 5.37066501689981e-02 4.40255419946445e-04
3.64518518518519e+00 5.33644229813054e-02 4.39148923429874e-04
3.67333333333333e+00 5.30243765186893e-02 4.38032146616898e-04
3.70148148148148e+00 5.26864968852317e-02 4.36905381072733e-04
3.72962962962963e+00 5.23507702735625e-02 4.35768912171260e-04
3.75777777777778e+00 5.20171829651783e-02 4.34623020091782e-04
3.78592592592593e+00 5.16857213272135e-02 4.33467979377735e-04
3.81407407407407e+00 5.13563718145674e-02 4.32304058485919e-04
3.84222222222222e+00 5.10291209684494e-02 4.31131520785086e-04
3.87037037037037e+00 5.07039554158318e-02 4.29950624114588e-04
3.89851851851852e+00 5.03808618697268e-02 4.28761621719883e-04
3.92666666666667e+00 5.00598271261542e-02 4.27564761821448e-04
3.95481481481481e+00 4.97408380661058e-02 4.26360287175130e-04
3.98296296296296e+00 4.94238816541688e-02 4.25148436010761e-04
4.01111111111111e+00 4.91089449379944e-02 4.23929441859247e-04
4.03925925925926e+00 4.87960150477686e-02 4.22703533400724e-04
4.06740740740741e+00 4.84850791964475e-02 4.21470935333973e-04
4.09555555555556e+00 4.81761246769363e-02 4.20231867958797e-04
4.12370370370370e+00 4.78691388638817e-02 4.18986546750327e-04
4.15185185185185e+00 4.75641092123803e-02 4.17735183233406e-04
4.18000000000000e+00 4.72610232574679e-02 4.16477984567054e-04
4.20814814814815e+00 4.69598686143209e-02 4.15215154364341e-04
4.23629629629630e+00 4.66606329756015e-02 4.13946892287303e-04
4.26444444444444e+00 4.63633041131164e-02 4.12673393634740e-04
4.29259259259259e+00 4.60678698765908e-02 4.11394850167051e-04
4.32074074074074e+00 4.57743181931745e-02 4.10111449703721e-04
4.34888888888889e+00 4.54826370676143e-02 4.08823376897344e-04
4.37703703703704e+00 4.51928145797515e-02 4.07530812841782e-04
4.40518518518518e+00 4.49048388860585e-02 4.06233934673440e-04
4.43333333333333e+00 4.46186982184763e-02 4.04932916351159e-04
4.46148148148148e+00 4.43343808839333e-02 4.03627928487069e-04
4.48962962962963e+00 4.40518752638689e-02 4.02319138195701e-04
4.51777777777778e+00 4.37711698143759e-02 4.01006709818527e-04
4.54592592592593e+00 4.34922530638630e-02 3.99690804547230e-04
4.57407407407407e+00 4.32151136144631e-02 3.98371580041022e-04
4.60222222222222e+00 4.29397401409368e-02 3.97049191157154e-04
4.63037037037037e+00 4.26661213902121e-02 3.95723789577563e-04
4.65851851851852e+00 4.23942461815034e-02 3.94395524495387e-04
4.68666666666667e+00 4.21241034041039e-02 3.93064542251485e-04
4.71481481481481e+00 4.18556820186926e-02 3.91730985965399e-04
4.74296296296296e+00 4.15889710562921e-02 3.90394996227905e-04
4.77111111111111e+00 4.13239596178212e-02 3.89056710939546e-04
4.79925925925926e+00 4.10606368736498e-02 3.87716265165602e-04
4.82740740740741e+00 4.07989920636951e-02 3.86373791780391e-04
4.85555555555556e+00 4.05390144953547e-02 3.85029421119282e-04
4.88370370370370e+00 4.02806935447062e-02 3.83683280625136e-04
4.91185185185185e+00 4.00240186555237e-02 3.82335495499273e-04
4.94000000000000e+00 3.97689793388481e-02 3.80986188357080e-04
4.96814814814815e+00 3.95155651730647e-02 3.79635479840043e-04
4.99629629629630e+00 3.92637658019472e-02 3.78283488280532e-04
5.02444444444444e+00 3.90135709357731e-02 3.76930329361671e-04
5.05259259259259e+00 3.87649703503873e-02 3.75576116735577e-04
5.08074074074074e+00 3.85179538867848e-02 3.74220961691768e-04
5.10888888888889e+00 3.82725114511731e-02 3.72864973738711e-04
5.13703703703704e+00 3.80286330131189e-02 3.71508260281377e-04
5.16518518518519e+00 3.77863086065870e-02 3.70150926293875e-04
5.19333333333333e+00 3.75455283290467e-02 3.68793074907510e-04
5.22148148148148e+00 3.73062823410678e-02 3.67434807262970e-04
5.24962962962963e+00 3.70685608659190e-02 3.66076222376508e-04
5.27777777777778e+00 3.68323541896127e-02 3.64717417688041e-04
5.30592592592593e+00 3.65976526591656e-02 3.63358488752924e-04
5.33407407407407e+00 3.63644466835545e-02 3.61999528929256e-04
5.36222222222222e+00 3.61327267328709e-02 3.60640629932167e-04
5.39037037037037e+00 3.59024833379330e-02 3.59281881529166e-04
5.41851851851852e+00 3.56737070903178e-02 3.57923372061945e-04
5.44666666666667e+00 3.54463886407106e-02 3.56565188150038e-04
5.47481481481482e+00 3.52205186997960e-02 3.55207414390203e-04
5.50296296296296e+00 3.49960880374510e-02 3.53850133884429e-04
5.53111111111111e+00 3.47730874823686e-02 3.52493428102171e-04
5.55925925925926e+00 3.45515079216831e-02 3.51137376755183e-04
5.58740740740741e+00 3.43313403009891e-02 3.49782058290121e-04
5.61555555555556e+00 3.41125756227897e-02 3.48427549605608e-04
5.64370370370370e+00 3.38952049473169e-02 3.47073925765171e-04
5.67185185185185e+00 3.36792193917683e-02 3.45721260495957e-04
5.70000000000000e+00 3.34646101299443e-02 3.44369625909279e-04
5.72814814814815e+00 3.32513683922573e-02 3.43019092970222e-04
5.75629629629630e+00 3.30394854642572e-02 3.41669731225692e-04
5.78444444444444e+00 3.28289526873972e-02 3.40321608528813e-04
5.81259259259259e+00 3.26197614583039e-02 3.38974791514308e-04
5.84074074074074e+00 3.24119032284263e-02 3.37629345329894e-04
5.86888888888889e+00 3.22053695040354e-02 3.36285334084188e-04
5.89703703703704e+00 3.20001518448234e-02 3.34942820585427e-04
5.92518518518519e+00 3.17962418646181e-02 3.33601866076643e-04
5.95333333333333e+00 3.15936312306854e-02 3.32262530689436e-04
5.98148148148148e+00 3.13923116633883e-02 3.30924873320393e-04
6.00962962962963e+00 3.11922749358493e-02 3.29588951518541e-04
6.03777777777778e+00 3.09935128739414e-02 3.28254821909187e-04
6.06592592592593e+00 3.07960173549661e-02 3.26922539944527e-04
6.09407407407407e+00 3.05997803083149e-02 3.25592159651012e-04
6.12222222222222e+00 3.04047937148058e-02 3.24263734058647e-04
6.15037037037037e+00 3.02110496063569e-02 3.22937314954788e-04
6.17851851851852e+00 3.00185400659696e-02 3.21612953288942e-04
6.20666666666667e+00 2.98272572264715e-02 3.20290698933168e-04
6.23481481481481e+00 2.96371932711336e-02 3.18970600439369e-04
6.26296296296296e+00 2.94483404330360e-02 3.17652705449396e-04
6.29111111111111e+00 2.92606909947511e-02 3.16337060580953e-04
6.31925925925926e+00 2.90742372880280e-02 3.15023711323290e-04
6.34740740740741e+00 2.88889716937691e-02 3.13712702420526e-04
6.37555555555556e+00 2.87048866408440e-02 3.12404077643219e-04
6.40370370370370e+00 2.85219746066594e-02 3.11097879556635e-04
6.43185185185185e+00 2.83402281165570e-02 3.09794149909423e-04
6.46000000000000e+00 2.81596397435084e-02 3.08492929408047e-04
6.48814814814815e+00 2.79802021080863e-02 3.07194258083196e-04
6.51629629629630e+00 2.78019078773339e-02 3.05898175070273e-04
6.54444444444444e+00 2.76247497652986e-02 3.04604718386940e-04
6.57259259259259e+00 2.74487205324548e-02 3.03313925304536e-04
6.60074074074074e+00 2.72738129854085e-02 3.02025832131393e-04
6.62888888888889e+00 2.71000199768634e-02 3.00740474563089e-04
6.65703703703704e+00 2.69273344045439e-02 2.99457887471586e-04
6.68518518518519e+00 2.67557492116938e-02 2.98178104691607e-04
6.71333333333333e+00 2.65852573865237e-02 2.96901159375821e-04
6.74148148148148e+00 2.64158519619242e-02 2.95627083893376e-04
6.76962962962963e+00 2.62475260151817e-02 2.94355909736914e-04
6.79777777777778e+00 2.60802726679396e-02 2.93087667854867e-04
6.82592592592593e+00 2.59140850851802e-02 2.91822388450247e-04
6.85407407407407e+00 2.57489564756860e-02 2.90560100776859e-04
6.88222222222222e+00 2.55848800915143e-02 2.89300833476320e-04
6.91037037037037e+00 2.54218492277213e-02 2.88044614379388e-04
6.93851851851852e+00 2.52598572223202e-02 2.86791470824059e-04
6.96666666666667e+00 2.50988974553095e-02 2.85541429462228e-04
6.99481481481481e+00 2.49389633491054e-02 2.84294516063894e-04
7.02296296296296e+00 2.47800483680371e-02 2.83050755839701e-04
7.05111111111111e+00 2.46221460180805e-02 2.81810173347409e-04
7.07925925925926e+00 2.44652498465924e-02 2.80572792406108e-04
7.10740740740741e+00 2.43093534422647e-02 2.79338636398072e-04
7.13555555555556e+00 2.41544504342054e-02 2.78107728084390e-04
7.16370370370370e+00 2.40005344923386e-02 2.76880089418087e-04
7.19185185185185e+00 2.38475993269245e-02 2.75655741850429e-04
7.22000000000000e+00 2.36956386883027e-02 2.74434706148911e-04
7.24814814814815e+00 2.35446463668437e-02 2.73217002686347e-04
7.27629629629630e+00 2.33946161920706e-02 2.72002651263685e-04
7.30444444444444e+00 2.32455420330348e-02 2.70791670930495e-04
7.33259259259259e+00 2.30974177978550e-02 2.69584080278249e-04
7.36074074074074e+00 2.29502374334682e-02 2.68379897265385e-04
7.38888888888889e+00 2.28039949255792e-02 2.67179139494161e-04
7.41703703703704e+00 2.26586842978219e-02 2.65981824040415e-04
7.44518518518518e+00 2.25142996121108e-02 2.64787967281077e-04
7.47333333333333e+00 2.23708349681988e-02 2.63597585175123e-04
7.50148148148148e+00 2.22282845034360e-02 2.62410693180629e-04
7.52962962962963e+00 2.20866423925305e-02 2.61227306178468e-04
7.55777777777778e+00 2.19459028474948e-02 2.60047438735461e-04
7.58592592592593e+00 2.18060601168518e-02 2.58871104941872e-04
7.61407407407407e+00 2.16671084859605e-02 2.57698318246865e-04
7.64222222222222e+00 2.15290422765941e-02 2.56529091725514e-04
7.67037037037037e+00 2.13918558467086e-02 2.55363437918333e-04
7.69851851851852e+00 2.12555435903879e-02 2.54201369083568e-04
7.72666666666667e+00 2.11200999370843e-02 2.53042897040973e-04
7.75481481481481e+00 2.09855193519239e-02 2.51888033013631e-04
7.78296296296296e+00 2.08517963353020e-02 2.50736787883916e-04
7.81111111111111e+00 2.07189254226579e-02 2.49589172117125e-04
7.83925925925926e+00 2.05869011842523e-02 2.48445195691185e-04
7.86740740740741e+00 2.04557182251106e-02 2.47304868336424e-04
7.89555555555556e+00 2.03253711843030e-02 2.46168199386555e-04
7.92370370370370e+00 2.01958547352275e-02 2.45035197627702e-04
7.95185185185185e+00 2.00671635852239e-02 2.43905871541816e-04
7.98000000000000e+00 1.99392924753579e-02 2.42780229159529e-04
8.00814814814815e+00 1.98122361803634e-02 2.41658278290124e-04
8.03629629629630e+00 1.96859895079540e-02 2.40540026378255e-04
8.06444444444444e+00 1.95605472990883e-02 2.39425480358817e-04
8.09259259259259e+00 1.94359044275991e-02 2.38314646890386e-04
8.12074074074074e+00 1.93120557999840e-02 2.37207532213730e-04
8.14888888888889e+00 1.91889963553469e-02 2.36104142372240e-04
8.17703703703704e+00 1.90667210647397e-02 2.35004483074296e-04
8.20518518518518e+00 1.89452249314105e-02 2.33908559553752e-04
8.23333333333333e+00 1.88245029904477e-02 2.32816376793785e-04
8.26148148148148e+00 1.87045503085767e-02 2.31727939459203e-04
8.28962962962963e+00 1.85853619839584e-02 2.30643251834007e-04
8.31777777777778e+00 1.84669331461308e-02 2.29562318031253e-04
8.34592592592593e+00 1.83492589553828e-02 2.28485141861588e-04
8.37407407407407e+00 1.82323346029856e-02 2.27411726700080e-04
8.40222222222222e+00 1.81161553108521e-02 2.26342075699260e-04
8.43037037037037e+00 1.80007163313420e-02 2.25276191659281e-04
8.45851851851852e+00 1.78860129472026e-02 2.24214077229267e-04
8.48666666666667e+00 1.77720404709694e-02 2.23155734780888e-04
8.51481481481481e+00 1.76587942451835e-02 2.22101166280356e-04
8.54296296296296e+00 1.75462696420634e-02 2.21050373492827e-04
8.57111111111111e+00 1.74344620633170e-02 2.20003357920064e-04
8.59925925925926e+00 1.73233669399532e-02 2.18960120743020e-04
8.62740740740741e+00 1.72129797322221e-02 2.17920663013435e-04
8.65555555555556e+00 1.71032959290467e-02 2.16884985533173e-04
8.68370370370370e+00 1.69943110482235e-02 2.15853088731974e-04
8.71185185185185e+00 1.68860206361100e-02 2.14824972862084e-04
8.74000000000000e+00 1.67784202674433e-02 2.13800637879109e-04
8.76814814814815e+00 1.66715055452800e-02 2.12780083625967e-04
8.79629629629630e+00 1.65652721004515e-02 2.11763309716815e-04
8.82444444444444e+00 1.64597155917522e-02 2.10750315419527e-04
8.85259259259259e+00 1.63548317056395e-02 2.09741099842467e-04
8.88074074074074e+00 1.62506161560572e-02 2.08735661819883e-04
