Energy (eV)          EEDF (eV^-(3/2))     First Anisotropy
2.13636363636364e-03 2.80801811520471e+00 1.55297559391431e-03
6.40909090909091e-03 2.78601349733185e+00 2.56297253424952e-03
1.06818181818182e-02 2.76418131536065e+00 3.37962382857912e-03
1.49545454545455e-02 2.74252021809023e+00 3.99773807832944e-03
1.92272727272727e-02 2.72102886476210e+00 4.51135132707253e-03
2.35000000000000e-02 2.69970592521264e+00 4.95606756495464e-03
2.77727272727273e-02 2.67855007978540e+00 5.35033658550250e-03
3.20454545454545e-02 2.65756001898621e+00 5.70531423090648e-03
3.63181818181818e-02 2.63673444367119e+00 6.02840877898054e-03
4.05909090909091e-02 2.61607206487760e+00 6.32486293882469e-03
4.48636363636364e-02 2.59557160379061e+00 6.59856256959407e-03
4.91363636363636e-02 2.57523179151772e+00 6.85249129965862e-03
5.34090909090909e-02 2.55505136915898e+00 7.08900475307947e-03
5.76818181818182e-02 2.53502908771537e+00 7.31000527271470e-03
6.19545454545455e-02 2.51516370790423e+00 7.51705816968570e-03
6.62272727272727e-02 2.49545400019018e+00 7.71147189933480e-03
7.05000000000000e-02 2.47589874467257e+00 7.89435504474130e-03
7.47727272727273e-02 2.45649673103640e+00 8.06665784872445e-03
7.90454545454545e-02 2.43724675839842e+00 8.22920314335713e-03
8.33181818181818e-02 2.41814763531236e+00 8.38270982989173e-03
8.75909090909091e-02 2.39919817966862e+00 8.52781101355080e-03
9.18636363636364e-02 2.38039721864136e+00 8.66506821064527e-03
9.61363636363636e-02 2.36174358855412e+00 8.79498261877168e-03
1.00409090909091e-01 2.34323613487000e+00 8.91800417682912e-03
1.04681818181818e-01 2.32487371202965e+00 9.03453889415295e-03
1.08954545454545e-01 2.30665518364442e+00 9.14495490520337e-03
1.13227272727273e-01 2.28857942210130e+00 9.24958747120765e-03
1.17500000000000e-01 2.27064530862368e+00 9.34874311672659e-03
1.21772727272727e-01 2.25285173306401e+00 9.44270308374367e-03
1.26045454545455e-01 2.23519759426276e+00 9.53172632229257e-03
1.30318181818182e-01 2.21768179953993e+00 9.61605203994230e-03
1.34590909090909e-01 2.20030326477927e+00 9.69590181561089e-03
1.38863636363636e-01 2.18306091424253e+00 9.77148142430200e-03
1.43136363636364e-01 2.16595368086430e+00 9.84298247432349e-03
1.47409090909091e-01 2.14898050581514e+00 9.91058384893407e-03
1.51681818181818e-01 2.13214033845803e+00 9.97445283047871e-03
1.55954545454545e-01 2.11543213660762e+00 1.00347462173885e-02
1.60227272727273e-01 2.09885486613325e+00 1.00916112958232e-02
1.64500000000000e-01 2.08240750100802e+00 1.01451866389464e-02
1.68772727272727e-01 2.06608902315378e+00 1.01956028199863e-02
1.73045454545455e-01 2.04989842265937e+00 1.02429830979115e-02
1.77318181818182e-01 2.03383469743053e+00 1.02874440319629e-02
1.81590909090909e-01 2.01789685322630e+00 1.03290959774461e-02
1.85863636363636e-01 2.00208390351628e+00 1.03680435346675e-02
1.90136363636364e-01 1.98639486966624e+00 1.04043860002587e-02
1.94409090909091e-01 1.97082878062583e+00 1.04382177885520e-02
1.98681818181818e-01 1.95538467288063e+00 1.04696287043909e-02
2.02954545454545e-01 1.94006159061841e+00 1.04987042967060e-02
2.07227272727273e-01 1.92485858543950e+00 1.05255261698017e-02
2.11500000000000e-01 1.90977471637614e+00 1.05501722189184e-02
2.15772727272727e-01 1.89480904976862e+00 1.05727168484908e-02
2.20045454545455e-01 1.87996065940850e+00 1.05932312137309e-02
2.24318181818182e-01 1.86522862627651e+00 1.06117834436341e-02
2.28590909090909e-01 1.85061203855540e+00 1.06284388011923e-02
2.32863636363636e-01 1.83610999151420e+00 1.06432598336828e-02
2.37136363636364e-01 1.82172158763229e+00 1.06563065501375e-02
2.41409090909091e-01 1.80744593636062e+00 1.06676365963090e-02
2.45681818181818e-01 1.79328215407420e+00 1.06773053266744e-02
2.49954545454545e-01 1.77922936418444e+00 1.06853659591261e-02
2.54227272727273e-01 1.76528669691499e+00 1.06918697096634e-02
2.58500000000000e-01 1.75145328930531e+00 1.06968658775836e-02
2.62772727272727e-01 1.73772828510781e+00 1.07004019272352e-02
2.67045454545455e-01 1.72411083488591e+00 1.07025235991958e-02
2.71318181818182e-01 1.71060009580793e+00 1.07032750150080e-02
2.75590909090909e-01 1.69719523164712e+00 1.07026987376806e-02
2.79863636363636e-01 1.68389541268460e+00 1.07008358305825e-02
2.84136363636364e-01 1.67069981579521e+00 1.06977259453806e-02
2.88409090909091e-01 1.65760762425728e+00 1.06934074136040e-02
2.92681818181818e-01 1.64461802770720e+00 1.06879172569638e-02
2.96954545454545e-01 1.63173022221761e+00 1.06812912713179e-02
3.01227272727273e-01 1.61894341011736e+00 1.06735640980220e-02
3.05500000000000e-01 1.60625679998606e+00 1.06647692574138e-02
3.09772727272727e-01 1.59366960656668e+00 1.06549391824352e-02
3.14045454545455e-01 1.58118105083418e+00 1.06441052800761e-02
3.18318181818182e-01 1.56879035982837e+00 1.06322979901368e-02
3.22590909090909e-01 1.55649676664631e+00 1.06195468091117e-02
3.26863636363636e-01 1.54429951035942e+00 1.06058803147142e-02
3.31136363636364e-01 1.53219783607390e+00 1.05913262170818e-02
3.35409090909091e-01 1.52019099477498e+00 1.05759114149613e-02
3.39681818181818e-01 1.50827824328418e+00 1.05596619845529e-02
3.43954545454545e-01 1.49645884431461e+00 1.05426032323625e-02
3.48227272727273e-01 1.48473206632263e+00 1.05247597388002e-02
3.52500000000000e-01 1.47309718349722e+00 1.05061553708736e-02
3.56772727272727e-01 1.46155347568438e+00 1.04868132960085e-02
3.61045454545455e-01 1.45010022843588e+00 1.04667560207191e-02
3.65318181818182e-01 1.43873673287047e+00 1.04460054280152e-02
3.69590909090909e-01 1.42746228566204e+00 1.04245827859376e-02
3.73863636363636e-01 1.41627618896759e+00 1.04025087573492e-02
3.78136363636364e-01 1.40517775047024e+00 1.03798034333832e-02
3.82409090909091e-01 1.39416628324908e+00 1.03564863719188e-02
3.86681818181818e-01 1.38324110573939e+00 1.03325765789213e-02
3.90954545454545e-01 1.37240154177191e+00 1.03080925452712e-02
3.95227272727273e-01 1.36164692044850e+00 1.02830522762614e-02
3.99500000000000e-01 1.35097657612836e+00 1.02574732950796e-02
4.03772727272727e-01 1.34038984836205e+00 1.02313726476463e-02
4.08045454545455e-01 1.32988608192610e+00 1.02047669293125e-02
4.12318181818182e-01 1.31946462670602e+00 1.01776723109151e-02
4.16590909090909e-01 1.30912483768190e+00 1.01501045403530e-02
4.20863636363636e-01 1.29886607486530e+00 1.01220789455138e-02
4.25136363636364e-01 1.28868770332980e+00 1.00936104579915e-02
4.29409090909091e-01 1.27858909310072e+00 1.00647136414931e-02
4.33681818181818e-01 1.26856961911818e+00 1.00354026711187e-02
4.37954545454545e-01 1.25862866126498e+00 1.00056913608740e-02
4.42227272727273e-01 1.24876560426088e+00 9.97559318512676e-03
4.46500000000000e-01 1.23897983764715e+00 9.94512127779634e-03
4.50772727272727e-01 1.22927075572841e+00 9.91428843286608e-03
4.55045454545455e-01 1.21963775759716e+00 9.88310712407997e-03
4.59318181818182e-01 1.21008024703381e+00 9.85158952429222e-03
4.63590909090909e-01 1.20059763249102e+00 9.81974750376523e-03
4.67863636363636e-01 1.19118932703794e+00 9.78759262975696e-03
4.72136363636364e-01 1.18185474838173e+00 9.75513618435026e-03
4.76409090909091e-01 1.17259331877302e+00 9.72238918653505e-03
4.80681818181818e-01 1.16340446497177e+00 9.68936237168251e-03
4.84954545454545e-01 1.15428761826682e+00 9.65606621310322e-03
4.89227272727273e-01 1.14524221438505e+00 9.62251093848064e-03
4.93500000000000e-01 1.13626769347517e+00 9.58870652704295e-03
4.97772727272727e-01 1.12736350005609e+00 9.55466270795211e-03
5.02045454545455e-01 1.11852908303406e+00 9.52038897553734e-03
5.06318181818182e-01 1.10976389561650e+00 9.48589460433750e-03
5.10590909090909e-01 1.10106739529569e+00 9.45118864587535e-03
5.14863636363636e-01 1.09243904379933e+00 9.41627992660149e-03
5.19136363636364e-01 1.08387830710534e+00 9.38117706187526e-03
5.23409090909091e-01 1.07538465536015e+00 9.34588847375630e-03
5.27681818181818e-01 1.06695756284716e+00 9.31042237160338e-03
5.31954545454545e-01 1.05859650800019e+00 9.27478676953697e-03
5.36227272727273e-01 1.05030097332468e+00 9.23898949950099e-03
5.40500000000000e-01 1.04207044538138e+00 9.20303820754022e-03
5.44772727272727e-01 1.03390441474028e+00 9.16694035116862e-03
5.49045454545455e-01 1.02580237599222e+00 9.13070321155885e-03
5.53318181818182e-01 1.01776382767408e+00 9.09433390562683e-03
5.57590909090909e-01 1.00978827225237e+00 9.05783938216193e-03
5.61863636363636e-01 1.00187521607911e+00 9.02122641900136e-03
5.66136363636364e-01 9.94024169401706e-01 8.98450163432705e-03
5.70409090909091e-01 9.86234646291783e-01 8.94767150136559e-03
5.74681818181818e-01 9.78506164616115e-01 8.91074233046791e-03
5.78954545454545e-01 9.70838246045474e-01 8.87372028358894e-03
5.83227272727273e-01 9.63230415985942e-01 8.83661138495173e-03
5.87500000000000e-01 9.55682203562679e-01 8.79942151700693e-03
5.91772727272727e-01 9.48193141578781e-01 8.76215641735844e-03
5.96045454545455e-01 9.40762766522745e-01 8.72482168876256e-03
6.00318181818182e-01 9.33390618503035e-01 8.68742280907369e-03
6.04590909090909e-01 9.26076241232002e-01 8.64996512718474e-03
6.08863636363636e-01 9.18819181986324e-01 8.61245385989235e-03
6.13136363636364e-01 9.11618991613216e-01 8.57489410123224e-03
6.17409090909091e-01 9.04475224468064e-01 8.53729083484624e-03
6.21681818181818e-01 8.97387438387666e-01 8.49964891762786e-03
6.25954545454545e-01 8.90355194695655e-01 8.46197309193353e-03
6.30227272727273e-01 8.83378058142237e-01 8.42426799446368e-03
6.34500000000000e-01 8.76455596888383e-01 8.38653815220531e-03
6.38772727272727e-01 8.69587382468909e-01 8.34878797922835e-03
6.43045454545455e-01 8.62772989796849e-01 8.31102178503914e-03
6.47318181818182e-01 8.56011997105959e-01 8.27324378291111e-03
6.51590909090909e-01 8.49303985935110e-01 8.23545808587695e-03
6.55863636363636e-01 8.42648541092759e-01 8.19766870353490e-03
6.60136363636364e-01 8.36045250660389e-01 8.15987954989150e-03
6.64409090909091e-01 8.29493705937593e-01 8.12209445390524e-03
6.68681818181818e-01 8.22993501417466e-01 8.08431714466058e-03
6.72954545454545e-01 8.16544234789449e-01 8.04655126179672e-03
6.77227272727273e-01 8.10145506886218e-01 8.00880036301319e-03
6.81500000000000e-01 8.03796921668461e-01 7.97106792015289e-03
6.85772727272727e-01 7.97498086191656e-01 7.93335731603723e-03
6.90045454545455e-01 7.91248610608137e-01 7.89567185154354e-03
6.94318181818182e-01 7.85048108116335e-01 7.85801475267848e-03
6.98590909090909e-01 7.78896194945800e-01 7.82038916674222e-03
7.02863636363636e-01 7.72792490325207e-01 7.78279815921156e-03
7.07136363636364e-01 7.66736616483718e-01 7.74524472041397e-03
7.11409090909091e-01 7.60728198602437e-01 7.70773177460688e-03
7.15681818181818e-01 7.54766864791782e-01 7.67026216658641e-03
7.19954545454545e-01 7.48852246092401e-01 7.63283867067903e-03
7.24227272727273e-01 7.42983976428181e-01 7.59546399715721e-03
7.28500000000000e-01 7.37161692591707e-01 7.55814078854063e-03
7.32772727272727e-01 7.31385034214305e-01 7.52087161656237e-03
7.37045454545455e-01 7.25653643766382e-01 7.48365898822821e-03
7.41318181818182e-01 7.19967166512449e-01 7.44650535188230e-03
7.45590909090909e-01 7.14325250496856e-01 7.40941309360633e-03
7.49863636363636e-01 7.08727546514923e-01 7.37238453425271e-03
7.54136363636364e-01 7.03173708112746e-01 7.33542193517622e-03
7.58409090909091e-01 6.97663391544142e-01 7.29852750611371e-03
7.62681818181818e-01 6.92196255749843e-01 7.26170339311426e-03
7.66954545454545e-01 6.86771962356985e-01 7.22495168634933e-03
7.71227272727273e-01 6.81390175637382e-01 7.18827442564375e-03
7.75500000000000e-01 6.76050562493730e-01 7.15167359703044e-03
7.79772727272727e-01 6.70752792432545e-01 7.11515112989296e-03
7.84045454545454e-01 6.65496537563223e-01 7.07870890219665e-03
7.88318181818182e-01 6.60281472558057e-01 7.04234874573251e-03
7.92590909090909e-01 6.55107274638732e-01 7.00607244277492e-03
7.96863636363636e-01 6.49973623550223e-01 6.96988172329932e-03
8.01136363636364e-01 6.44880201559465e-01 6.93377826994236e-03
8.05409090909091e-01 6.39826693417039e-01 6.89776372488263e-03
8.09681818181818e-01 6.34812786338055e-01 6.86183967897275e-03
8.13954545454545e-01 6.29838170000585e-01 6.82600767856171e-03
8.18227272727273e-01 6.24902536508507e-01 6.79026923029821e-03
8.22500000000000e-01 6.20005580378482e-01 6.75462579794879e-03
8.26772727272727e-01 6.15146998515469e-01 6.71907879973511e-03
8.31045454545455e-01 6.10326490210839e-01 6.68362961288033e-03
8.35318181818182e-01 6.05543757106747e-01 6.64827957817337e-03
8.39590909090909e-01 6.00798503183389e-01 6.61302999688668e-03
8.43863636363636e-01 5.96090434735385e-01 6.57788212819298e-03
8.48136363636364e-01 5.91419260369605e-01 6.54283719348653e-03
8.52409090909091e-01 5.86784690970995e-01 6.50789638241721e-03
8.56681818181818e-01 5.82186439685012e-01 6.47306084311013e-03
8.60954545454545e-01 5.77624221915293e-01 6.43833168815523e-03
8.65227272727273e-01 5.73097755290488e-01 6.40370999879905e-03
8.69500000000000e-01 5.68606759652006e-01 6.36919682202287e-03
8.73772727272727e-01 5.64150957031839e-01 6.33479316808265e-03
8.78045454545455e-01 5.59730071649998e-01 6.30050001447974e-03
8.82318181818182e-01 5.55343829882678e-01 6.26631830995241e-03
8.86590909090909e-01 5.50991960250291e-01 6.23224897164980e-03
8.90863636363636e-01 5.46674193396062e-01 6.19829288274897e-03
8.95136363636364e-01 5.42390262083260e-01 6.16445089623595e-03
8.99409090909091e-01 5.38139901164638e-01 6.13072384021994e-03
9.03681818181818e-01 5.33922847566310e-01 6.09711250913360e-03
9.07954545454545e-01 5.29738840284866e-01 6.06361766900868e-03
9.12227272727273e-01 5.25587620357707e-01 6.03024006115204e-03
9.16500000000000e-01 5.21468930851554e-01 5.99698039947384e-03
9.20772727272727e-01 5.17382516842339e-01 5.96383936822353e-03
9.25045454545455e-01 5.13328125412160e-01 5.93081762547481e-03
9.29318181818182e-01 5.09305505620788e-01 5.89791580663075e-03
9.33590909090909e-01 5.05314408494453e-01 5.86513452184089e-03
9.37863636363636e-01 5.01354587006426e-01 5.83247435381311e-03
9.42136363636364e-01 4.97425796073839e-01 5.79993586113438e-03
9.46409090909091e-01 4.93527792530310e-01 5.76751958296756e-03
9.50681818181818e-01 4.89660335111132e-01 5.73522603113203e-03
9.54954545454545e-01 4.85823184450024e-01 5.70305569476507e-03
9.59227272727273e-01 4.82016103052539e-01 5.67100904355821e-03
9.63500000000000e-01 4.78238855285317e-01 5.63908652531947e-03
9.67772727272727e-01 4.74491207357834e-01 5.60728856389868e-03
9.72045454545455e-01 4.70772927319035e-01 5.57561556225545e-03
9.76318181818182e-01 4.67083785031786e-01 5.54406790554807e-03
9.80590909090909e-01 4.63423552162386e-01 5.51264595878021e-03
9.84863636363636e-01 4.59792002162943e-01 5.48135006479529e-03
9.89136363636364e-01 4.56188910267923e-01 5.45018054720427e-03
9.93409090909091e-01 4.52614053469579e-01 5.41913771454822e-03
9.97681818181818e-01 4.49067210504357e-01 5.38822185316778e-03
1.00195454545455e+00 4.45548161849408e-01 5.35743323252540e-03
1.00622727272727e+00 4.42056689695408e-01 5.32677210800659e-03
1.01050000000000e+00 4.38592577936712e-01 5.29623870110487e-03
1.01477272727273e+00 4.35155612200076e-01 5.26583323869262e-03
1.01904545454545e+00 4.31745579727373e-01 5.23555593350687e-03
1.02331818181818e+00 4.28362269460242e-01 5.20540695808712e-03
1.02759090909091e+00 4.25005471994269e-01 5.17538646985676e-03
1.03186363636364e+00 4.21674979596745e-01 5.14549463324253e-03
1.03613636363636e+00 4.18370586101055e-01 5.11573159742300e-03
1.04040909090909e+00 4.15092086987168e-01 5.08609746273883e-03
1.04468181818182e+00 4.11839279367401e-01 5.05659234837054e-03
1.04895454545455e+00 4.08611961884449e-01 5.02721635919513e-03
1.05322727272727e+00 4.05409934788806e-01 4.99796956377141e-03
1.05750000000000e+00 4.02232999896255e-01 4.96885201768711e-03
1.06177272727273e+00 3.99080960603891e-01 4.93986378415558e-03
1.06604545454545e+00 3.95953621792684e-01 4.91100491326268e-03
1.07031818181818e+00 3.92850789901123e-01 4.88227542077483e-03
1.07459090909091e+00 3.89772272884527e-01 4.85367531059320e-03
1.07886363636364e+00 3.86717880230104e-01 4.82520459456535e-03
1.08313636363636e+00 3.83687422863812e-01 4.79686327250270e-03
1.08740909090909e+00 3.80680713220443e-01 4.76865130202933e-03
1.09168181818182e+00 3.77697565230635e-01 4.74056865925821e-03
1.09595454545455e+00 3.74737794230901e-01 4.71261530903499e-03
1.10022727272727e+00 3.71801217031073e-01 4.68479118516506e-03
1.10450000000000e+00 3.68887651876512e-01 4.65709621133166e-03
1.10877272727273e+00 3.65996918461695e-01 4.62953031955655e-03
1.11304545454545e+00 3.63128837844182e-01 4.60209343155271e-03
1.11731818181818e+00 3.60283232508815e-01 4.57478543968517e-03
1.12159090909091e+00 3.57459926331516e-01 4.54760622709569e-03
1.12586363636364e+00 3.54658744592069e-01 4.52055568546668e-03
1.13013636363636e+00 3.51879513891825e-01 4.49363369706179e-03
1.13440909090909e+00 3.49122062214831e-01 4.46684010763749e-03
1.13868181818182e+00 3.46386218915986e-01 4.44017478089684e-03
1.14295454545455e+00 3.43671814641510e-01 4.41363757175150e-03
1.14722727272727e+00 3.40978681387795e-01 4.38722830854747e-03
1.15150000000000e+00 3.38306652467759e-01 4.36094681182616e-03
1.15577272727273e+00 3.35655562522373e-01 4.33479291088855e-03
1.16004545454545e+00 3.33025247444565e-01 4.30876642702719e-03
1.16431818181818e+00 3.30415544435279e-01 4.28286715640668e-03
1.16859090909091e+00 3.27826291971216e-01 4.25709488811947e-03
1.17286363636364e+00 3.25257329815685e-01 4.23144942012968e-03
1.17713636363636e+00 3.22708498945766e-01 4.20593054311966e-03
1.18140909090909e+00 3.20179641605721e-01 4.18053801613326e-03
1.18568181818182e+00 3.17670601296187e-01 4.15527161548982e-03
1.18995454545455e+00 3.15181222703749e-01 4.13013111073980e-03
1.19422727272727e+00 3.12711351752389e-01 4.10511624867387e-03
1.19850000000000e+00 3.10260835573471e-01 4.08022677016717e-03
1.20277272727273e+00 3.07829522515535e-01 4.05546242505491e-03
1.20704545454545e+00 3.05417262076871e-01 4.03082295704224e-03
1.21131818181818e+00 3.03023904954552e-01 4.00630808830127e-03
1.21559090909091e+00 3.00649303015646e-01 3.98191753568497e-03
1.21986363636364e+00 2.98293309306431e-01 3.95765102504975e-03
1.22413636363636e+00 2.95955777987824e-01 3.93350827671679e-03
1.22840909090909e+00 2.93636564382125e-01 3.90948898355589e-03
1.23268181818182e+00 2.91335524963144e-01 3.88559285495800e-03
1.23695454545455e+00 2.89052517293751e-01 3.86181959519749e-03
1.24122727272727e+00 2.86787400070912e-01 3.83816888903796e-03
1.24550000000000e+00 2.84540033098883e-01 3.81464041686606e-03
1.24977272727273e+00 2.82310277297528e-01 3.79123386806260e-03
1.25404545454545e+00 2.80097994642485e-01 3.76794892741435e-03
1.25831818181818e+00 2.77903048208120e-01 3.74478526124484e-03
1.26259090909091e+00 2.75725302141804e-01 3.72174253198690e-03
1.26686363636364e+00 2.73564621671725e-01 3.69882041105964e-03
1.27113636363636e+00 2.71420873049581e-01 3.67601856577438e-03
1.27540909090909e+00 2.69293923591531e-01 3.65333663959969e-03
1.27968181818182e+00 2.67183641669185e-01 3.63077429172413e-03
1.28395454545455e+00 2.65089896654136e-01 3.60833117757039e-03
1.28822727272727e+00 2.63012558957449e-01 3.58600693582765e-03
1.29250000000000e+00 2.60951500005684e-01 3.56380120206157e-03
1.29677272727273e+00 2.58906592247955e-01 3.54171362074273e-03
1.30104545454545e+00 2.56877709102773e-01 3.51974383300240e-03
1.30531818181818e+00 2.54864724995712e-01 3.49789146413560e-03
1.30959090909091e+00 2.52867515336399e-01 3.47615613670955e-03
1.31386363636364e+00 2.50885956525145e-01 3.45453748215022e-03
1.31813636363636e+00 2.48919925901999e-01 3.43303512894089e-03
1.32240909090909e+00 2.46969301782681e-01 3.41164868484085e-03
1.32668181818182e+00 2.45033963450357e-01 3.39037777250429e-03
1.33095454545455e+00 2.43113791106305e-01 3.36922201192186e-03
1.33522727272727e+00 2.41208665904583e-01 3.34818100873188e-03
1.33950000000000e+00 2.39318469930559e-01 3.32725436646823e-03
1.34377272727273e+00 2.37443086206903e-01 3.30644169738797e-03
1.34804545454545e+00 2.35582398646290e-01 3.28574261143231e-03
