Energy (eV)          EEDF (eV^-(3/2))     First Anisotropy
1.36734693877551e-02 1.47502753641596e-01 7.89559341007445e-05
4.10204081632653e-02 1.46464969141869e-01 1.30358275369296e-04
6.83673469387755e-02 1.45434486178319e-01 1.72033625904385e-04
9.57142857142857e-02 1.44411253381202e-01 2.03661829896070e-04
1.23061224489796e-01 1.43395219739281e-01 2.30012945646407e-04
1.50408163265306e-01 1.42386334599104e-01 2.52890884052447e-04
1.77755102040816e-01 1.41384547666487e-01 2.73229373095220e-04
2.05102040816327e-01 1.40389809006339e-01 2.91592383392621e-04
2.32448979591837e-01 1.39402069023606e-01 3.08354028006295e-04
2.59795918367347e-01 1.38421278477958e-01 3.23778775976466e-04
2.87142857142857e-01 1.37447388475346e-01 3.38062441187600e-04
3.14489795918367e-01 1.36480350465824e-01 3.51355213513099e-04
3.41836734693878e-01 1.35520116243962e-01 3.63775546886119e-04
3.69183673469388e-01 1.34566637937311e-01 3.75419001904802e-04
3.96530612244898e-01 1.33619868013363e-01 3.86364127628889e-04
4.23877551020408e-01 1.32679759274045e-01 3.96676517484150e-04
4.51224489795918e-01 1.31746264855496e-01 4.06411690133719e-04
4.78571428571429e-01 1.30819338219191e-01 4.15617187544085e-04
5.05918367346939e-01 1.29898933156262e-01 4.24334137091339e-04
5.33265306122449e-01 1.28985003782928e-01 4.32598438036703e-04
5.60612244897959e-01 1.28077504538253e-01 4.40441676070938e-04
5.87959183673469e-01 1.27176390183428e-01 4.47891840405679e-04
6.15306122448980e-01 1.26281615794704e-01 4.54973891907950e-04
6.42653061224490e-01 1.25393136766028e-01 4.61710219180226e-04
6.70000000000000e-01 1.24510908805187e-01 4.68121009426406e-04
6.97346938775510e-01 1.23634887932878e-01 4.74224552323591e-04
7.24693877551020e-01 1.22765030476618e-01 4.80037490629785e-04
7.52040816326531e-01 1.21901293072507e-01 4.85575028988778e-04
7.79387755102041e-01 1.21043632661733e-01 4.90851109914851e-04
8.06734693877551e-01 1.20192006489505e-01 4.95878562552407e-04
8.34081632653061e-01 1.19346372099680e-01 5.00669228698209e-04
8.61428571428571e-01 1.18506687335918e-01 5.05234070611516e-04
8.88775510204082e-01 1.17672910338470e-01 5.09583264528712e-04
9.16122448979592e-01 1.16844999542104e-01 5.13726280857519e-04
9.43469387755102e-01 1.16022913674908e-01 5.17671954549346e-04
9.70816326530612e-01 1.15206611753564e-01 5.21428545903090e-04
9.98163265306122e-01 1.14396053083998e-01 5.25003793216530e-04
1.02551020408163e+00 1.13591197262315e-01 5.28404962358866e-04
1.05285714285714e+00 1.12792004160289e-01 5.31638886764879e-04
1.08020408163265e+00 1.11998433936812e-01 5.34712003102681e-04
1.10755102040816e+00 1.11210447031082e-01 5.37630386322350e-04
1.13489795918367e+00 1.10428004160623e-01 5.40399778211206e-04
1.16224489795918e+00 1.09651066319317e-01 5.43025613644487e-04
1.18959183673469e+00 1.08879594775506e-01 5.45513044163602e-04
1.21693877551020e+00 1.08113551070030e-01 5.47866958118948e-04
1.24428571428571e+00 1.07352897020435e-01 5.50092003114690e-04
1.27163265306122e+00 1.06597594700511e-01 5.52192601132812e-04
1.29897959183673e+00 1.05847606457158e-01 5.54172962030194e-04
1.32632653061224e+00 1.05102894902192e-01 5.56037101193173e-04
1.35367346938776e+00 1.04363422910476e-01 5.57788851432954e-04
1.38102040816327e+00 1.03629153618054e-01 5.59431874864821e-04
1.40836734693878e+00 1.02900050420351e-01 5.60969673781549e-04
1.43571428571429e+00 1.02176076970331e-01 5.62405600625986e-04
1.46306122448980e+00 1.01457197176681e-01 5.63742866200575e-04
1.49040816326531e+00 1.00743375206814e-01 5.64984550909373e-04
1.51775510204082e+00 1.00034575470543e-01 5.66133610615118e-04
1.54510204081633e+00 9.93307626329886e-02 5.67192881882947e-04
1.57244897959184e+00 9.86319016078776e-02 5.68165091482193e-04
1.59979591836735e+00 9.79379575557787e-02 5.69052861535811e-04
1.62714285714286e+00 9.72488958823892e-02 5.69858715195228e-04
1.65448979591837e+00 9.65646822368027e-02 5.70585081914281e-04
1.68183673469388e+00 9.58852825097936e-02 5.71234301521335e-04
1.70918367346939e+00 9.52106628360653e-02 5.71808631268209e-04
1.73653061224490e+00 9.45407895806114e-02 5.72310248410187e-04
1.76387755102041e+00 9.38756293490991e-02 5.72741252487529e-04
1.79122448979592e+00 9.32151489821468e-02 5.73103671573729e-04
1.81857142857143e+00 9.25593155536644e-02 5.73399464886403e-04
1.84591836734694e+00 9.19080963692231e-02 5.73630526031557e-04
1.87326530612245e+00 9.12614589644242e-02 5.73798686049183e-04
1.90061224489796e+00 9.06193711032782e-02 5.73905715535535e-04
1.92795918367347e+00 8.99818007798994e-02 5.73953329537179e-04
1.95530612244898e+00 8.93487162069192e-02 5.73943188590074e-04
1.98265306122449e+00 8.87200858239798e-02 5.73876899596404e-04
2.01000000000000e+00 8.80958782927715e-02 5.73756020320165e-04
2.03734693877551e+00 8.74760624954670e-02 5.73582060737838e-04
2.06469387755102e+00 8.68606075331742e-02 5.73356485027220e-04
2.09204081632653e+00 8.62494827243994e-02 5.73080713449591e-04
2.11938775510204e+00 8.56426576035141e-02 5.72756123472454e-04
2.14673469387755e+00 8.50401019220350e-02 5.72384053430007e-04
2.17408163265306e+00 8.44417856386507e-02 5.71965802789568e-04
2.20142857142857e+00 8.38476789262596e-02 5.71502632321279e-04
2.22877551020408e+00 8.32577521676139e-02 5.70995767549941e-04
2.25612244897959e+00 8.26719759538412e-02 5.70446399436177e-04
2.28346938775510e+00 8.20903210829789e-02 5.69855685664855e-04
2.31081632653061e+00 8.15127585585241e-02 5.69224751872497e-04
2.33816326530612e+00 8.09392595879838e-02 5.68554692225010e-04
2.36551020408163e+00 8.03697955838381e-02 5.67846572307189e-04
2.39285714285714e+00 7.98043381548642e-02 5.67101428987069e-04
2.42020408163265e+00 7.92428591120288e-02 5.66320270217886e-04
2.44755102040816e+00 7.86853304646282e-02 5.65504077815420e-04
2.47489795918367e+00 7.81317244188913e-02 5.64653807765708e-04
2.50224489795918e+00 7.75820133765923e-02 5.63770391097895e-04
2.52959183673469e+00 7.70361699336819e-02 5.62854734720260e-04
2.55693877551020e+00 7.64941668789165e-02 5.61907721687272e-04
2.58428571428571e+00 7.59559771945754e-02 5.60930213570938e-04
2.61163265306122e+00 7.54215740488481e-02 5.59923050114098e-04
2.63897959183673e+00 7.48909308008097e-02 5.58887048840589e-04
2.66632653061224e+00 7.43640209969729e-02 5.57823007366260e-04
2.69367346938775e+00 7.38408183699683e-02 5.56731703491547e-04
2.72102040816327e+00 7.33212968372322e-02 5.55613895814811e-04
2.74836734693878e+00 7.28054304997133e-02 5.54470324322587e-04
2.77571428571429e+00 7.22931936405779e-02 5.53301710957933e-04
2.80306122448980e+00 7.17845607239277e-02 5.52108759684476e-04
2.83040816326531e+00 7.12795063953049e-02 5.50892158452844e-04
2.85775510204082e+00 7.07780054750556e-02 5.49652578735452e-04
2.88510204081633e+00 7.02800329624868e-02 5.48390675031127e-04
2.91244897959184e+00 6.97855640328025e-02 5.47107086802946e-04
2.93979591836735e+00 6.92945740358639e-02 5.45802438429523e-04
2.96714285714286e+00 6.88070384949649e-02 5.44477339634388e-04
2.99448979591837e+00 6.83229331056101e-02 5.43132385901088e-04
3.02183673469388e+00 6.78422337343032e-02 5.41768158435665e-04
3.04918367346939e+00 6.73649164189020e-02 5.40385225864694e-04
3.07653061224490e+00 6.68909573627151e-02 5.38984143725672e-04
3.10387755102041e+00 6.64203329380587e-02 5.37565453934197e-04
3.13122448979592e+00 6.59530196834857e-02 5.36129686469367e-04
3.15857142857143e+00 6.54889943026148e-02 5.34677359255921e-04
3.18591836734694e+00 6.50282336629720e-02 5.33208978484742e-04
3.21326530612245e+00 6.45707147948368e-02 5.31725038923705e-04
3.24061224489796e+00 6.41164148900963e-02 5.30226023819489e-04
3.26795918367347e+00 6.36653113024821e-02 5.28712406385569e-04
3.29530612244898e+00 6.32173815422919e-02 5.27184649279187e-04
3.32265306122449e+00 6.27726032794468e-02 5.25643204059830e-04
3.35000000000000e+00 6.23309543409753e-02 5.24088512673966e-04
3.37734693877551e+00 6.18924127099071e-02 5.22521007297786e-04
3.40469387755102e+00 6.14569565241764e-02 5.20941110581521e-04
3.43204081632653e+00 6.10245640755334e-02 5.19349235887100e-04
3.45938775510204e+00 6.05952138084606e-02 5.17745787154601e-04
3.48673469387755e+00 6.01688843203141e-02 5.16131160220687e-04
3.51408163265306e+00 5.97455543565848e-02 5.14505742300229e-04
3.54142857142857e+00 5.93252028135359e-02 5.12869911452603e-04
3.56877551020408e+00 5.89078087359098e-02 5.11224037902572e-04
3.59612244897959e+00 5.84933513158834e-02 5.09568483861748e-04
3.62346938775510e+00 5.80818098920302e-02 5.07903603718361e-04
3.65081632653061e+00 5.76731639482924e-02 5.06229744222312e-04
3.67816326530612e+00 5.72673931129568e-02 5.04547244331881e-04
3.70551020408163e+00 5.68644771587198e-02 5.02856436392162e-04
3.73285714285714e+00 5.64643959984156e-02 5.01157645631524e-04
3.76020408163265e+00 5.60671296873004e-02 4.99451189645189e-04
3.78755102040816e+00 5.56726584209554e-02 4.97737379579457e-04
3.81489795918367e+00 5.52809625342993e-02 4.96016519943178e-04
3.84224489795918e+00 5.48920225006076e-02 4.94288908757585e-04
3.86959183673469e+00 5.45058189305406e-02 4.92554837702741e-04
3.89693877551020e+00 5.41223325711763e-02 4.90814591954478e-04
3.92428571428571e+00 5.37415443060141e-02 4.89068451244666e-04
3.95163265306122e+00 5.33634351511111e-02 4.87316689378482e-04
3.97897959183673e+00 5.29879862570660e-02 4.85559573740499e-04
4.00632653061224e+00 5.26151789070960e-02 4.83797366362600e-04
4.03367346938775e+00 5.22449945161039e-02 4.82030323732970e-04
4.06102040816327e+00 5.18774146297500e-02 4.80258696915930e-04
4.08836734693878e+00 5.15124209235354e-02 4.78482731669259e-04
4.11571428571429e+00 5.11499952018863e-02 4.76702668559292e-04
4.14306122448980e+00 5.07901193972474e-02 4.74918742793286e-04
4.17040816326531e+00 5.04327755700333e-02 4.73131185168138e-04
4.19775510204082e+00 5.00779459051614e-02 4.71340221613759e-04
4.22510204081633e+00 4.97256127137532e-02 4.69546072726821e-04
4.25244897959184e+00 4.93757584313837e-02 4.67748954728315e-04
4.27979591836735e+00 4.90283656172051e-02 4.65949079273669e-04
4.30714285714286e+00 4.86834169530784e-02 4.64146653547940e-04
4.33448979591837e+00 4.83408952427102e-02 4.62341880359420e-04
4.36183673469388e+00 4.80007834107947e-02 4.60534957973516e-04
4.38918367346939e+00 4.76630645029274e-02 4.58726080975013e-04
4.41653061224490e+00 4.73277216824513e-02 4.56915439836552e-04
4.44387755102041e+00 4.69947382319409e-02 4.55103220478604e-04
4.47122448979592e+00 4.66640975515893e-02 4.53289605141021e-04
4.49857142857143e+00 4.63357831583804e-02 4.51474772198396e-04
4.52591836734694e+00 4.60097786852675e-02 4.49658896238207e-04
4.55326530612245e+00 4.56860678803579e-02 4.47842148137539e-04
4.58061224489796e+00 4.53646346061023e-02 4.46024694901140e-04
4.60795918367347e+00 4.50454628391781e-02 4.44206700447736e-04
4.63530612244898e+00 4.47285366676138e-02 4.42388325203741e-04
4.66265306122449e+00 4.44138402920856e-02 4.40569725689445e-04
4.69000000000000e+00 4.41013580244294e-02 4.38751055314661e-04
4.71734693877551e+00 4.37910742868573e-02 4.36932464201109e-04
4.74469387755102e+00 4.34829736111824e-02 4.35114099246999e-04
4.77204081632653e+00 4.31770406380473e-02 4.33296104190619e-04
4.79938775510204e+00 4.28732601161585e-02 4.31478619453976e-04
4.82673469387755e+00 4.25716169021464e-02 4.29661782862001e-04
4.85408163265306e+00 4.22720959579370e-02 4.27845729260974e-04
4.88142857142857e+00 4.19746823518877e-02 4.26030590130155e-04
4.90877551020408e+00 4.16793612574102e-02 4.24216494310251e-04
4.93612244897959e+00 4.13861179522314e-02 4.22403567833582e-04
4.96346938775510e+00 4.10949378176593e-02 4.20591933977950e-04
4.99081632653061e+00 4.08058063378551e-02 4.18781713319746e-04
5.01816326530612e+00 4.05187090991087e-02 4.16973023584153e-04
5.04551020408163e+00 4.02336317896817e-02 4.15165980304422e-04
5.07285714285714e+00 3.99505601974003e-02 4.13360696464224e-04
5.10020408163265e+00 3.96694802106506e-02 4.11557282133840e-04
5.12755102040816e+00 3.93903778171036e-02 4.09755845138445e-04
5.15489795918367e+00 3.91132391030168e-02 4.07956490896664e-04
5.18224489795918e+00 3.88380502525402e-02 4.06159322465820e-04
5.20959183673469e+00 3.85647975470282e-02 4.04364440586581e-04
5.23693877551020e+00 3.82934673643555e-02 4.02571943540131e-04
5.26428571428571e+00 3.80240461787457e-02 4.00781927753879e-04
5.29163265306122e+00 3.77565205585642e-02 3.98994487466596e-04
5.31897959183673e+00 3.74908771671908e-02 3.97209714387999e-04
5.34632653061224e+00 3.72271027618378e-02 3.95427698313022e-04
5.37367346938775e+00 3.69651841928896e-02 3.93648526968847e-04
5.40102040816326e+00 3.67051084032469e-02 3.91872286053246e-04
5.42836734693878e+00 3.64468624276766e-02 3.90099059272215e-04
5.45571428571429e+00 3.61904333921649e-02 3.88328928377343e-04
5.48306122448980e+00 3.59358085132758e-02 3.86561973030517e-04
5.51040816326531e+00 3.56829750979692e-02 3.84798271356203e-04
5.53775510204082e+00 3.54319205415929e-02 3.83037899630624e-04
5.56510204081633e+00 3.51826323286381e-02 3.81280931965682e-04
5.59244897959184e+00 3.49350980316511e-02 3.79527440869529e-04
5.61979591836735e+00 3.46893053106137e-02 3.77777497102547e-04
5.64714285714286e+00 3.44452419123287e-02 3.76031169709405e-04
5.67448979591837e+00 3.42028956698085e-02 3.74288526050878e-04
5.70183673469388e+00 3.39622545016688e-02 3.72549631675834e-04
5.72918367346939e+00 3.37233064119404e-02 3.70814550830381e-04
5.75653061224490e+00 3.34860394882211e-02 3.69083346167279e-04
5.78387755102041e+00 3.32504419023397e-02 3.67356078450608e-04
5.81122448979592e+00 3.30165019093441e-02 3.65632807072742e-04
5.83857142857143e+00 3.27842078469160e-02 3.63913589918616e-04
5.86591836734694e+00 3.25535481347898e-02 3.62198483393139e-04
5.89326530612245e+00 3.23245112741750e-02 3.60487542448363e-04
5.92061224489796e+00 3.20970858471834e-02 3.58780820462662e-04
5.94795918367347e+00 3.18712605166360e-02 3.57078369710733e-04
5.97530612244898e+00 3.16470240243613e-02 3.55380241092019e-04
6.00265306122449e+00 3.14243651917776e-02 3.53686483854827e-04
6.03000000000000e+00 3.12032729189525e-02 3.51997146073760e-04
6.05734693877551e+00 3.09837361840489e-02 3.50312274521972e-04
6.08469387755102e+00 3.07657440427761e-02 3.48631914694635e-04
6.11204081632653e+00 3.05492856278444e-02 3.46956110832266e-04
6.13938775510204e+00 3.03343501484227e-02 3.45284905806917e-04
6.16673469387755e+00 3.01209268899447e-02 3.43618341556512e-04
6.19408163265306e+00 2.99090052125375e-02 3.41956458831111e-04
6.22142857142857e+00 2.96985745515348e-02 3.40299296935260e-04
6.24877551020408e+00 2.94896244165995e-02 3.38646894169362e-04
6.27612244897959e+00 2.92821443912016e-02 3.36999287709548e-04
6.30346938775510e+00 2.90761241320984e-02 3.35356513627956e-04
6.33081632653061e+00 2.88715533688192e-02 3.33718606912777e-04
6.35816326530612e+00 2.86684219031534e-02 3.32085601361095e-04
6.38551020408163e+00 2.84667196089551e-02 3.30457529980784e-04
6.41285714285714e+00 2.82664364306928e-02 3.28834424753483e-04
6.44020408163265e+00 2.80675623838994e-02 3.27216316393936e-04
6.46755102040816e+00 2.78700875543554e-02 3.25603234758375e-04
6.49489795918367e+00 2.76740020975949e-02 3.23995208731836e-04
6.52224489795918e+00 2.74792962384142e-02 3.22392266245601e-04
6.54959183673469e+00 2.72859602703853e-02 3.20794434294494e-04
6.57693877551020e+00 2.70939845553717e-02 3.19201738836157e-04
6.60428571428571e+00 2.69033595233340e-02 3.17614205163166e-04
6.63163265306122e+00 2.67140756709894e-02 3.16031857681678e-04
6.65897959183673e+00 2.65261235622062e-02 3.14454719686622e-04
6.68632653061224e+00 2.63394938272427e-02 3.12882813740025e-04
6.71367346938775e+00 2.61541771622799e-02 3.11316161565203e-04
6.74102040816326e+00 2.59701643289572e-02 3.09754784061872e-04
6.76836734693878e+00 2.57874461539126e-02 3.08198701321150e-04
6.79571428571429e+00 2.56060135283252e-02 3.06647932640448e-04
6.82306122448980e+00 2.54258574074606e-02 3.05102496429202e-04
6.85040816326531e+00 2.52469688104800e-02 3.03562410550892e-04
6.87775510204082e+00 2.50693388192098e-02 3.02027692117820e-04
6.90510204081633e+00 2.48929585784839e-02 3.00498357282792e-04
6.93244897959184e+00 2.47178192954382e-02 2.98974421586885e-04
6.95979591836735e+00 2.45439122390727e-02 2.97455899860603e-04
6.98714285714286e+00 2.43712287398160e-02 2.95942806236950e-04
7.01448979591837e+00 2.41997601890931e-02 2.94435154164353e-04
7.04183673469388e+00 2.40294980388965e-02 2.92932956318123e-04
7.06918367346939e+00 2.38604338015970e-02 2.91436224917771e-04
7.09653061224490e+00 2.36925590488048e-02 2.89944971535275e-04
7.12387755102041e+00 2.35258654116696e-02 2.88459206900458e-04
7.15122448979592e+00 2.33603445802214e-02 2.86978941223646e-04
7.17857142857143e+00 2.31959883029568e-02 2.85504184103015e-04
7.20591836734694e+00 2.30327883864274e-02 2.84034944535961e-04
7.23326530612245e+00 2.28707366948315e-02 2.82571230930363e-04
7.26061224489796e+00 2.27098251496084e-02 2.81113051021462e-04
7.28795918367347e+00 2.25500457292532e-02 2.79660412166377e-04
7.31530612244898e+00 2.23913904682606e-02 2.78213321165022e-04
7.34265306122449e+00 2.22338514573878e-02 2.76771784078262e-04
7.37000000000000e+00 2.20774208430394e-02 2.75335806527499e-04
7.39734693877551e+00 2.19220908268749e-02 2.73905393607837e-04
7.42469387755102e+00 2.17678536654209e-02 2.72480549897948e-04
7.45204081632653e+00 2.16147016696847e-02 2.71061279469878e-04
7.47938775510204e+00 2.14626272047711e-02 2.69647585811071e-04
7.50673469387755e+00 2.13116226897009e-02 2.68239472097982e-04
7.53408163265306e+00 2.11616805964316e-02 2.66836941028641e-04
7.56142857142857e+00 2.10127934500873e-02 2.65439994652855e-04
7.58877551020408e+00 2.08649538283827e-02 2.64048634650488e-04
7.61612244897959e+00 2.07181543612538e-02 2.62662862250030e-04
7.64346938775510e+00 2.05723877304897e-02 2.61282678237256e-04
7.67081632653061e+00 2.04276466693685e-02 2.59908082963756e-04
7.69816326530612e+00 2.02839239622948e-02 2.58539076273800e-04
7.72551020408163e+00 2.01412124446230e-02 2.57175657758613e-04
7.75285714285714e+00 1.99995050017474e-02 2.55817826599942e-04
7.78020408163265e+00 1.98587945693039e-02 2.54465581411330e-04
7.80755102040816e+00 1.97190741326308e-02 2.53118920496816e-04
7.83489795918367e+00 1.95803367264195e-02 2.51777841774655e-04
7.86224489795918e+00 1.94425754343672e-02 2.50442342784814e-04
7.88959183673469e+00 1.93057833888319e-02 2.49112420696445e-04
7.91693877551020e+00 1.91699537704907e-02 2.47788072239334e-04
7.94428571428571e+00 1.90350798081672e-02 2.46469293940305e-04
7.97163265306122e+00 1.89011547779870e-02 2.45156081977004e-04
7.99897959183673e+00 1.87681720035527e-02 2.43848432029553e-04
8.02632653061224e+00 1.86361248554398e-02 2.42546339521203e-04
8.05367346938776e+00 1.85050067508667e-02 2.41249799546788e-04
8.08102040816327e+00 1.83748111533661e-02 2.39958806879258e-04
8.10836734693878e+00 1.82455315724591e-02 2.38673355976293e-04
8.13571428571428e+00 1.81171615633322e-02 2.37393440986811e-04
8.16306122448979e+00 1.79896947265155e-02 2.36119055686908e-04
8.19040816326530e+00 1.78631247077170e-02 2.34850193698127e-04
8.21775510204082e+00 1.77374451970435e-02 2.33586848351789e-04
8.24510204081633e+00 1.76126499291514e-02 2.32329012551369e-04
8.27244897959184e+00 1.74887326827776e-02 2.31076678994621e-04
8.29979591836735e+00 1.73656872804304e-02 2.29829840106912e-04
8.32714285714286e+00 1.72435075880807e-02 2.28588488046946e-04
8.35448979591837e+00 1.71221875148567e-02 2.27352614712465e-04
8.38183673469388e+00 1.70017210127401e-02 2.26122211680200e-04
8.40918367346939e+00 1.68821020764058e-02 2.24897270409069e-04
8.43653061224490e+00 1.67633247424967e-02 2.23677782113322e-04
8.46387755102041e+00 1.66453830897546e-02 2.22463737633820e-04
8.49122448979592e+00 1.65282712385813e-02 2.21255127644876e-04
8.51857142857143e+00 1.64119833507457e-02 2.20051942591760e-04
8.54591836734694e+00 1.62965136290929e-02 2.18854172695715e-04
8.57326530612245e+00 1.61818563172548e-02 2.17661807958951e-04
8.60061224489796e+00 1.60680056993634e-02 2.16474838108320e-04
8.62795918367347e+00 1.59549560998959e-02 2.15293252784570e-04
