Energy (eV)          EEDF (eV^-(3/2))     First Anisotropy
1.10892857142857e-03 1.47147545347439e+01 9.64163162849141e-03
3.32678571428571e-03 1.45343051656405e+01 1.58768277274251e-02
5.54464285714286e-03 1.43560686754137e+01 2.08423212620745e-02
7.76250000000000e-03 1.41800179277405e+01 2.45442632767932e-02
9.98035714285714e-03 1.40061261183779e+01 2.75740307138687e-02
1.21982142857143e-02 1.38343667720035e+01 3.01570437534016e-02
1.44160714285714e-02 1.36647137370452e+01 3.24108629028410e-02
1.66339285714286e-02 1.34971411847009e+01 3.44070152509077e-02
1.88517857142857e-02 1.33316236014612e+01 3.61932903071661e-02
2.10696428571429e-02 1.31681357861826e+01 3.78037109102505e-02
2.32875000000000e-02 1.30066528481921e+01 3.92636433219400e-02
2.55053571428571e-02 1.28471502007526e+01 4.05926768308344e-02
2.77232142857143e-02 1.26896035598207e+01 4.18063649953180e-02
2.99410714285714e-02 1.25339889380632e+01 4.29173376059130e-02
3.21589285714286e-02 1.23802826433082e+01 4.39360424107672e-02
3.43767857142857e-02 1.22284612733884e+01 4.48712580443411e-02
3.65946428571429e-02 1.20785017128007e+01 4.57304591795302e-02
3.88125000000000e-02 1.19303811302396e+01 4.65200835337126e-02
4.10303571428571e-02 1.17840769736959e+01 4.72457311681442e-02
4.32482142857143e-02 1.16395669683670e+01 4.79123161850208e-02
4.54660714285714e-02 1.14968291119966e+01 4.85241841391605e-02
4.76839285714286e-02 1.13558416727249e+01 4.90852042312683e-02
4.99017857142857e-02 1.12165831848881e+01 4.95988427801996e-02
5.21196428571429e-02 1.10790324458452e+01 5.00682222218525e-02
5.43375000000000e-02 1.09431685134304e+01 5.04961693036673e-02
5.65553571428571e-02 1.08089707018517e+01 5.08852546265685e-02
5.87732142857143e-02 1.06764185794134e+01 5.12378254478903e-02
6.09910714285714e-02 1.05454919645717e+01 5.15560331173798e-02
6.32089285714286e-02 1.04161709236602e+01 5.18418561678432e-02
6.54267857142857e-02 1.02884357672596e+01 5.20971199790708e-02
6.76446428571429e-02 1.01622670472517e+01 5.23235134234240e-02
6.98625000000000e-02 1.00376455543396e+01 5.25226032959150e-02
7.20803571428571e-02 9.91455231447894e+00 5.26958467132418e-02
7.42982142857143e-02 9.79296858660928e+00 5.28446018834709e-02
7.65160714285714e-02 9.67287585920355e+00 5.29701375062722e-02
7.87339285714286e-02 9.55425584802504e+00 5.30736409913750e-02
8.09517857142857e-02 9.43709049291407e+00 5.31562257537414e-02
8.31696428571429e-02 9.32136195507015e+00 5.32189375411205e-02
8.53875000000000e-02 9.20705261469498e+00 5.32627601580815e-02
8.76053571428572e-02 9.09414506783030e+00 5.32886205081867e-02
8.98232142857143e-02 8.98262212417198e+00 5.32973931026451e-02
9.20410714285714e-02 8.87246680400387e+00 5.32899041049102e-02
9.42589285714286e-02 8.76366233604716e+00 5.32669349501317e-02
9.64767857142857e-02 8.65619215458228e+00 5.32292256603179e-02
9.86946428571429e-02 8.55003989694805e+00 5.31774777409748e-02
1.00912500000000e-01 8.44518940132789e+00 5.31123569378787e-02
1.03130357142857e-01 8.34162470356767e+00 5.30344955420217e-02
1.05348214285714e-01 8.23933003625960e+00 5.29444946893904e-02
1.07566071428571e-01 8.13828982481013e+00 5.28429264887491e-02
1.09783928571429e-01 8.03848868562002e+00 5.27303357072803e-02
1.12001785714286e-01 7.93991142373884e+00 5.26072415240520e-02
1.14219642857143e-01 7.84254303055833e+00 5.24741390866985e-02
1.16437500000000e-01 7.74636868152357e+00 5.23315010216818e-02
1.18655357142857e-01 7.65137373318949e+00 5.21797785186829e-02
1.20873214285714e-01 7.55754372308274e+00 5.20194027085639e-02
1.23091071428571e-01 7.46486436537476e+00 5.18507859516656e-02
1.25308928571429e-01 7.37332154942676e+00 5.16743226373152e-02
1.27526785714286e-01 7.28290133763902e+00 5.14903902351033e-02
1.29744642857143e-01 7.19358996333363e+00 5.12993501952971e-02
1.31962500000000e-01 7.10537382865595e+00 5.11015488539768e-02
1.34180357142857e-01 7.01823950194795e+00 5.08973180108818e-02
1.36398214285714e-01 6.93217371739669e+00 5.06869757948280e-02
1.38616071428571e-01 6.84716337129549e+00 5.04708274834361e-02
1.40833928571429e-01 6.76319552063075e+00 5.02491659289874e-02
1.43051785714286e-01 6.68025738110968e+00 5.00222722258180e-02
1.45269642857143e-01 6.59833632521734e+00 4.97904162696432e-02
1.47487500000000e-01 6.51741988029222e+00 4.95538573409278e-02
1.49705357142857e-01 6.43749572617020e+00 4.93128444222839e-02
1.51923214285714e-01 6.35855169469913e+00 4.90676167812135e-02
1.54141071428571e-01 6.28057576647583e+00 4.88184045280270e-02
1.56358928571429e-01 6.20355606949316e+00 4.85654288448352e-02
1.58576785714286e-01 6.12748087733120e+00 4.83089024358961e-02
1.60794642857143e-01 6.05233860737450e+00 4.80490298948010e-02
1.63012500000000e-01 5.97811781904719e+00 4.77860081023865e-02
1.65230357142857e-01 5.90480721169158e+00 4.75200264015141e-02
1.67448214285714e-01 5.83239562400171e+00 4.72512670112349e-02
1.69666071428571e-01 5.76087203115395e+00 4.69799054268653e-02
1.71883928571429e-01 5.69022554352398e+00 4.67061105395902e-02
1.74101785714286e-01 5.62044540502782e+00 4.64300449552815e-02
1.76319642857143e-01 5.55152099148623e+00 4.61518652462946e-02
1.78537500000000e-01 5.48344180900603e+00 4.58717222353205e-02
1.80755357142857e-01 5.41619749206435e+00 4.55897610884126e-02
1.82973214285714e-01 5.34977780289722e+00 4.53061216220213e-02
1.85191071428571e-01 5.28417262896114e+00 4.50209386018109e-02
1.87408928571429e-01 5.21937198172444e+00 4.47343417991791e-02
1.89626785714286e-01 5.15536599514578e+00 4.44464562257324e-02
1.91844642857143e-01 5.09214492417349e+00 4.41574023120853e-02
1.94062500000000e-01 5.02969914326114e+00 4.38672961177225e-02
1.96280357142857e-01 4.96801914463333e+00 4.35762493756438e-02
1.98498214285714e-01 4.90709553765426e+00 4.32843697276454e-02
2.00716071428571e-01 4.84691904657129e+00 4.29917609547712e-02
2.02933928571429e-01 4.78748050938189e+00 4.26985229965960e-02
2.05151785714286e-01 4.72877087643815e+00 4.24047521290168e-02
2.07369642857143e-01 4.67078120907008e+00 4.21105410948454e-02
2.09587500000000e-01 4.61350267822409e+00 4.18159792634967e-02
2.11805357142857e-01 4.55692656289050e+00 4.15211526464319e-02
2.14023214285714e-01 4.50104424946894e+00 4.12261440822464e-02
2.16241071428571e-01 4.44584722975499e+00 4.09310334189494e-02
2.18458928571429e-01 4.39132709988175e+00 4.06358975110492e-02
2.20676785714286e-01 4.33747555903988e+00 4.03408103577279e-02
2.22894642857143e-01 4.28428440821471e+00 4.00458432004438e-02
2.25112500000000e-01 4.23174554893745e+00 3.97510646472980e-02
2.27330357142857e-01 4.17985098185716e+00 3.94565406707189e-02
2.29548214285714e-01 4.12859280611491e+00 3.91623347561389e-02
2.31766071428571e-01 4.07796321754153e+00 3.88685080491022e-02
2.33983928571429e-01 4.02795450767164e+00 3.85751193392039e-02
2.36201785714286e-01 3.97855906256969e+00 3.82822251696360e-02
2.38419642857143e-01 3.92976936167146e+00 3.79898799115165e-02
2.40637500000000e-01 3.88157797663863e+00 3.76981358626094e-02
2.42855357142857e-01 3.83397757006043e+00 3.74070432342789e-02
2.45073214285714e-01 3.78696089484462e+00 3.71166502729334e-02
2.47291071428571e-01 3.74052079259984e+00 3.68270033806755e-02
2.49508928571429e-01 3.69465019271930e+00 3.65381470916693e-02
2.51726785714286e-01 3.64934211130390e+00 3.62501241604247e-02
2.53944642857143e-01 3.60458965009954e+00 3.59629756192782e-02
2.56162500000000e-01 3.56038599544656e+00 3.56767408579821e-02
2.58380357142857e-01 3.51672441709803e+00 3.53914576043465e-02
2.60598214285714e-01 3.47359826763294e+00 3.51071620247924e-02
2.62816071428571e-01 3.43100098100108e+00 3.48238888246042e-02
2.65033928571429e-01 3.38892607167278e+00 3.45416712202148e-02
2.67251785714286e-01 3.34736713365126e+00 3.42605410113124e-02
2.69469642857143e-01 3.30631783949776e+00 3.39805286258638e-02
2.71687500000000e-01 3.26577193936792e+00 3.37016631851129e-02
2.73905357142857e-01 3.22572325993545e+00 3.34239724807266e-02
2.76123214285714e-01 3.18616570383091e+00 3.31474830589701e-02
2.78341071428571e-01 3.14709324833029e+00 3.28722203048986e-02
2.80558928571429e-01 3.10849994456722e+00 3.25982084127836e-02
2.82776785714286e-01 3.07037991662703e+00 3.23254704456638e-02
2.84994642857143e-01 3.03272736065259e+00 3.20540283709762e-02
2.87212500000000e-01 2.99553654396039e+00 3.17839031142077e-02
2.89430357142857e-01 2.95880180405941e+00 3.15151145343624e-02
2.91648214285714e-01 2.92251754811768e+00 3.12476814950703e-02
2.93866071428571e-01 2.88667825177832e+00 3.09816219359113e-02
2.96083928571429e-01 2.85127845843052e+00 3.07169528423860e-02
2.98301785714286e-01 2.81631277837864e+00 3.04536902955527e-02
3.00519642857143e-01 2.78177588802190e+00 3.01918495004745e-02
3.02737500000000e-01 2.74766252904370e+00 2.99314448308942e-02
3.04955357142857e-01 2.71396750751677e+00 2.96724898041964e-02
3.07173214285714e-01 2.68068569339831e+00 2.94149971419366e-02
3.09391071428571e-01 2.64781201945981e+00 2.91589788306973e-02
3.11608928571429e-01 2.61534148061297e+00 2.89044460924951e-02
3.13826785714286e-01 2.58326913314758e+00 2.86514094264778e-02
3.16044642857143e-01 2.55159009397908e+00 2.83998786317887e-02
3.18262500000000e-01 2.52029953990497e+00 2.81498628450485e-02
3.20480357142857e-01 2.48939270678817e+00 2.79013705155722e-02
3.22698214285714e-01 2.45886488908126e+00 2.76544094572107e-02
3.24916071428571e-01 2.42871143885769e+00 2.74089869005898e-02
3.27133928571429e-01 2.39892776518916e+00 2.71651094645089e-02
3.29351785714286e-01 2.36950933344659e+00 2.69227831911956e-02
3.31569642857143e-01 2.34045166460989e+00 2.66820135647821e-02
3.33787500000000e-01 2.31175033458591e+00 2.64428055429539e-02
3.36005357142857e-01 2.28340097346290e+00 2.62051635328994e-02
3.38223214285714e-01 2.25539926506345e+00 2.59690914359413e-02
3.40441071428571e-01 2.22774094606667e+00 2.57345926926126e-02
3.42658928571429e-01 2.20042180543345e+00 2.55016702553735e-02
3.44876785714286e-01 2.17343768376526e+00 2.52703266185788e-02
3.47094642857143e-01 2.14678447267102e+00 2.50405638334791e-02
3.49312500000000e-01 2.12045811414152e+00 2.48123835350836e-02
3.51530357142857e-01 2.09445459986849e+00 2.45857869191346e-02
3.53748214285714e-01 2.06876997082562e+00 2.43607747807075e-02
3.55966071428571e-01 2.04340031647241e+00 2.41373475532686e-02
3.58183928571429e-01 2.01834177422393e+00 2.39155052828933e-02
3.60401785714286e-01 1.99359052886270e+00 2.36952476538598e-02
3.62619642857143e-01 1.96914281195793e+00 2.34765740008672e-02
3.64837500000000e-01 1.94499490129172e+00 2.32594833319399e-02
3.67055357142857e-01 1.92114312023688e+00 2.30439743065957e-02
3.69273214285714e-01 1.89758383736524e+00 2.28300452693585e-02
3.71491071428571e-01 1.87431346572489e+00 2.26176942837221e-02
3.73708928571429e-01 1.85132846235128e+00 2.24069191079533e-02
3.75926785714286e-01 1.82862532772773e+00 2.21977172170396e-02
3.78144642857143e-01 1.80620060525280e+00 2.19900858126632e-02
3.80362500000000e-01 1.78405088071386e+00 2.17840218428034e-02
3.82580357142857e-01 1.76217278171860e+00 2.15795219811852e-02
3.84798214285714e-01 1.74056297732934e+00 2.13765826564654e-02
3.87016071428571e-01 1.71921817740651e+00 2.11752000818677e-02
3.89233928571429e-01 1.69813513215805e+00 2.09753702325850e-02
3.91451785714286e-01 1.67731063164458e+00 2.07770888646630e-02
3.93669642857143e-01 1.65674150529075e+00 2.05803515231546e-02
3.95887500000000e-01 1.63642462140251e+00 2.03851535589504e-02
3.98105357142857e-01 1.61635688664730e+00 2.01914901095364e-02
4.00323214285714e-01 1.59653524571334e+00 1.99993561244870e-02
4.02541071428571e-01 1.57695668071286e+00 1.98087463913876e-02
4.04758928571429e-01 1.55761821076690e+00 1.96196555148140e-02
4.06976785714286e-01 1.53851689155146e+00 1.94320779326304e-02
4.09194642857143e-01 1.51964981484931e+00 1.92460079226556e-02
4.11412500000000e-01 1.50101410810717e+00 1.90614396171570e-02
4.13630357142857e-01 1.48260693396036e+00 1.88783669849051e-02
4.15848214285714e-01 1.46442548991588e+00 1.86967838534961e-02
4.18066071428571e-01 1.44646700780950e+00 1.85166839320808e-02
4.20283928571429e-01 1.42872875342339e+00 1.83380607918697e-02
4.22501785714286e-01 1.41120802606988e+00 1.81609078802332e-02
4.24719642857143e-01 1.39390215818027e+00 1.79852185261493e-02
4.26937500000000e-01 1.37680851489871e+00 1.78109859527162e-02
4.29155357142857e-01 1.35992449364744e+00 1.76382032604704e-02
4.31373214285714e-01 1.34324752383226e+00 1.74668634469711e-02
4.33591071428571e-01 1.32677506634839e+00 1.72969594267726e-02
4.35808928571429e-01 1.31050461322850e+00 1.71284840133878e-02
4.38026785714286e-01 1.29443368726084e+00 1.69614299315104e-02
4.40244642857143e-01 1.27855984161214e+00 1.67957898214626e-02
4.42462500000000e-01 1.26288065945502e+00 1.66315562500191e-02
4.44680357142857e-01 1.24739375357038e+00 1.64687216949366e-02
4.46898214285714e-01 1.23209676607387e+00 1.63072785621704e-02
4.49116071428571e-01 1.21698736796602e+00 1.61472192034550e-02
4.51333928571429e-01 1.20206325880825e+00 1.59885358996471e-02
4.53551785714286e-01 1.18732216637261e+00 1.58312208713414e-02
4.55769642857143e-01 1.17276184629587e+00 1.56752662824925e-02
4.57987500000000e-01 1.15838008173777e+00 1.55206642497932e-02
4.60205357142857e-01 1.14417468301723e+00 1.53674068283575e-02
4.62423214285714e-01 1.13014348735867e+00 1.52154860268800e-02
4.64641071428571e-01 1.11628435848216e+00 1.50648938231378e-02
4.66858928571429e-01 1.10259518630535e+00 1.49156221486265e-02
4.69076785714286e-01 1.08907388662210e+00 1.47676628977979e-02
4.71294642857143e-01 1.07571840078529e+00 1.46210079309974e-02
4.73512500000000e-01 1.06252669539330e+00 1.44756490826028e-02
4.75730357142857e-01 1.04949676195707e+00 1.43315781477962e-02
4.77948214285714e-01 1.03662661666513e+00 1.41887868959317e-02
4.80166071428571e-01 1.02391430000998e+00 1.40472670842214e-02
4.82383928571429e-01 1.01135787651391e+00 1.39070104435832e-02
4.84601785714286e-01 9.98955434434249e-01 1.37680086866892e-02
4.86819642857143e-01 9.86705085472351e-01 1.36302535103370e-02
4.89037500000000e-01 9.74604964486085e-01 1.34937366025209e-02
4.91255357142857e-01 9.62653229185117e-01 1.33584496302256e-02
4.93473214285714e-01 9.50848059913256e-01 1.32243842512296e-02
4.95691071428571e-01 9.39187659307937e-01 1.30915321262028e-02
4.97908928571429e-01 9.27670252047936e-01 1.29598849056829e-02
5.00126785714286e-01 9.16294084583063e-01 1.28294342370964e-02
5.02344642857143e-01 9.05057424867211e-01 1.27001717666586e-02
5.04562500000000e-01 8.93958562094633e-01 1.25720891455261e-02
5.06780357142857e-01 8.82995806421027e-01 1.24451780185450e-02
5.08998214285714e-01 8.72167488762124e-01 1.23194300346820e-02
5.11216071428571e-01 8.61471960483134e-01 1.21948368577329e-02
5.13433928571429e-01 8.50907593166738e-01 1.20713901543460e-02
5.15651785714286e-01 8.40472778365145e-01 1.19490816001521e-02
5.17869642857143e-01 8.30165927355232e-01 1.18279028812754e-02
5.20087500000000e-01 8.19985470896643e-01 1.17078456996889e-02
5.22305357142857e-01 8.09929858976457e-01 1.15889017628511e-02
5.24523214285714e-01 7.99997560622912e-01 1.14710627929379e-02
5.26741071428571e-01 7.90187063622102e-01 1.13543205363264e-02
5.28958928571429e-01 7.80496874304639e-01 1.12386667525900e-02
5.31176785714286e-01 7.70925517318227e-01 1.11240932198551e-02
5.33394642857143e-01 7.61471535403068e-01 1.10105917359879e-02
5.35612500000000e-01 7.52133489169974e-01 1.08981541232604e-02
5.37830357142857e-01 7.42909956866596e-01 1.07867722188128e-02
5.40048214285714e-01 7.33799534205252e-01 1.06764378828285e-02
5.42266071428571e-01 7.24800834104387e-01 1.05671430069437e-02
5.44483928571429e-01 7.15912486492452e-01 1.04588795041390e-02
5.46701785714286e-01 7.07133138099291e-01 1.03516393134240e-02
5.48919642857143e-01 6.98461452250128e-01 1.02454144007555e-02
5.51137500000000e-01 6.89896108662046e-01 1.01401967631043e-02
5.53355357142857e-01 6.81435803229935e-01 1.00359784196826e-02
5.55573214285714e-01 6.73079247867421e-01 9.93275141919121e-03
5.57791071428571e-01 6.64825170270878e-01 9.83050784727953e-03
5.60008928571429e-01 6.56672313739147e-01 9.72923981726569e-03
5.62226785714286e-01 6.48619436982183e-01 9.62893947423588e-03
5.64444642857143e-01 6.40665313932092e-01 9.52959899573958e-03
5.66662500000000e-01 6.32808733556444e-01 9.43121059533649e-03
5.68880357142857e-01 6.25048499662270e-01 9.33376651453091e-03
5.71098214285714e-01 6.17383430749154e-01 9.23725902919885e-03
5.73316071428571e-01 6.09812359793782e-01 9.14168045621451e-03
5.75533928571429e-01 6.02334134084232e-01 9.04702314493162e-03
5.77751785714286e-01 5.94947615044467e-01 8.95327948077171e-03
5.79969642857143e-01 5.87651678060996e-01 8.86044188573581e-03
5.82187500000000e-01 5.80445212311644e-01 8.76850282149832e-03
5.84405357142857e-01 5.73327120586046e-01 8.67745478199492e-03
5.86623214285714e-01 5.66296319150037e-01 8.58729029912645e-03
5.88841071428571e-01 5.59351737548901e-01 8.49800194864679e-03
5.91058928571429e-01 5.52492318455077e-01 8.40958234234769e-03
5.93276785714286e-01 5.45717017507174e-01 8.32202413119901e-03
5.95494642857143e-01 5.39024803150981e-01 8.23532000570954e-03
5.97712500000000e-01 5.32414656482398e-01 8.14946269862662e-03
5.99930357142857e-01 5.25885571083038e-01 8.06444497812575e-03
6.02148214285714e-01 5.19436552895084e-01 7.98025965287670e-03
6.04366071428571e-01 5.13066620041577e-01 7.89689957727722e-03
6.06583928571429e-01 5.06774802686475e-01 7.81435764428454e-03
6.08801785714286e-01 5.00560142886980e-01 7.73262678816590e-03
6.11019642857143e-01 4.94421694447708e-01 7.65169998473340e-03
6.13237500000000e-01 4.88358522776620e-01 7.57157025369987e-03
6.15455357142857e-01 4.82369704734437e-01 7.49223065242427e-03
6.17673214285714e-01 4.76454328519205e-01 7.41367428041287e-03
6.19891071428571e-01 4.70611493502111e-01 7.33589428397397e-03
6.22108928571429e-01 4.64840310098897e-01 7.25888384964317e-03
6.24326785714286e-01 4.59139899634414e-01 7.18263620659363e-03
6.26544642857143e-01 4.53509394208851e-01 7.10714462676780e-03
6.28762500000000e-01 4.47947936565592e-01 7.03240242693264e-03
6.30980357142857e-01 4.42454679953278e-01 6.95840296293725e-03
6.33198214285714e-01 4.37028788019354e-01 6.88513963371311e-03
6.35416071428571e-01 4.31669434660048e-01 6.81260588541664e-03
6.37633928571429e-01 4.26375803902232e-01 6.74079520540035e-03
6.39851785714286e-01 4.21147089779180e-01 6.66970112432325e-03
6.42069642857143e-01 4.15982496207870e-01 6.59931721620050e-03
6.44287500000000e-01 4.10881236867774e-01 6.52963710019499e-03
6.46505357142857e-01 4.05842535074495e-01 6.46065443534573e-03
6.48723214285714e-01 4.00865623681635e-01 6.39236292412571e-03
6.50941071428571e-01 3.95949744943681e-01 6.32475631612974e-03
6.53158928571429e-01 3.91094150407473e-01 6.25782840254584e-03
6.55376785714286e-01 3.86298100798248e-01 6.19157301800391e-03
6.57594642857143e-01 3.81560865907095e-01 6.12598404055829e-03
6.59812500000000e-01 3.76881724479766e-01 6.06105539325033e-03
6.62030357142857e-01 3.72259964100925e-01 5.99678103926846e-03
6.64248214285714e-01 3.67694881103690e-01 5.93315498511341e-03
6.66466071428572e-01 3.63185780444313e-01 5.87017128388327e-03
6.68683928571429e-01 3.58731975602477e-01 5.80782403020417e-03
6.70901785714286e-01 3.54332788476771e-01 5.74610736184953e-03
6.73119642857143e-01 3.49987549281450e-01 5.68501545966785e-03
6.75337500000000e-01 3.45695596444464e-01 5.62454254894472e-03
6.77555357142857e-01 3.41456276501392e-01 5.56468289496221e-03
6.79773214285714e-01 3.37268944012100e-01 5.50543080581436e-03
6.81991071428571e-01 3.33132961446172e-01 5.44678063533299e-03
6.84208928571429e-01 3.29047699091327e-01 5.38872677844156e-03
6.86426785714286e-01 3.25012534957545e-01 5.33126367257273e-03
6.88644642857143e-01 3.21026854682370e-01 5.27438579755280e-03
6.90862500000000e-01 3.17090051437375e-01 5.21808767678867e-03
6.93080357142857e-01 3.13201525830981e-01 5.16236387319230e-03
6.95298214285714e-01 3.09360685831685e-01 5.10720899168705e-03
6.97516071428571e-01 3.05566946663300e-01 5.05261768181514e-03
6.99733928571429e-01 3.01819730720845e-01 4.99858463347796e-03
