Energy (eV)          EEDF (eV^-(3/2))     First Anisotropy
1.34000000000000e-01 1.42904017248299e-01 2.32274506047878e-04
4.02000000000000e-01 1.33346678334606e-01 3.71975895605052e-04
6.70000000000000e-01 1.24428528779407e-01 4.61310843223011e-04
9.38000000000000e-01 1.16106819964108e-01 5.13208794051005e-04
1.20600000000000e+00 1.08341662273264e-01 5.44679280904263e-04
1.47400000000000e+00 1.01095833886094e-01 5.62763442658875e-04
1.74200000000000e+00 9.43346023558920e-02 5.71378924058141e-04
2.01000000000000e+00 8.80255581221170e-02 5.73029704129755e-04
2.27800000000000e+00 8.21384591570947e-02 5.69448840357653e-04
2.54600000000000e+00 7.66450860026589e-02 5.61898136031861e-04
2.81400000000000e+00 7.15191065018605e-02 5.51328274265188e-04
3.08200000000000e+00 6.67359495773419e-02 5.38472926054119e-04
3.35000000000000e+00 6.22726874513408e-02 5.23908084788214e-04
3.61800000000000e+00 5.81079257427543e-02 5.08091554937649e-04
3.88600000000000e+00 5.42217009144472e-02 4.91390380593744e-04
4.15400000000000e+00 5.05953845792260e-02 4.74100565299598e-04
4.42200000000000e+00 4.72115942057750e-02 4.56461655356400e-04
4.69000000000000e+00 4.40541097965278e-02 4.38667779341359e-04
4.95800000000000e+00 4.11077961380751e-02 4.20876169519137e-04
5.22600000000000e+00 3.83585302514211e-02 4.03213848214959e-04
5.49400000000000e+00 3.57931336943253e-02 3.85782947478206e-04
5.76200000000000e+00 3.33993093912241e-02 3.68664991410958e-04
6.03000000000000e+00 3.11655826879323e-02 3.51924378064953e-04
6.29800000000000e+00 2.90812463485716e-02 3.35611234724523e-04
6.56600000000000e+00 2.71363092310730e-02 3.19763776388760e-04
6.83400000000000e+00 2.53214483952331e-02 3.04410265953323e-04
7.10200000000000e+00 2.36279644137553e-02 2.89570651905636e-04
7.37000000000000e+00 2.20477396720635e-02 2.75257942639135e-04
7.63800000000000e+00 2.05731994569998e-02 2.61479364002811e-04
7.90600000000000e+00 1.91972756478888e-02 2.48237337238220e-04
8.17400000000000e+00 1.79133728359220e-02 2.35530307194742e-04
8.44200000000000e+00 1.67153367094584e-02 2.23353445078381e-04
8.71000000000000e+00 1.55974245536986e-02 2.11699245569411e-04
8.97800000000000e+00 1.45542777233234e-02 2.00558034643942e-04
9.24600000000000e+00 1.35808959561467e-02 1.89918401637646e-04
9.51400000000000e+00 1.26726134046564e-02 1.79767566836701e-04
9.78200000000000e+00 1.18250762705529e-02 1.70091694051969e-04
1.00500000000000e+01 1.10342219350756e-02 1.60876156137262e-04
1.03180000000000e+01 1.02962594850825e-02 1.52105760182398e-04
1.05860000000000e+01 9.60765154153340e-03 1.43764938093568e-04
1.08540000000000e+01 8.96509730327467e-03 1.35837907426225e-04
1.11220000000000e+01 8.36551672484523e-03 1.28308806626905e-04
1.13900000000000e+01 7.80603575246228e-03 1.21161808244813e-04
1.16580000000000e+01 7.28397254741568e-03 1.14381213171297e-04
1.19260000000000e+01 6.79682463083386e-03 1.07951528539384e-04
1.21940000000000e+01 6.34225688820041e-03 1.01857531553343e-04
1.24620000000000e+01 5.91809037612181e-03 9.60843212091697e-05
1.27300000000000e+01 5.52229187769205e-03 9.06173596023709e-05
1.29980000000000e+01 5.15296415638853e-03 8.54425042923885e-05
1.32660000000000e+01 4.80833686178181e-03 8.05460329976765e-05
1.35340000000000e+01 4.48675804346629e-03 7.59146617269603e-05
1.38020000000000e+01 4.18668623253437e-03 7.15355573065970e-05
1.40700000000000e+01 3.90668305263708e-03 6.73963451378693e-05
1.43380000000000e+01 3.64540632521271e-03 6.34851129086702e-05
1.46060000000000e+01 3.40160363583387e-03 5.97904108890260e-05
1.48740000000000e+01 3.17410633083351e-03 5.63012493572344e-05
1.51420000000000e+01 2.96182391543323e-03 5.30070936314078e-05
1.54100000000000e+01 2.76373882652148e-03 4.98978571184340e-05
1.56780000000000e+01 2.57890155502546e-03 4.69638927375864e-05
1.59460000000000e+01 2.40642609449588e-03 4.41959830281801e-05
1.62140000000000e+01 2.24548569408790e-03 4.15853292088565e-05
1.64820000000000e+01 2.09530889558015e-03 3.91235394195399e-05
1.67500000000000e+01 1.95517583543574e-03 3.68026163451432e-05
1.70180000000000e+01 1.82441479417926e-03 3.46149443921493e-05
1.72860000000000e+01 1.70239897654952e-03 3.25532765647400e-05
1.75540000000000e+01 1.58854350699378e-03 3.06107211657632e-05
1.78220000000000e+01 1.48230262610164e-03 2.87807284291339e-05
1.80900000000000e+01 1.38316707453982e-03 2.70570771739211e-05
1.83580000000000e+01 1.29066165194789e-03 2.54338615561079e-05
1.86260000000000e+01 1.20434293909366e-03 2.39054779815542e-05
1.88940000000000e+01 1.12379717236948e-03 2.24666122328315e-05
1.91620000000000e+01 1.04863826044104e-03 2.11122268531497e-05
1.94300000000000e+01 9.78505933541608e-04 1.98375488223649e-05
1.96980000000000e+01 9.13064016540303e-04 1.86380575529215e-05
1.99660000000000e+01 8.51998817506672e-04 1.75094732273975e-05
2.02340000000000e+01 7.95017624047092e-04 1.64477454939698e-05
2.05020000000000e+01 7.41847300205360e-04 1.54490425315073e-05
2.07700000000000e+01 6.92232977201752e-04 1.45097404920367e-05
2.10380000000000e+01 6.45936831734714e-04 1.36264133249270e-05
2.13060000000000e+01 6.02736945989034e-04 1.27958229842474e-05
2.15740000000000e+01 5.62426243886014e-04 1.20149100182903e-05
2.18420000000000e+01 5.24811498476626e-04 1.12807845381846e-05
2.21100000000000e+01 4.89712405719641e-04 1.05907175607793e-05
2.23780000000000e+01 4.56960720204950e-04 9.94213271954151e-06
2.26460000000000e+01 4.26399448679215e-04 9.33259833602304e-06
2.29140000000000e+01 3.97882097508058e-04 8.75981984348922e-06
2.31820000000000e+01 3.71271970467556e-04 8.22163255353845e-06
2.34500000000000e+01 3.46441513499034e-04 7.71599475594367e-06
2.37180000000000e+01 3.23271703286283e-04 7.24098114149672e-06
2.39860000000000e+01 3.01651476724385e-04 6.79477653731589e-06
2.42540000000000e+01 2.81477198545337e-04 6.37566994386265e-06
2.45220000000000e+01 2.62652164548565e-04 5.98204886279545e-06
2.47900000000000e+01 2.45086138055105e-04 5.61239390475050e-06
2.50580000000000e+01 2.28694917363452e-04 5.26527366616889e-06
2.53260000000000e+01 2.13399932133725e-04 4.93933986437771e-06
2.55940000000000e+01 1.99127866765421e-04 4.63332272026930e-06
2.58620000000000e+01 1.85810308963453e-04 4.34602657809957e-06
2.61300000000000e+01 1.73383421807887e-04 4.07632575213705e-06
2.63980000000000e+01 1.61787637755474e-04 3.82316059013120e-06
2.66660000000000e+01 1.50967373106174e-04 3.58553374382788e-06
2.69340000000000e+01 1.40870761566006e-04 3.36250663703559e-06
2.72020000000000e+01 1.31449405629056e-04 3.15319612203512e-06
2.74700000000000e+01 1.22658144586916e-04 2.95677131542341e-06
2.77380000000000e+01 1.14454838053517e-04 2.77245060478590e-06
2.80060000000000e+01 1.06800163967704e-04 2.59949881790016e-06
2.82740000000000e+01 9.96574301052698e-05 2.43722454648216e-06
2.85420000000000e+01 9.29923981969733e-05 2.28497761679477e-06
2.88100000000000e+01 8.67731198094298e-05 2.14214669974419e-06
2.90780000000000e+01 8.09697832022007e-05 2.00815705339214e-06
2.93460000000000e+01 7.55545704269920e-05 1.88246839110900e-06
2.96140000000000e+01 7.05015239839761e-05 1.76457286888461e-06
2.98820000000000e+01 6.57864223960627e-05 1.65399318559854e-06
3.01500000000000e+01 6.13866641046912e-05 1.55028079032906e-06
3.04180000000000e+01 5.72811591306069e-05 1.45301419105038e-06
3.06860000000000e+01 5.34502279803011e-05 1.36179735932938e-06
3.09540000000000e+01 4.98755073135317e-05 1.27625822588680e-06
3.12220000000000e+01 4.65398619197461e-05 1.19604726213264e-06
3.14900000000000e+01 4.34273025814693e-05 1.12083614302209e-06
3.17580000000000e+01 4.05229094309436e-05 1.05031648680575e-06
3.20260000000000e+01 3.78127604326305e-05 9.84198667467059e-07
3.22940000000000e+01 3.52838646487633e-05 9.22210695849813e-07
3.25620000000000e+01 3.29240999680605e-05 8.64097165680782e-07
3.28300000000000e+01 3.07221549991077e-05 8.09618260885536e-07
3.30980000000000e+01 2.86674748498766e-05 7.58548820780719e-07
3.33660000000000e+01 2.67502105334790e-05 7.10677459903092e-07
3.36340000000000e+01 2.49611717576351e-05 6.65805739404805e-07
3.39020000000000e+01 2.32917828715543e-05 6.23747387105730e-07
3.41700000000000e+01 2.17340417590648e-05 5.84327563447835e-07
3.44380000000000e+01 2.02804814809461e-05 5.47382170743433e-07
3.47060000000000e+01 1.89241344826005e-05 5.12757203248947e-07
3.49740000000000e+01 1.76584991954955e-05 4.80308135728997e-07
3.52420000000000e+01 1.64775088722824e-05 4.49899348302383e-07
3.55100000000000e+01 1.53755025062042e-05 4.21403585481897e-07
3.57780000000000e+01 1.43471976953969e-05 3.94701447434374e-07
3.60460000000000e+01 1.33876653220109e-05 3.69680911596128e-07
3.63140000000000e+01 1.24923059247784e-05 3.46236882882093e-07
3.65820000000000e+01 1.16568276517695e-05 3.24270770824932e-07
3.68500000000000e+01 1.08772256876562e-05 3.03690092073212e-07
3.71180000000000e+01 1.01497630568679e-05 2.84408096765824e-07
3.73860000000000e+01 9.47095271062265e-06 2.66343417383213e-07
3.76540000000000e+01 8.83754081196554e-06 2.49419738755057e-07
3.79220000000000e+01 8.24649113869578e-06 2.33565487978847e-07
3.81900000000000e+01 7.69497052941624e-06 2.18713543074647e-07
3.84580000000000e+01 7.18033530294306e-06 2.04800959268365e-07
3.87260000000000e+01 6.70011858597744e-06 1.91768711859261e-07
3.89940000000000e+01 6.25201848829542e-06 1.79561454687367e-07
3.92620000000000e+01 5.83388706877425e-06 1.68127293273192e-07
3.95300000000000e+01 5.44372003936454e-06 1.57417571755665e-07
3.97980000000000e+01 5.07964715765495e-06 1.47386672804851e-07
4.00660000000000e+01 4.73992326197657e-06 1.37991829733834e-07
4.03340000000000e+01 4.42291990607446e-06 1.29192950079259e-07
4.06020000000000e+01 4.12711755324750e-06 1.20952449962709e-07
4.08700000000000e+01 3.85109829253981e-06 1.13235098585282e-07
4.11380000000000e+01 3.59353904206896e-06 1.06007872245734e-07
4.14060000000000e+01 3.35320520691187e-06 9.92398173083508e-08
4.16740000000000e+01 3.12894476114755e-06 9.29019215805465e-08
4.19420000000000e+01 2.91968272568952e-06 8.69669935919946e-08
4.22100000000000e+01 2.72441601543753e-06 8.14095492972064e-08
4.24780000000000e+01 2.54220863104899e-06 7.62057057517596e-08
4.27460000000000e+01 2.37218717228179e-06 7.13330813390952e-08
4.30140000000000e+01 2.21353665140232e-06 6.67707021499658e-08
4.32820000000000e+01 2.06549658659033e-06 6.24989141403170e-08
4.35500000000000e+01 1.92735735661460e-06 5.84993007157269e-08
4.38180000000000e+01 1.79845679930586e-06 5.47546054115583e-08
4.40860000000000e+01 1.67817703752187e-06 5.12486593577990e-08
4.43540000000000e+01 1.56594151739017e-06 4.79663132362148e-08
4.46220000000000e+01 1.46121224463141e-06 4.48933734550045e-08
4.48900000000000e+01 1.36348720571585e-06 4.20165422826847e-08
4.51580000000000e+01 1.27229796149140e-06 3.93233616984890e-08
4.54260000000000e+01 1.18720740174846e-06 3.68021607312151e-08
4.56940000000000e+01 1.10780764995814e-06 3.44420060722343e-08
4.59620000000000e+01 1.03371810814047e-06 3.22326557613400e-08
4.62300000000000e+01 9.64583632490615e-07 3.01645157563173e-08
4.64980000000000e+01 9.00072831018216e-07 2.82285992085820e-08
4.67660000000000e+01 8.39876475039638e-07 2.64164882780306e-08
4.70340000000000e+01 7.83706016908682e-07 2.47202983303940e-08
4.73020000000000e+01 7.31292206880641e-07 2.31326443699253e-08
4.75700000000000e+01 6.82383802479690e-07 2.16466095692278e-08
4.78380000000000e+01 6.36746364183042e-07 2.02557157664624e-08
4.81060000000000e+01 5.94161131649062e-07 1.89538958081007e-08
4.83740000000000e+01 5.54423975102606e-07 1.77354676228451e-08
4.86420000000000e+01 5.17344416851103e-07 1.65951099193403e-08
4.89100000000000e+01 4.82744718241081e-07 1.55278394068810e-08
4.91780000000000e+01 4.50459027678524e-07 1.45289894445073e-08
4.94460000000000e+01 4.20332585629134e-07 1.35941900296899e-08
4.97140000000000e+01 3.92220982787724e-07 1.27193490432654e-08
4.99820000000000e+01 3.65989467860816e-07 1.19006346724127e-08
5.02500000000000e+01 3.41512301644348e-07 1.11344589382775e-08
5.05180000000000e+01 3.18672154300281e-07 1.04174622593777e-08
5.07860000000000e+01 2.97359542943021e-07 9.74649898617125e-09
5.10540000000000e+01 2.77472306839719e-07 9.11862384616086e-09
5.13220000000000e+01 2.58915117708895e-07 8.53107924265507e-09
5.15900000000000e+01 2.41599022769990e-07 7.98128335382712e-09
5.18580000000000e+01 2.25441018353517e-07 7.46681898201422e-09
5.21260000000000e+01 2.10363652027917e-07 6.98542310630366e-09
5.23940000000000e+01 1.96294651335938e-07 6.53497709436380e-09
5.26620000000000e+01 1.83166577360922e-07 6.11349753221081e-09
5.29300000000000e+01 1.70916501462371e-07 5.71912763316827e-09
5.31980000000000e+01 1.59485703631263e-07 5.35012918968533e-09
5.34660000000000e+01 1.48819391019181e-07 5.00487503393857e-09
5.37340000000000e+01 1.38866435292063e-07 4.68184197526411e-09
5.40020000000000e+01 1.29579127549576e-07 4.37960418445734e-09
5.42700000000000e+01 1.20912949635347e-07 4.09682699684469e-09
5.45380000000000e+01 1.12826360741828e-07 3.83226110778481e-09
5.48060000000000e+01 1.05280598286917e-07 3.58473713590077e-09
5.50740000000000e+01 9.82394921078232e-08 3.35316053088753e-09
5.53420000000000e+01 9.16692910815490e-08 3.13650680418586e-09
5.56100000000000e+01 8.55385013408939e-08 2.93381706217212e-09
5.58780000000000e+01 7.98177353104764e-08 2.74419382278594e-09
5.61460000000000e+01 7.44795708391435e-08 2.56679709771342e-09
5.64140000000000e+01 6.94984197535219e-08 2.40084072336293e-09
5.66820000000000e+01 6.48504052026338e-08 2.24558892492187e-09
5.69500000000000e+01 6.05132472056340e-08 2.10035309876843e-09
5.72180000000000e+01 5.64661558540494e-08 1.96448879943601e-09
5.74860000000000e+01 5.26897316565907e-08 1.83739291819539e-09
5.77540000000000e+01 4.91658725488473e-08 1.71850104113177e-09
5.80220000000000e+01 4.58776871221193e-08 1.60728497535639e-09
5.82900000000000e+01 4.28094136554568e-08 1.50325043270654e-09
5.85580000000000e+01 3.99463445627891e-08 1.40593486095828e-09
5.88260000000000e+01 3.72747558929873e-08 1.31490541320342e-09
5.90940000000000e+01 3.47818415449222e-08 1.22975704663217e-09
5.93620000000000e+01 3.24556518821811e-08 1.15011074251406e-09
5.96300000000000e+01 3.02850364531980e-08 1.07561183968763e-09
5.98980000000000e+01 2.82595905422281e-08 1.00592847435460e-09
6.01660000000000e+01 2.63696052949627e-08 9.40750119428466e-10
6.04340000000000e+01 2.46060211797145e-08 8.79786217114075e-10
6.07020000000000e+01 2.29603845610923e-08 8.22764898794136e-10
6.09700000000000e+01 2.14248071780031e-08 7.69431786672873e-10
6.12380000000000e+01 1.99919283317430e-08 7.19548871978037e-10
6.15060000000000e+01 1.86548796029257e-08 6.72893464851385e-10
6.17740000000000e+01 1.74072519281242e-08 6.29257211365828e-10
6.20420000000000e+01 1.62430648784065e-08 5.88445173396294e-10
6.23100000000000e+01 1.51567379925060e-08 5.50274967341999e-10
6.25780000000000e+01 1.41430640272127e-08 5.14575957951415e-10
6.28460000000000e+01 1.31971839967636e-08 4.81188503738782e-10
6.31140000000000e+01 1.23145638815833e-08 4.49963250703759e-10
6.33820000000000e+01 1.14909728947316e-08 4.20760471274363e-10
6.36500000000000e+01 1.07224632018782e-08 3.93449445588797e-10
6.39180000000000e+01 1.00053509975944e-08 3.67907882414916e-10
6.41860000000000e+01 9.33619884725062e-09 3.44021377177623e-10
6.44540000000000e+01 8.71179920987892e-09 3.21682904725190e-10
6.47220000000000e+01 8.12915906301601e-09 3.00792344616121e-10
6.49900000000000e+01 7.58548555582857e-09 2.81256036849163e-10
6.52580000000000e+01 7.07817262174915e-09 2.62986366091222e-10
6.55260000000000e+01 6.60478848645131e-09 2.45901372581723e-10
6.57940000000000e+01 6.16306401128426e-09 2.29924388007847e-10
6.60620000000000e+01 5.75088181629194e-09 2.14983694753705e-10
6.63300000000000e+01 5.36626613067834e-09 2.01012207028203e-10
6.65980000000000e+01 5.00737332206787e-09 1.87947172471607e-10
6.68660000000000e+01 4.67248305916343e-09 1.75729892930068e-10
6.71340000000000e+01 4.35999006544080e-09 1.64305463170897e-10
6.74020000000000e+01 4.06839642435129e-09 1.53622526389673e-10
6.76700000000000e+01 3.79630439914798e-09 1.43633045433549e-10
6.79380000000000e+01 3.54240973291787e-09 1.34292088733743e-10
6.82060000000000e+01 3.30549539670412e-09 1.25557630004526e-10
6.84740000000000e+01 3.08442575575022e-09 1.17390360826154e-10
6.87420000000000e+01 2.87814112590244e-09 1.09753515285615e-10
6.90100000000000e+01 2.68565269407696e-09 1.02612705901799e-10
6.92780000000000e+01 2.50603777844330e-09 9.59357701111692e-11
6.95460000000000e+01 2.33843540560388e-09 8.96926266362365e-11
6.98140000000000e+01 2.18204218356939e-09 8.38551411025370e-11
7.00820000000000e+01 2.03610845074709e-09 7.83970003103307e-11
7.03500000000000e+01 1.89993468248268e-09 7.32935946052639e-11
7.06180000000000e+01 1.77286813793051e-09 6.85219078277881e-11
7.08860000000000e+01 1.65429973117923e-09 6.40604143544404e-11
7.11540000000000e+01 1.54366111163476e-09 5.98889827752626e-11
7.14220000000000e+01 1.44042193966560e-09 5.59887857808214e-11
7.16900000000000e+01 1.34408734445137e-09 5.23422158596297e-11
7.19580000000000e+01 1.25419555184902e-09 4.89328064323407e-11
7.22260000000000e+01 1.17031567090600e-09 4.57451580730394e-11
7.24940000000000e+01 1.09204562841014e-09 4.27648694903819e-11
7.27620000000000e+01 1.01901024157565e-09 3.99784729623085e-11
7.30300000000000e+01 9.50859419626818e-10 3.73733739377101e-11
7.32980000000000e+01 8.87266485658697e-10 3.49377945368221e-11
7.35660000000000e+01 8.27926610730851e-10 3.26607206993239e-11
7.38340000000000e+01 7.72555352687974e-10 3.05318527452436e-11
7.41020000000000e+01 7.20887292703370e-10 2.85415591288486e-11
7.43700000000000e+01 6.72674763009617e-10 2.66808331798204e-11
7.46380000000000e+01 6.27686659717880e-10 2.49412526392243e-11
7.49060000000000e+01 5.85707335035189e-10 2.33149418101554e-11
7.51740000000000e+01 5.46535563569587e-10 2.17945361545159e-11
7.54420000000000e+01 5.09983577768204e-10 2.03731491782143e-11
7.57100000000000e+01 4.75876167864680e-10 1.90443414572178e-11
7.59780000000000e+01 4.44049842021583e-10 1.78020916663774e-11
7.62460000000000e+01 4.14352042642033e-10 1.66407694818281e-11
7.65140000000000e+01 3.86640415093944e-10 1.55551102360797e-11
7.67820000000000e+01 3.60782125341579e-10 1.45401912126926e-11
7.70500000000000e+01 3.36653223213513e-10 1.35914094747109e-11
7.73180000000000e+01 3.14138048254870e-10 1.27044611278405e-11
7.75860000000000e+01 2.93128675315822e-10 1.18753219257350e-11
7.78540000000000e+01 2.73524397218817e-10 1.11002291307170e-11
7.81220000000000e+01 2.55231242024716e-10 1.03756645488469e-11
7.83900000000000e+01 2.38161522583908e-10 9.69833866347593e-12
7.86580000000000e+01 2.22233416213179e-10 9.06517579630788e-12
7.89260000000000e+01 2.07370572483555e-10 8.47330022956907e-12
7.91940000000000e+01 1.93501747239069e-10 7.92002322716747e-12
7.94620000000000e+01 1.80560461092143e-10 7.40283089672621e-12
7.97300000000000e+01 1.68484680758608e-10 6.91937283812570e-12
7.99980000000000e+01 1.57216521704847e-10 6.46745152769438e-12
8.02660000000000e+01 1.46701970681734e-10 6.04501239046985e-12
8.05340000000000e+01 1.36890626815342e-10 5.65013451602230e-12
8.08020000000000e+01 1.27735460013357e-10 5.28102197620436e-12
8.10700000000000e+01 1.19192585529130e-10 4.93599570587944e-12
8.13380000000000e+01 1.11221053602762e-10 4.61348591019484e-12
8.16060000000000e+01 1.03782653170865e-10 4.31202496431874e-12
8.18740000000000e+01 9.68417287041112e-11 4.03024077376098e-12
8.21420000000000e+01 9.03650092945731e-11 3.76685056545748e-12
8.24100000000000e+01 8.43214491736105e-11 3.52065508172396e-12
8.26780000000000e+01 7.86820788958273e-11 3.29053315098759e-12
8.29460000000000e+01 7.34198664757615e-11 3.07543661089116e-12
8.32140000000000e+01 6.85095878116728e-11 2.87438556094204e-12
8.34820000000000e+01 6.39277057753138e-11 2.68646392335391e-12
8.37500000000000e+01 5.96522573881080e-11 2.51081529210980e-12
8.40180000000000e+01 5.56627485429202e-11 2.34663905156676e-12
8.42860000000000e+01 5.19400557667753e-11 2.19318674713049e-12
8.45540000000000e+01 4.84663345536296e-11 2.04975869165846e-12
