Energy (eV)          EEDF (eV^-(3/2))     First Anisotropy
1.54237288135593e-02 9.31918939062949e-02 4.55198202166177e-05
4.62711864406780e-02 9.26472263820677e-02 7.51993093669424e-05
7.71186440677966e-02 9.21057422096506e-02 9.93594633640748e-05
1.07966101694915e-01 9.15674227854704e-02 1.17767697593495e-04
1.38813559322034e-01 9.10322496099771e-02 1.33164808935365e-04
1.69661016949153e-01 9.05002043001834e-02 1.46585499887666e-04
2.00508474576271e-01 8.99712685708390e-02 1.58564466827524e-04
2.31355932203390e-01 8.94454242505529e-02 1.69424147747865e-04
2.62203389830508e-01 8.89226532688974e-02 1.79378095188429e-04
2.93050847457627e-01 8.84029376635641e-02 1.88577036507670e-04
3.23898305084746e-01 8.78862595790570e-02 1.97132395988891e-04
3.54745762711864e-01 8.73726012606172e-02 2.05129502939476e-04
3.85593220338983e-01 8.68619450590337e-02 2.12635550489602e-04
4.16440677966102e-01 8.63542734295969e-02 2.19704661743649e-04
4.47288135593220e-01 8.58495689274092e-02 2.26381256484056e-04
4.78135593220339e-01 8.53478142119953e-02 2.32702371217775e-04
5.08983050847458e-01 8.48489920420175e-02 2.38699306225601e-04
5.39830508474576e-01 8.43530852779975e-02 2.44398824121039e-04
5.70677966101695e-01 8.38600768815522e-02 2.49824042843619e-04
6.01525423728814e-01 8.33699499120458e-02 2.54995112023110e-04
6.32372881355932e-01 8.28826875287643e-02 2.59929734477311e-04
6.63220338983051e-01 8.23982729901963e-02 2.64643575251917e-04
6.94067796610169e-01 8.19166896511205e-02 2.69150585051769e-04
7.24915254237288e-01 8.14379209650565e-02 2.73463260164729e-04
7.55762711864407e-01 8.09619504808717e-02 2.77592853331209e-04
7.86610169491525e-01 8.04887618442598e-02 2.81549545936426e-04
8.17457627118644e-01 8.00183387970972e-02 2.85342591142904e-04
8.48305084745763e-01 7.95506651750875e-02 2.88980432376017e-04
8.79152542372881e-01 7.90857249090026e-02 2.92470802706131e-04
9.10000000000000e-01 7.86235020240618e-02 2.95820809555833e-04
9.40847457627119e-01 7.81639806377899e-02 2.99037005954074e-04
9.71694915254237e-01 7.77071449615460e-02 3.02125451825168e-04
1.00254237288136e+00 7.72529792980100e-02 3.05091766595731e-04
1.03338983050847e+00 7.68014680429503e-02 3.07941175050546e-04
1.06423728813559e+00 7.63525956807402e-02 3.10678546517573e-04
1.09508474576271e+00 7.59063467881975e-02 3.13308428284777e-04
1.12593220338983e+00 7.54627060362824e-02 3.15835078666976e-04
1.15677966101695e+00 7.50216581775026e-02 3.18262491890643e-04
1.18762711864407e+00 7.45831880575421e-02 3.20594420147218e-04
1.21847457627119e+00 7.41472806106235e-02 3.22834396517328e-04
1.24932203389831e+00 7.37139208590519e-02 3.24985752109154e-04
1.28016949152542e+00 7.32830939160762e-02 3.27051634486067e-04
1.31101694915254e+00 7.28547849750560e-02 3.29035021129027e-04
1.34186440677966e+00 7.24289793193487e-02 3.30938731365007e-04
1.37271186440678e+00 7.20056623183421e-02 3.32765439635823e-04
1.40355932203390e+00 7.15848194299620e-02 3.34517687379812e-04
1.43440677966102e+00 7.11664361910086e-02 3.36197891542196e-04
1.46525423728814e+00 7.07504982258868e-02 3.37808352161376e-04
1.49610169491525e+00 7.03369912430259e-02 3.39351261624044e-04
1.52694915254237e+00 6.99259010370988e-02 3.40828713008819e-04
1.55779661016949e+00 6.95172134803300e-02 3.42242705605756e-04
1.58864406779661e+00 6.91109145302674e-02 3.43595149850996e-04
1.61949152542373e+00 6.87069902265274e-02 3.44887874057188e-04
1.65033898305085e+00 6.83054266927711e-02 3.46122630510793e-04
1.68118644067797e+00 6.79062101288296e-02 3.47301099109959e-04
1.71203389830508e+00 6.75093268176731e-02 3.48424890616765e-04
1.74288135593220e+00 6.71147631224324e-02 3.49495551731913e-04
1.77372881355932e+00 6.67225054881667e-02 3.50514569707897e-04
1.80457627118644e+00 6.63325404346880e-02 3.51483374763069e-04
1.83542372881356e+00 6.59448545628470e-02 3.52403342232099e-04
1.86627118644068e+00 6.55594345517932e-02 3.53275796976001e-04
1.89711864406780e+00 6.51762671585431e-02 3.54102015133330e-04
1.92796610169492e+00 6.47953392194983e-02 3.54883228024676e-04
1.95881355932203e+00 6.44166376439896e-02 3.55620623576527e-04
1.98966101694915e+00 6.40401494198674e-02 3.56315347575601e-04
2.02050847457627e+00 6.36658616110386e-02 3.56968506679580e-04
2.05135593220339e+00 6.32937613588375e-02 3.57581171164061e-04
2.08220338983051e+00 6.29238358760825e-02 3.58154375837450e-04
2.11305084745763e+00 6.25560724521705e-02 3.58689120832059e-04
2.14389830508475e+00 6.21904584507877e-02 3.59186374085883e-04
2.17474576271186e+00 6.18269813111519e-02 3.59647073608221e-04
2.20559322033898e+00 6.14656285425187e-02 3.60072128038712e-04
2.23644067796610e+00 6.11063877288434e-02 3.60462417113546e-04
2.26728813559322e+00 6.07492465266452e-02 3.60818793753290e-04
2.29813559322034e+00 6.03941926661357e-02 3.61142085968937e-04
2.32898305084746e+00 6.00412139461247e-02 3.61433097168563e-04
2.35983050847458e+00 5.96902982382992e-02 3.61692606392837e-04
2.39067796610169e+00 5.93414334852259e-02 3.61921370102598e-04
2.42152542372881e+00 5.89946077013784e-02 3.62120123810626e-04
2.45237288135593e+00 5.86498089683986e-02 3.62289582207479e-04
2.48322033898305e+00 5.83070254390370e-02 3.62430439230816e-04
2.51406779661017e+00 5.79662453352802e-02 3.62543369971887e-04
2.54491525423729e+00 5.76274569479572e-02 3.62629030685630e-04
2.57576271186441e+00 5.72906486376422e-02 3.62688060545020e-04
2.60661016949153e+00 5.69558088302989e-02 3.62721081602625e-04
2.63745762711864e+00 5.66229260208601e-02 3.62728698710500e-04
2.66830508474576e+00 5.62919887715032e-02 3.62711500856095e-04
2.69915254237288e+00 5.59629857124752e-02 3.62670062380058e-04
2.73000000000000e+00 5.56359055380194e-02 3.62604942850749e-04
2.76084745762712e+00 5.53107370096894e-02 3.62516686904879e-04
2.79169491525424e+00 5.49874689547229e-02 3.62405825441345e-04
2.82254237288136e+00 5.46660902667971e-02 3.62272876708948e-04
2.85338983050847e+00 5.43465899022111e-02 3.62118346117949e-04
2.88423728813559e+00 5.40289568829603e-02 3.61942726023375e-04
2.91508474576271e+00 5.37131802952005e-02 3.61746496802161e-04
2.94593220338983e+00 5.33992492899402e-02 3.61530127834005e-04
2.97677966101695e+00 5.30871530794554e-02 3.61294077267509e-04
3.00762711864407e+00 5.27768809401478e-02 3.61038791762329e-04
3.03847457627119e+00 5.24684222110913e-02 3.60764707758956e-04
3.06932203389831e+00 5.21617662936713e-02 3.60472251209863e-04
3.10016949152542e+00 5.18569026522015e-02 3.60161838763704e-04
3.13101694915254e+00 5.15538208105920e-02 3.59833877488246e-04
3.16186440677966e+00 5.12525103549745e-02 3.59488764573594e-04
3.19271186440678e+00 5.09529609323476e-02 3.59126888216022e-04
3.22355932203390e+00 5.06551622511423e-02 3.58748628421664e-04
3.25440677966102e+00 5.03591040780818e-02 3.58354356708904e-04
3.28525423728814e+00 5.00647762406307e-02 3.57944435793972e-04
3.31610169491525e+00 4.97721686257086e-02 3.57519220406855e-04
3.34694915254237e+00 4.94812711802107e-02 3.57079058032941e-04
3.37779661016949e+00 4.91920739080422e-02 3.56624288602049e-04
3.40864406779661e+00 4.89045668724081e-02 3.56155244162568e-04
3.43949152542373e+00 4.86187401945894e-02 3.55672249638629e-04
3.47033898305085e+00 4.83345840544222e-02 3.55175623518083e-04
3.50118644067797e+00 4.80520886874941e-02 3.54665677533200e-04
3.53203389830508e+00 4.77712443872872e-02 3.54142716328264e-04
3.56288135593220e+00 4.74920415040129e-02 3.53607038165341e-04
3.59372881355932e+00 4.72144704450529e-02 3.53058935565389e-04
3.62457627118644e+00 4.69385216723054e-02 3.52498694984631e-04
3.65542372881356e+00 4.66641857041931e-02 3.51926596479116e-04
3.68627118644068e+00 4.63914531145524e-02 3.51342914597924e-04
3.71711864406780e+00 4.61203145323138e-02 3.50747918050966e-04
3.74796610169492e+00 4.58507606418959e-02 3.50141870548737e-04
3.77881355932203e+00 4.55827821807182e-02 3.49525030474408e-04
3.80966101694915e+00 4.53163699410607e-02 3.48897650545670e-04
3.84050847457627e+00 4.50515147690199e-02 3.48259978428601e-04
3.87135593220339e+00 4.47882075648720e-02 3.47612257294829e-04
3.90220338983051e+00 4.45264392807123e-02 3.46954725495187e-04
3.93305084745763e+00 4.42662009222023e-02 3.46287616224186e-04
3.96389830508475e+00 4.40074835475719e-02 3.45611158098558e-04
3.99474576271186e+00 4.37502782679547e-02 3.44925575682216e-04
4.02559322033898e+00 4.34945762451447e-02 3.44231089163191e-04
4.05644067796610e+00 4.32403686932400e-02 3.43527914022164e-04
4.08728813559322e+00 4.29876468776879e-02 3.42816261579043e-04
4.11813559322034e+00 4.27364021155948e-02 3.42096339488880e-04
4.14898305084746e+00 4.24866257735920e-02 3.41368351423390e-04
4.17983050847458e+00 4.22383092693837e-02 3.40632496744567e-04
4.21067796610170e+00 4.19914440708329e-02 3.39888971022249e-04
4.24152542372881e+00 4.17460216962466e-02 3.39137966503757e-04
4.27237288135593e+00 4.15020337123454e-02 3.38379671800785e-04
4.30322033898305e+00 4.12594717357210e-02 3.37614271568838e-04
4.33406779661017e+00 4.10183274319612e-02 3.36841947188251e-04
4.36491525423729e+00 4.07785925153661e-02 3.36062876449830e-04
4.39576271186441e+00 4.05402587492034e-02 3.35277234197448e-04
4.42661016949152e+00 4.03033179437932e-02 3.34485192020420e-04
4.45745762711864e+00 4.00677619578666e-02 3.33686917939400e-04
4.48830508474576e+00 3.98335826977375e-02 3.32882576869527e-04
4.51915254237288e+00 3.96007721175379e-02 3.32072331040675e-04
4.55000000000000e+00 3.93693222173919e-02 3.31256339696650e-04
4.58084745762712e+00 3.91392250446980e-02 3.30434758788182e-04
4.61169491525424e+00 3.89104726933339e-02 3.29607741414055e-04
4.64254237288136e+00 3.86830573038742e-02 3.28775438221393e-04
4.67338983050847e+00 3.84569710618473e-02 3.27937997111907e-04
4.70423728813559e+00 3.82322061989466e-02 3.27095562942261e-04
4.73508474576271e+00 3.80087549922673e-02 3.26248277944870e-04
4.76593220338983e+00 3.77866097645070e-02 3.25396282109650e-04
4.79677966101695e+00 3.75657628823005e-02 3.24539712897497e-04
4.82762711864407e+00 3.73462067573653e-02 3.23678704948258e-04
4.85847457627119e+00 3.71279338457684e-02 3.22813390644833e-04
4.88932203389830e+00 3.69109366476688e-02 3.21943899827669e-04
4.92016949152542e+00 3.66952077074960e-02 3.21070360328027e-04
4.95101694915254e+00 3.64807396123754e-02 3.20192897689162e-04
4.98186440677966e+00 3.62675249931982e-02 3.19311634882297e-04
5.01271186440678e+00 3.60555565239257e-02 3.18426692688126e-04
5.04355932203390e+00 3.58448269217533e-02 3.17538190043018e-04
5.07440677966102e+00 3.56353289456044e-02 3.16646243767557e-04
5.10525423728814e+00 3.54270553971432e-02 3.15750968290321e-04
5.13610169491525e+00 3.52199991201056e-02 3.14852476013040e-04
5.16694915254237e+00 3.50141530004498e-02 3.13950877642005e-04
5.19779661016949e+00 3.48095099649152e-02 3.13046281924115e-04
5.22864406779661e+00 3.46060629819815e-02 3.12138795378220e-04
5.25949152542373e+00 3.44038050612248e-02 3.11228522645009e-04
5.29033898305085e+00 3.42027292534561e-02 3.10315566804666e-04
5.32118644067797e+00 3.40028286493408e-02 3.09400029120166e-04
5.35203389830509e+00 3.38040963803085e-02 3.08482008776273e-04
5.38288135593220e+00 3.36065256179321e-02 3.07561603215071e-04
5.41372881355932e+00 3.34101095740557e-02 3.06638908440510e-04
5.44457627118644e+00 3.32148414994715e-02 3.05714018769044e-04
5.47542372881356e+00 3.30207146847825e-02 3.04787026576119e-04
5.50627118644068e+00 3.28277224598046e-02 3.03858022752906e-04
5.53711864406780e+00 3.26358581933388e-02 3.02927096458659e-04
5.56796610169491e+00 3.24451152932841e-02 3.01994335553313e-04
5.59881355932203e+00 3.22554872053815e-02 3.01059826355843e-04
5.62966101694915e+00 3.20669674140227e-02 3.00123653398782e-04
5.66050847457627e+00 3.18795494416812e-02 2.99185899735499e-04
5.69135593220339e+00 3.16932268490149e-02 2.98246647219222e-04
5.72220338983051e+00 3.15079932336617e-02 2.97305976268443e-04
5.75305084745763e+00 3.13238422310073e-02 2.96363965628642e-04
5.78389830508475e+00 3.11407675136362e-02 2.95420692667591e-04
5.81474576271186e+00 3.09587627914257e-02 2.94476233643578e-04
5.84559322033898e+00 3.07778218103900e-02 2.93530663477688e-04
5.87644067796610e+00 3.05979383534098e-02 2.92584055522512e-04
5.90728813559322e+00 3.04191062397016e-02 2.91636481846177e-04
5.93813559322034e+00 3.02413193249048e-02 2.90688013490265e-04
5.96898305084746e+00 3.00645714999709e-02 2.89738720248846e-04
5.99983050847458e+00 2.98888566918571e-02 2.88788670444095e-04
6.03067796610169e+00 2.97141688630146e-02 2.87837931199495e-04
6.06152542372881e+00 2.95405020114667e-02 2.86886568688061e-04
6.09237288135593e+00 2.93678501697435e-02 2.85934647917983e-04
6.12322033898305e+00 2.91962074055397e-02 2.84982232514772e-04
6.15406779661017e+00 2.90255678212216e-02 2.84029385097133e-04
6.18491525423729e+00 2.88559255536248e-02 2.83076167064403e-04
6.21576271186441e+00 2.86872747741234e-02 2.82122638952728e-04
6.24661016949153e+00 2.85196096876138e-02 2.81168860227729e-04
6.27745762711864e+00 2.83529245331352e-02 2.80214889074088e-04
6.30830508474576e+00 2.81872135833971e-02 2.79260782647416e-04
6.33915254237288e+00 2.80224711448415e-02 2.78306597303064e-04
6.37000000000000e+00 2.78586915566672e-02 2.77352388395012e-04
6.40084745762712e+00 2.76958691914187e-02 2.76398210071734e-04
6.43169491525424e+00 2.75339984545305e-02 2.75444115518839e-04
6.46254237288136e+00 2.73730737843833e-02 2.74490157179695e-04
6.49338983050847e+00 2.72130896513649e-02 2.73536386560304e-04
6.52423728813559e+00 2.70540405584317e-02 2.72582854031272e-04
6.55508474576271e+00 2.68959210406674e-02 2.71629609061782e-04
6.58593220338983e+00 2.67387256653338e-02 2.70676700432243e-04
6.61677966101695e+00 2.65824490309677e-02 2.69724176045025e-04
6.64762711864407e+00 2.64270857679147e-02 2.68772082732425e-04
6.67847457627119e+00 2.62726305379035e-02 2.67820466580275e-04
6.70932203389830e+00 2.61190780338630e-02 2.66869372740477e-04
6.74016949152542e+00 2.59664229799654e-02 2.65918845737974e-04
6.77101694915254e+00 2.58146601307645e-02 2.64968929287946e-04
6.80186440677966e+00 2.56637842716989e-02 2.64019666110242e-04
6.83271186440678e+00 2.55137902186846e-02 2.63071098145822e-04
6.86355932203390e+00 2.53646728181523e-02 2.62123266753535e-04
6.89440677966102e+00 2.52164269462190e-02 2.61176212532679e-04
6.92525423728814e+00 2.50690475091664e-02 2.60229975143169e-04
6.95610169491525e+00 2.49225294430471e-02 2.59284593514379e-04
6.98694915254237e+00 2.47768677137178e-02 2.58340106035019e-04
7.01779661016949e+00 2.46320573160409e-02 2.57396550381123e-04
7.04864406779661e+00 2.44880932743409e-02 2.56453963341548e-04
7.07949152542373e+00 2.43449706420231e-02 2.55512381019601e-04
7.11033898305085e+00 2.42026845016025e-02 2.54571839016436e-04
7.14118644067797e+00 2.40612299639351e-02 2.53632372264160e-04
7.17203389830508e+00 2.39206021686526e-02 2.52694014856566e-04
7.20288135593220e+00 2.37807962837932e-02 2.51756800243889e-04
7.23372881355932e+00 2.36418075058274e-02 2.50820761409904e-04
7.26457627118644e+00 2.35036310589164e-02 2.49885930710028e-04
7.29542372881356e+00 2.33662621953267e-02 2.48952339707194e-04
7.32627118644068e+00 2.32296961950733e-02 2.48020019442650e-04
7.35711864406780e+00 2.30939283657578e-02 2.47089000275681e-04
7.38796610169492e+00 2.29589540425884e-02 2.46159312140738e-04
7.41881355932203e+00 2.28247685876722e-02 2.45230984391025e-04
7.44966101694915e+00 2.26913673904058e-02 2.44304045639965e-04
7.48050847457627e+00 2.25587458671330e-02 2.43378523941979e-04
7.51135593220339e+00 2.24268994611619e-02 2.42454446956891e-04
7.54220338983051e+00 2.22958236420816e-02 2.41531841798214e-04
7.57305084745763e+00 2.21655139061358e-02 2.40610734879416e-04
7.60389830508475e+00 2.20359657758906e-02 2.39691152088594e-04
7.63474576271186e+00 2.19071748002488e-02 2.38773118947377e-04
7.66559322033898e+00 2.17791365537910e-02 2.37856660463832e-04
7.69644067796610e+00 2.16518466371314e-02 2.36941800983256e-04
7.72728813559322e+00 2.15253006765970e-02 2.36028564357067e-04
7.75813559322034e+00 2.13994943242384e-02 2.35116974096461e-04
7.78898305084746e+00 2.12744232571941e-02 2.34207053229665e-04
7.81983050847458e+00 2.11500831780308e-02 2.33298824157253e-04
7.85067796610169e+00 2.10264698144313e-02 2.32392308815399e-04
7.88152542372881e+00 2.09035789192039e-02 2.31487528824500e-04
7.91237288135593e+00 2.07814062696684e-02 2.30584505350686e-04
7.94322033898305e+00 2.06599476679807e-02 2.29683258965442e-04
7.97406779661017e+00 2.05391989408312e-02 2.28783809873639e-04
8.00491525423729e+00 2.04191559393018e-02 2.27886177776423e-04
8.03576271186441e+00 2.02998145388708e-02 2.26990382087825e-04
8.06661016949153e+00 2.01811706388256e-02 2.26096441800991e-04
8.09745762711864e+00 2.00632201625696e-02 2.25204375352615e-04
8.12830508474576e+00 1.99459590573324e-02 2.24314200774852e-04
8.15915254237288e+00 1.98293832941723e-02 2.23425935833627e-04
8.19000000000000e+00 1.97134888674097e-02 2.22539597898845e-04
8.22084745762712e+00 1.95982717949197e-02 2.21655203812898e-04
8.25169491525424e+00 1.94837281178513e-02 2.20772770037619e-04
8.28254237288136e+00 1.93698539006281e-02 2.19892312788093e-04
8.31338983050848e+00 1.92566452304010e-02 2.19013847906768e-04
8.34423728813559e+00 1.91440982173275e-02 2.18137390735852e-04
8.37508474576271e+00 1.90322089942995e-02 2.17262956259498e-04
8.40593220338983e+00 1.89209737169424e-02 2.16390559233383e-04
8.43677966101695e+00 1.88103885630861e-02 2.15520214062504e-04
8.46762711864407e+00 1.87004497330319e-02 2.14651934677325e-04
8.49847457627119e+00 1.85911534492888e-02 2.13785734732982e-04
8.52932203389831e+00 1.84824959564437e-02 2.12921627488318e-04
8.56016949152542e+00 1.83744735211581e-02 2.12059625995137e-04
8.59101694915254e+00 1.82670824316607e-02 2.11199742980181e-04
8.62186440677966e+00 1.81603189980008e-02 2.10341990725537e-04
8.65271186440678e+00 1.80541795517937e-02 2.09486381201187e-04
8.68355932203390e+00 1.79486604462162e-02 2.08632926185729e-04
8.71440677966102e+00 1.78437580555160e-02 2.07781637151865e-04
8.74525423728814e+00 1.77394687752538e-02 2.06932525150323e-04
8.77610169491525e+00 1.76357890220569e-02 2.06085600938189e-04
8.80694915254237e+00 1.75327152336122e-02 2.05240875095836e-04
8.83779661016949e+00 1.74302438681929e-02 2.04398357915746e-04
8.86864406779661e+00 1.73283714048899e-02 2.03558059289886e-04
8.89949152542373e+00 1.72270943433718e-02 2.02719988833998e-04
8.93033898305085e+00 1.71264092038775e-02 2.01884156000815e-04
8.96118644067797e+00 1.70263125267588e-02 2.01050569972174e-04
8.99203389830508e+00 1.69268008727002e-02 2.00219239549712e-04
9.02288135593220e+00 1.68278708224879e-02 1.99390173275218e-04
9.05372881355932e+00 1.67295189769997e-02 1.98563379540318e-04
9.08457627118644e+00 1.66317419567633e-02 1.97738866481736e-04
9.11542372881356e+00 1.65345364021666e-02 1.96916641875224e-04
9.14627118644068e+00 1.64378989732331e-02 1.96096713304568e-04
9.17711864406780e+00 1.63418263495071e-02 1.95279088057888e-04
9.20796610169491e+00 1.62463152300427e-02 1.94463773288334e-04
9.23881355932203e+00 1.61513623329795e-02 1.93650775912923e-04
9.26966101694915e+00 1.60569643957421e-02 1.92840102510010e-04
9.30050847457627e+00 1.59631181748235e-02 1.92031759431675e-04
9.33135593220339e+00 1.58698204457732e-02 1.91225752906094e-04
9.36220338983051e+00 1.57770680027865e-02 1.90422088939317e-04
9.39305084745763e+00 1.56848576588954e-02 1.89620773215802e-04
9.42389830508475e+00 1.55931862457586e-02 1.88821811207277e-04
9.45474576271186e+00 1.55020506136481e-02 1.88025208271957e-04
9.48559322033898e+00 1.54114476310524e-02 1.87230969559170e-04
9.51644067796610e+00 1.53213741848589e-02 1.86439099912811e-04
9.54728813559322e+00 1.52318271801499e-02 1.85649603976833e-04
9.57813559322034e+00 1.51428035401884e-02 1.84862486291404e-04
9.60898305084746e+00 1.50543002060343e-02 1.84077751200346e-04
9.63983050847458e+00 1.49663141367189e-02 1.83295402757337e-04
9.67067796610169e+00 1.48788423090465e-02 1.82515444828197e-04
9.70152542372881e+00 1.47918817175799e-02 1.81737881184103e-04
9.73237288135593e+00 1.47054293742684e-02 1.80962715411674e-04
