Energy (eV)          EEDF (eV^-(3/2))     First Anisotropy
1.56500000000000e+00 3.47794634188844e-02 1.11600990658884e-04
4.69500000000000e+00 2.45448442723619e-02 1.57700169984549e-04
7.82500000000000e+00 1.73219860553507e-02 1.47914471346425e-04
1.09550000000000e+01 1.22246121251472e-02 1.24454536496994e-04
1.40850000000000e+01 8.62725215992964e-03 9.98980789874430e-05
1.72150000000000e+01 6.08849418444142e-03 7.80623818922757e-05
2.03450000000000e+01 4.29682136870326e-03 5.99431798000336e-05
2.34750000000000e+01 3.03238753544753e-03 4.54665849175131e-05
2.66050000000000e+01 2.14004106200780e-03 3.41719334527087e-05
2.97350000000000e+01 1.51028709013724e-03 2.55018724862064e-05
3.28650000000000e+01 1.06585202271548e-03 1.89244986608767e-05
3.59950000000000e+01 7.52201711678181e-04 1.39790490725951e-05
3.91250000000000e+01 5.30849876899487e-04 1.02865205253185e-05
4.22550000000000e+01 3.74635669434326e-04 7.54492648428359e-06
4.53850000000000e+01 2.64390915247552e-04 5.51873227287602e-06
4.85150000000000e+01 1.86588095498184e-04 4.02701074040093e-06
5.16450000000000e+01 1.31680460158934e-04 2.93235303411160e-06
5.47750000000000e+01 9.29305995721329e-05 2.13131346977715e-06
5.79050000000000e+01 6.55837344919103e-05 1.54655571123683e-06
6.10350000000000e+01 4.62842836450955e-05 1.12058888816124e-06
6.41650000000000e+01 3.26641190706195e-05 8.10874304745780e-07
6.72950000000000e+01 2.30519863468313e-05 5.86059958281799e-07
7.04250000000000e+01 1.62684342836746e-05 4.23115701761870e-07
7.35550000000000e+01 1.14810910461354e-05 3.05172868872054e-07
7.66850000000000e+01 8.10252844933745e-06 2.19906635227882e-07
7.98150000000000e+01 5.71818192265109e-06 1.58331746790042e-07
8.29450000000000e+01 4.03548160367242e-06 1.13910272774892e-07
8.60750000000000e+01 2.84795272236256e-06 8.18932009919894e-08
8.92050000000000e+01 2.00988023373250e-06 5.88362584097748e-08
9.23350000000000e+01 1.41842893747108e-06 4.22449081522221e-08
9.54650000000000e+01 1.00102514412961e-06 3.03147299676361e-08
9.85950000000000e+01 7.06451562505680e-07 2.17419854357239e-08
1.01725000000000e+02 4.98562711529747e-07 1.55856706490215e-08
1.04855000000000e+02 3.51849709902645e-07 1.11672410021583e-08
1.07985000000000e+02 2.48310223559888e-07 7.99783628028013e-09
1.11115000000000e+02 1.75239499675649e-07 5.72553986327348e-09
1.14245000000000e+02 1.23671437310616e-07 4.09720645664728e-09
1.17375000000000e+02 8.72784071786463e-08 2.93086667074157e-09
1.20505000000000e+02 6.15948235525820e-08 2.09579925450635e-09
1.23635000000000e+02 4.34691971487072e-08 1.49815463305452e-09
1.26765000000000e+02 3.06774334557528e-08 1.07059271063164e-09
1.29895000000000e+02 2.16499265034190e-08 7.64820296385953e-10
1.33025000000000e+02 1.52789612690220e-08 5.46220913690811e-10
1.36155000000000e+02 1.07827921458951e-08 3.89993093527441e-10
1.39285000000000e+02 7.60971930057259e-09 2.78375271134198e-10
1.42415000000000e+02 5.37039266360632e-09 1.98652778351174e-10
1.45545000000000e+02 3.79003695433896e-09 1.41727348462556e-10
1.48675000000000e+02 2.67473553891104e-09 1.01090926923638e-10
1.51805000000000e+02 1.88763600178709e-09 7.20898934084171e-11
1.54935000000000e+02 1.33215774920815e-09 5.13977620611149e-11
1.58065000000000e+02 9.40141143258125e-10 3.66374597572194e-11
1.61195000000000e+02 6.63484012889671e-10 2.61108672969080e-11
1.64325000000000e+02 4.68239304828847e-10 1.86052417588360e-11
1.67455000000000e+02 3.30449630024559e-10 1.32547184689622e-11
1.70585000000000e+02 2.33207586072430e-10 9.44125632730404e-12
1.73715000000000e+02 1.64581144175249e-10 6.72381758066782e-12
1.76845000000000e+02 1.16149536446132e-10 4.78775063069709e-12
1.79975000000000e+02 8.19699904521640e-11 3.40862373716416e-12
1.83105000000000e+02 5.78485247579444e-11 2.42639161119976e-12
1.86235000000000e+02 4.08253288576803e-11 1.72694794070492e-12
1.89365000000000e+02 2.88115813378430e-11 1.22895570791951e-12
1.92495000000000e+02 2.03331422529615e-11 8.74447748809382e-13
1.95625000000000e+02 1.43496696356660e-11 6.22119852266290e-13
1.98755000000000e+02 1.01269649369007e-11 4.42546228094357e-13
2.01885000000000e+02 7.14688361732836e-12 3.14767114256427e-13
2.05015000000000e+02 5.04375652111904e-12 2.23855539270306e-13
2.08145000000000e+02 3.55952065354054e-12 1.59182640696783e-13
2.11275000000000e+02 2.51205371035051e-12 1.13181238818597e-13
2.14405000000000e+02 1.77282686572109e-12 8.04647201450495e-14
2.17535000000000e+02 1.25113371695541e-12 5.71992419552685e-14
2.20665000000000e+02 8.82960207773008e-13 4.06565076550021e-14
2.23795000000000e+02 6.23129820534073e-13 2.88952305595961e-14
2.26925000000000e+02 4.39760217754510e-13 2.05342936496843e-14
2.30055000000000e+02 3.10351138312951e-13 1.45912348491755e-14
2.33185000000000e+02 2.19023515915013e-13 1.03672630723786e-14
2.36315000000000e+02 1.54571047441755e-13 7.36541217133471e-15
2.39445000000000e+02 1.09085130002717e-13 5.23229095522239e-15
2.42575000000000e+02 7.69844403894178e-14 3.71663234180800e-15
2.45705000000000e+02 5.43300820370678e-14 2.63980078781904e-15
2.48835000000000e+02 3.83422649982692e-14 1.87481085293491e-15
2.51965000000000e+02 2.70592134242403e-14 1.33140259000408e-15
2.55095000000000e+02 1.90964469931976e-14 9.45426602858576e-16
2.58225000000000e+02 1.34768990527021e-14 6.71295196798613e-16
2.61355000000000e+02 9.51102622081580e-15 4.76614608187522e-16
2.64485000000000e+02 6.71219836397818e-15 3.38368563051794e-16
2.67615000000000e+02 4.73698692773942e-15 2.40205112253250e-16
2.70745000000000e+02 3.34302473448878e-15 1.70508005469611e-16
2.73875000000000e+02 2.35926645901408e-15 1.21025887013051e-16
2.77005000000000e+02 1.66500061073584e-15 8.58980700585445e-17
2.80135000000000e+02 1.17503770002699e-15 6.09622247546748e-17
2.83265000000000e+02 8.29257111127731e-16 4.32624484734943e-17
2.86395000000000e+02 5.85230036738495e-16 3.06997517897813e-17
2.89525000000000e+02 4.13013275744084e-16 2.17837523841110e-17
2.92655000000000e+02 2.91475070028030e-16 1.54562856596818e-17
2.95785000000000e+02 2.05702144307069e-16 1.09661134907576e-17
2.98915000000000e+02 1.45169781307393e-16 7.77993585604327e-18
3.02045000000000e+02 1.02450392414855e-16 5.51919175170869e-18
3.05175000000000e+02 7.23021197072178e-17 3.91517903935552e-18
3.08305000000000e+02 5.10256368076035e-17 2.77718572640886e-18
3.11435000000000e+02 3.60102251796299e-17 2.30970243115261e-18
