Energy (eV)          EEDF (eV^-(3/2))     First Anisotropy
2.26315789473684e-02 1.01446931375197e-01 6.16712506096383e-05
6.78947368421053e-02 1.00526766687150e-01 1.01716865434667e-04
1.13157894736842e-01 9.96149482649606e-02 1.33960533553395e-04
1.58421052631579e-01 9.87114004019397e-02 1.58264070252842e-04
2.03684210526316e-01 9.78160480836482e-02 1.78375059618918e-04
2.48947368421053e-01 9.69288169770782e-02 1.95715034362821e-04
2.94210526315789e-01 9.60496334148491e-02 2.11021916479993e-04
3.39473684210526e-01 9.51784244026265e-02 2.24742659820050e-04
3.84736842105263e-01 9.43151176081133e-02 2.37174574182283e-04
4.30000000000000e-01 9.34596413550664e-02 2.48528411148009e-04
4.75263157894737e-01 9.26119246173413e-02 2.58960635751103e-04
5.20526315789474e-01 9.17718970130256e-02 2.68591580474039e-04
5.65789473684211e-01 9.09394887986046e-02 2.77516403230141e-04
6.11052631578947e-01 9.01146308631573e-02 2.85812072760507e-04
6.56315789473684e-01 8.92972547226205e-02 2.93542020109445e-04
7.01578947368421e-01 8.84872925152990e-02 3.00759349190332e-04
7.46842105263158e-01 8.76846769925646e-02 3.07509119248414e-04
7.92105263157895e-01 8.68893415170355e-02 3.13830009465511e-04
8.37368421052632e-01 8.61012200557549e-02 3.19755560285450e-04
8.82631578947368e-01 8.53202471747093e-02 3.25315116076265e-04
9.27894736842105e-01 8.45463580333896e-02 3.30534553397808e-04
9.73157894736842e-01 8.37794883794230e-02 3.35436851940799e-04
1.01842105263158e+00 8.30195745432300e-02 3.40042547906025e-04
1.06368421052632e+00 8.22665534341459e-02 3.44370099198660e-04
1.10894736842105e+00 8.15203625295414e-02 3.48436180988998e-04
1.15421052631579e+00 8.07809398767787e-02 3.52255928376735e-04
1.19947368421053e+00 8.00482240852114e-02 3.55843137609604e-04
1.24473684210526e+00 7.93221543269635e-02 3.59210435772413e-04
1.29000000000000e+00 7.86026703137789e-02 3.62369420397503e-04
1.33526315789474e+00 7.78897123103605e-02 3.65330777400755e-04
1.38052631578947e+00 7.71832211232311e-02 3.68104384410654e-04
1.42578947368421e+00 7.64831381007937e-02 3.70699399151519e-04
1.47105263157895e+00 7.57894051133837e-02 3.73124333261445e-04
1.51631578947368e+00 7.51019645636963e-02 3.75387116034078e-04
1.56157894736842e+00 7.44207593768196e-02 3.77495153035567e-04
1.60684210526316e+00 7.37457329955533e-02 3.79455374362269e-04
1.65210526315789e+00 7.30768293797782e-02 3.81274279840361e-04
1.69736842105263e+00 7.24139929894023e-02 3.82957976172520e-04
1.74263157894737e+00 7.17571687922971e-02 3.84512209660567e-04
1.78789473684211e+00 7.11063022554636e-02 3.85942398067706e-04
1.83315789473684e+00 7.04613393405678e-02 3.87253656323887e-04
1.87842105263158e+00 6.98222265028495e-02 3.88450822050568e-04
1.92368421052632e+00 6.91889106762732e-02 3.89538476001597e-04
1.96894736842105e+00 6.85613392796432e-02 3.90520960326454e-04
2.01421052631579e+00 6.79394602086831e-02 3.91402397569706e-04
2.05947368421053e+00 6.73232218317388e-02 3.92186705416569e-04
2.10473684210526e+00 6.67125729883960e-02 3.92877612360213e-04
2.15000000000000e+00 6.61074629763683e-02 3.93478669717159e-04
2.19526315789474e+00 6.55078415562425e-02 3.93993262468241e-04
2.24052631578947e+00 6.49136589442965e-02 3.94424621026200e-04
2.28578947368421e+00 6.43248658109525e-02 3.94775831881738e-04
2.33105263157895e+00 6.37414132688539e-02 3.95049845754163e-04
2.37631578947368e+00 6.31632528767091e-02 3.95249484987904e-04
2.42157894736842e+00 6.25903366325960e-02 3.95377452476112e-04
2.46684210526316e+00 6.20226169699958e-02 3.95436337834106e-04
2.51210526315790e+00 6.14600467560825e-02 3.95428625042417e-04
2.55736842105263e+00 6.09025792810083e-02 3.95356697634346e-04
2.60263157894737e+00 6.03501682608933e-02 3.95222843429993e-04
2.64789473684211e+00 5.98027678316584e-02 3.95029260864573e-04
2.69315789473684e+00 5.92603325452413e-02 3.94778062989555e-04
2.73842105263158e+00 5.87228173677774e-02 3.94471282978955e-04
2.78368421052632e+00 5.81901776699029e-02 3.94110877528751e-04
2.82894736842105e+00 5.76623692290644e-02 3.93698729968366e-04
2.87421052631579e+00 5.71393482238199e-02 3.93236654947643e-04
2.91947368421053e+00 5.66210712302116e-02 3.92726401093043e-04
2.96473684210526e+00 5.61074952198903e-02 3.92169655134519e-04
3.01000000000000e+00 5.55985775512836e-02 3.91568044181634e-04
3.05526315789474e+00 5.50942759713617e-02 3.90923137806771e-04
3.10052631578947e+00 5.45945486103467e-02 3.90236451339531e-04
3.14578947368421e+00 5.40993539798107e-02 3.89509448881164e-04
3.19105263157895e+00 5.36086509644697e-02 3.88743544976299e-04
3.23631578947368e+00 5.31223988235731e-02 3.87940106141243e-04
3.28157894736842e+00 5.26405571858993e-02 3.87100453837981e-04
3.32684210526316e+00 5.21630860464135e-02 3.86225865791379e-04
3.37210526315789e+00 5.16899457643447e-02 3.85317578651556e-04
3.41736842105263e+00 5.12210970556511e-02 3.84376789134486e-04
3.46263157894737e+00 5.07565009940398e-02 3.83404655062268e-04
3.50789473684211e+00 5.02961190062893e-02 3.82402297765244e-04
3.55315789473684e+00 4.98399128690578e-02 3.81370802980560e-04
3.59842105263158e+00 4.93878447069594e-02 3.80311223018284e-04
3.64368421052632e+00 4.89398769856204e-02 3.79224577539856e-04
3.68894736842105e+00 4.84959725123950e-02 3.78111854263495e-04
3.73421052631579e+00 4.80560944319870e-02 3.76974010949182e-04
3.77947368421053e+00 4.76202062233960e-02 3.75811976008261e-04
3.82473684210526e+00 4.71882716980103e-02 3.74626650301982e-04
3.87000000000000e+00 4.67602549931859e-02 3.73418907668937e-04
3.91526315789474e+00 4.63361205727139e-02 3.72189595396638e-04
3.96052631578947e+00 4.59158332227127e-02 3.70939535665899e-04
4.00578947368421e+00 4.54993580497428e-02 3.69669526867566e-04
4.05105263157895e+00 4.50866604747725e-02 3.68380343985362e-04
4.09631578947368e+00 4.46777062334691e-02 3.67072738933263e-04
4.14157894736842e+00 4.42724613722884e-02 3.65747442025911e-04
4.18684210526316e+00 4.38708922456603e-02 3.64405162266055e-04
4.23210526315790e+00 4.34729655141315e-02 3.63046588686545e-04
4.27736842105263e+00 4.30786481387605e-02 3.61672390596303e-04
4.32263157894737e+00 4.26879073812352e-02 3.60283217791623e-04
4.36789473684211e+00 4.23007108001899e-02 3.58879701826661e-04
4.41315789473684e+00 4.19170262485181e-02 3.57462456189885e-04
4.45842105263158e+00 4.15368218715510e-02 3.56032077467787e-04
4.50368421052632e+00 4.11600661018391e-02 3.54589145492202e-04
4.54894736842105e+00 4.07867276591265e-02 3.53134223459998e-04
4.59421052631579e+00 4.04167755468799e-02 3.51667859044352e-04
4.63947368421053e+00 4.00501790497193e-02 3.50190584490824e-04
4.68473684210526e+00 3.96869077316389e-02 3.48702917636893e-04
4.73000000000000e+00 3.93269314311398e-02 3.47205361988165e-04
4.77526315789474e+00 3.89702202610853e-02 3.45698406771331e-04
4.82052631578947e+00 3.86167446054265e-02 3.44182527742578e-04
4.86578947368421e+00 3.82664751174618e-02 3.42658187919232e-04
4.91105263157895e+00 3.79193827152318e-02 3.41125837614325e-04
4.95631578947368e+00 3.75754385812895e-02 3.39585914451070e-04
5.00157894736842e+00 3.72346141595725e-02 3.38038844255242e-04
5.04684210526316e+00 3.68968811530341e-02 3.36485041057560e-04
5.09210526315789e+00 3.65622115219482e-02 3.34924907915124e-04
5.13736842105263e+00 3.62305774796011e-02 3.33358836904740e-04
5.18263157894737e+00 3.59019514919806e-02 3.31787209100149e-04
5.22789473684211e+00 3.55763062748167e-02 3.30210395370787e-04
5.27315789473684e+00 3.52536147913210e-02 3.28628756351051e-04
5.31842105263158e+00 3.49338502505381e-02 3.27042643177150e-04
5.36368421052632e+00 3.46169861033106e-02 3.25452397450374e-04
5.40894736842105e+00 3.43029960419002e-02 3.23858351186859e-04
5.45421052631579e+00 3.39918539971894e-02 3.22260827537574e-04
5.49947368421053e+00 3.36835341365193e-02 3.20660140733569e-04
5.54473684210526e+00 3.33780108620927e-02 3.19056596750328e-04
5.59000000000000e+00 3.30752588071882e-02 3.17450493249711e-04
5.63526315789474e+00 3.27752528357275e-02 3.15842119509780e-04
5.68052631578947e+00 3.24779680396265e-02 3.14231756943140e-04
5.72578947368421e+00 3.21833797372398e-02 3.12619679562728e-04
5.77105263157895e+00 3.18914634697636e-02 3.11006153911971e-04
5.81631578947368e+00 3.16021950007645e-02 3.09391438983996e-04
5.86157894736842e+00 3.13155503136421e-02 3.07775786825444e-04
5.90684210526316e+00 3.10315056096372e-02 3.06159442454371e-04
5.95210526315790e+00 3.07500373063254e-02 3.04542644418298e-04
5.99736842105263e+00 3.04711220342367e-02 3.02925624712302e-04
6.04263157894737e+00 3.01947366363488e-02 3.01308608687897e-04
6.08789473684211e+00 2.99208581656819e-02 2.99691815604165e-04
6.13315789473684e+00 2.96494638833954e-02 2.98075458536689e-04
6.17842105263158e+00 2.93805312573327e-02 2.96459744887544e-04
6.22368421052632e+00 2.91140379588399e-02 2.94844876295134e-04
6.26894736842105e+00 2.88499618622324e-02 2.93231048535969e-04
6.31421052631579e+00 2.85882810425137e-02 2.91618452029825e-04
6.35947368421053e+00 2.83289737735569e-02 2.90007271742755e-04
6.40473684210526e+00 2.80720185266990e-02 2.88397687654397e-04
6.45000000000000e+00 2.78173939677461e-02 2.86789874662720e-04
6.49526315789474e+00 2.75650789564188e-02 2.85184002481281e-04
6.54052631578947e+00 2.73150525441883e-02 2.83580235998455e-04
6.58578947368421e+00 2.70672939729120e-02 2.81978735598552e-04
6.63105263157895e+00 2.68217826719789e-02 2.80379657064511e-04
6.67631578947368e+00 2.65784982577407e-02 2.78783151473776e-04
6.72157894736842e+00 2.63374205314364e-02 2.77189365632547e-04
6.76684210526316e+00 2.60985294775165e-02 2.75598441973652e-04
6.81210526315790e+00 2.58618052623261e-02 2.74010518958576e-04
6.85736842105263e+00 2.56272282314138e-02 2.72425730978203e-04
6.90263157894737e+00 2.53947789089522e-02 2.70844208247616e-04
6.94789473684211e+00 2.51644379957668e-02 2.69266077206909e-04
6.99315789473684e+00 2.49361863677352e-02 2.67691460418413e-04
7.03842105263158e+00 2.47100050745178e-02 2.66120476938168e-04
7.08368421052632e+00 2.44858753370190e-02 2.64553242216003e-04
7.12894736842105e+00 2.42637785468007e-02 2.62989867990309e-04
7.17421052631579e+00 2.40436962642106e-02 2.61430462659093e-04
7.21947368421053e+00 2.38256102168519e-02 2.59875131177562e-04
7.26473684210526e+00 2.36095022983618e-02 2.58323975401861e-04
7.31000000000000e+00 2.33953545660136e-02 2.56777093989725e-04
7.35526315789474e+00 2.31831492401279e-02 2.55234582296093e-04
7.40052631578947e+00 2.29728687022942e-02 2.53696532634091e-04
7.44578947368421e+00 2.27644954941865e-02 2.52163034507254e-04
7.49105263157895e+00 2.25580123152729e-02 2.50634174511593e-04
7.53631578947368e+00 2.23534020222262e-02 2.49110036232923e-04
7.58157894736842e+00 2.21506476272157e-02 2.47590700570690e-04
7.62684210526316e+00 2.19497322964972e-02 2.46076245638225e-04
7.67210526315790e+00 2.17506393492735e-02 2.44566747062793e-04
7.71736842105263e+00 2.15533522555298e-02 2.43062277889221e-04
7.76263157894737e+00 2.13578546354465e-02 2.41562908479407e-04
7.80789473684211e+00 2.11641302577749e-02 2.40068706813312e-04
7.85315789473684e+00 2.09721630384910e-02 2.38579738391409e-04
7.89842105263158e+00 2.07819370396985e-02 2.37096066513846e-04
7.94368421052632e+00 2.05934364675825e-02 2.35617752186128e-04
7.98894736842105e+00 2.04066456718268e-02 2.34144854020988e-04
8.03421052631579e+00 2.02215491440694e-02 2.32677428518786e-04
8.07947368421053e+00 2.00381315166161e-02 2.31215529972499e-04
8.12473684210526e+00 1.98563775613860e-02 2.29759210727623e-04
8.17000000000000e+00 1.96762721879753e-02 2.28308521090368e-04
8.21526315789474e+00 1.94978004430816e-02 2.26863509232175e-04
8.26052631578948e+00 1.93209475090347e-02 2.25424221385053e-04
8.30578947368421e+00 1.91456987027767e-02 2.23990702014803e-04
8.35105263157895e+00 1.89720394740087e-02 2.22562993731603e-04
8.39631578947368e+00 1.87999554046215e-02 2.21141137197260e-04
8.44157894736842e+00 1.86294322072837e-02 2.19725171372321e-04
8.48684210526316e+00 1.84604557242556e-02 2.18315133426165e-04
8.53210526315790e+00 1.82930119264093e-02 2.16911058966116e-04
8.57736842105263e+00 1.81270869114741e-02 2.15512981950785e-04
8.62263157894737e+00 1.79626669034761e-02 2.14120934600393e-04
8.66789473684211e+00 1.77997382513946e-02 2.12734947627562e-04
8.71315789473684e+00 1.76382874280296e-02 2.11355050150454e-04
8.75842105263158e+00 1.74783010290597e-02 2.09981269906888e-04
8.80368421052632e+00 1.73197657713808e-02 2.08613633170541e-04
8.84894736842105e+00 1.71626684925555e-02 2.07252164664341e-04
8.89421052631579e+00 1.70069961495350e-02 2.05896887776318e-04
8.93947368421053e+00 1.68527358175765e-02 2.04547824475898e-04
8.98473684210526e+00 1.66998746893388e-02 2.03204995514064e-04
9.03000000000000e+00 1.65484000733081e-02 2.01868420342524e-04
9.07526315789474e+00 1.63982993932590e-02 2.00538117030260e-04
9.12052631578947e+00 1.62495601870374e-02 1.99214102412594e-04
9.16578947368421e+00 1.61021701056857e-02 1.97896392223067e-04
9.21105263157895e+00 1.59561169119352e-02 1.96585001015277e-04
9.25631578947369e+00 1.58113884796757e-02 1.95279942082116e-04
9.30157894736842e+00 1.56679727927855e-02 1.93981227647291e-04
9.34684210526316e+00 1.55258579441342e-02 1.92688868787241e-04
9.39210526315790e+00 1.53850321347427e-02 1.91402875608722e-04
9.43736842105263e+00 1.52454836723538e-02 1.90123257173516e-04
9.48263157894737e+00 1.51072009709146e-02 1.88850021420926e-04
9.52789473684211e+00 1.49701725494621e-02 1.87583175347202e-04
9.57315789473684e+00 1.48343870311705e-02 1.86322724930517e-04
9.61842105263158e+00 1.46998331425452e-02 1.85068675297483e-04
9.66368421052632e+00 1.45664997120674e-02 1.83821030650789e-04
9.70894736842105e+00 1.44343756696889e-02 1.82579794194742e-04
9.75421052631579e+00 1.43034500457713e-02 1.81344968303581e-04
9.79947368421053e+00 1.41737119701752e-02 1.80116554449511e-04
9.84473684210526e+00 1.40451506714878e-02 1.78894553358857e-04
9.89000000000000e+00 1.39177554757361e-02 1.77678964942617e-04
9.93526315789474e+00 1.37915158058955e-02 1.76469788224986e-04
9.98052631578947e+00 1.36664211808794e-02 1.75267021501387e-04
1.00257894736842e+01 1.35424612146691e-02 1.74070662480743e-04
1.00710526315789e+01 1.34196256149650e-02 1.72880707543479e-04
1.01163157894737e+01 1.32979041845197e-02 1.71697153023547e-04
1.01615789473684e+01 1.31772868161682e-02 1.70519994324997e-04
1.02068421052632e+01 1.30577634967975e-02 1.69349226134024e-04
1.02521052631579e+01 1.29393243017764e-02 1.68184842508528e-04
1.02973684210526e+01 1.28219593988016e-02 1.67026836823998e-04
1.03426315789474e+01 1.27056590424787e-02 1.65875202249531e-04
1.03878947368421e+01 1.25904135769487e-02 1.64729930135975e-04
1.04331578947368e+01 1.24762134350268e-02 1.63591012426867e-04
1.04784210526316e+01 1.23630491341152e-02 1.62458440108214e-04
1.05236842105263e+01 1.22509112797869e-02 1.61332203566023e-04
1.05689473684211e+01 1.21397905606973e-02 1.60212292667705e-04
1.06142105263158e+01 1.20296777520579e-02 1.59098696711505e-04
1.06594736842105e+01 1.19205637106844e-02 1.57991404864393e-04
1.07047368421053e+01 1.18124393773628e-02 1.56890404672929e-04
1.07500000000000e+01 1.17052957760426e-02 1.55795684289034e-04
1.07952631578947e+01 1.15991240100964e-02 1.54707231036823e-04
1.08405263157895e+01 1.14939152655578e-02 1.53625031742218e-04
1.08857894736842e+01 1.13896608064696e-02 1.52549073146908e-04
1.09310526315789e+01 1.12863519770853e-02 1.51479340498090e-04
1.09763157894737e+01 1.11839802010993e-02 1.50415819654522e-04
1.10215789473684e+01 1.10825369781292e-02 1.49358495729096e-04
1.10668421052632e+01 1.09820138867360e-02 1.48307353400652e-04
1.11121052631579e+01 1.08824025800510e-02 1.47262376983142e-04
1.11573684210526e+01 1.07836947887049e-02 1.46223550380191e-04
1.12026315789474e+01 1.06858823165705e-02 1.45190857466787e-04
1.12478947368421e+01 1.05889570427479e-02 1.44164280784906e-04
1.12931578947368e+01 1.04929109208446e-02 1.43143803489368e-04
1.13384210526316e+01 1.03977359757506e-02 1.42129408092670e-04
1.13836842105263e+01 1.03034243063715e-02 1.41121076752260e-04
1.14289473684211e+01 1.02099680816241e-02 1.40118791333633e-04
1.14742105263158e+01 1.01173595430883e-02 1.39122533367931e-04
1.15194736842105e+01 1.00255910011066e-02 1.38132284403663e-04
1.15647368421053e+01 9.93465483657767e-03 1.37148024800288e-04
1.16100000000000e+01 9.84454350028110e-03 1.36169735526891e-04
1.16552631578947e+01 9.75524950991921e-03 1.35197397000563e-04
1.17005263157895e+01 9.66676545259219e-03 1.34230989351667e-04
1.17457894736842e+01 9.57908398112903e-03 1.33270492756627e-04
1.17910526315789e+01 9.49219781575794e-03 1.32315886294692e-04
1.18363157894737e+01 9.40609974346237e-03 1.31367149651156e-04
1.18815789473684e+01 9.32078261519501e-03 1.30424262016469e-04
1.19268421052632e+01 9.23623934818931e-03 1.29487202337360e-04
1.19721052631579e+01 9.15246292250605e-03 1.28555949370716e-04
1.20173684210526e+01 9.06944638327654e-03 1.27630481645613e-04
1.20626315789474e+01 8.98718283733791e-03 1.26710777770603e-04
1.21078947368421e+01 8.90566545474229e-03 1.25796815375291e-04
1.21531578947368e+01 8.82488746815433e-03 1.24888572685774e-04
1.21984210526316e+01 8.74484217029178e-03 1.23986027505643e-04
1.22436842105263e+01 8.66552291602146e-03 1.23089157447711e-04
1.22889473684211e+01 8.58692311919084e-03 1.22197939983271e-04
1.23342105263158e+01 8.50903625466231e-03 1.21312352406688e-04
1.23794736842105e+01 8.43185585522524e-03 1.20432372118980e-04
1.24247368421053e+01 8.35537551296099e-03 1.19557975647898e-04
1.24700000000000e+01 8.27958887867820e-03 1.18689140105782e-04
1.25152631578947e+01 8.20448965956051e-03 1.17825842245660e-04
1.25605263157895e+01 8.13007162106832e-03 1.16968058675441e-04
1.26057894736842e+01 8.05632858402969e-03 1.16115766126449e-04
1.26510526315789e+01 7.98325442591356e-03 1.15268940524338e-04
1.26963157894737e+01 7.91084308029073e-03 1.14427558370424e-04
1.27415789473684e+01 7.83908853461602e-03 1.13591595846658e-04
1.27868421052632e+01 7.76798483200630e-03 1.12761029018579e-04
1.28321052631579e+01 7.69752606849911e-03 1.11935833877550e-04
1.28773684210526e+01 7.62770639477913e-03 1.11115986309091e-04
1.29226315789474e+01 7.55852001350559e-03 1.10301462341126e-04
1.29678947368421e+01 7.48996118046440e-03 1.09492237283061e-04
1.30131578947368e+01 7.42202420406372e-03 1.08688287004752e-04
1.30584210526316e+01 7.35470344329290e-03 1.07889587107328e-04
1.31036842105263e+01 7.28799330933750e-03 1.07096113110654e-04
1.31489473684211e+01 7.22188826305972e-03 1.06307840492066e-04
1.31942105263158e+01 7.15638281656665e-03 1.05524744656836e-04
1.32394736842105e+01 7.09147153075333e-03 1.04746801167527e-04
1.32847368421053e+01 7.02714901634636e-03 1.03973984946261e-04
1.33300000000000e+01 6.96340993343096e-03 1.03206271459306e-04
1.33752631578947e+01 6.90024898957212e-03 1.02443635948394e-04
1.34205263157895e+01 6.83766094128215e-03 1.01686053604191e-04
1.34657894736842e+01 6.77564059170363e-03 1.00933499783636e-04
1.35110526315789e+01 6.71418279158363e-03 1.00185949253208e-04
1.35563157894737e+01 6.65328243882231e-03 9.94433773119635e-05
1.36015789473684e+01 6.59293447669956e-03 9.87057590623104e-05
1.36468421052632e+01 6.53313389524846e-03 9.79730695744583e-05
1.36921052631579e+01 6.47387572906952e-03 9.72452839197213e-05
1.37373684210526e+01 6.41515505866497e-03 9.65223771441560e-05
1.37826315789474e+01 6.35696700830669e-03 9.58043244696629e-05
1.38278947368421e+01 6.29930674691898e-03 9.50911005922341e-05
1.38731578947368e+01 6.24216948765599e-03 9.43826807226618e-05
1.39184210526316e+01 6.18555048626726e-03 9.36790399104147e-05
1.39636842105263e+01 6.12944504234707e-03 9.29801531957294e-05
1.40089473684211e+01 6.07384849732247e-03 9.22859956401746e-05
1.40542105263158e+01 6.01875623566704e-03 9.15965423020501e-05
1.40994736842105e+01 5.96416368293789e-03 9.09117684224100e-05
1.41447368421053e+01 5.91006630657630e-03 9.02316487743117e-05
1.41900000000000e+01 5.85645961551144e-03 8.95561586274848e-05
1.42352631578947e+01 5.80333915865368e-03 8.88852731211059e-05
1.42805263157895e+01 5.75070052603142e-03 8.82189674046482e-05
