Energy (eV)          EEDF (eV^-(3/2))     First Anisotropy
1.88709677419355e-02 1.80775634283824e-01 1.21430392755484e-04
5.66129032258064e-02 1.78766676772275e-01 2.00074537471333e-04
9.43548387096774e-02 1.76780044782004e-01 2.62953886718400e-04
1.32096774193548e-01 1.74815490217398e-01 3.10019441646491e-04
1.69838709677419e-01 1.72872767717462e-01 3.48694104161300e-04
2.07580645161290e-01 1.70951634674635e-01 3.81802295450272e-04
2.45322580645161e-01 1.69051851156262e-01 4.10814517915014e-04
2.83064516129032e-01 1.67173179913289e-01 4.36624005630440e-04
3.20806451612903e-01 1.65315386318552e-01 4.59826605598078e-04
3.58548387096774e-01 1.63478238364926e-01 4.80845862062510e-04
3.96290322580645e-01 1.61661506612452e-01 4.99997077138974e-04
4.34032258064516e-01 1.59864964180821e-01 5.17523387642620e-04
4.71774193548387e-01 1.58088386702139e-01 5.33617566170521e-04
5.09516129032258e-01 1.56331552309976e-01 5.48435933918674e-04
5.47258064516129e-01 1.54594241596128e-01 5.62107635832528e-04
5.85000000000000e-01 1.52876237597442e-01 5.74741048711511e-04
6.22741935483871e-01 1.51177325755619e-01 5.86428343134839e-04
6.60483870967742e-01 1.49497293902542e-01 5.97248814204968e-04
6.98225806451613e-01 1.47835932222516e-01 6.07271367365823e-04
7.35967741935484e-01 1.46193033236568e-01 6.16556408910575e-04
7.73709677419355e-01 1.44568391766710e-01 6.25157308222153e-04
8.11451612903226e-01 1.42961804919536e-01 6.33121545342527e-04
8.49193548387097e-01 1.41373072052206e-01 6.40491623803572e-04
8.86935483870968e-01 1.39801994755573e-01 6.47305805150478e-04
9.24677419354839e-01 1.38248376821669e-01 6.53598706581014e-04
9.62419354838710e-01 1.36712024226528e-01 6.59401791740134e-04
1.00016129032258e+00 1.35192745099003e-01 6.64743777899675e-04
1.03790322580645e+00 1.33690349700424e-01 6.69650973868158e-04
1.07564516129032e+00 1.32204650412035e-01 6.74147570350720e-04
1.11338709677419e+00 1.30735461676357e-01 6.78255878061727e-04
1.15112903225806e+00 1.29282600024817e-01 6.81996536540888e-04
1.18887096774194e+00 1.27845884002245e-01 6.85388693066192e-04
1.22661290322581e+00 1.26425134182666e-01 6.88450149802883e-04
1.26435483870968e+00 1.25020173145643e-01 6.91197505287347e-04
1.30209677419355e+00 1.23630825419268e-01 6.93646264665461e-04
1.33983870967742e+00 1.22256917503755e-01 6.95810942087087e-04
1.37758064516129e+00 1.20898277806298e-01 6.97705150263849e-04
1.41532258064516e+00 1.19554736661217e-01 6.99341678702775e-04
1.45306451612903e+00 1.18226126268967e-01 7.00732563813257e-04
1.49080645161290e+00 1.16912280713323e-01 7.01889150494719e-04
1.52854838709677e+00 1.15613035904074e-01 7.02822147811607e-04
1.56629032258065e+00 1.14328229591652e-01 7.03541678134139e-04
1.60403225806452e+00 1.13057701313116e-01 7.04057322969090e-04
1.64177419354839e+00 1.11801292396973e-01 7.04378158451218e-04
1.67951612903226e+00 1.10558845942624e-01 7.04512798026764e-04
1.71725806451613e+00 1.09330206777917e-01 7.04469420942197e-04
1.75500000000000e+00 1.08115221469759e-01 7.04255802753017e-04
1.79274193548387e+00 1.06913738276057e-01 7.03879342629511e-04
1.83048387096774e+00 1.05725607154630e-01 7.03347087685294e-04
1.86822580645161e+00 1.04550679717587e-01 7.02665755756625e-04
1.90596774193548e+00 1.03388809238747e-01 7.01841755729561e-04
1.94370967741935e+00 1.02239850610251e-01 7.00881207567314e-04
1.98145161290323e+00 1.01103660342948e-01 6.99789955966515e-04
2.01919354838710e+00 9.99800965479601e-02 6.98573591752947e-04
2.05693548387097e+00 9.88690189018250e-02 6.97237463158445e-04
2.09467741935484e+00 9.77702886515242e-02 6.95786690158277e-04
2.13241935483871e+00 9.66837685753253e-02 6.94226177332151e-04
2.17016129032258e+00 9.56093229867784e-02 6.92560625343639e-04
2.20790322580645e+00 9.45468176973005e-02 6.90794542030586e-04
2.24564516129032e+00 9.34961200192531e-02 6.88932252298303e-04
2.28338709677419e+00 9.24570987301425e-02 6.86977907739153e-04
2.32112903225806e+00 9.14296240748786e-02 6.84935495206012e-04
2.35887096774194e+00 9.04135677314811e-02 6.82808845895170e-04
2.39661290322581e+00 8.94088028084427e-02 6.80601640035187e-04
2.43435483870968e+00 8.84152038285410e-02 6.78317418375439e-04
2.47209677419355e+00 8.74326467006792e-02 6.75959586109347e-04
2.50983870967742e+00 8.64610087208472e-02 6.73531419741296e-04
2.54758064516129e+00 8.55001685408101e-02 6.71036073182261e-04
2.58532258064516e+00 8.45500061684877e-02 6.68476583141626e-04
2.62306451612903e+00 8.36104029378704e-02 6.65855874531921e-04
2.66080645161290e+00 8.26812415088794e-02 6.63176765238497e-04
2.69854838709677e+00 8.17624058384356e-02 6.60441970931173e-04
2.73629032258065e+00 8.08537811798558e-02 6.57654109299924e-04
2.77403225806452e+00 7.99552540550062e-02 6.54815704918535e-04
2.81177419354839e+00 7.90667122501571e-02 6.51929190754290e-04
2.84951612903226e+00 7.81880448017184e-02 6.48996915396189e-04
2.88725806451613e+00 7.73191419729960e-02 6.46021144291694e-04
2.92500000000000e+00 7.64598952528768e-02 6.43004063545076e-04
2.96274193548387e+00 7.56101973302106e-02 6.39947783216600e-04
3.00048387096774e+00 7.47699420921629e-02 6.36854340188803e-04
3.03822580645161e+00 7.39390245995093e-02 6.33725701149224e-04
3.07596774193548e+00 7.31173410846928e-02 6.30563765172304e-04
3.11370967741935e+00 7.23047889279833e-02 6.27370366907305e-04
3.15145161290323e+00 7.15012666527397e-02 6.24147276971939e-04
3.18919354838710e+00 7.07066739125408e-02 6.20896207297584e-04
3.22693548387097e+00 6.99209114710716e-02 6.17618811407901e-04
3.26467741935484e+00 6.91438811997494e-02 6.14316686947296e-04
3.30241935483871e+00 6.83754860556938e-02 6.10991377825021e-04
3.34016129032258e+00 6.76156300791444e-02 6.07644376040619e-04
3.37790322580645e+00 6.68642183721700e-02 6.04277123645511e-04
3.41564516129032e+00 6.61211570959007e-02 6.00891014405636e-04
3.45338709677419e+00 6.53863534499414e-02 5.97487395599956e-04
3.49112903225806e+00 6.46597156694399e-02 5.94067569537855e-04
3.52887096774194e+00 6.39411530051725e-02 5.90632795613042e-04
3.56661290322581e+00 6.32305757184922e-02 5.87184290081314e-04
3.60435483870968e+00 6.25278950699766e-02 5.83723229979196e-04
3.64209677419355e+00 6.18330233024300e-02 5.80250752871022e-04
3.67983870967742e+00 6.11458736377447e-02 5.76767958494638e-04
3.71758064516129e+00 6.04663602584220e-02 5.73275910111772e-04
3.75532258064516e+00 5.97943983043222e-02 5.69775635624755e-04
3.79306451612903e+00 5.91299038547682e-02 5.66268128825419e-04
3.83080645161290e+00 5.84727939251993e-02 5.62754350422550e-04
3.86854838709677e+00 5.78229864498331e-02 5.59235229198830e-04
3.90629032258065e+00 5.71804002782354e-02 5.55711662957778e-04
3.94403225806452e+00 5.65449551585174e-02 5.52184519932334e-04
3.98177419354839e+00 5.59165717322735e-02 5.48654638313007e-04
4.01951612903226e+00 5.52951715245561e-02 5.45122829250475e-04
4.05725806451613e+00 5.46806769293977e-02 5.41589876386209e-04
4.09500000000000e+00 5.40730112063087e-02 5.38056536986780e-04
4.13274193548387e+00 5.34720984646382e-02 5.34523542840985e-04
4.17048387096774e+00 5.28778636600207e-02 5.30991600977558e-04
4.20822580645161e+00 5.22902325792071e-02 5.27461394501704e-04
4.24596774193548e+00 5.17091318364692e-02 5.23933583260349e-04
4.28370967741936e+00 5.11344888588831e-02 5.20408804914872e-04
4.32145161290323e+00 5.05662318813969e-02 5.16887674388608e-04
4.35919354838710e+00 5.00042899377744e-02 5.13370786340026e-04
4.39693548387097e+00 4.94485928478315e-02 5.09858714625358e-04
4.43467741935484e+00 4.88990712138371e-02 5.06352013162846e-04
4.47241935483871e+00 4.83556564067879e-02 5.02851216594722e-04
4.51016129032258e+00 4.78182805627907e-02 4.99356840800830e-04
4.54790322580645e+00 4.72868765697369e-02 4.95869383519158e-04
4.58564516129032e+00 4.67613780636709e-02 4.92389324824251e-04
4.62338709677419e+00 4.62417194158501e-02 4.88917127709312e-04
4.66112903225806e+00 4.57278357291058e-02 4.85453238532256e-04
4.69887096774194e+00 4.52196628252738e-02 4.81998087808583e-04
4.73661290322581e+00 4.47171372405033e-02 4.78552089639917e-04
4.77435483870968e+00 4.42201962172579e-02 4.75115643699431e-04
4.81209677419355e+00 4.37287776933335e-02 4.71689134681986e-04
4.84983870967742e+00 4.32428202982722e-02 4.68272932941730e-04
4.88758064516129e+00 4.27622633416167e-02 4.64867394961909e-04
4.92532258064516e+00 4.22870468093310e-02 4.61472863705119e-04
4.96306451612903e+00 4.18171113523844e-02 4.58089669055812e-04
5.00080645161290e+00 4.13523982831832e-02 4.54718128147914e-04
5.03854838709677e+00 4.08928495644738e-02 4.51358545781891e-04
5.07629032258065e+00 4.04384078057880e-02 4.48011214731550e-04
5.11403225806452e+00 3.99890162526546e-02 4.44676416345887e-04
5.15177419354839e+00 3.95446187822089e-02 4.41354419999773e-04
5.18951612903226e+00 3.91051598961245e-02 4.38045484712439e-04
5.22725806451613e+00 3.86705847111286e-02 4.34749858620770e-04
5.26500000000000e+00 3.82408389555312e-02 4.31467779461940e-04
5.30274193548387e+00 3.78158689591298e-02 4.28199474915102e-04
5.34048387096774e+00 3.73956216497601e-02 4.24945162845255e-04
5.37822580645161e+00 3.69800445434768e-02 4.21705051626200e-04
5.41596774193548e+00 3.65690857411297e-02 4.18479340369439e-04
5.45370967741936e+00 3.61626939188109e-02 4.15268219412602e-04
5.49145161290323e+00 3.57608183237337e-02 4.12071869800744e-04
5.52919354838710e+00 3.53634087678442e-02 4.08890464669126e-04
5.56693548387097e+00 3.49704156193854e-02 4.05724168746612e-04
5.60467741935484e+00 3.45817897995728e-02 4.02573138746053e-04
5.64241935483871e+00 3.41974827736453e-02 3.99437523631333e-04
5.68016129032258e+00 3.38174465475707e-02 3.96317464800715e-04
5.71790322580645e+00 3.34416336593366e-02 3.93213096339950e-04
5.75564516129032e+00 3.30699971756879e-02 3.90124545194661e-04
5.79338709677419e+00 3.27024906836503e-02 3.87051931410333e-04
5.83112903225806e+00 3.23390682873003e-02 3.83995368294433e-04
5.86887096774194e+00 3.19796845995148e-02 3.80954962799994e-04
5.90661290322581e+00 3.16242947381796e-02 3.77930815052854e-04
5.94435483870968e+00 3.12728543205450e-02 3.74923019499768e-04
5.98209677419355e+00 3.09253194559013e-02 3.71931664456481e-04
6.01983870967742e+00 3.05816467424592e-02 3.68956832412698e-04
6.05758064516129e+00 3.02417932596106e-02 3.65998600232392e-04
6.09532258064516e+00 2.99057165648452e-02 3.63057039284399e-04
6.13306451612903e+00 2.95733746862149e-02 3.60132215632748e-04
6.17080645161290e+00 2.92447261192863e-02 3.57224190159642e-04
6.20854838709677e+00 2.89197298198028e-02 3.54333018746313e-04
6.24629032258064e+00 2.85983452006748e-02 3.51458752388823e-04
6.28403225806452e+00 2.82805321248324e-02 3.48601437503070e-04
6.32177419354839e+00 2.79662509017627e-02 3.45761115499821e-04
6.35951612903226e+00 2.76554622825201e-02 3.42937823744532e-04
6.39725806451613e+00 2.73481274533533e-02 3.40131595151044e-04
6.43500000000000e+00 2.70442080328090e-02 3.37342458422858e-04
6.47274193548387e+00 2.67436660650226e-02 3.34570438205159e-04
6.51048387096774e+00 2.64464640168598e-02 3.31815555178396e-04
6.54822580645161e+00 2.61525647713808e-02 3.29077826202930e-04
6.58596774193548e+00 2.58619316250206e-02 3.26357264407232e-04
6.62370967741936e+00 2.55745282812217e-02 3.23653879443004e-04
6.66145161290323e+00 2.52903188472311e-02 3.20967677097329e-04
6.69919354838710e+00 2.50092678295894e-02 3.18298660125972e-04
6.73693548387097e+00 2.47313401284354e-02 3.15646827882581e-04
6.77467741935484e+00 2.44565010347982e-02 3.13012176519586e-04
6.81241935483871e+00 2.41847162246158e-02 3.10394699110267e-04
6.85016129032258e+00 2.39159517560662e-02 3.07794385720062e-04
6.88790322580645e+00 2.36501740637394e-02 3.05211223522944e-04
6.92564516129032e+00 2.33873499560070e-02 3.02645196868547e-04
6.96338709677419e+00 2.31274466093424e-02 3.00096287393052e-04
7.00112903225806e+00 2.28704315657299e-02 2.97564474082443e-04
7.03887096774194e+00 2.26162727271288e-02 2.95049733478919e-04
7.07661290322581e+00 2.23649383525702e-02 2.92552039336544e-04
7.11435483870968e+00 2.21163970541703e-02 2.90071363324216e-04
7.15209677419355e+00 2.18706177921593e-02 2.87607674696620e-04
7.18983870967742e+00 2.16275698723991e-02 2.85160940455613e-04
7.22758064516129e+00 2.13872229411799e-02 2.82731125444227e-04
7.26532258064516e+00 2.11495469827762e-02 2.80318192397702e-04
7.30306451612903e+00 2.09145123143743e-02 2.77922102033121e-04
7.34080645161290e+00 2.06820895836668e-02 2.75542813097450e-04
7.37854838709677e+00 2.04522497639075e-02 2.73180282453018e-04
7.41629032258064e+00 2.02249641515442e-02 2.70834465122727e-04
7.45403225806452e+00 2.00002043613971e-02 2.68505314458068e-04
7.49177419354839e+00 1.97779423240371e-02 2.66192781834690e-04
7.52951612903226e+00 1.95581502822604e-02 2.63896817247630e-04
7.56725806451613e+00 1.93408007867451e-02 2.61617369020213e-04
7.60500000000000e+00 1.91258666937872e-02 2.59354383934676e-04
7.64274193548387e+00 1.89133211607662e-02 2.57107807304863e-04
7.68048387096774e+00 1.87031376439181e-02 2.54877583012467e-04
7.71822580645161e+00 1.84952898939138e-02 2.52663653576398e-04
7.75596774193548e+00 1.82897519536693e-02 2.50465960186808e-04
7.79370967741936e+00 1.80864981540339e-02 2.48284442847884e-04
7.83145161290323e+00 1.78855031113825e-02 2.46119040102682e-04
7.86919354838710e+00 1.76867417244295e-02 2.43969689554314e-04
7.90693548387097e+00 1.74901891703343e-02 2.41836327602795e-04
7.94467741935484e+00 1.72958209026092e-02 2.39718889555446e-04
7.98241935483871e+00 1.71036126470626e-02 2.37617309685954e-04
8.02016129032258e+00 1.69135403997424e-02 2.35531521261435e-04
8.05790322580645e+00 1.67255804229793e-02 2.33461456598805e-04
8.09564516129032e+00 1.65397092433656e-02 2.31407047090164e-04
8.13338709677419e+00 1.63559036478958e-02 2.29368223256646e-04
8.17112903225807e+00 1.61741406819803e-02 2.27344914772114e-04
8.20887096774194e+00 1.59943976456808e-02 2.25337050580530e-04
8.24661290322581e+00 1.58166520915457e-02 2.23344558653599e-04
8.28435483870968e+00 1.56408818217925e-02 2.21367366434382e-04
8.32209677419355e+00 1.54670648848982e-02 2.19405400605475e-04
8.35983870967742e+00 1.52951795737042e-02 2.17458587179098e-04
8.39758064516129e+00 1.51252044218728e-02 2.15526851542973e-04
8.43532258064516e+00 1.49571182020254e-02 2.13610118478927e-04
8.47306451612903e+00 1.47908999222855e-02 2.11708312206679e-04
8.51080645161290e+00 1.46265288244501e-02 2.09821356401183e-04
8.54854838709677e+00 1.44639843806174e-02 2.07949174234427e-04
8.58629032258064e+00 1.43032462913900e-02 2.06091688391587e-04
8.62403225806452e+00 1.41442944825856e-02 2.04248821167808e-04
8.66177419354839e+00 1.39871091032926e-02 2.02420494255015e-04
8.69951612903226e+00 1.38316705233802e-02 2.00606629120390e-04
8.73725806451613e+00 1.36779593305101e-02 1.98807146802349e-04
8.77500000000000e+00 1.35259563284240e-02 1.97021967984356e-04
8.81274193548387e+00 1.33756425338463e-02 1.95251013030561e-04
8.85048387096774e+00 1.32269991748019e-02 1.93494201998098e-04
8.88822580645161e+00 1.30800076875942e-02 1.91751454671126e-04
8.92596774193548e+00 1.29346497151537e-02 1.90022690572206e-04
8.96370967741936e+00 1.27909071040891e-02 1.88307829045273e-04
9.00145161290323e+00 1.26487619029100e-02 1.86606789063576e-04
9.03919354838710e+00 1.25081963597754e-02 1.84919489562796e-04
9.07693548387097e+00 1.23691929198095e-02 1.83245849257200e-04
9.11467741935484e+00 1.22317342235296e-02 1.81585786702525e-04
9.15241935483871e+00 1.20958031040676e-02 1.79939220324971e-04
9.19016129032258e+00 1.19613825856270e-02 1.78306068429557e-04
9.22790322580645e+00 1.18284558807713e-02 1.76686249227793e-04
9.26564516129032e+00 1.16970063889099e-02 1.75079680845357e-04
9.30338709677419e+00 1.15670176936517e-02 1.73486281348470e-04
9.34112903225807e+00 1.14384735613188e-02 1.71905968750875e-04
9.37887096774194e+00 1.13113579383644e-02 1.70338661082661e-04
9.41661290322581e+00 1.11856549497819e-02 1.68784276221518e-04
9.45435483870968e+00 1.10613488971142e-02 1.67242732177876e-04
9.49209677419355e+00 1.09384242560983e-02 1.65713946933342e-04
9.52983870967742e+00 1.08168656752508e-02 1.64197838492462e-04
9.56758064516129e+00 1.06966579734346e-02 1.62694324905138e-04
9.60532258064516e+00 1.05777861384709e-02 1.61203324271390e-04
9.64306451612903e+00 1.04602353247644e-02 1.59724754762766e-04
9.68080645161290e+00 1.03439908519416e-02 1.58258534626583e-04
9.71854838709677e+00 1.02290382025328e-02 1.56804582206310e-04
9.75629032258064e+00 1.01153630206360e-02 1.55362815945307e-04
9.79403225806452e+00 1.00029511096548e-02 1.53933154444026e-04
9.83177419354839e+00 9.89178843087531e-03 1.52515516311810e-04
9.86951612903226e+00 9.78186110170666e-03 1.51109820411352e-04
9.90725806451613e+00 9.67315539361259e-03 1.49715985716748e-04
9.94500000000000e+00 9.56565773084079e-03 1.48333931356169e-04
9.98274193548387e+00 9.45935468829067e-03 1.46963576629134e-04
1.00204838709677e+01 9.35423299026677e-03 1.45604840869245e-04
1.00582258064516e+01 9.25027950880506e-03 1.44257644123439e-04
1.00959677419355e+01 9.14748126051251e-03 1.42921906005500e-04
1.01337096774194e+01 9.04582540830761e-03 1.41597546223690e-04
1.01714516129032e+01 8.94529925674410e-03 1.40284485742555e-04
1.02091935483871e+01 8.84589025050072e-03 1.38982644714500e-04
1.02469354838710e+01 8.74758597572089e-03 1.37691943844785e-04
1.02846774193548e+01 8.65037415459139e-03 1.36412304105119e-04
1.03224193548387e+01 8.55424264762784e-03 1.35143646363931e-04
1.03601612903226e+01 8.45917944930068e-03 1.33885892719845e-04
1.03979032258065e+01 8.36517268660496e-03 1.32638964558991e-04
1.04356451612903e+01 8.27221062028288e-03 1.31402783532467e-04
1.04733870967742e+01 8.18028164062520e-03 1.30177272503058e-04
1.05111290322581e+01 8.08937426608821e-03 1.28962353677404e-04
1.05488709677419e+01 7.99947714444582e-03 1.27757949545631e-04
1.05866129032258e+01 7.91057904875899e-03 1.26563983790546e-04
1.06243548387097e+01 7.82266887603828e-03 1.25380379491800e-04
1.06620967741935e+01 7.73573564832919e-03 1.24207060028785e-04
1.06998387096774e+01 7.64976850884361e-03 1.23043949954390e-04
1.07375806451613e+01 7.56475672066464e-03 1.21890973268219e-04
1.07753225806452e+01 7.48068966777024e-03 1.20748054283788e-04
1.08130645161290e+01 7.39755685131933e-03 1.19615118468668e-04
1.08508064516129e+01 7.31534788839778e-03 1.18492090783912e-04
1.08885483870968e+01 7.23405251298364e-03 1.17378896776182e-04
1.09262903225806e+01 7.15366057165420e-03 1.16275462346104e-04
1.09640322580645e+01 7.07416202528864e-03 1.15181713449810e-04
1.10017741935484e+01 6.99554694559076e-03 1.14097577166294e-04
1.10395161290323e+01 6.91780551390244e-03 1.13022980137194e-04
1.10772580645161e+01 6.84092802208354e-03 1.11957849348981e-04
1.11150000000000e+01 6.76490486917216e-03 1.10902112890566e-04
1.11527419354839e+01 6.68972656023721e-03 1.09855698452731e-04
1.11904838709677e+01 6.61538370720714e-03 1.08818534080151e-04
1.12282258064516e+01 6.54186702566239e-03 1.07790548899477e-04
1.12659677419355e+01 6.46916733372520e-03 1.06771671676103e-04
1.13037096774194e+01 6.39727555284026e-03 1.05761831536869e-04
1.13414516129032e+01 6.32618270469421e-03 1.04760958670166e-04
1.13791935483871e+01 6.25587991014081e-03 1.03768982937726e-04
1.14169354838710e+01 6.18635838993667e-03 1.02785834785489e-04
1.14546774193548e+01 6.11760946118914e-03 1.01811445048661e-04
1.14924193548387e+01 6.04962453869514e-03 1.00845744701023e-04
1.15301612903226e+01 5.98239513205542e-03 9.98886657454110e-05
1.15679032258065e+01 5.91591284465706e-03 9.89401399090159e-05
1.16056451612903e+01 5.85016937434388e-03 9.80000992953523e-05
1.16433870967742e+01 5.78515651064370e-03 9.70684770162953e-05
1.16811290322581e+01 5.72086613378438e-03 9.61452059369237e-05
1.17188709677419e+01 5.65729021532495e-03 9.52302193026294e-05
1.17566129032258e+01 5.59442081549116e-03 9.43234513465390e-05
1.17943548387097e+01 5.53225008222396e-03 9.34248360820177e-05
1.18320967741935e+01 5.47077025177337e-03 9.25343079056663e-05
1.18698387096774e+01 5.40997364613854e-03 9.16518021814186e-05
1.19075806451613e+01 5.34985267214657e-03 9.07772540788275e-05
