Energy (eV)          EEDF (eV^-(3/2))     First Anisotropy
6.26923076923077e-04 3.87357241001014e+01 2.42519262409015e-02
1.88076923076923e-03 3.82238093154114e+01 3.99163936342728e-02
3.13461538461538e-03 3.77186597766316e+01 5.23497587275603e-02
4.38846153846154e-03 3.72201860790708e+01 6.15885009963705e-02
5.64230769230769e-03 3.67282999964706e+01 6.91243280478377e-02
6.89615384615385e-03 3.62429144706018e+01 7.55266927371619e-02
8.15000000000000e-03 3.57639435927067e+01 8.10929929833572e-02
9.40384615384615e-03 3.52913025891015e+01 8.60044198292707e-02
1.06576923076923e-02 3.48249078082090e+01 9.03821922828819e-02
1.19115384615385e-02 3.43646767001020e+01 9.43127205231237e-02
1.31653846153846e-02 3.39105278111801e+01 9.78605087782582e-02
1.44192307692308e-02 3.34623807588755e+01 1.01075430329900e-01
1.56730769230769e-02 3.30201562277212e+01 1.03997128974556e-01
1.69269230769231e-02 3.25837759461724e+01 1.06657831392871e-01
1.81807692307692e-02 3.21531626791805e+01 1.09084223876971e-01
1.94346153846154e-02 3.17282402141890e+01 1.11298751192014e-01
2.06884615384615e-02 3.13089333422796e+01 1.13320541723663e-01
2.19423076923077e-02 3.08951678517147e+01 1.15166084074455e-01
2.31961538461538e-02 3.04868705085257e+01 1.16849732602968e-01
2.44500000000000e-02 3.00839690493268e+01 1.18384092375029e-01
2.57038461538462e-02 2.96863921631857e+01 1.19780317298479e-01
2.69576923076923e-02 2.92940694839570e+01 1.21048344398840e-01
2.82115384615385e-02 2.89069315732126e+01 1.22197080425910e-01
2.94653846153846e-02 2.85249099122640e+01 1.23234552205546e-01
3.07192307692308e-02 2.81479368859947e+01 1.24168029144856e-01
3.19730769230769e-02 2.77759457746877e+01 1.25004123969754e-01
3.32269230769231e-02 2.74088707386441e+01 1.25748876397173e-01
3.44807692307692e-02 2.70466468091302e+01 1.26407822915652e-01
3.57346153846154e-02 2.66892098767813e+01 1.26986056021744e-01
3.69884615384615e-02 2.63364966779353e+01 1.27488274112883e-01
3.82423076923077e-02 2.59884447864550e+01 1.27918824285284e-01
3.94961538461538e-02 2.56449925998159e+01 1.28281739100773e-01
4.07500000000000e-02 2.53060793309226e+01 1.28580768333633e-01
4.20038461538461e-02 2.49716449947637e+01 1.28819406571884e-01
4.32576923076923e-02 2.46416304002577e+01 1.29000917285336e-01
4.45115384615385e-02 2.43159771374288e+01 1.29128353952077e-01
4.57653846153846e-02 2.39946275693100e+01 1.29204578639524e-01
4.70192307692308e-02 2.36775248196005e+01 1.29232278453777e-01
4.82730769230769e-02 2.33646127646473e+01 1.29213980116859e-01
4.95269230769231e-02 2.30558360215509e+01 1.29152062998433e-01
5.07807692307692e-02 2.27511399398045e+01 1.29048770603158e-01
5.20346153846154e-02 2.24504705915742e+01 1.28906221159540e-01
5.32884615384615e-02 2.21537747608412e+01 1.28726416865915e-01
5.45423076923077e-02 2.18609999357043e+01 1.28511252354417e-01
5.57961538461538e-02 2.15720942974328e+01 1.28262522335356e-01
5.70500000000000e-02 2.12870067128837e+01 1.27981928510300e-01
5.83038461538462e-02 2.10056867239239e+01 1.27671085873414e-01
5.95576923076923e-02 2.07280845399696e+01 1.27331528435635e-01
6.08115384615385e-02 2.04541510277583e+01 1.26964714468620e-01
6.20653846153846e-02 2.01838377040168e+01 1.26572031287645e-01
6.33192307692308e-02 1.99170967255649e+01 1.26154799653682e-01
6.45730769230769e-02 1.96538808821161e+01 1.25714277803046e-01
6.58269230769231e-02 1.93941435866978e+01 1.25251665192829e-01
6.70807692307692e-02 1.91378388683099e+01 1.24768105839015e-01
6.83346153846154e-02 1.88849213637612e+01 1.24264691614544e-01
6.95884615384615e-02 1.86353463088074e+01 1.23742465097072e-01
7.08423076923077e-02 1.83890695313247e+01 1.23202422302175e-01
7.20961538461538e-02 1.81460474424317e+01 1.22645515213339e-01
7.33500000000000e-02 1.79062370297995e+01 1.22072654120895e-01
7.46038461538461e-02 1.76695958490478e+01 1.21484709812973e-01
7.58576923076923e-02 1.74360820171916e+01 1.20882515605538e-01
7.71115384615385e-02 1.72056542042999e+01 1.20266869250222e-01
7.83653846153846e-02 1.69782716270798e+01 1.19638534705630e-01
7.96192307692308e-02 1.67538940407875e+01 1.18998243807156e-01
8.08730769230769e-02 1.65324817329489e+01 1.18346697820137e-01
8.21269230769231e-02 1.63139955155131e+01 1.17684568923798e-01
8.33807692307692e-02 1.60983967185221e+01 1.17012501517052e-01
8.46346153846154e-02 1.58856471832499e+01 1.16331113608231e-01
8.58884615384615e-02 1.56757092548859e+01 1.15640997967669e-01
8.71423076923077e-02 1.54685457766125e+01 1.14942723284715e-01
8.83961538461538e-02 1.52641200823084e+01 1.14236835253005e-01
8.96500000000000e-02 1.50623959907580e+01 1.13523857584586e-01
9.09038461538462e-02 1.48633377985692e+01 1.12804292977996e-01
9.21576923076923e-02 1.46669102745134e+01 1.12078624023832e-01
9.34115384615385e-02 1.44730786526493e+01 1.11347314071279e-01
9.46653846153846e-02 1.42818086267920e+01 1.10610808039444e-01
9.59192307692308e-02 1.40930663438367e+01 1.09869533195507e-01
9.71730769230769e-02 1.39068183983544e+01 1.09123899883895e-01
9.84269230769231e-02 1.37230318261080e+01 1.08374302239106e-01
9.96807692307692e-02 1.35416740986424e+01 1.07621118760402e-01
1.00934615384615e-01 1.33627131178973e+01 1.06864713098822e-01
1.02188461538462e-01 1.31861172092193e+01 1.06105434706576e-01
1.03442307692308e-01 1.30118551155974e+01 1.05343618965629e-01
1.04696153846154e-01 1.28398959955730e+01 1.04579588059447e-01
1.05950000000000e-01 1.26702094140212e+01 1.03813651704061e-01
1.07203846153846e-01 1.25027653380332e+01 1.03046107279122e-01
1.08457692307692e-01 1.23375341316032e+01 1.02277240420048e-01
1.09711538461538e-01 1.21744865503841e+01 1.01507325567161e-01
1.10965384615385e-01 1.20135937354593e+01 1.00736626090282e-01
1.12219230769231e-01 1.18548272114291e+01 9.99653949020794e-02
1.13473076923077e-01 1.16981588781330e+01 9.91938750636776e-02
1.14726923076923e-01 1.15435610067709e+01 9.84222998368079e-02
1.15980769230769e-01 1.13910062349923e+01 9.76508931509462e-02
1.17234615384615e-01 1.12404675620588e+01 9.68798699465877e-02
1.18488461538462e-01 1.10919183440626e+01 9.61094365921184e-02
1.19742307692308e-01 1.09453322883249e+01 9.53397909323701e-02
1.20996153846154e-01 1.08006834514343e+01 9.45711227688956e-02
1.22250000000000e-01 1.06579462319274e+01 9.38036143373802e-02
1.23503846153846e-01 1.05170953666780e+01 9.30374403028393e-02
1.24757692307692e-01 1.03781059264271e+01 9.22727681217086e-02
1.26011538461538e-01 1.02409533113712e+01 9.15097583766939e-02
1.27265384615385e-01 1.01056132460378e+01 9.07485647842896e-02
1.28519230769231e-01 9.97206177732790e+00 8.99893345906042e-02
1.29773076923077e-01 9.84027526790701e+00 8.92322089669422e-02
1.31026923076923e-01 9.71023039282162e+00 8.84773229750170e-02
1.32280769230769e-01 9.58190413536957e+00 8.77248058623305e-02
1.33534615384615e-01 9.45527378302942e+00 8.69747812643191e-02
1.34788461538462e-01 9.33031692343890e+00 8.62273674683012e-02
1.36042307692308e-01 9.20701143977273e+00 8.54826773906563e-02
1.37296153846154e-01 9.08533550881911e+00 8.47408188973639e-02
1.38550000000000e-01 8.96526759510079e+00 8.40018951260787e-02
1.39803846153846e-01 8.84678644774378e+00 8.32660044303490e-02
1.41057692307692e-01 8.72987109671674e+00 8.25332406160635e-02
1.42311538461538e-01 8.61450084912015e+00 8.18036931591608e-02
1.43565384615385e-01 8.50065528494925e+00 8.10774471667917e-02
1.44819230769231e-01 8.38831425522295e+00 8.03545836477712e-02
1.46073076923077e-01 8.27745787665269e+00 7.96351797855294e-02
1.47326923076923e-01 8.16806652871910e+00 7.89193088720782e-02
1.48580769230769e-01 8.06012085019835e+00 7.82070405053222e-02
1.49834615384615e-01 7.95360173573748e+00 7.74984407143517e-02
1.51088461538462e-01 7.84849033247184e+00 7.67935721355222e-02
1.52342307692308e-01 7.74476803619616e+00 7.60924939624003e-02
1.53596153846154e-01 7.64241648956622e+00 7.53952621697622e-02
1.54850000000000e-01 7.54141757733690e+00 7.47019297406624e-02
1.56103846153846e-01 7.44175342366608e+00 7.40125465943693e-02
1.57357692307692e-01 7.34340638895130e+00 7.33271597478424e-02
1.58611538461538e-01 7.24635906670811e+00 7.26458134636409e-02
1.59865384615385e-01 7.15059428005544e+00 7.19685491946527e-02
1.61119230769231e-01 7.05609507999122e+00 7.12954057761259e-02
1.62373076923077e-01 6.96284474106080e+00 7.06264196210711e-02
1.63626923076923e-01 6.87082675884608e+00 6.99616246463206e-02
1.64880769230769e-01 6.78002484704371e+00 6.93010524094200e-02
1.66134615384615e-01 6.69042293458399e+00 6.86447321890000e-02
1.67388461538462e-01 6.60200516278571e+00 6.79926911065645e-02
1.68642307692308e-01 6.51475588217539e+00 6.73449540684328e-02
1.69896153846154e-01 6.42865965085250e+00 6.67015439272634e-02
1.71150000000000e-01 6.34370123060774e+00 6.60624816470513e-02
1.72403846153846e-01 6.25986558461326e+00 6.54277862295557e-02
1.73657692307692e-01 6.17713787476160e+00 6.47974748280676e-02
1.74911538461538e-01 6.09550345903978e+00 6.41715628510456e-02
1.76165384615385e-01 6.01494788860678e+00 6.35500639036358e-02
1.77419230769231e-01 5.93545690623998e+00 6.29329899277047e-02
1.78673076923077e-01 5.85701644279609e+00 6.23203513453345e-02
1.79926923076923e-01 5.77961261506369e+00 6.17121569869479e-02
1.81180769230769e-01 5.70323172330552e+00 6.11084141888404e-02
1.82434615384615e-01 5.62786024883479e+00 6.05091288458995e-02
1.83688461538462e-01 5.55348485162196e+00 5.99143054980258e-02
1.84942307692308e-01 5.48009236764693e+00 5.93239472726071e-02
1.86196153846154e-01 5.40766980743935e+00 5.87380560036107e-02
1.87450000000000e-01 5.33620435289919e+00 5.81566323540313e-02
1.88703846153846e-01 5.26568335532482e+00 5.75796757470284e-02
1.89957692307692e-01 5.19609433317450e+00 5.70071844478884e-02
1.91211538461538e-01 5.12742496985749e+00 5.64391556382376e-02
1.92465384615385e-01 5.05966311129936e+00 5.58755853601920e-02
1.93719230769231e-01 4.99279676456325e+00 5.53164686204373e-02
1.94973076923077e-01 4.92681409494584e+00 5.47617994975368e-02
1.96226923076923e-01 4.86170342414624e+00 5.42115710761642e-02
1.97480769230769e-01 4.79745322819870e+00 5.36657755179357e-02
1.98734615384615e-01 4.73405213543369e+00 5.31244040964389e-02
1.99988461538462e-01 4.67148892446485e+00 5.25874472596938e-02
2.01242307692308e-01 4.60975252198130e+00 5.20548945768374e-02
2.02496153846154e-01 4.54883200146019e+00 5.15267348273427e-02
2.03750000000000e-01 4.48871658055262e+00 5.10029560932927e-02
2.05003846153846e-01 4.42939561940453e+00 5.04835456975616e-02
2.06257692307692e-01 4.37085861877367e+00 4.99684902638163e-02
2.07511538461538e-01 4.31309521817148e+00 4.94577757705026e-02
2.08765384615385e-01 4.25609519383186e+00 4.89513875000289e-02
2.10019230769231e-01 4.19984845750046e+00 4.84493101171961e-02
2.11273076923077e-01 4.14434505404351e+00 4.79515277505255e-02
2.12526923076923e-01 4.08957515989009e+00 4.74580239339263e-02
2.13780769230769e-01 4.03552908129316e+00 4.69687816588550e-02
2.15034615384615e-01 3.98219725261441e+00 4.64837833977225e-02
2.16288461538462e-01 3.92957023463098e+00 4.60030111496267e-02
2.17542307692308e-01 3.87763871269230e+00 4.55264463926133e-02
2.18796153846154e-01 3.82639349559465e+00 4.50540701513106e-02
2.20050000000000e-01 3.77582551342535e+00 4.45858630672574e-02
2.21303846153846e-01 3.72592581613577e+00 4.41218053446674e-02
2.22557692307692e-01 3.67668557195729e+00 4.36618767948672e-02
2.23811538461538e-01 3.62809606583836e+00 4.32060568760216e-02
2.25065384615385e-01 3.58014869774786e+00 4.27543246480978e-02
2.26319230769231e-01 3.53283498162005e+00 4.23066588325853e-02
2.27573076923077e-01 3.48614654338033e+00 4.18630378747429e-02
2.28826923076923e-01 3.44007511962232e+00 4.14234398927867e-02
2.30080769230769e-01 3.39461255614512e+00 4.09878427166884e-02
2.31334615384615e-01 3.34975080651051e+00 4.05562239037770e-02
2.32588461538462e-01 3.30548193061857e+00 4.01285607725498e-02
2.33842307692308e-01 3.26179809316746e+00 3.97048303607665e-02
2.35096153846154e-01 3.21869156267585e+00 3.92850094771766e-02
2.36350000000000e-01 3.17615470970075e+00 3.88690747555821e-02
2.37603846153846e-01 3.13418000562659e+00 3.84570026078981e-02
2.38857692307692e-01 3.09276002133279e+00 3.80487692573501e-02
2.40111538461538e-01 3.05188742587897e+00 3.76443507679408e-02
2.41365384615385e-01 3.01155498508656e+00 3.72437230051655e-02
2.42619230769231e-01 2.97175556062473e+00 3.68468616818419e-02
2.43873076923077e-01 2.93248210837659e+00 3.64537424061124e-02
2.45126923076923e-01 2.89372767731736e+00 3.60643406376710e-02
2.46380769230769e-01 2.85548540828389e+00 3.56786317168308e-02
2.47634615384615e-01 2.81774853276098e+00 3.52965908748215e-02
2.48888461538462e-01 2.78051037168323e+00 3.49181932589523e-02
2.50142307692308e-01 2.74376433414688e+00 3.45434138962731e-02
2.51396153846154e-01 2.70750391656495e+00 3.41722277334112e-02
2.52650000000000e-01 2.67172270119093e+00 3.38046096783984e-02
2.53903846153846e-01 2.63641435509247e+00 3.34405345604009e-02
2.55157692307692e-01 2.60157262903057e+00 3.30799771546678e-02
2.56411538461538e-01 2.56719135635359e+00 3.27229122045099e-02
2.57665384615385e-01 2.53326445181060e+00 3.23693143873786e-02
2.58919230769231e-01 2.49978591076284e+00 3.20191583502485e-02
2.60173076923077e-01 2.46674980782932e+00 3.16724187468520e-02
2.61426923076923e-01 2.43415029593637e+00 3.13290702002263e-02
2.62680769230769e-01 2.40198160528266e+00 3.09890873246110e-02
2.63934615384615e-01 2.37023804231823e+00 3.06524447321089e-02
2.65188461538462e-01 2.33891398873663e+00 3.03191170514952e-02
2.66442307692308e-01 2.30800390039681e+00 2.99890788969576e-02
2.67696153846154e-01 2.27750230659585e+00 2.96623048989351e-02
2.68950000000000e-01 2.24740380884393e+00 2.93387697366476e-02
2.70203846153846e-01 2.21770307999533e+00 2.90184481037363e-02
2.71457692307692e-01 2.18839486330565e+00 2.87013147270972e-02
2.72711538461538e-01 2.15947397150141e+00 2.83873443833375e-02
2.73965384615385e-01 2.13093528578669e+00 2.80765118696748e-02
2.75219230769231e-01 2.10277375516533e+00 2.77687920313821e-02
2.76473076923077e-01 2.07498439531627e+00 2.74641597907982e-02
2.77726923076923e-01 2.04756228778914e+00 2.71625901154397e-02
2.78980769230769e-01 2.02050257913365e+00 2.68640580345552e-02
2.80234615384615e-01 1.99380048004072e+00 2.65685386432757e-02
2.81488461538462e-01 1.96745126449472e+00 2.62760071167191e-02
2.82742307692308e-01 1.94145026887069e+00 2.59864386832454e-02
2.83996153846154e-01 1.91579289131013e+00 2.56998086484231e-02
2.85250000000000e-01 1.89047459070312e+00 2.54160924204292e-02
2.86503846153846e-01 1.86549088595307e+00 2.51352654808464e-02
2.87757692307692e-01 1.84083735518368e+00 2.48573033989178e-02
2.89011538461538e-01 1.81650963495631e+00 2.45821818438956e-02
2.90265384615385e-01 1.79250341943793e+00 2.43098765601882e-02
2.91519230769231e-01 1.76881445982015e+00 2.40403633887259e-02
2.92773076923077e-01 1.74543856338417e+00 2.37736182896465e-02
2.94026923076923e-01 1.72237159282036e+00 2.35096173152280e-02
2.95280769230769e-01 1.69960946549599e+00 2.32483366224308e-02
2.96534615384615e-01 1.67714815273271e+00 2.29897524753255e-02
2.97788461538462e-01 1.65498367909347e+00 2.27338412556790e-02
2.99042307692308e-01 1.63311212162611e+00 2.24805794401589e-02
3.00296153846154e-01 1.61152960932910e+00 2.22299436190210e-02
3.01550000000000e-01 1.59023232230463e+00 2.19819105160013e-02
3.02803846153846e-01 1.56921649113703e+00 2.17364569635588e-02
3.04057692307692e-01 1.54847839622562e+00 2.14935599136872e-02
3.05311538461538e-01 1.52801436712638e+00 2.12531964471842e-02
3.06565384615385e-01 1.50782078185479e+00 2.10153437524942e-02
3.07819230769231e-01 1.48789406638891e+00 2.07799791423873e-02
3.09073076923077e-01 1.46823069389112e+00 2.05470800717486e-02
3.10326923076923e-01 1.44882718413298e+00 2.03166241146548e-02
3.11580769230769e-01 1.42968010287923e+00 2.00885889738849e-02
3.12834615384615e-01 1.41078606128004e+00 1.98629524821712e-02
3.14088461538462e-01 1.39214171527119e+00 1.96396926101458e-02
3.15342307692308e-01 1.37374376494006e+00 1.94187874469610e-02
3.16596153846154e-01 1.35558895406927e+00 1.92002152148932e-02
3.17850000000000e-01 1.33767406943134e+00 1.89839542849613e-02
3.19103846153846e-01 1.31999594026342e+00 1.87699831559807e-02
3.20357692307692e-01 1.30255143770610e+00 1.85582804627616e-02
3.21611538461538e-01 1.28533747424968e+00 1.83488249830639e-02
3.22865384615385e-01 1.26835100314966e+00 1.81415956196297e-02
3.24119230769231e-01 1.25158901800272e+00 1.79365714132298e-02
3.25373076923077e-01 1.23504855209818e+00 1.77337315566422e-02
3.26626923076923e-01 1.21872667793213e+00 1.75330553752689e-02
3.27880769230769e-01 1.20262050668932e+00 1.73345223343509e-02
3.29134615384615e-01 1.18672718773184e+00 1.71381120394209e-02
3.30388461538462e-01 1.17104390809462e+00 1.69438042422597e-02
3.31642307692308e-01 1.15556789195386e+00 1.67515788244530e-02
3.32896153846154e-01 1.14029640023784e+00 1.65614158088265e-02
3.34150000000000e-01 1.12522673003891e+00 1.63732953717306e-02
3.35403846153846e-01 1.11035621416994e+00 1.61871978253406e-02
3.36657692307692e-01 1.09568222069217e+00 1.60031036238707e-02
3.37911538461538e-01 1.08120215244946e+00 1.58209933687827e-02
3.39165384615385e-01 1.06691344657814e+00 1.56408477935520e-02
3.40419230769231e-01 1.05281357414566e+00 1.54626477738877e-02
3.41673076923077e-01 1.03890003960977e+00 1.52863743387360e-02
3.42926923076923e-01 1.02517038040828e+00 1.51120086539102e-02
3.44180769230769e-01 1.01162216652311e+00 1.49395320275555e-02
3.45434615384615e-01 9.98253000050324e-01 1.47689259100746e-02
3.46688461538462e-01 9.85060514775642e-01 1.46001718985799e-02
3.47942307692308e-01 9.72042375728670e-01 1.44332517229628e-02
3.49196153846154e-01 9.59196278851470e-01 1.42681472548569e-02
3.50450000000000e-01 9.46519950508069e-01 1.41048405173153e-02
3.51703846153846e-01 9.34011147109885e-01 1.39433136698683e-02
3.52957692307692e-01 9.21667654718650e-01 1.37835490132270e-02
3.54211538461538e-01 9.09487288654573e-01 1.36255289931686e-02
3.55465384615385e-01 8.97467893085246e-01 1.34692361876371e-02
3.56719230769231e-01 8.85607340718082e-01 1.33146533147585e-02
3.57973076923077e-01 8.73903532349038e-01 1.31617632415130e-02
3.59226923076923e-01 8.62354396516256e-01 1.30105489699197e-02
3.60480769230769e-01 8.50957889133421e-01 1.28609936411675e-02
3.61734615384615e-01 8.39711993128011e-01 1.27130805352029e-02
3.62988461538462e-01 8.28614718084275e-01 1.25667930740448e-02
3.64242307692308e-01 8.17664099869252e-01 1.24221148099926e-02
3.65496153846154e-01 8.06858200350901e-01 1.22790294326605e-02
3.66750000000000e-01 7.96195106988624e-01 1.21375207766065e-02
3.68003846153846e-01 7.85672932517139e-01 1.19975728087265e-02
3.69257692307692e-01 7.75289814612460e-01 1.18591696318057e-02
3.70511538461538e-01 7.65043915562288e-01 1.17222954874038e-02
3.71765384615385e-01 7.54933421921116e-01 1.15869347449409e-02
3.73019230769231e-01 7.44956544248766e-01 1.14530719079886e-02
3.74273076923077e-01 7.35111516733563e-01 1.13206916211101e-02
3.75526923076923e-01 7.25396596900046e-01 1.11897786582077e-02
3.76780769230769e-01 7.15810065300553e-01 1.10603179256365e-02
3.78034615384615e-01 7.06350225210927e-01 1.09322944615865e-02
3.79288461538462e-01 6.97015402330192e-01 1.08056934385347e-02
3.80542307692308e-01 6.87803944466754e-01 1.06805001532734e-02
3.81796153846154e-01 6.78714221298919e-01 1.05567000324320e-02
3.83050000000000e-01 6.69744624032855e-01 1.04342786384970e-02
3.84303846153846e-01 6.60893565135857e-01 1.03132216591814e-02
3.85557692307692e-01 6.52159478055377e-01 1.01935149100959e-02
3.86811538461538e-01 6.43540816941766e-01 1.00751443368771e-02
3.88065384615385e-01 6.35036056358844e-01 9.95809600596033e-03
3.89319230769231e-01 6.26643691061859e-01 9.84235610951863e-03
3.90573076923077e-01 6.18362235682637e-01 9.72791097086052e-03
3.91826923076923e-01 6.10190224482997e-01 9.61474703460579e-03
3.93080769230769e-01 6.02126211095317e-01 9.50285086902220e-03
3.94334615384615e-01 5.94168768266567e-01 9.39220916529385e-03
3.95588461538461e-01 5.86316487605685e-01 9.28280873932240e-03
