Energy (eV)          EEDF (eV^-(3/2))     First Anisotropy
3.03225806451613e-03 2.80331935090418e+00 1.84403765682017e-03
9.09677419354839e-03 2.77219040050865e+00 3.03833811121651e-03
1.51612903225806e-02 2.74140711572614e+00 3.99326086649683e-03
2.12258064516129e-02 2.71096565847546e+00 4.70804737587948e-03
2.72903225806452e-02 2.68086223289926e+00 5.29541871755510e-03
3.33548387096774e-02 2.65109308536331e+00 5.79826479492939e-03
3.94193548387097e-02 2.62165450385804e+00 6.23891545255862e-03
4.54838709677419e-02 2.59254281775685e+00 6.63093444603356e-03
5.15483870967742e-02 2.56375439709926e+00 6.98336960848359e-03
5.76129032258065e-02 2.53528565219074e+00 7.30265230306915e-03
6.36774193548387e-02 2.50713303330376e+00 7.59357021967596e-03
6.97419354838710e-02 2.47929303006985e+00 7.85981522302310e-03
7.58064516129032e-02 2.45176217110269e+00 8.10431439859396e-03
8.18709677419355e-02 2.42453702353261e+00 8.32944132063846e-03
8.79354838709678e-02 2.39761419267678e+00 8.53715689952993e-03
9.40000000000000e-02 2.37099032151205e+00 8.72910669761964e-03
1.00064516129032e-01 2.34466209026837e+00 8.90669018316968e-03
1.06129032258065e-01 2.31862621613880e+00 9.07111132558810e-03
1.12193548387097e-01 2.29287945266782e+00 9.22341634060246e-03
1.18258064516129e-01 2.26741858947556e+00 9.36452240154413e-03
1.24322580645161e-01 2.24224045163596e+00 9.49523979937242e-03
1.30387096774194e-01 2.21734189988323e+00 9.61628940339414e-03
1.36451612903226e-01 2.19271982960113e+00 9.72831655643779e-03
1.42516129032258e-01 2.16837117064850e+00 9.83190217456003e-03
1.48580645161290e-01 2.14429288697547e+00 9.92757183929359e-03
1.54645161290323e-01 2.12048197624654e+00 1.00158032509295e-02
1.60709677419355e-01 2.09693546946572e+00 1.00970324055572e-02
1.66774193548387e-01 2.07365043060584e+00 1.01716587690461e-02
1.72838709677419e-01 2.05062395611477e+00 1.02400495806029e-02
1.78903225806452e-01 2.02785317494454e+00 1.03025435624538e-02
1.84967741935484e-01 2.00533524779351e+00 1.03594540881413e-02
1.91032258064516e-01 1.98306736688871e+00 1.04110718357095e-02
1.97096774193548e-01 1.96104675563506e+00 1.04576671273693e-02
2.03161290322581e-01 1.93927066827055e+00 1.04994919464845e-02
2.09225806451613e-01 1.91773638952309e+00 1.05367817066023e-02
2.15290322580645e-01 1.89644123417691e+00 1.05697567566334e-02
2.21354838709677e-01 1.87538254702798e+00 1.05986237566863e-02
2.27419354838710e-01 1.85455770225714e+00 1.06235768952111e-02
2.33483870967742e-01 1.83396410320324e+00 1.06447989123709e-02
2.39548387096774e-01 1.81359918203928e+00 1.06624620528759e-02
2.45612903225806e-01 1.79346039945209e+00 1.06767289055261e-02
2.51677419354839e-01 1.77354524432625e+00 1.06877531547827e-02
2.57741935483871e-01 1.75385123343062e+00 1.06956802646888e-02
2.63806451612903e-01 1.73437591103805e+00 1.07006480587030e-02
2.69870967741936e-01 1.71511684883454e+00 1.07027872870028e-02
2.75935483870968e-01 1.69607164539746e+00 1.07022221419025e-02
2.82000000000000e-01 1.67723792597040e+00 1.06990706798548e-02
2.88064516129032e-01 1.65861334216690e+00 1.06934452410908e-02
2.94129032258065e-01 1.64019557167778e+00 1.06854528233802e-02
3.00193548387097e-01 1.62198231798172e+00 1.06751954236218e-02
3.06258064516129e-01 1.60397131005870e+00 1.06627703582470e-02
3.12322580645161e-01 1.58616030205245e+00 1.06482705269312e-02
3.18387096774194e-01 1.56854707315611e+00 1.06317846920400e-02
3.24451612903226e-01 1.55112942716704e+00 1.06133977373489e-02
3.30516129032258e-01 1.53390519226998e+00 1.05931908681321e-02
3.36580645161290e-01 1.51687222076606e+00 1.05712418263412e-02
3.42645161290323e-01 1.50002838880529e+00 1.05476250822944e-02
3.48709677419355e-01 1.48337159612165e+00 1.05224120124407e-02
3.54774193548387e-01 1.46689976577115e+00 1.04956710708610e-02
3.60838709677419e-01 1.45061084382988e+00 1.04674679229957e-02
3.66903225806452e-01 1.43450279926868e+00 1.04378656018155e-02
3.72967741935484e-01 1.41857362356723e+00 1.04069246544793e-02
3.79032258064516e-01 1.40282133050847e+00 1.03747032463323e-02
3.85096774193548e-01 1.38724395593084e+00 1.03412572840215e-02
3.91161290322581e-01 1.37183955748358e+00 1.03066405243221e-02
3.97225806451613e-01 1.35660621438443e+00 1.02709046818440e-02
4.03290322580645e-01 1.34154202714448e+00 1.02340995074103e-02
4.09354838709677e-01 1.32664511743968e+00 1.01962728895389e-02
4.15419354838710e-01 1.31191362776678e+00 1.01574709506932e-02
4.21483870967742e-01 1.29734572124884e+00 1.01177381089104e-02
4.27548387096774e-01 1.28293958140621e+00 1.00771171587192e-02
4.33612903225806e-01 1.26869341192995e+00 1.00356493417360e-02
4.39677419354839e-01 1.25460543645799e+00 9.99337441332675e-03
4.45741935483871e-01 1.24067389835358e+00 9.95033071050622e-03
4.51806451612903e-01 1.22689706045715e+00 9.90655519656910e-03
4.57870967741936e-01 1.21327320495802e+00 9.86208352746409e-03
4.63935483870968e-01 1.19980063309076e+00 9.81695011533164e-03
4.70000000000000e-01 1.18647766495358e+00 9.77118816368032e-03
4.76064516129032e-01 1.17330263929885e+00 9.72482972056074e-03
4.82129032258065e-01 1.16027391332595e+00 9.67790572410821e-03
4.88193548387097e-01 1.14738986247649e+00 9.63044604583315e-03
4.94258064516129e-01 1.13464888023171e+00 9.58247953603807e-03
5.00322580645161e-01 1.12204937788818e+00 9.53403405002351e-03
5.06387096774194e-01 1.10958978443247e+00 9.48513649405347e-03
5.12451612903226e-01 1.09726854627162e+00 9.43581286969039e-03
5.18516129032258e-01 1.08508412706425e+00 9.38608829426432e-03
5.24580645161290e-01 1.07303500752898e+00 9.33598703764347e-03
5.30645161290323e-01 1.06111968525505e+00 9.28553255303465e-03
5.36709677419355e-01 1.04933667451494e+00 9.23474750641317e-03
5.42774193548387e-01 1.03768450607918e+00 9.18365380834850e-03
5.48838709677419e-01 1.02616172701307e+00 9.13227262959260e-03
5.54903225806452e-01 1.01476690055623e+00 9.08062443436634e-03
5.60967741935484e-01 1.00349860588201e+00 9.02872901266549e-03
5.67032258064516e-01 9.92355437941137e-01 8.97660549215307e-03
5.73096774193548e-01 9.81336007286373e-01 8.92427236463576e-03
5.79161290322581e-01 9.70438939899410e-01 8.87174750768732e-03
5.85225806451613e-01 9.59662877019477e-01 8.81904820871941e-03
5.91290322580645e-01 9.49006474956764e-01 8.76619117480225e-03
5.97354838709677e-01 9.38468404976931e-01 8.71319255851837e-03
6.03419354838710e-01 9.28047353082765e-01 8.66006798317187e-03
6.09483870967742e-01 9.17742019868103e-01 8.60683254999042e-03
6.15548387096774e-01 9.07551120355795e-01 8.55350085854859e-03
6.21612903225807e-01 8.97473383837477e-01 8.50008702302375e-03
6.27677419354839e-01 8.87507553715164e-01 8.44660468784196e-03
6.33741935483871e-01 8.77652387344534e-01 8.39306704565072e-03
6.39806451612903e-01 8.67906655865501e-01 8.33948684295850e-03
6.45870967741936e-01 8.58269144092932e-01 8.28587640001634e-03
6.51935483870968e-01 8.48738650320679e-01 8.23224763029274e-03
6.58000000000000e-01 8.39313986186728e-01 8.17861204427447e-03
6.64064516129032e-01 8.29993976525003e-01 8.12498076500955e-03
6.70129032258065e-01 8.20777459218851e-01 8.07136454012294e-03
6.76193548387097e-01 8.11663285056146e-01 8.01777375341419e-03
6.82258064516129e-01 8.02650317585983e-01 7.96421843861426e-03
6.88322580645161e-01 7.93737432964667e-01 7.91070828238605e-03
6.94387096774194e-01 7.84923519852895e-01 7.85725263996980e-03
7.00451612903226e-01 7.76207479239458e-01 7.80386055056745e-03
7.06516129032258e-01 7.67588224316920e-01 7.75054073900590e-03
7.12580645161290e-01 7.59064680346085e-01 7.69730162782468e-03
7.18645161290323e-01 7.50635784522020e-01 7.64415134633905e-03
7.24709677419355e-01 7.42300485841521e-01 7.59109773940997e-03
7.30774193548387e-01 7.34057744972059e-01 7.53814837818545e-03
7.36838709677419e-01 7.25906534111683e-01 7.48531056141251e-03
7.42903225806452e-01 7.17845836892710e-01 7.43259132798017e-03
7.48967741935484e-01 7.09874648222804e-01 7.37999746929205e-03
7.55032258064516e-01 7.01991974170491e-01 7.32753552957673e-03
7.61096774193548e-01 6.94196831841219e-01 7.27521181545439e-03
7.67161290322581e-01 6.86488249254825e-01 7.22303240288747e-03
7.73225806451613e-01 6.78865265224328e-01 7.17100314596543e-03
7.79290322580645e-01 6.71326929226873e-01 7.11912967722726e-03
7.85354838709677e-01 6.63872301313099e-01 7.06741741813236e-03
7.91419354838710e-01 6.56500451961754e-01 7.01587158941865e-03
7.97483870967742e-01 6.49210461973286e-01 6.96449721063042e-03
8.03548387096774e-01 6.42001422355228e-01 6.91329910802098e-03
8.09612903225806e-01 6.34872434208850e-01 6.86228192012011e-03
8.15677419354839e-01 6.27822608617090e-01 6.81145010313751e-03
8.21741935483871e-01 6.20851066533704e-01 6.76080793801980e-03
8.27806451612903e-01 6.13956938665748e-01 6.71035953003763e-03
8.33870967741936e-01 6.07139365389164e-01 6.66010881740033e-03
8.39935483870968e-01 6.00397496617365e-01 6.61005957979877e-03
8.46000000000000e-01 5.93730491703395e-01 6.56021543737053e-03
8.52064516129032e-01 5.87137519335105e-01 6.51057985711341e-03
8.58129032258065e-01 5.80617757431504e-01 6.46115615725576e-03
8.64193548387097e-01 5.74170393040254e-01 6.41194751150378e-03
8.70258064516129e-01 5.67794622236303e-01 6.36295695477578e-03
8.76322580645161e-01 5.61489650014803e-01 6.31418738232490e-03
8.82387096774194e-01 5.55254690212694e-01 6.26564155690026e-03
8.88451612903226e-01 5.49088965389753e-01 6.21732211586253e-03
8.94516129032258e-01 5.42991706738701e-01 6.16923156981005e-03
9.00580645161290e-01 5.36962153989337e-01 6.12137230783837e-03
9.06645161290323e-01 5.30999555313745e-01 6.07374660100217e-03
9.12709677419355e-01 5.25103167232550e-01 6.02635660568297e-03
9.18774193548387e-01 5.19272254522210e-01 5.97920436829461e-03
9.24838709677419e-01 5.13506090117420e-01 5.93229182412087e-03
9.30903225806452e-01 5.07803955038389e-01 5.88562080331785e-03
9.36967741935484e-01 5.02165138283077e-01 5.83919303689279e-03
9.43032258064516e-01 4.96588936744634e-01 5.79301015514001e-03
9.49096774193548e-01 4.91074655123731e-01 5.74707369198835e-03
9.55161290322581e-01 4.85621605841868e-01 5.70138508776489e-03
9.61225806451613e-01 4.80229108955637e-01 5.65594569318338e-03
9.67290322580645e-01 4.74896492066703e-01 5.61075676802859e-03
9.73354838709678e-01 4.69623090253828e-01 5.56581948633403e-03
9.79419354838710e-01 4.64408245973934e-01 5.52113494154627e-03
9.85483870967742e-01 4.59251308985513e-01 5.47670414487232e-03
9.91548387096774e-01 4.54151636267543e-01 5.43252802898767e-03
9.97612903225807e-01 4.49108591939312e-01 5.38860744912653e-03
1.00367741935484e+00 4.44121547185832e-01 5.34494319359633e-03
1.00974193548387e+00 4.39189880146619e-01 5.30153596234889e-03
1.01580645161290e+00 4.34312975936133e-01 5.25838640172726e-03
1.02187096774194e+00 4.29490226404793e-01 5.21549509664754e-03
1.02793548387097e+00 4.24721030202255e-01 5.17286253110018e-03
1.03400000000000e+00 4.20004792699334e-01 5.13048915991872e-03
1.04006451612903e+00 4.15340925782230e-01 5.08837536527704e-03
1.04612903225806e+00 4.10728847953683e-01 5.04652146801335e-03
1.05219354838710e+00 4.06167984089241e-01 5.00492774238868e-03
1.05825806451613e+00 4.01657765493158e-01 4.96359437335732e-03
1.06432258064516e+00 3.97197629824656e-01 4.92252152327774e-03
1.07038709677419e+00 3.92787020907013e-01 4.88170929130293e-03
1.07645161290323e+00 3.88425388818336e-01 4.84115772382876e-03
1.08251612903226e+00 3.84112189665816e-01 4.80086682811570e-03
1.08858064516129e+00 3.79846885635113e-01 4.76083653241460e-03
1.09464516129032e+00 3.75628944920651e-01 4.72106674801287e-03
1.10070967741935e+00 3.71457841548397e-01 4.68155734068158e-03
1.10677419354839e+00 3.67333055421963e-01 4.64230810270557e-03
1.11283870967742e+00 3.63254072255270e-01 4.60331881246551e-03
1.11890322580645e+00 3.59220383402676e-01 4.56458919791764e-03
1.12496774193548e+00 3.55231485935800e-01 4.52611894583159e-03
1.13103225806452e+00 3.51286882443110e-01 4.48790771386659e-03
1.13709677419355e+00 3.47386081070539e-01 4.44995509470148e-03
1.14316129032258e+00 3.43528595457932e-01 4.41226067149346e-03
1.14922580645161e+00 3.39713944581122e-01 4.37482398377726e-03
1.15529032258065e+00 3.35941652820933e-01 4.33764453599973e-03
1.16135483870968e+00 3.32211249777210e-01 4.30072180869375e-03
1.16741935483871e+00 3.28522270304622e-01 4.26405522498205e-03
1.17348387096774e+00 3.24874254452583e-01 4.22764420222397e-03
1.17954838709677e+00 3.21266747318397e-01 4.19148812798350e-03
1.18561290322581e+00 3.17699299080669e-01 4.15558633648599e-03
1.19167741935484e+00 3.14171464941209e-01 4.11993815824113e-03
1.19774193548387e+00 3.10682804984193e-01 4.08454288934306e-03
1.20380645161290e+00 3.07232884234589e-01 4.04939979905079e-03
1.20987096774194e+00 3.03821272492640e-01 4.01450813971386e-03
1.21593548387097e+00 3.00447544363192e-01 3.97986711662647e-03
1.22200000000000e+00 2.97111279200864e-01 3.94547593426893e-03
1.22806451612903e+00 2.93812060978903e-01 3.91133376762380e-03
1.23412903225806e+00 2.90549478341688e-01 3.87743976919117e-03
1.24019354838710e+00 2.87323124450888e-01 3.84379307819536e-03
1.24625806451613e+00 2.84132597011213e-01 3.81039279240825e-03
1.25232258064516e+00 2.80977498218605e-01 3.77723801125821e-03
1.25838709677419e+00 2.77857434638083e-01 3.74432780901300e-03
1.26445161290323e+00 2.74772017250916e-01 3.71166124128540e-03
1.27051612903226e+00 2.71720861311557e-01 3.67923735357079e-03
1.27658064516129e+00 2.68703586370218e-01 3.64705515491151e-03
1.28264516129032e+00 2.65719816223887e-01 3.61511365810102e-03
1.28870967741935e+00 2.62769178802510e-01 3.58341186073261e-03
1.29477419354839e+00 2.59851306189982e-01 3.55194872663458e-03
1.30083870967742e+00 2.56965834576805e-01 3.52072322452307e-03
1.30690322580645e+00 2.54112404150807e-01 3.48973430384156e-03
1.31296774193548e+00 2.51290659137094e-01 3.45898090055193e-03
1.31903225806452e+00 2.48500247670326e-01 3.42846194474979e-03
1.32509677419355e+00 2.45740821813015e-01 3.39817633692995e-03
1.33116129032258e+00 2.43012037510828e-01 3.36812298405421e-03
1.33722580645161e+00 2.40313554490646e-01 3.33830077695768e-03
1.34329032258065e+00 2.37645036296455e-01 3.30870859572072e-03
1.34935483870968e+00 2.35006150170407e-01 3.27934531674223e-03
1.35541935483871e+00 2.32396567068772e-01 3.25020979054286e-03
1.36148387096774e+00 2.29815961619668e-01 3.22130087543166e-03
1.36754838709677e+00 2.27264012027972e-01 3.19261742151161e-03
1.37361290322581e+00 2.24740400090100e-01 3.16415825500996e-03
1.37967741935484e+00 2.22244811153146e-01 3.13592221065798e-03
1.38574193548387e+00 2.19776934023527e-01 3.10790811131497e-03
1.39180645161290e+00 2.17336460997362e-01 3.08011477276583e-03
1.39787096774194e+00 2.14923087754085e-01 3.05254101003587e-03
1.40393548387097e+00 2.12536513369237e-01 3.02518561737769e-03
1.41000000000000e+00 2.10176440275877e-01 2.99804739850967e-03
1.41606451612903e+00 2.07842574179272e-01 2.97112514755069e-03
1.42212903225806e+00 2.05534624084167e-01 2.94441765347528e-03
1.42819354838710e+00 2.03252302195605e-01 2.91792370598949e-03
1.43425806451613e+00 2.00995323929969e-01 2.89164207679896e-03
1.44032258064516e+00 1.98763407878509e-01 2.86557154785609e-03
1.44638709677419e+00 1.96556275727661e-01 2.83971089351216e-03
1.45245161290323e+00 1.94373652283517e-01 2.81405888466094e-03
1.45851612903226e+00 1.92215265379319e-01 2.78861429420418e-03
1.46458064516129e+00 1.90080845884952e-01 2.76337587951960e-03
1.47064516129032e+00 1.87970127672460e-01 2.73834240885498e-03
1.47670967741935e+00 1.85882847541610e-01 2.71351264866648e-03
1.48277419354839e+00 1.83818745228613e-01 2.68888535121391e-03
1.48883870967742e+00 1.81777563372795e-01 2.66445927995707e-03
1.49490322580645e+00 1.79759047445034e-01 2.64023319344918e-03
1.50096774193548e+00 1.77762945768416e-01 2.61620584904134e-03
1.50703225806452e+00 1.75789009435319e-01 2.59237600777580e-03
1.51309677419355e+00 1.73836992314830e-01 2.56874241856031e-03
1.51916129032258e+00 1.71906651021257e-01 2.54530384190796e-03
1.52522580645161e+00 1.69997744847214e-01 2.52205903485551e-03
1.53129032258065e+00 1.68110035782135e-01 2.49900675440905e-03
1.53735483870968e+00 1.66243288434861e-01 2.47614576210080e-03
1.54341935483871e+00 1.64397270039917e-01 2.45347480916941e-03
1.54948387096774e+00 1.62571750427741e-01 2.43099265875691e-03
1.55554838709677e+00 1.60766501962110e-01 2.40869807519455e-03
1.56161290322581e+00 1.58981299545870e-01 2.38658981350561e-03
1.56767741935484e+00 1.57215920592142e-01 2.36466664076901e-03
1.57374193548387e+00 1.55470144964151e-01 2.34292732249775e-03
1.57980645161290e+00 1.53743754990820e-01 2.32137062572628e-03
1.58587096774194e+00 1.52036535397276e-01 2.29999532309199e-03
1.59193548387097e+00 1.50348273309618e-01 2.27880017945324e-03
1.59800000000000e+00 1.48678758227714e-01 2.25778397187097e-03
1.60406451612903e+00 1.47027781968889e-01 2.23694547684840e-03
1.61012903225806e+00 1.45395138681880e-01 2.21628347320450e-03
1.61619354838710e+00 1.43780624781894e-01 2.19579674588009e-03
1.62225806451613e+00 1.42184038954537e-01 2.17548407339793e-03
1.62832258064516e+00 1.40605182130103e-01 2.15534424655644e-03
1.63438709677419e+00 1.39043857430869e-01 2.13537605647090e-03
1.64045161290323e+00 1.37499870183559e-01 2.11557829725171e-03
1.64651612903226e+00 1.35973027858646e-01 2.09594976955159e-03
1.65258064516129e+00 1.34463140073541e-01 2.07648926881558e-03
1.65864516129032e+00 1.32970018568282e-01 2.05719560277362e-03
1.66470967741936e+00 1.31493477156197e-01 2.03806758292995e-03
1.67077419354839e+00 1.30033331726735e-01 2.01910401622439e-03
1.67683870967742e+00 1.28589400221967e-01 2.00030372187381e-03
1.68290322580645e+00 1.27161502589105e-01 1.98166552056482e-03
1.68896774193548e+00 1.25749460790954e-01 1.96318823685451e-03
1.69503225806452e+00 1.24353098751331e-01 1.94487070235512e-03
1.70109677419355e+00 1.22972242357279e-01 1.92671174511303e-03
1.70716129032258e+00 1.21606719436862e-01 1.90871020537238e-03
1.71322580645161e+00 1.20256359714691e-01 1.89086492544496e-03
1.71929032258065e+00 1.18920994821233e-01 1.87317475194743e-03
1.72535483870968e+00 1.17600458241757e-01 1.85563853877204e-03
1.73141935483871e+00 1.16294585318015e-01 1.83825513713053e-03
1.73748387096774e+00 1.15003213227243e-01 1.82102341031190e-03
1.74354838709677e+00 1.13726180940505e-01 1.80394222646507e-03
1.74961290322581e+00 1.12463329224119e-01 1.78701045152670e-03
1.75567741935484e+00 1.11214500619358e-01 1.77022696343247e-03
1.76174193548387e+00 1.09979539402347e-01 1.75359064295617e-03
1.76780645161290e+00 1.08758291591827e-01 1.73710037571883e-03
1.77387096774194e+00 1.07550604903199e-01 1.72075505485604e-03
1.77993548387097e+00 1.06356328749510e-01 1.70455357201586e-03
1.78600000000000e+00 1.05175314222267e-01 1.68849483066706e-03
1.79206451612903e+00 1.04007414053848e-01 1.67257773750840e-03
1.79812903225806e+00 1.02852482624400e-01 1.65680120434200e-03
1.80419354838710e+00 1.01710375918812e-01 1.64116415056441e-03
1.81025806451613e+00 1.00580951527325e-01 1.62566549472302e-03
1.81632258064516e+00 9.94640686273932e-02 1.61030416698060e-03
1.82238709677419e+00 9.83595879484488e-02 1.59507910105705e-03
1.82845161290323e+00 9.72673717780069e-02 1.57998923597782e-03
1.83451612903226e+00 9.61872839213861e-02 1.56503351839928e-03
1.84058064516129e+00 9.51191897019840e-02 1.55021089468954e-03
1.84664516129032e+00 9.40629559441248e-02 1.53552032260486e-03
1.85270967741935e+00 9.30184509400281e-02 1.52096076553964e-03
1.85877419354839e+00 9.19855444499299e-02 1.50653118689236e-03
1.86483870967742e+00 9.09641076855024e-02 1.49223056131255e-03
1.87090322580645e+00 8.99540132780427e-02 1.47805786740985e-03
1.87696774193548e+00 8.89551352835129e-02 1.46401208932458e-03
1.88303225806452e+00 8.79673491462353e-02 1.45009221881932e-03
1.88909677419355e+00 8.69905316987424e-02 1.43629724811223e-03
1.89516129032258e+00 8.60245611461074e-02 1.42262618041538e-03
1.90122580645161e+00 8.50693170361047e-02 1.40907802309472e-03
1.90729032258065e+00 8.41246802636483e-02 1.39565178913558e-03
1.91335483870968e+00 8.31905330367795e-02 1.38234649909638e-03
