Energy (eV)          EEDF (eV^-(3/2))     First Anisotropy
1.00000000000000e-02 5.95833129488677e-01 6.01215131385590e-05
3.00000000000000e-02 5.95832713920403e-01 6.66569041245314e-05
5.00000000000000e-02 5.95831570972969e-01 1.07717798485171e-04
7.00000000000000e-02 5.95829499654800e-01 1.49152337279797e-04
9.00000000000000e-02 5.95826326680525e-01 1.93258437354516e-04
1.10000000000000e-01 5.95821876069120e-01 2.39265771809105e-04
1.30000000000000e-01 5.95816093938578e-01 2.86573067286165e-04
1.50000000000000e-01 5.95808844349744e-01 3.33992428633958e-04
1.70000000000000e-01 5.95800000557283e-01 3.81252466139036e-04
1.90000000000000e-01 5.95789439509281e-01 4.28248068193550e-04
2.10000000000000e-01 5.95777041692317e-01 4.74427982187554e-04
2.30000000000000e-01 5.95762998602305e-01 5.20076462093065e-04
2.50000000000000e-01 5.95747261496494e-01 5.64874202585691e-04
2.70000000000000e-01 5.95729789194170e-01 6.08679031930308e-04
2.90000000000000e-01 5.95710545435073e-01 6.51428287654147e-04
3.10000000000000e-01 5.95689497586522e-01 7.14395582080909e-04
3.30000000000000e-01 5.95665475076042e-01 8.29883783453000e-04
3.50000000000000e-01 5.95636357042395e-01 9.97034787919912e-04
3.70000000000000e-01 5.95600689000272e-01 1.19598749717769e-03
3.90000000000000e-01 5.95557512653755e-01 1.41240212226568e-03
4.10000000000000e-01 5.95506242138902e-01 1.65794772183335e-03
4.30000000000000e-01 5.95445609099449e-01 1.96294261715464e-03
4.50000000000000e-01 5.95373153150980e-01 2.32576295042859e-03
4.70000000000000e-01 5.95287209704115e-01 2.72527771827965e-03
4.90000000000000e-01 5.95186710807301e-01 3.14585389890018e-03
5.10000000000000e-01 5.95071032474341e-01 3.57617194901948e-03
5.30000000000000e-01 5.94940291928351e-01 4.00895487782531e-03
5.50000000000000e-01 5.94794514262422e-01 4.43659860279720e-03
5.70000000000000e-01 5.94633968872431e-01 4.85302616218474e-03
5.90000000000000e-01 5.94459101893660e-01 5.25393306562285e-03
6.10000000000000e-01 5.94270482934508e-01 5.72438754132258e-03
6.30000000000000e-01 5.94062670482263e-01 6.40579578260113e-03
6.50000000000000e-01 5.93826417066204e-01 7.31461735268800e-03
6.70000000000000e-01 5.93555094731195e-01 8.38258208758138e-03
6.90000000000000e-01 5.93244150611259e-01 9.55577691209228e-03
7.10000000000000e-01 5.92890672190671e-01 1.09040839414868e-02
7.30000000000000e-01 5.92485600427863e-01 1.25821300006575e-02
7.50000000000000e-01 5.92015388558962e-01 1.45925502136410e-02
7.70000000000000e-01 5.91470461524259e-01 1.68314392034418e-02
7.90000000000000e-01 5.90844500697513e-01 1.92137150198487e-02
8.10000000000000e-01 5.90133849855439e-01 2.16023215593147e-02
8.30000000000000e-01 5.89341725119448e-01 2.38292054966789e-02
8.50000000000000e-01 5.88476160866264e-01 2.58329395592854e-02
8.70000000000000e-01 5.87544645991198e-01 2.76289279086709e-02
8.90000000000000e-01 5.86554143237485e-01 2.92321118756453e-02
9.10000000000000e-01 5.85511102217770e-01 3.06994653097458e-02
9.30000000000000e-01 5.84418522679224e-01 3.21208101898309e-02
9.50000000000000e-01 5.83276605653880e-01 3.35309868110928e-02
9.70000000000000e-01 5.82085926818729e-01 3.49199004164715e-02
9.90000000000000e-01 5.80847389440024e-01 3.62788001199031e-02
1.01000000000000e+00 5.79562178377332e-01 3.79661642360594e-02
1.03000000000000e+00 5.78203618338683e-01 4.06109275389184e-02
1.05000000000000e+00 5.76728589839419e-01 4.43608790915743e-02
1.07000000000000e+00 5.75102209176870e-01 4.89858765205329e-02
1.09000000000000e+00 5.73297017512107e-01 5.42805320763764e-02
1.11000000000000e+00 5.71292182285713e-01 6.00857083159454e-02
1.13000000000000e+00 5.69062798160845e-01 6.62689134706324e-02
1.15000000000000e+00 5.66594575434275e-01 7.27248531138921e-02
1.17000000000000e+00 5.63877194820854e-01 7.93442856322630e-02
1.19000000000000e+00 5.60903860048769e-01 8.60327032447872e-02
1.21000000000000e+00 5.57670864764465e-01 9.26890910062543e-02
1.23000000000000e+00 5.54159312477677e-01 9.91900624017842e-02
1.25000000000000e+00 5.50370470874350e-01 1.05506236301135e-01
1.27000000000000e+00 5.46305973583047e-01 1.11630761497380e-01
1.29000000000000e+00 5.41968066732872e-01 1.17551092096591e-01
1.31000000000000e+00 5.37359818668818e-01 1.23338219520345e-01
1.33000000000000e+00 5.32487105842563e-01 1.29154119608648e-01
1.35000000000000e+00 5.27341946547345e-01 1.35052123203934e-01
1.37000000000000e+00 5.21917805071470e-01 1.40990731337125e-01
1.39000000000000e+00 5.16209804949834e-01 1.46925983346606e-01
1.41000000000000e+00 5.10214827267454e-01 1.52826144472816e-01
1.43000000000000e+00 5.03930553222041e-01 1.58674074791978e-01
1.45000000000000e+00 4.97355326287618e-01 1.64442956197444e-01
1.47000000000000e+00 4.90489127900594e-01 1.70095092765252e-01
1.49000000000000e+00 4.83333573940322e-01 1.75594675604708e-01
1.51000000000000e+00 4.75891866273353e-01 1.80850519579458e-01
1.53000000000000e+00 4.68148423025179e-01 1.85737022080935e-01
1.55000000000000e+00 4.60115531448284e-01 1.90248459556252e-01
1.57000000000000e+00 4.51803609092034e-01 1.94433700207409e-01
1.59000000000000e+00 4.43221793015424e-01 1.98326867605878e-01
1.61000000000000e+00 4.34378455682187e-01 2.02325265460284e-01
1.63000000000000e+00 4.25191999179938e-01 2.07079845609102e-01
1.65000000000000e+00 4.15608058796786e-01 2.12774154301546e-01
1.67000000000000e+00 4.05579828250698e-01 2.19199046081340e-01
1.69000000000000e+00 3.95068226185983e-01 2.26158264065560e-01
1.71000000000000e+00 3.84041782517730e-01 2.32938506521040e-01
1.73000000000000e+00 3.72463155362515e-01 2.38408384594453e-01
1.75000000000000e+00 3.60408339321587e-01 2.42192606198839e-01
1.77000000000000e+00 3.47949125462175e-01 2.44477409716371e-01
1.79000000000000e+00 3.35152823106846e-01 2.45438732466714e-01
1.81000000000000e+00 3.22082068973128e-01 2.45078949602195e-01
1.83000000000000e+00 3.08334831633891e-01 2.43273837668162e-01
1.85000000000000e+00 2.94006177985138e-01 2.40071601169806e-01
1.87000000000000e+00 2.79192238366648e-01 2.35666769608803e-01
1.89000000000000e+00 2.63988377290287e-01 2.30245485012678e-01
1.91000000000000e+00 2.48487486022409e-01 2.23613736198662e-01
1.93000000000000e+00 2.32892431678056e-01 2.15250886671581e-01
1.95000000000000e+00 2.17386509357251e-01 2.05102203570203e-01
1.97000000000000e+00 2.02144899501606e-01 1.93476648474289e-01
1.99000000000000e+00 1.87331973810096e-01 1.80670481585992e-01
2.01000000000000e+00 1.73099326559934e-01 1.67307323202325e-01
2.03000000000000e+00 1.59573460486131e-01 1.54194872368382e-01
2.05000000000000e+00 1.46765474497745e-01 1.41720960185594e-01
2.07000000000000e+00 1.34679813713349e-01 1.29903618326379e-01
2.09000000000000e+00 1.23314993648116e-01 1.18751239376021e-01
2.11000000000000e+00 1.12664311801571e-01 1.08391622822478e-01
2.13000000000000e+00 1.02843061845264e-01 9.88909401997152e-02
2.15000000000000e+00 9.37803922842904e-02 9.03042291048700e-02
2.17000000000000e+00 8.54103730823756e-02 8.25535450688790e-02
2.19000000000000e+00 7.76716398516900e-02 7.55677519089780e-02
2.21000000000000e+00 7.05070576141026e-02 6.91892847615126e-02
2.23000000000000e+00 6.39155686848730e-02 6.31732957094574e-02
2.25000000000000e+00 5.78767574912427e-02 5.74353589762591e-02
2.27000000000000e+00 5.23685310939070e-02 5.19845634602471e-02
2.29000000000000e+00 4.73677080790001e-02 4.68241769954172e-02
2.31000000000000e+00 4.28505724477819e-02 4.20252009487520e-02
2.33000000000000e+00 3.87872321932992e-02 3.76948221310996e-02
2.35000000000000e+00 3.51280267823733e-02 3.38499985627807e-02
2.37000000000000e+00 3.18288281129977e-02 3.04352760820453e-02
2.39000000000000e+00 2.88504003693014e-02 2.74017713690245e-02
2.41000000000000e+00 2.61578345919660e-02 2.46876944499941e-02
2.43000000000000e+00 2.37290824376951e-02 2.22184153461568e-02
2.45000000000000e+00 2.15425713725878e-02 1.99541685222270e-02
2.47000000000000e+00 1.95786013360150e-02 1.78766699912035e-02
2.49000000000000e+00 1.78192368013711e-02 1.59687327081252e-02
2.51000000000000e+00 1.62482062914568e-02 1.42354054110949e-02
2.53000000000000e+00 1.48483591991735e-02 1.26957320870569e-02
2.55000000000000e+00 1.35986531930700e-02 1.13446754672169e-02
2.57000000000000e+00 1.24807669232858e-02 1.01579434358565e-02
2.59000000000000e+00 1.14787277461471e-02 9.11455788935994e-03
2.61000000000000e+00 1.05785923752328e-02 8.19543668651214e-03
2.63000000000000e+00 9.77008094005187e-03 7.38192562137204e-03
2.65000000000000e+00 9.04263388457451e-03 6.66095099272344e-03
2.67000000000000e+00 8.38691616716133e-03 6.02201527428641e-03
2.69000000000000e+00 7.79465957020513e-03 5.45596069606590e-03
2.71000000000000e+00 7.25852577726443e-03 4.95385003306614e-03
2.73000000000000e+00 6.77700708502556e-03 4.50258224167675e-03
2.75000000000000e+00 6.34422536305832e-03 4.09592924657706e-03
2.77000000000000e+00 5.95497001461033e-03 3.72917452152266e-03
2.79000000000000e+00 5.60461491596843e-03 3.39816648506239e-03
2.81000000000000e+00 5.28904614446534e-03 3.10342380486463e-03
2.83000000000000e+00 5.00659741261645e-03 2.84666389978452e-03
2.85000000000000e+00 4.75238708784323e-03 2.62775271474406e-03
2.87000000000000e+00 4.52217605551064e-03 2.44269522810320e-03
2.89000000000000e+00 4.31227641884715e-03 2.28806418430029e-03
2.91000000000000e+00 4.11947617194540e-03 2.15510070275242e-03
2.93000000000000e+00 3.94242313230314e-03 2.03008561555727e-03
2.95000000000000e+00 3.78039840050822e-03 1.90666351333710e-03
2.97000000000000e+00 3.63271415656724e-03 1.78458876046789e-03
2.99000000000000e+00 3.49871221482625e-03 1.66360665358117e-03
3.01000000000000e+00 3.37776235025076e-03 1.54504963456468e-03
3.03000000000000e+00 3.26687372316394e-03 1.43383961879749e-03
3.05000000000000e+00 3.16520458713076e-03 1.33089741502319e-03
3.07000000000000e+00 3.07198369862732e-03 1.23560652811475e-03
3.09000000000000e+00 2.98650333482176e-03 1.14741180415595e-03
3.11000000000000e+00 2.90811305494469e-03 1.06624485862234e-03
3.13000000000000e+00 2.83659832745863e-03 9.92033777264272e-04
3.15000000000000e+00 2.77126392995610e-03 9.24765887635083e-04
3.17000000000000e+00 2.71147328652429e-03 8.64015360232059e-04
3.19000000000000e+00 2.65664272859539e-03 8.09404459875446e-04
3.21000000000000e+00 2.60623647827502e-03 7.60333331599441e-04
3.23000000000000e+00 2.55947860601788e-03 7.16282127637438e-04
3.25000000000000e+00 2.51599726776103e-03 6.76728500116985e-04
3.27000000000000e+00 2.47544647377480e-03 6.41466309266000e-04
3.29000000000000e+00 2.43750400877144e-03 6.10309524572477e-04
3.31000000000000e+00 2.40186959610162e-03 5.82928547769254e-04
3.33000000000000e+00 2.36812022959149e-03 5.58971928474223e-04
3.35000000000000e+00 2.33603721751959e-03 5.38147558080436e-04
3.37000000000000e+00 2.30541428002390e-03 5.20349071220347e-04
3.39000000000000e+00 2.27605675254174e-03 5.05478648863390e-04
3.41000000000000e+00 2.24778087517955e-03 4.92806614953784e-04
3.43000000000000e+00 2.22048526262393e-03 4.80995608541832e-04
3.45000000000000e+00 2.19414354674781e-03 4.69384942790168e-04
3.47000000000000e+00 2.16873042700214e-03 4.57962293031051e-04
3.49000000000000e+00 2.14422163134625e-03 4.46715512641293e-04
3.51000000000000e+00 2.12059387440123e-03 4.35713840467027e-04
3.53000000000000e+00 2.09775554992024e-03 4.25126468135956e-04
3.55000000000000e+00 2.07567090453365e-03 4.15008806108234e-04
3.57000000000000e+00 2.05430589252294e-03 4.05341942045607e-04
3.59000000000000e+00 2.03362809451702e-03 3.96107807462135e-04
3.61000000000000e+00 2.01360663841553e-03 3.86954410851390e-04
3.63000000000000e+00 1.99424619182863e-03 3.77213703063951e-04
3.65000000000000e+00 1.97558345801309e-03 3.66569011117506e-04
3.67000000000000e+00 1.95765300180465e-03 3.55036042994648e-04
3.69000000000000e+00 1.94048733250149e-03 3.42629492185870e-04
3.71000000000000e+00 1.92411698147064e-03 3.29819722471248e-04
3.73000000000000e+00 1.90848043879169e-03 3.17548617819957e-04
3.75000000000000e+00 1.89352182401797e-03 3.06245220166706e-04
3.77000000000000e+00 1.87918738128480e-03 2.95887077530938e-04
3.79000000000000e+00 1.86542538168625e-03 2.86453063728002e-04
3.81000000000000e+00 1.85218603345150e-03 2.77927080558226e-04
3.83000000000000e+00 1.83942104261658e-03 2.70297784479793e-04
3.85000000000000e+00 1.82708356590724e-03 2.63550902413747e-04
3.87000000000000e+00 1.81512849624361e-03 2.57669297319803e-04
3.89000000000000e+00 1.80351239959090e-03 2.52636648478199e-04
3.91000000000000e+00 1.79219345631445e-03 2.48404263447202e-04
3.93000000000000e+00 1.78111711033902e-03 2.44895921964412e-04
3.95000000000000e+00 1.77025075776462e-03 2.42063731280871e-04
3.97000000000000e+00 1.75956289066966e-03 2.39896016837013e-04
3.99000000000000e+00 1.74902306708696e-03 2.38381460012875e-04
4.01000000000000e+00 1.73860188387760e-03 2.37352517701675e-04
4.03000000000000e+00 1.72826811658124e-03 2.36491348566498e-04
4.05000000000000e+00 1.71802094657969e-03 2.35640653894404e-04
4.07000000000000e+00 1.70785956640127e-03 2.34800338966633e-04
4.09000000000000e+00 1.69778317870809e-03 2.33970320370431e-04
4.11000000000000e+00 1.68779099618087e-03 2.33151397982575e-04
4.13000000000000e+00 1.67788216614922e-03 2.32345210231216e-04
4.15000000000000e+00 1.66805577602152e-03 2.31552484409547e-04
4.17000000000000e+00 1.65831092755262e-03 2.30773082186168e-04
4.19000000000000e+00 1.64864673664228e-03 2.30006867235388e-04
4.21000000000000e+00 1.63906233313797e-03 2.29252538145683e-04
4.23000000000000e+00 1.62954898385838e-03 2.28506953370004e-04
4.25000000000000e+00 1.62010617161845e-03 2.27767557366510e-04
4.27000000000000e+00 1.61073338367152e-03 2.27034321028664e-04
4.29000000000000e+00 1.60143011168512e-03 2.26307215343668e-04
4.31000000000000e+00 1.59219585171697e-03 2.25584521765414e-04
4.33000000000000e+00 1.58303024204135e-03 2.24862918079351e-04
4.35000000000000e+00 1.57393305314166e-03 2.24140826311939e-04
4.37000000000000e+00 1.56490405200423e-03 2.23418325424995e-04
4.39000000000000e+00 1.55594300224534e-03 2.22695492619082e-04
4.41000000000000e+00 1.54704966423532e-03 2.21973727373407e-04
4.43000000000000e+00 1.53821596874223e-03 2.21254966644273e-04
4.45000000000000e+00 1.52944159830556e-03 2.20539160529342e-04
4.47000000000000e+00 1.52072623605128e-03 2.19826331044655e-04
4.49000000000000e+00 1.51206956524584e-03 2.19116505661930e-04
4.51000000000000e+00 1.50347126933702e-03 2.18411556136901e-04
4.53000000000000e+00 1.49491569341121e-03 2.17713681142389e-04
4.55000000000000e+00 1.48640249871291e-03 2.17021954620749e-04
4.57000000000000e+00 1.47793134860784e-03 2.16336355322249e-04
4.59000000000000e+00 1.46950190856721e-03 2.15656862071684e-04
4.61000000000000e+00 1.46111384616576e-03 2.14981695579192e-04
4.63000000000000e+00 1.45276995900643e-03 2.14307704774772e-04
4.65000000000000e+00 1.44447013319006e-03 2.13633786379434e-04
4.67000000000000e+00 1.43621425193765e-03 2.12960009617436e-04
4.69000000000000e+00 1.42800219603357e-03 2.12286438034543e-04
4.71000000000000e+00 1.41983384386673e-03 2.11612168680038e-04
4.73000000000000e+00 1.41170767378780e-03 2.10935212678498e-04
4.75000000000000e+00 1.40362373076504e-03 2.10254457666244e-04
4.77000000000000e+00 1.39558205397902e-03 2.09570030670107e-04
4.79000000000000e+00 1.38758267693104e-03 2.08882056920134e-04
4.81000000000000e+00 1.37962562754974e-03 2.08191236280775e-04
4.83000000000000e+00 1.37170219465794e-03 2.07498002067725e-04
4.85000000000000e+00 1.36381245871406e-03 2.06801456250443e-04
4.87000000000000e+00 1.35595649494192e-03 2.06101729606511e-04
4.89000000000000e+00 1.34813437316083e-03 2.05398954087112e-04
4.91000000000000e+00 1.34034615790275e-03 2.04694700398584e-04
4.93000000000000e+00 1.33257124266145e-03 2.03990014657581e-04
4.95000000000000e+00 1.32480982460524e-03 2.03282643112534e-04
4.97000000000000e+00 1.31706209649430e-03 2.02572744409163e-04
4.99000000000000e+00 1.30932951599180e-03 2.01853963801597e-04
5.01000000000000e+00 1.30169050951494e-03 2.01124992717978e-04
5.03000000000000e+00 1.29417673464368e-03 2.00402011423757e-04
5.05000000000000e+00 1.28667396308281e-03 1.99691903101886e-04
5.07000000000000e+00 1.27918223464669e-03 1.98983716021283e-04
5.09000000000000e+00 1.27170158659473e-03 1.98277505078232e-04
5.11000000000000e+00 1.26423205370263e-03 1.97571944709824e-04
5.13000000000000e+00 1.25679331203523e-03 1.96866179908272e-04
5.15000000000000e+00 1.24938525140079e-03 1.96162575922115e-04
5.17000000000000e+00 1.24200776020566e-03 1.95461172797084e-04
5.19000000000000e+00 1.23466072551196e-03 1.94762009078547e-04
5.21000000000000e+00 1.22734403309950e-03 1.94065206849670e-04
5.23000000000000e+00 1.22005621110540e-03 1.93370841087256e-04
5.25000000000000e+00 1.21279715445753e-03 1.92678769873079e-04
5.27000000000000e+00 1.20556675703479e-03 1.91989025209812e-04
5.29000000000000e+00 1.19836491155088e-03 1.91301640089737e-04
5.31000000000000e+00 1.19119150959972e-03 1.90616266443785e-04
5.33000000000000e+00 1.18405177434256e-03 1.89932685863359e-04
5.35000000000000e+00 1.17694555687709e-03 1.89251567220218e-04
5.37000000000000e+00 1.16987270752447e-03 1.88572938874550e-04
5.39000000000000e+00 1.16283307587652e-03 1.87896828064558e-04
5.41000000000000e+00 1.15582651084187e-03 1.87223438911810e-04
5.43000000000000e+00 1.14885024255298e-03 1.86552899064594e-04
5.45000000000000e+00 1.14190413906683e-03 1.85884905606964e-04
5.47000000000000e+00 1.13498806779795e-03 1.85219482555807e-04
5.49000000000000e+00 1.12810189543876e-03 1.84556654511527e-04
5.51000000000000e+00 1.12124548800111e-03 1.83896632790265e-04
5.53000000000000e+00 1.11441613832548e-03 1.83239564526052e-04
5.55000000000000e+00 1.10761372937810e-03 1.82585160970873e-04
5.57000000000000e+00 1.10083814346357e-03 1.81933442511463e-04
5.59000000000000e+00 1.09408926225507e-03 1.81284428716938e-04
5.61000000000000e+00 1.08736696682716e-03 1.80637593047171e-04
5.63000000000000e+00 1.08067871784721e-03 1.79992609112008e-04
5.65000000000000e+00 1.07402434004407e-03 1.79350423523068e-04
5.67000000000000e+00 1.06740365798327e-03 1.78711051684343e-04
5.69000000000000e+00 1.06081649618964e-03 1.78074507063116e-04
5.71000000000000e+00 1.05426267917443e-03 1.77442641914509e-04
5.73000000000000e+00 1.04774189593147e-03 1.76819107593120e-04
5.75000000000000e+00 1.04125370389642e-03 1.76205654914287e-04
5.77000000000000e+00 1.03479766622287e-03 1.75602174595139e-04
5.79000000000000e+00 1.02837335172872e-03 1.75008558141916e-04
5.81000000000000e+00 1.02198033484337e-03 1.74425050067787e-04
5.83000000000000e+00 1.01561331623127e-03 1.73851734831641e-04
5.85000000000000e+00 1.00927191538975e-03 1.73287901243795e-04
5.87000000000000e+00 1.00295575643614e-03 1.72733445798030e-04
5.89000000000000e+00 9.96664468005468e-04 1.72188266514874e-04
5.91000000000000e+00 9.90397683218431e-04 1.71651894989270e-04
5.93000000000000e+00 9.84159842795055e-04 1.71124029879706e-04
5.95000000000000e+00 9.77950559205194e-04 1.70605148043268e-04
5.97000000000000e+00 9.71769450051346e-04 1.70095149876383e-04
5.99000000000000e+00 9.65616138025733e-04 1.69593936365106e-04
6.01000000000000e+00 9.59490250866185e-04 1.69099434334434e-04
6.03000000000000e+00 9.53393916755315e-04 1.68607988659706e-04
6.05000000000000e+00 9.47327008989590e-04 1.68118165959686e-04
6.07000000000000e+00 9.41289400668011e-04 1.67629980829967e-04
6.09000000000000e+00 9.35280964715608e-04 1.67143447330911e-04
6.11000000000000e+00 9.29301573906458e-04 1.66659029155801e-04
6.13000000000000e+00 9.23345271826798e-04 1.66176968632659e-04
6.15000000000000e+00 9.17411965122884e-04 1.65696585472859e-04
6.17000000000000e+00 9.11501560183957e-04 1.65217891524765e-04
6.19000000000000e+00 9.05613963160257e-04 1.64740898164130e-04
6.21000000000000e+00 8.99749079982020e-04 1.64265582743194e-04
6.23000000000000e+00 8.93906818768489e-04 1.63791891247417e-04
6.25000000000000e+00 8.88087089645914e-04 1.63319804228036e-04
6.27000000000000e+00 8.82289802455843e-04 1.62849334050809e-04
6.29000000000000e+00 8.76514866780656e-04 1.62380492437060e-04
6.31000000000000e+00 8.70762191967213e-04 1.61913581371610e-04
