Energy (eV)          EEDF (eV^-(3/2))     First Anisotropy
4.32692307692308e-02 6.72018688565201e-02 4.92061404839587e-05
1.29807692307692e-01 6.63168580380780e-02 8.09905679447510e-05
2.16346153846154e-01 6.54435023144310e-02 1.06222895742471e-04
3.02884615384615e-01 6.45816481925034e-02 1.24975070424321e-04
3.89423076923077e-01 6.37311442066757e-02 1.40273289912850e-04
4.75961538461538e-01 6.28918408790066e-02 1.53272708577855e-04
5.62500000000000e-01 6.20635907051618e-02 1.64576566776881e-04
6.49038461538462e-01 6.12462481196309e-02 1.74552367414082e-04
7.35576923076923e-01 6.04396694769501e-02 1.83445958482945e-04
8.22115384615385e-01 5.96437130208811e-02 1.91432580543828e-04
9.08653846153846e-01 5.88582388641860e-02 1.98643040776123e-04
9.95192307692308e-01 5.80831089599979e-02 2.05178470826068e-04
1.08173076923077e+00 5.73181870795867e-02 2.11119254612455e-04
1.16826923076923e+00 5.65633387913472e-02 2.16530733296423e-04
1.25480769230769e+00 5.58184314314276e-02 2.21467012606003e-04
1.34134615384615e+00 5.50833340832580e-02 2.25973596058735e-04
1.42788461538462e+00 5.43579175543905e-02 2.30089262539997e-04
1.51442307692308e+00 5.36420543490120e-02 2.33847437289661e-04
1.60096153846154e+00 5.29356186603058e-02 2.37277217963276e-04
1.68750000000000e+00 5.22384863330669e-02 2.40404156181621e-04
1.77403846153846e+00 5.15505348471401e-02 2.43250860884372e-04
1.86057692307692e+00 5.08716432959129e-02 2.45837473888608e-04
1.94711538461538e+00 5.02016923650800e-02 2.48182048580232e-04
2.03365384615385e+00 4.95405643083640e-02 2.50300853911438e-04
2.12019230769231e+00 4.88881429369192e-02 2.52208623413873e-04
2.20673076923077e+00 4.82443135885366e-02 2.53918760130508e-04
2.29326923076923e+00 4.76089631110513e-02 2.55443505188134e-04
2.37980769230769e+00 4.69819798424325e-02 2.56794079975096e-04
2.46634615384615e+00 4.63632535912074e-02 2.57980805716179e-04
2.55288461538462e+00 4.57526756170668e-02 2.59013205215237e-04
2.63942307692308e+00 4.51501386094691e-02 2.59900088818915e-04
2.72596153846154e+00 4.45555366757835e-02 2.60649629428261e-04
2.81250000000000e+00 4.39687653155155e-02 2.61269427388301e-04
2.89903846153846e+00 4.33897214043796e-02 2.61766565643308e-04
2.98557692307692e+00 4.28183031761836e-02 2.62147658810686e-04
3.07211538461538e+00 4.22544102049486e-02 2.62418896187144e-04
3.15865384615385e+00 4.16979433854860e-02 2.62586078812875e-04
3.24519230769231e+00 4.11488049213804e-02 2.62654653212119e-04
3.33173076923077e+00 4.06068983022900e-02 2.62629741386523e-04
3.41826923076923e+00 4.00721282888622e-02 2.62516166499336e-04
3.50480769230769e+00 3.95444008959857e-02 2.62318476625799e-04
3.59134615384615e+00 3.90236233762920e-02 2.62040965849903e-04
3.67788461538462e+00 3.85097042038443e-02 2.61687693407562e-04
3.76442307692308e+00 3.80025530567086e-02 2.61262500275686e-04
3.85096153846154e+00 3.75020808051827e-02 2.60769024994033e-04
3.93750000000000e+00 3.70081994919524e-02 2.60210718046841e-04
4.02403846153846e+00 3.65208223180496e-02 2.59590854072436e-04
4.11057692307692e+00 3.60398636276015e-02 2.58912543661298e-04
4.19711538461538e+00 3.55652388927791e-02 2.58178744112119e-04
4.28365384615385e+00 3.50968646978462e-02 2.57392268690496e-04
4.37019230769231e+00 3.46346587278302e-02 2.56555795834327e-04
4.45673076923077e+00 3.41785397506664e-02 2.55671877640820e-04
4.54326923076923e+00 3.37284276040713e-02 2.54742946929933e-04
4.62980769230769e+00 3.32842431814505e-02 2.53771324346560e-04
4.71634615384615e+00 3.28459084180036e-02 2.52759224777321e-04
4.80288461538461e+00 3.24133462770009e-02 2.51708763415902e-04
4.88942307692308e+00 3.19864807353741e-02 2.50621960885174e-04
4.97596153846154e+00 3.15652367730046e-02 2.49500748605500e-04
5.06250000000000e+00 3.11495403568467e-02 2.48346973807841e-04
5.14903846153846e+00 3.07393184288274e-02 2.47162403560200e-04
5.23557692307692e+00 3.03344988930077e-02 2.45948729026355e-04
5.32211538461538e+00 2.99350106029140e-02 2.44707569427976e-04
5.40865384615385e+00 2.95407833483055e-02 2.43440475309142e-04
5.49519230769231e+00 2.91517478450477e-02 2.42148932132191e-04
5.58173076923077e+00 2.87678357206882e-02 2.40834363665086e-04
5.66826923076923e+00 2.83889795032022e-02 2.39498134594711e-04
5.75480769230769e+00 2.80151126091313e-02 2.38141553426090e-04
5.84134615384615e+00 2.76461693318866e-02 2.36765875097977e-04
5.92788461538461e+00 2.72820848301983e-02 2.35372303540600e-04
6.01442307692308e+00 2.69227951161261e-02 2.33961993704880e-04
6.10096153846154e+00 2.65682370456210e-02 2.32536053944485e-04
6.18750000000000e+00 2.62183483055933e-02 2.31095548278403e-04
6.27403846153846e+00 2.58730674035808e-02 2.29641498039780e-04
6.36057692307692e+00 2.55323336569428e-02 2.28174883820982e-04
6.44711538461538e+00 2.51960871821962e-02 2.26696647303250e-04
6.53365384615385e+00 2.48642688839843e-02 2.25207692652493e-04
6.62019230769231e+00 2.45368204462288e-02 2.23708888258400e-04
6.70673076923077e+00 2.42136843203209e-02 2.22201068396063e-04
6.79326923076923e+00 2.38948037155349e-02 2.20685034369504e-04
6.87980769230769e+00 2.35801225890457e-02 2.19161555940854e-04
6.96634615384615e+00 2.32695856360824e-02 2.17631372603748e-04
7.05288461538461e+00 2.29631382802070e-02 2.16095194868630e-04
7.13942307692308e+00 2.26607266633018e-02 2.14553705191904e-04
7.22596153846154e+00 2.23622976373836e-02 2.13007559224435e-04
7.31250000000000e+00 2.20677987539658e-02 2.11457387011211e-04
7.39903846153846e+00 2.17771782552780e-02 2.09903793756772e-04
7.48557692307692e+00 2.14903850651712e-02 2.08347360855312e-04
7.57211538461538e+00 2.12073687801410e-02 2.06788646865334e-04
7.65865384615385e+00 2.09280796601062e-02 2.05228188178236e-04
7.74519230769231e+00 2.06524686207699e-02 2.03666499981924e-04
7.83173076923077e+00 2.03804872238750e-02 2.02104077190597e-04
7.91826923076923e+00 2.01120876690691e-02 2.00541394996220e-04
8.00480769230769e+00 1.98472227855031e-02 1.98978909664040e-04
8.09134615384615e+00 1.95858460235422e-02 1.97417059227670e-04
8.17788461538461e+00 1.93279114465843e-02 1.95856264212756e-04
8.26442307692308e+00 1.90733737226807e-02 1.94296928100134e-04
8.35096153846154e+00 1.88221881174989e-02 1.92739438055032e-04
8.43750000000000e+00 1.85743104855180e-02 1.91184165633571e-04
8.52403846153846e+00 1.83296972625891e-02 1.89631467164071e-04
8.61057692307692e+00 1.80883054582783e-02 1.88081684348332e-04
8.69711538461539e+00 1.78500926483124e-02 1.86535144832098e-04
8.78365384615385e+00 1.76150169668557e-02 1.84992162546709e-04
8.87019230769231e+00 1.73830370999609e-02 1.83453038293151e-04
8.95673076923077e+00 1.71541122774896e-02 1.81918060309641e-04
9.04326923076923e+00 1.69282022662228e-02 1.80387504551466e-04
9.12980769230769e+00 1.67052673627903e-02 1.78861635171131e-04
9.21634615384615e+00 1.64852683866934e-02 1.77340704927766e-04
9.30288461538461e+00 1.62681666734187e-02 1.75824955626825e-04
9.38942307692308e+00 1.60539240674162e-02 1.74314618361342e-04
9.47596153846154e+00 1.58425029160816e-02 1.72809913969916e-04
9.56250000000000e+00 1.56338660624421e-02 1.71311053483176e-04
9.64903846153846e+00 1.54279768388612e-02 1.69818238319463e-04
9.73557692307692e+00 1.52247990605947e-02 1.68331660659676e-04
9.82211538461539e+00 1.50242970194312e-02 1.66851503803131e-04
9.90865384615385e+00 1.48264354772184e-02 1.65377942347138e-04
9.99519230769231e+00 1.46311796602717e-02 1.63911142406045e-04
1.00817307692308e+01 1.44384952534088e-02 1.62451262609407e-04
1.01682692307692e+01 1.42483483910932e-02 1.60998453611587e-04
1.02548076923077e+01 1.40607056553125e-02 1.59552857694564e-04
1.03413461538462e+01 1.38755340699440e-02 1.58114610979799e-04
1.04278846153846e+01 1.36928010895373e-02 1.56683842219845e-04
1.05144230769231e+01 1.35124746007651e-02 1.55260673343988e-04
1.06009615384615e+01 1.33345229097808e-02 1.53845220135339e-04
1.06875000000000e+01 1.31589147418543e-02 1.52437590955561e-04
1.07740384615385e+01 1.29856192357320e-02 1.51037889134919e-04
1.08605769230769e+01 1.28146059333546e-02 1.49646212102229e-04
1.09471153846154e+01 1.26458447794020e-02 1.48262650535952e-04
1.10336538461538e+01 1.24793061158765e-02 1.46887290629828e-04
1.11201923076923e+01 1.23149606723187e-02 1.45520212937366e-04
1.12067307692308e+01 1.21527795667156e-02 1.44161492822914e-04
1.12932692307692e+01 1.19927342945133e-02 1.42811201026828e-04
1.13798076923077e+01 1.18347967280036e-02 1.41469402528006e-04
1.14663461538462e+01 1.16789391112642e-02 1.40136158606246e-04
1.15528846153846e+01 1.15251340511691e-02 1.38811525771121e-04
1.16394230769231e+01 1.13733545180147e-02 1.37495556162675e-04
1.17259615384615e+01 1.12235738354543e-02 1.36188298056496e-04
1.18125000000000e+01 1.10757656797654e-02 1.34889794810202e-04
1.18990384615385e+01 1.09299040751170e-02 1.33600086743604e-04
1.19855769230769e+01 1.07859633853048e-02 1.32319210411007e-04
1.20721153846154e+01 1.06439183129757e-02 1.31047197891708e-04
1.21586538461538e+01 1.05037438950807e-02 1.29784078575826e-04
1.22451923076923e+01 1.03654154950003e-02 1.28529878210571e-04
1.23317307692308e+01 1.02289088028342e-02 1.27284619236063e-04
1.24182692307692e+01 1.00941998266124e-02 1.26048321211947e-04
1.25048076923077e+01 9.96126489143929e-03 1.24820999880542e-04
1.25913461538462e+01 9.83008063524579e-03 1.23602668798095e-04
1.26778846153846e+01 9.70062400153440e-03 1.22393338451695e-04
1.27644230769231e+01 9.57287223949599e-03 1.21193016559777e-04
1.28509615384615e+01 9.44680289593463e-03 1.20001708455821e-04
1.29375000000000e+01 9.32239381435712e-03 1.18819416221297e-04
1.30240384615385e+01 9.19962313099840e-03 1.17646140177400e-04
1.31105769230769e+01 9.07846926813616e-03 1.16481878280662e-04
1.31971153846154e+01 8.95891093316498e-03 1.15326625533891e-04
1.32836538461538e+01 8.84092711477821e-03 1.14180375405091e-04
1.33701923076923e+01 8.72449707659035e-03 1.13043119042541e-04
1.34567307692308e+01 8.60960035705036e-03 1.11914845529104e-04
1.35432692307692e+01 8.49621676236468e-03 1.10795542209089e-04
1.36298076923077e+01 8.38432636553945e-03 1.09685193918183e-04
1.37163461538462e+01 8.27390950281200e-03 1.08583784282956e-04
1.38028846153846e+01 8.16494676776386e-03 1.07491294994297e-04
1.38894230769231e+01 8.05741901113007e-03 1.06407706036174e-04
1.39759615384615e+01 7.95130733428251e-03 1.05332995980993e-04
1.40625000000000e+01 7.84659308825594e-03 1.04267141276996e-04
1.41490384615385e+01 7.74325787040901e-03 1.03210117439406e-04
1.42355769230769e+01 7.64128351898871e-03 1.02161898550141e-04
1.43221153846154e+01 7.54065211215813e-03 1.01122456770289e-04
1.44086538461538e+01 7.44134596478875e-03 1.00091763474365e-04
1.44951923076923e+01 7.34334762327040e-03 9.90697886049287e-05
1.45817307692308e+01 7.24663986520341e-03 9.80565008675871e-05
1.46682692307692e+01 7.15120569366994e-03 9.70518679841675e-05
1.47548076923077e+01 7.05702833625894e-03 9.60558560600707e-05
1.48413461538462e+01 6.96409124206743e-03 9.50684306251671e-05
1.49278846153846e+01 6.87237807690185e-03 9.40895560363437e-05
1.50144230769231e+01 6.78187272291136e-03 9.31191956536038e-05
1.51009615384615e+01 6.69255927330301e-03 9.21573120696576e-05
1.51875000000000e+01 6.60442203137345e-03 9.12038665243390e-05
1.52740384615385e+01 6.51744550770302e-03 9.02588198605050e-05
1.53605769230769e+01 6.43161441571801e-03 8.93221321105272e-05
1.54471153846154e+01 6.34691367073391e-03 8.83937620933691e-05
1.55336538461538e+01 6.26332838725975e-03 8.74736683256116e-05
1.56201923076923e+01 6.18084387475758e-03 8.65618084908002e-05
1.57067307692308e+01 6.09944563721437e-03 8.56581395903513e-05
1.57932692307692e+01 6.01911936848449e-03 8.47626181412978e-05
1.58798076923077e+01 5.93985095134722e-03 8.38751996563712e-05
1.59663461538462e+01 5.86162645498630e-03 8.29958394814100e-05
1.60528846153846e+01 5.78443213106378e-03 8.21244923039669e-05
1.61394230769231e+01 5.70825441326240e-03 8.12611122900056e-05
1.62259615384615e+01 5.63307991298227e-03 8.04056532637057e-05
1.63125000000000e+01 5.55889541841828e-03 7.95580682260510e-05
1.63990384615385e+01 5.48568789220166e-03 7.87183101250217e-05
1.64855769230769e+01 5.41344446776428e-03 7.78863315139740e-05
1.65721153846154e+01 5.34215244843305e-03 7.70620842187799e-05
1.66586538461538e+01 5.27179930516392e-03 7.62455200723699e-05
1.67451923076923e+01 5.20237267306573e-03 7.54365904781883e-05
1.68317307692308e+01 5.13386035091692e-03 7.46352465278120e-05
1.69182692307692e+01 5.06625029736495e-03 7.38414391563993e-05
1.70048076923077e+01 4.99953063004427e-03 7.30551187151188e-05
1.70913461538462e+01 4.93368962345736e-03 7.22762356472554e-05
1.71778846153846e+01 4.86871570575259e-03 7.15047400838045e-05
1.72644230769231e+01 4.80459745823017e-03 7.07405819502608e-05
1.73509615384615e+01 4.74132361182601e-03 6.99837111082671e-05
1.74375000000000e+01 4.67888304625653e-03 6.92340769595409e-05
1.75240384615385e+01 4.61726478803582e-03 6.84916290684954e-05
1.76105769230769e+01 4.55645800748855e-03 6.77563168799831e-05
1.76971153846154e+01 4.49645201791416e-03 6.70280894442774e-05
1.77836538461538e+01 4.43723627368169e-03 6.63068960112111e-05
1.78701923076923e+01 4.37880036737223e-03 6.55926856707777e-05
1.79567307692308e+01 4.32113402928185e-03 6.48854074453096e-05
1.80432692307692e+01 4.26422712431066e-03 6.41850104122955e-05
1.81298076923077e+01 4.20806965115506e-03 6.34914433524600e-05
1.82163461538462e+01 4.15265174052607e-03 6.28046552972565e-05
1.83028846153846e+01 4.09796365249804e-03 6.21245951957746e-05
1.83894230769231e+01 4.04399577601252e-03 6.14512119985911e-05
1.84759615384615e+01 3.99073862599697e-03 6.07844547698833e-05
1.85625000000000e+01 3.93818284258682e-03 6.01242723612735e-05
1.86490384615385e+01 3.88631918945823e-03 5.94706139165468e-05
1.87355769230769e+01 3.83513855136788e-03 5.88234286383573e-05
1.88221153846154e+01 3.78463193339498e-03 5.81826655609030e-05
1.89086538461538e+01 3.73479045933932e-03 5.75482740317824e-05
1.89951923076923e+01 3.68560536936672e-03 5.69202034158484e-05
1.90817307692308e+01 3.63706801952365e-03 5.62984031677724e-05
1.91682692307692e+01 3.58916987918405e-03 5.56828229294786e-05
1.92548076923077e+01 3.54190253032097e-03 5.50734122402056e-05
1.93413461538462e+01 3.49525766600835e-03 5.44701209809717e-05
1.94278846153846e+01 3.44922708823450e-03 5.38728990999817e-05
1.95144230769231e+01 3.40380270742491e-03 5.32816966787272e-05
1.96009615384615e+01 3.35897654007523e-03 5.26964640210575e-05
1.96875000000000e+01 3.31474070805325e-03 5.21171513843444e-05
1.97740384615385e+01 3.27108743719681e-03 5.15437093896036e-05
1.98605769230769e+01 3.22800905528332e-03 5.09760888285479e-05
1.99471153846154e+01 3.18549799135121e-03 5.04142404755724e-05
2.00336538461538e+01 3.14354677435267e-03 4.98581154794613e-05
2.01201923076923e+01 3.10214803120967e-03 4.93076651191313e-05
2.02067307692308e+01 3.06129448635542e-03 4.87628408609455e-05
2.02932692307692e+01 3.02097895963411e-03 4.82235944362791e-05
2.03798076923077e+01 2.98119436565168e-03 4.76898776024184e-05
2.04663461538462e+01 2.94193371251570e-03 4.71616425041631e-05
2.05528846153846e+01 2.90319010002882e-03 4.66388414472493e-05
2.06394230769231e+01 2.86495671924245e-03 4.61214269506280e-05
2.07259615384615e+01 2.82722685050801e-03 4.56093518174522e-05
2.08125000000000e+01 2.78999386285703e-03 4.51025689132771e-05
2.08990384615385e+01 2.75325121282190e-03 4.46010314999880e-05
2.09855769230769e+01 2.71699244275708e-03 4.41046930761289e-05
2.10721153846154e+01 2.68121118023744e-03 4.36135072212978e-05
2.11586538461538e+01 2.64590113692523e-03 4.31274279151927e-05
2.12451923076923e+01 2.61105610696214e-03 4.26464093359709e-05
2.13317307692308e+01 2.57666996654584e-03 4.21704059056535e-05
2.14182692307692e+01 2.54273667219886e-03 4.16993723520398e-05
2.15048076923077e+01 2.50925026019488e-03 4.12332635113417e-05
2.15913461538462e+01 2.47620484549879e-03 4.07720346229245e-05
2.16778846153846e+01 2.44359462027166e-03 4.03156411421885e-05
2.17644230769231e+01 2.41141385346135e-03 3.98640387820200e-05
2.18509615384615e+01 2.37965688919514e-03 3.94171835695081e-05
2.19375000000000e+01 2.34831814623352e-03 3.89750316627882e-05
2.20240384615385e+01 2.31739211697831e-03 3.85375396234149e-05
2.21105769230769e+01 2.28687336608239e-03 3.81046642841324e-05
2.21971153846154e+01 2.25675652992041e-03 3.76763626200057e-05
2.22836538461538e+01 2.22703631563559e-03 3.72525920087375e-05
2.23701923076923e+01 2.19770749980797e-03 3.68333100640653e-05
2.24567307692308e+01 2.16876492806943e-03 3.64184746718043e-05
2.25432692307692e+01 2.14020351367447e-03 3.60080440393842e-05
2.26298076923077e+01 2.11201823699659e-03 3.56019765327912e-05
2.27163461538462e+01 2.08420414463679e-03 3.52002309172093e-05
2.28028846153846e+01 2.05675634818446e-03 3.48027662023444e-05
2.28894230769231e+01 2.02967002384724e-03 3.44095416753629e-05
2.29759615384615e+01 2.00294041112311e-03 3.40205169463092e-05
2.30625000000000e+01 1.97656281232207e-03 3.36356517967205e-05
2.31490384615385e+01 1.95053259173173e-03 3.32549064021425e-05
2.32355769230769e+01 1.92484517446458e-03 3.28782412225533e-05
2.33221153846154e+01 1.89949604599489e-03 3.25056168955620e-05
2.34086538461538e+01 1.87448075135698e-03 3.21369944491284e-05
2.34951923076923e+01 1.84979489404057e-03 3.17723351637910e-05
2.35817307692308e+01 1.82543413564513e-03 3.14116006013361e-05
2.36682692307692e+01 1.80139419469805e-03 3.10547526445093e-05
2.37548076923077e+01 1.77767084621507e-03 3.07017533621811e-05
2.38413461538462e+01 1.75425992095024e-03 3.03525652061048e-05
2.39278846153846e+01 1.73115730436774e-03 3.00071508829594e-05
2.40144230769231e+01 1.70835893631086e-03 2.96654733805638e-05
2.41009615384615e+01 1.68586080990333e-03 2.93274960043127e-05
2.41875000000000e+01 1.66365897113253e-03 2.89931822519483e-05
2.42740384615385e+01 1.64174951814761e-03 2.86624959955967e-05
2.43605769230769e+01 1.62012860030245e-03 2.83354013908999e-05
2.44471153846154e+01 1.59879241775251e-03 2.80118627884459e-05
2.45336538461538e+01 1.57773722078042e-03 2.76918449078343e-05
2.46201923076923e+01 1.55695930887866e-03 2.73753127236486e-05
2.47067307692308e+01 1.53645503044212e-03 2.70622314882964e-05
2.47932692307692e+01 1.51622078178948e-03 2.67525667638977e-05
2.48798076923077e+01 1.49625300678123e-03 2.64462843106961e-05
2.49663461538462e+01 1.47654819618869e-03 2.61433502481470e-05
2.50528846153846e+01 1.45710288683985e-03 2.58437309489774e-05
2.51394230769231e+01 1.43791366132584e-03 2.55473930600830e-05
2.52259615384615e+01 1.41897714709076e-03 2.52543035318007e-05
2.53125000000000e+01 1.40029001607003e-03 2.49644295142333e-05
2.53990384615385e+01 1.38184898409991e-03 2.46777385063598e-05
2.54855769230769e+01 1.36365081012210e-03 2.43941982806321e-05
2.55721153846154e+01 1.34569229583422e-03 2.41137768094732e-05
2.56586538461538e+01 1.32797028512241e-03 2.38364424078873e-05
2.57451923076923e+01 1.31048166329878e-03 2.35621636390130e-05
2.58317307692308e+01 1.29322335682999e-03 2.32909093323417e-05
2.59182692307692e+01 1.27619233252596e-03 2.30226486093605e-05
2.60048076923077e+01 1.25938559720911e-03 2.27573507911284e-05
2.60913461538462e+01 1.24280019718353e-03 2.24949855303192e-05
2.61778846153846e+01 1.22643321752464e-03 2.22355227234429e-05
2.62644230769231e+01 1.21028178182072e-03 2.19789325275188e-05
2.63509615384615e+01 1.19434305141804e-03 2.17251853836288e-05
2.64375000000000e+01 1.17861422510808e-03 2.14742519310212e-05
2.65240384615385e+01 1.16309253863075e-03 2.12261031293876e-05
2.66105769230769e+01 1.14777526401278e-03 2.09807101962505e-05
2.66971153846154e+01 1.13265970926557e-03 2.07380445459299e-05
2.67836538461538e+01 1.11774321790786e-03 2.04980779065091e-05
2.68701923076923e+01 1.10302316833131e-03 2.02607822415519e-05
2.69567307692308e+01 1.08849697356222e-03 2.00261297646489e-05
2.70432692307692e+01 1.07416208058825e-03 1.97940929600587e-05
2.71298076923077e+01 1.06001597007291e-03 1.95646445061076e-05
2.72163461538462e+01 1.04605615590896e-03 1.93377573835345e-05
2.73028846153846e+01 1.03228018462717e-03 1.91134048027133e-05
