Energy (eV)          EEDF (eV^-(3/2))     First Anisotropy
8.10000000000000e-02 1.09467325234787e-01 1.28045100669097e-04
2.43000000000000e-01 1.05743443905444e-01 2.08543553443350e-04
4.05000000000000e-01 1.02146242314787e-01 2.67736026727719e-04
5.67000000000000e-01 9.86714110461660e-02 3.08346072170264e-04
7.29000000000000e-01 9.53147872815296e-02 3.38778909944151e-04
8.91000000000000e-01 9.20723498144022e-02 3.62353590040485e-04
1.05300000000000e+00 8.89402142325131e-02 3.80857127474238e-04
1.21500000000000e+00 8.59146282643040e-02 3.95408668022261e-04
1.37700000000000e+00 8.29919672837400e-02 4.06775645789895e-04
1.53900000000000e+00 8.01687299680382e-02 4.15517196061052e-04
1.70100000000000e+00 7.74415341031135e-02 4.22058698580635e-04
1.86300000000000e+00 7.48071125317149e-02 4.26734388693178e-04
2.02500000000000e+00 7.22623092393990e-02 4.29813498135435e-04
2.18700000000000e+00 6.98040755736521e-02 4.31517195134222e-04
2.34900000000000e+00 6.74294665916308e-02 4.32030054700867e-04
2.51100000000000e+00 6.51356375321448e-02 4.31508110098336e-04
2.67300000000000e+00 6.29198404076586e-02 4.30084677355039e-04
2.83500000000000e+00 6.07794207122250e-02 4.27874678006309e-04
2.99700000000000e+00 5.87118142414106e-02 4.24977918693032e-04
3.15900000000000e+00 5.67145440204001e-02 4.21481627424392e-04
3.32100000000000e+00 5.47852173366023e-02 4.17462448182636e-04
3.48300000000000e+00 5.29215228732006e-02 4.12988032980306e-04
3.64500000000000e+00 5.11212279402156e-02 4.08118329471276e-04
3.80700000000000e+00 4.93821757997613e-02 4.02906634673994e-04
3.96900000000000e+00 4.77022830822918e-02 3.97400466460212e-04
4.13100000000000e+00 4.60795372907425e-02 3.91642291230269e-04
4.29300000000000e+00 4.45119943895759e-02 3.85670136769860e-04
4.45500000000000e+00 4.29977764758433e-02 3.79518112460162e-04
4.61700000000000e+00 4.15350695294738e-02 3.73216854001483e-04
4.77900000000000e+00 4.01221212400935e-02 3.66793906080118e-04
4.94100000000000e+00 3.87572389077726e-02 3.60274053596744e-04
5.10300000000000e+00 3.74387874151855e-02 3.53679609931776e-04
5.26500000000000e+00 3.61651872687545e-02 3.47030669072582e-04
5.42700000000000e+00 3.49349127064297e-02 3.40345327143475e-04
5.58900000000000e+00 3.37464898698392e-02 3.33639877871607e-04
5.75100000000000e+00 3.25984950386196e-02 3.26928985723956e-04
5.91300000000000e+00 3.14895529248113e-02 3.20225839813867e-04
6.07500000000000e+00 3.04183350252749e-02 3.13542291163628e-04
6.23700000000000e+00 2.93835580301561e-02 3.06888975494992e-04
6.39900000000000e+00 2.83839822854916e-02 3.00275423381699e-04
6.56100000000000e+00 2.74184103081141e-02 2.93710159320837e-04
6.72300000000000e+00 2.64856853510778e-02 2.87200791051180e-04
6.88500000000000e+00 2.55846900178856e-02 2.80754090256905e-04
7.04700000000000e+00 2.47143449238574e-02 2.74376065636748e-04
7.20900000000000e+00 2.38736074030368e-02 2.68072029185954e-04
7.37100000000000e+00 2.30614702590862e-02 2.61846656426500e-04
7.53300000000000e+00 2.22769605586739e-02 2.55704041226488e-04
7.69500000000000e+00 2.15191384659088e-02 2.49647745769094e-04
7.85700000000000e+00 2.07870961164247e-02 2.43680846162775e-04
8.01900000000000e+00 2.00799565297666e-02 2.37805974125614e-04
8.18100000000000e+00 1.93968725587760e-02 2.32025355126014e-04
8.34300000000000e+00 1.87370258747154e-02 2.26340843318210e-04
8.50500000000000e+00 1.80996259869178e-02 2.20753953573221e-04
8.66700000000000e+00 1.74839092957855e-02 2.15265890872895e-04
8.82900000000000e+00 1.68891381780044e-02 2.09877577305986e-04
8.99100000000000e+00 1.63146001028777e-02 2.04589676880074e-04
9.15300000000000e+00 1.57596067787200e-02 1.99402618341092e-04
9.31500000000000e+00 1.52234933282900e-02 1.94316616172802e-04
9.47700000000000e+00 1.47056174922730e-02 1.89331689931493e-04
9.63900000000000e+00 1.42053588598601e-02 1.84447682055979e-04
9.80100000000000e+00 1.37221181255012e-02 1.79664274279607e-04
9.96300000000000e+00 1.32553163709419e-02 1.74981002758994e-04
1.01250000000000e+01 1.28043943716847e-02 1.70397272023627e-04
1.02870000000000e+01 1.23688119270427e-02 1.65912367840949e-04
1.04490000000000e+01 1.19480472129839e-02 1.61525469083064e-04
1.06110000000000e+01 1.15415961569904e-02 1.57235658673567e-04
1.07730000000000e+01 1.11489718341837e-02 1.53041933686174e-04
1.09350000000000e+01 1.07697038839933e-02 1.48943214660676e-04
1.10970000000000e+01 1.04033379466684e-02 1.44938354196178e-04
1.12590000000000e+01 1.00494351189589e-02 1.41026144876552e-04
1.14210000000000e+01 9.70757142831326e-03 1.37205326578537e-04
1.15830000000000e+01 9.37733732496263e-03 1.33474593208766e-04
1.17450000000000e+01 9.05833719128414e-03 1.29832598912288e-04
1.19070000000000e+01 8.75018886785416e-03 1.26277963791753e-04
1.20690000000000e+01 8.45252319562468e-03 1.22809279173347e-04
1.22310000000000e+01 8.16498357367388e-03 1.19425112452733e-04
1.23930000000000e+01 7.88722553200131e-03 1.16124011551711e-04
1.25550000000000e+01 7.61891631885579e-03 1.12904509013908e-04
1.27170000000000e+01 7.35973450210164e-03 1.09765125765748e-04
1.28790000000000e+01 7.10936958414579e-03 1.06704374566892e-04
1.30410000000000e+01 6.86752162996425e-03 1.03720763172583e-04
1.32030000000000e+01 6.63390090778262e-03 1.00812797228677e-04
1.33650000000000e+01 6.40822754197982e-03 9.79789829185762e-05
1.35270000000000e+01 6.19023117779955e-03 9.52178293799387e-05
1.36890000000000e+01 5.97965065746760e-03 9.25278509076920e-05
1.38510000000000e+01 5.77623370732706e-03 8.99075689587223e-05
1.40130000000000e+01 5.57973663561669e-03 8.73555139725103e-05
1.41750000000000e+01 5.38992404053019e-03 8.48702270209531e-05
1.43370000000000e+01 5.20656852820698e-03 8.24502612997034e-05
1.44990000000000e+01 5.02945044031619e-03 8.00941834724692e-05
1.46610000000000e+01 4.85835759090794e-03 7.78005748789269e-05
1.48230000000000e+01 4.69308501221634e-03 7.55680326161566e-05
1.49850000000000e+01 4.53343470910991e-03 7.33951705028170e-05
1.51470000000000e+01 4.37921542189507e-03 7.12806199346630e-05
1.53090000000000e+01 4.23024239718872e-03 6.92230306393767e-05
1.54710000000000e+01 4.08633716658522e-03 6.72210713381689e-05
1.56330000000000e+01 3.94732733285278e-03 6.52734303210860e-05
1.57950000000000e+01 3.81304636340308e-03 6.33788159424831e-05
1.59570000000000e+01 3.68333339078666e-03 6.15359570426844e-05
1.61190000000000e+01 3.55803301997505e-03 5.97436033014413e-05
1.62810000000000e+01 3.43699514219890e-03 5.80005255284199e-05
1.64430000000000e+01 3.32007475511897e-03 5.63055158955942e-05
1.66050000000000e+01 3.20713178911452e-03 5.46573881160843e-05
1.67670000000000e+01 3.09803093948115e-03 5.30549775736783e-05
1.69290000000000e+01 2.99264150433694e-03 5.14971414069912e-05
1.70910000000000e+01 2.89083722804265e-03 4.99827585519348e-05
1.72530000000000e+01 2.79249614994860e-03 4.85107297459316e-05
1.74150000000000e+01 2.69750045828686e-03 4.70799774970713e-05
1.75770000000000e+01 2.60573634903373e-03 4.56894460211919e-05
1.77390000000000e+01 2.51709388957353e-03 4.43381011496552e-05
1.79010000000000e+01 2.43146688700023e-03 4.30249302104125e-05
1.80630000000000e+01 2.34875276089930e-03 4.17489418847652e-05
1.82250000000000e+01 2.26885242045724e-03 4.05091660420622e-05
1.83870000000000e+01 2.19167014575161e-03 3.93046535544302e-05
1.85490000000000e+01 2.11711347307942e-03 3.81344760934769e-05
1.87110000000000e+01 2.04509308418640e-03 3.69977259107780e-05
1.88730000000000e+01 1.97552269926447e-03 3.58935156038301e-05
1.90350000000000e+01 1.90831897358931e-03 3.48209778690374e-05
1.91970000000000e+01 1.84340139767406e-03 3.37792652431845e-05
1.93590000000000e+01 1.78069220081967e-03 3.27675498347443e-05
1.95210000000000e+01 1.72011625794625e-03 3.17850230462837e-05
1.96830000000000e+01 1.66160099959389e-03 3.08308952891224e-05
1.98450000000000e+01 1.60507632498506e-03 2.99043956913281e-05
2.00070000000000e+01 1.55047451804446e-03 2.90047718000511e-05
2.01690000000000e+01 1.49773016627580e-03 2.81312892791221e-05
2.03310000000000e+01 1.44678008239810e-03 2.72832316027713e-05
2.04930000000000e+01 1.39756322864796e-03 2.64598997462634e-05
2.06550000000000e+01 1.35002064365680e-03 2.56606118741784e-05
2.08170000000000e+01 1.30409537181563e-03 2.48847030270179e-05
2.09790000000000e+01 1.25973239504276e-03 2.41315248067551e-05
2.11410000000000e+01 1.21687856687258e-03 2.34004450619069e-05
2.13030000000000e+01 1.17548254878656e-03 2.26908475726537e-05
2.14650000000000e+01 1.13549474871015e-03 2.20021317364897e-05
2.16270000000000e+01 1.09686726160189e-03 2.13337122548504e-05
2.17890000000000e+01 1.05955381206360e-03 2.06850188211223e-05
2.19510000000000e+01 1.02350969890281e-03 2.00554958104050e-05
2.21130000000000e+01 9.88691741581162e-04 1.94446019713657e-05
2.22750000000000e+01 9.55058228484471e-04 1.88518101204925e-05
2.24370000000000e+01 9.22568866952569e-04 1.82766068390263e-05
2.25990000000000e+01 8.91184735009053e-04 1.77184921728220e-05
2.27610000000000e+01 8.60868234733079e-04 1.71769793353686e-05
2.29230000000000e+01 8.31583047217387e-04 1.66515944141692e-05
2.30850000000000e+01 8.03294089058555e-04 1.61418760806667e-05
2.32470000000000e+01 7.75967470327384e-04 1.56473753038752e-05
2.34090000000000e+01 7.49570453969055e-04 1.51676550678618e-05
2.35710000000000e+01 7.24071416584417e-04 1.47022900932041e-05
2.37330000000000e+01 6.99439810545425e-04 1.42508665625337e-05
2.38950000000000e+01 6.75646127399347e-04 1.38129818502610e-05
2.40570000000000e+01 6.52661862517886e-04 1.33882442565608e-05
2.42190000000000e+01 6.30459480948884e-04 1.29762727456888e-05
2.43810000000000e+01 6.09012384429684e-04 1.25766966886817e-05
2.45430000000000e+01 5.88294879522638e-04 1.21891556104885e-05
2.47050000000000e+01 5.68282146834593e-04 1.18132989415658e-05
2.48670000000000e+01 5.48950211283467e-04 1.14487857739617e-05
2.50290000000000e+01 5.30275913376308e-04 1.10952846219057e-05
2.51910000000000e+01 5.12236881464421e-04 1.07524731869101e-05
2.53530000000000e+01 4.94811504942321e-04 1.04200381273865e-05
2.55150000000000e+01 4.77978908358419e-04 1.00976748327678e-05
2.56770000000000e+01 4.61718926406404e-04 9.78508720212432e-06
2.58390000000000e+01 4.46012079767385e-04 9.48198742725561e-06
2.60010000000000e+01 4.30839551773827e-04 9.18809578023355e-06
2.61630000000000e+01 4.16183165867353e-04 8.90314040536838e-06
2.63250000000000e+01 4.02025363823375e-04 8.62685711556341e-06
2.64870000000000e+01 3.88349184716496e-04 8.35898919302216e-06
2.66490000000000e+01 3.75138244601468e-04 8.09928719426760e-06
2.68110000000000e+01 3.62376716885361e-04 7.84750875942796e-06
2.69730000000000e+01 3.50049313367447e-04 7.60341842574255e-06
2.71350000000000e+01 3.38141265924062e-04 7.36678744523847e-06
2.72970000000000e+01 3.26638308816520e-04 7.13739360652550e-06
2.74590000000000e+01 3.15526661600885e-04 6.91502106065477e-06
2.76210000000000e+01 3.04793012619113e-04 6.69946015098590e-06
2.77830000000000e+01 2.94424503051803e-04 6.49050724700426e-06
2.79450000000000e+01 2.84408711513438e-04 6.28796458202940e-06
2.81070000000000e+01 2.74733639171676e-04 6.09164009475482e-06
2.82690000000000e+01 2.65387695372848e-04 5.90134727455695e-06
2.84310000000000e+01 2.56359683756458e-04 5.71690501051194e-06
2.85930000000000e+01 2.47638788842036e-04 5.53813744405697e-06
2.87550000000000e+01 2.39214563072285e-04 5.36487382523289e-06
2.89170000000000e+01 2.31076914297002e-04 5.19694837244414e-06
2.90790000000000e+01 2.23216093682760e-04 5.03420013567242e-06
2.92410000000000e+01 2.15622684033899e-04 4.87647286307907e-06
2.94030000000000e+01 2.08287588510799e-04 4.72361487093276e-06
2.95650000000000e+01 2.01202019731947e-04 4.57547891679771e-06
2.97270000000000e+01 1.94357489246729e-04 4.43192207591822e-06
2.98890000000000e+01 1.87745797366340e-04 4.29280562073641e-06
3.00510000000000e+01 1.81359023340625e-04 4.15799490347885e-06
3.02130000000000e+01 1.75189515869089e-04 4.02735924174926e-06
3.03750000000000e+01 1.69229883934708e-04 3.90077180706453e-06
3.05370000000000e+01 1.63472987949548e-04 3.77810951627174e-06
3.06990000000000e+01 1.57911931201604e-04 3.65925292578441e-06
3.08610000000000e+01 1.52540051592597e-04 3.54408612857744e-06
3.10230000000000e+01 1.47350913656839e-04 3.43249665387943e-06
3.11850000000000e+01 1.42338300851597e-04 3.32437536950325e-06
3.13470000000000e+01 1.37496208109731e-04 3.21961638675582e-06
3.15090000000000e+01 1.32818834645674e-04 3.11811696786844e-06
3.16710000000000e+01 1.28300577006141e-04 3.01977743589045e-06
3.18330000000000e+01 1.23936022357239e-04 2.92450108698961e-06
3.19950000000000e+01 1.19719941999940e-04 2.83219410510302e-06
3.21570000000000e+01 1.15647285106143e-04 2.74276547888380e-06
3.23190000000000e+01 1.11713172667828e-04 2.65612692088926e-06
3.24810000000000e+01 1.07912891652041e-04 2.57219278895720e-06
3.26430000000000e+01 1.04241889354726e-04 2.49088000971818e-06
3.28050000000000e+01 1.00695767946623e-04 2.41210800419194e-06
3.29670000000000e+01 9.72702792047040e-05 2.33579861541755e-06
3.31290000000000e+01 9.39613194228429e-05 2.26187603806746e-06
3.32910000000000e+01 9.07649244956064e-05 2.19026674999677e-06
3.34530000000000e+01 8.76772651692919e-05 2.12089944567971e-06
3.36150000000000e+01 8.46946424545138e-05 2.05370497148635e-06
3.37770000000000e+01 8.18134831948462e-05 1.98861626275367e-06
3.39390000000000e+01 7.90303357862118e-05 1.92556828260541e-06
3.41010000000000e+01 7.63418660418903e-05 1.86449796247686e-06
3.42630000000000e+01 7.37448531981909e-05 1.80534414430103e-06
3.44250000000000e+01 7.12361860560052e-05 1.74804752431363e-06
3.45870000000000e+01 6.88128592536175e-05 1.69255059843552e-06
3.47490000000000e+01 6.64719696663069e-05 1.63879760919170e-06
3.49110000000000e+01 6.42107129284291e-05 1.58673449412705e-06
3.50730000000000e+01 6.20263800738101e-05 1.53630883567995e-06
3.52350000000000e+01 5.99163542904283e-05 1.48746981247556e-06
3.53970000000000e+01 5.78781077854961e-05 1.44016815200151e-06
3.55590000000000e+01 5.59091987571856e-05 1.39435608462952e-06
3.57210000000000e+01 5.40072684693710e-05 1.34998729894744e-06
3.58830000000000e+01 5.21700384258832e-05 1.30701689836675e-06
3.60450000000000e+01 5.03953076408908e-05 1.26540135897157e-06
3.62070000000000e+01 4.86809500021377e-05 1.22509848857598e-06
3.63690000000000e+01 4.70249117238793e-05 1.18606738695725e-06
3.65310000000000e+01 4.54252088864646e-05 1.14826840723317e-06
3.66930000000000e+01 4.38799250596172e-05 1.11166311835261e-06
3.68550000000000e+01 4.23872090065688e-05 1.07621426866920e-06
3.70170000000000e+01 4.09452724662931e-05 1.04188575056853e-06
3.71790000000000e+01 3.95523880111844e-05 1.00864256612020e-06
3.73410000000000e+01 3.82068869776144e-05 9.76450793726655e-07
3.75030000000000e+01 3.69071574668870e-05 9.45277555741517e-07
3.76650000000000e+01 3.56516424141982e-05 9.15090987030566e-07
3.78270000000000e+01 3.44388377232853e-05 8.85860204449503e-07
3.79890000000000e+01 3.32672904645324e-05 8.57555277213067e-07
3.81510000000000e+01 3.21355971343738e-05 8.30147198130761e-07
3.83130000000000e+01 3.10424019739080e-05 8.03607855685113e-07
3.84750000000000e+01 2.99863953447108e-05 7.77910006928971e-07
3.86370000000000e+01 2.89663121598993e-05 7.53027251178879e-07
3.87990000000000e+01 2.79809303685688e-05 7.28934004482308e-07
3.89610000000000e+01 2.70290694917865e-05 7.05605474836974e-07
3.91230000000000e+01 2.61095892083874e-05 6.83017638141033e-07
3.92850000000000e+01 2.52213879888797e-05 6.61147214853583e-07
3.94470000000000e+01 2.43634017758219e-05 6.39971647345379e-07
3.96090000000000e+01 2.35346027090909e-05 6.19469077920176e-07
3.97710000000000e+01 2.27339978945146e-05 5.99618327487694e-07
3.99330000000000e+01 2.19606282143932e-05 5.80398874869644e-07
4.00950000000000e+01 2.12135671784841e-05 5.61790836720737e-07
4.02570000000000e+01 2.04919198140749e-05 5.43774948047185e-07
4.04190000000000e+01 1.97948215938139e-05 5.26332543305524e-07
4.05810000000000e+01 1.91214374000130e-05 5.09445538065143e-07
4.07430000000000e+01 1.84709605241847e-05 4.93096411218349e-07
4.09050000000000e+01 1.78426117006119e-05 4.77268187722159e-07
4.10670000000000e+01 1.72356381727942e-05 4.61944421856527e-07
4.12290000000000e+01 1.66493127916522e-05 4.47109180984085e-07
4.13910000000000e+01 1.60829331444090e-05 4.32747029796896e-07
4.15530000000000e+01 1.55358207131060e-05 4.18843015036102e-07
4.17150000000000e+01 1.50073200617438e-05 4.05382650670726e-07
4.18770000000000e+01 1.44967980510757e-05 3.92351903522294e-07
4.20390000000000e+01 1.40036430801126e-05 3.79737179322311e-07
4.22010000000000e+01 1.35272643534296e-05 3.67525309189936e-07
4.23630000000000e+01 1.30670911733989e-05 3.55703536517623e-07
4.25250000000000e+01 1.26225722564984e-05 3.44259504252772e-07
4.26870000000000e+01 1.21931750728788e-05 3.33181242563775e-07
4.28490000000000e+01 1.17783852083978e-05 3.22457156879233e-07
4.30110000000000e+01 1.13777057483560e-05 3.12076016289320e-07
4.31730000000000e+01 1.09906566821975e-05 3.02026942298695e-07
4.33350000000000e+01 1.06167743284612e-05 2.92299397920583e-07
4.34970000000000e+01 1.02556107792948e-05 2.82883177101955e-07
4.36590000000000e+01 9.90673336386468e-06 2.73768394470055e-07
4.38210000000000e+01 9.56972413001985e-06 2.64945475390741e-07
4.39830000000000e+01 9.24417934358923e-06 2.56405146329439e-07
4.41450000000000e+01 8.92970900471137e-06 2.48138425505720e-07
4.43070000000000e+01 8.62593638061794e-06 2.40136613832778e-07
4.44690000000000e+01 8.33249755431120e-06 2.32391286133377e-07
4.46310000000000e+01 8.04904098859448e-06 2.24894282624012e-07
4.47930000000000e+01 7.77522710493367e-06 2.17637700659297e-07
4.49550000000000e+01 7.51072787664506e-06 2.10613886728828e-07
4.51170000000000e+01 7.25522643592214e-06 2.03815428698997e-07
4.52790000000000e+01 7.00841669423075e-06 1.97235148292408e-07
4.54410000000000e+01 6.77000297561760e-06 1.90866093797810e-07
4.56030000000000e+01 6.53969966249299e-06 1.84701533003629e-07
4.57650000000000e+01 6.31723085346346e-06 1.78734946348403e-07
4.59270000000000e+01 6.10233003280423e-06 1.72960020281609e-07
4.60890000000000e+01 5.89473975117568e-06 1.67370640828564e-07
4.62510000000000e+01 5.69421131720121e-06 1.61960887353253e-07
4.64130000000000e+01 5.50050449953716e-06 1.56725026513132e-07
4.65750000000000e+01 5.31338723907766e-06 1.51657506400128e-07
4.67370000000000e+01 5.13263537094987e-06 1.46752950862209e-07
4.68990000000000e+01 4.95803235596634e-06 1.42006154000081e-07
4.70610000000000e+01 4.78936902121294e-06 1.37412074833707e-07
4.72230000000000e+01 4.62644330946153e-06 1.32965832133539e-07
4.73850000000000e+01 4.46906003710706e-06 1.28662699411443e-07
4.75470000000000e+01 4.31703066033937e-06 1.24498100066498e-07
4.77090000000000e+01 4.17017304926927e-06 1.20467602680979e-07
4.78710000000000e+01 4.02831126973851e-06 1.16566916461942e-07
4.80330000000000e+01 3.89127537255216e-06 1.12791886824010e-07
4.81950000000000e+01 3.75890118988096e-06 1.09138491109056e-07
4.83570000000000e+01 3.63103013858964e-06 1.05602834438616e-07
4.85190000000000e+01 3.50750903025567e-06 1.02181145695002e-07
4.86810000000000e+01 3.38818988765091e-06 9.88697736271763e-08
4.88430000000000e+01 3.27292976746608e-06 9.56651830775970e-08
4.90050000000000e+01 3.16159058906597e-06 9.25639513263268e-08
4.91670000000000e+01 3.05403896906996e-06 8.95627645488342e-08
4.93290000000000e+01 2.95014606155992e-06 8.66584143840079e-08
4.94910000000000e+01 2.84978740372391e-06 8.38477946090133e-08
4.96530000000000e+01 2.75284276675076e-06 8.11278979177149e-08
4.98150000000000e+01 2.65919601179701e-06 7.84958127994975e-08
4.99770000000000e+01 2.56873495085357e-06 7.59487205154026e-08
5.01390000000000e+01 2.48135121234545e-06 7.34838921685967e-08
5.03010000000000e+01 2.39694011130353e-06 7.10986858662787e-08
5.04630000000000e+01 2.31540052395289e-06 6.87905439702064e-08
5.06250000000000e+01 2.23663476656736e-06 6.65569904331264e-08
5.07870000000000e+01 2.16054847844528e-06 6.43956282184607e-08
5.09490000000000e+01 2.08705050886619e-06 6.23041368006872e-08
5.11110000000000e+01 2.01605280789303e-06 6.02802697439270e-08
