Energy (eV)          EEDF (eV^-(3/2))     First Anisotropy
5.68333333333333e-02 1.08416938222449e+00 2.20138882888579e-03
1.70500000000000e-01 9.66188575593942e-01 3.44892394250817e-03
2.84166666666667e-01 8.61046603544419e-01 4.08497569780535e-03
3.97833333333333e-01 7.67346325669291e-01 4.34027152645826e-03
5.11500000000000e-01 6.83842641076875e-01 4.39937174470165e-03
6.25166666666667e-01 6.09425942610326e-01 4.34112887649736e-03
7.38833333333333e-01 5.43107371778227e-01 4.20947576991652e-03
8.52500000000000e-01 4.84005679182043e-01 4.03188306377068e-03
9.66166666666667e-01 4.31335514255076e-01 3.82659501373958e-03
1.07983333333333e+00 3.84396989235941e-01 3.60613827789402e-03
1.19350000000000e+00 3.42566379066028e-01 3.37926340452804e-03
1.30716666666667e+00 3.05287833743129e-01 3.15211930896362e-03
1.42083333333333e+00 2.72065991004449e-01 2.92901011652577e-03
1.53450000000000e+00 2.42459394905272e-01 2.71290598271312e-03
1.64816666666667e+00 2.16074629503568e-01 2.50580004504545e-03
1.76183333333333e+00 1.92561090581392e-01 2.30896437066563e-03
1.87550000000000e+00 1.71606327328044e-01 2.12313717520701e-03
1.98916666666667e+00 1.52931890352032e-01 1.94866186150602e-03
2.10283333333333e+00 1.36289631311735e-01 1.78559138318347e-03
2.21650000000000e+00 1.21458405810421e-01 1.63376722782251e-03
2.33016666666667e+00 1.08241134743971e-01 1.49287953014985e-03
2.44383333333333e+00 9.64621853104795e-02 1.36251292589748e-03
2.55750000000000e+00 8.59650373717790e-02 1.24218156486340e-03
2.67116666666667e+00 7.66102035602707e-02 1.13135581637454e-03
2.78483333333333e+00 6.82733756439673e-02 1.02948253562840e-03
2.89850000000000e+00 6.08437728209570e-02 9.36000346231801e-04
3.01216666666667e+00 5.42226696297116e-02 8.50351053774250e-04
3.12583333333333e+00 4.83220840045887e-02 7.71988028804779e-04
3.23950000000000e+00 4.30636082326802e-02 7.00382235087279e-04
3.35316666666667e+00 3.83773670496422e-02 6.35026430515335e-04
3.46683333333333e+00 3.42010890852850e-02 5.75437939012241e-04
3.58050000000000e+00 3.04792794403802e-02 5.21160322885021e-04
3.69416666666667e+00 2.71624822555517e-02 4.71764214769682e-04
3.80783333333333e+00 2.42066235080152e-02 4.26847503255140e-04
3.92150000000000e+00 2.15724253802657e-02 3.86035036092334e-04
4.03516666666667e+00 1.92248843264787e-02 3.48977969790625e-04
4.14883333333333e+00 1.71328059231809e-02 3.15352859917120e-04
4.26250000000000e+00 1.52683903731162e-02 2.84860573269929e-04
4.37616666666667e+00 1.36068630948241e-02 2.57225085032351e-04
4.48983333333333e+00 1.21261455032959e-02 2.32192205130596e-04
4.60350000000000e+00 1.08065616395217e-02 2.09528272644603e-04
4.71716666666667e+00 9.63057671178988e-03 1.89018847704632e-04
4.83083333333333e+00 8.58256408357924e-03 1.70467419763959e-04
4.94450000000000e+00 7.64859763308040e-03 1.53694149335872e-04
5.05816666666667e+00 6.81626669978126e-03 1.38534655390162e-04
5.17183333333333e+00 6.07451116505018e-03 1.24838854664570e-04
5.28550000000000e+00 5.41347448931457e-03 1.12469858942422e-04
5.39916666666667e+00 4.82437273623432e-03 1.01302933861040e-04
5.51283333333333e+00 4.29937784734267e-03 9.12245194671431e-05
5.62650000000000e+00 3.83151362541400e-03 8.21313131889145e-05
5.74016666666667e+00 3.41456303329188e-03 7.39294146928639e-05
5.85383333333333e+00 3.04298557891884e-03 6.65335302215042e-05
5.96750000000000e+00 2.71184369497060e-03 5.98662346740900e-05
6.08116666666667e+00 2.41673712745264e-03 5.38572891715186e-05
6.19483333333333e+00 2.15374446310522e-03 4.84430108190187e-05
6.30850000000000e+00 1.91937102276562e-03 4.35656920568911e-05
6.42216666666667e+00 1.71050242337425e-03 3.91730668196701e-05
6.53583333333333e+00 1.52436319267932e-03 3.52178201787611e-05
6.64950000000000e+00 1.35847988948053e-03 3.16571387471901e-05
6.76316666666667e+00 1.21064823605947e-03 2.84522991275412e-05
6.87683333333333e+00 1.07890382680119e-03 2.55682914114378e-05
6.99050000000000e+00 9.61496025642721e-04 2.29734752433920e-05
7.10416666666667e+00 8.56864703285808e-04 2.06392660405016e-05
7.21783333333333e+00 7.63619505559264e-04 1.85398488380043e-05
7.33150000000000e+00 6.80521378700876e-04 1.66519176364205e-05
7.44516666666667e+00 6.06466104578007e-04 1.49544382305923e-05
7.55883333333333e+00 5.40469627399088e-04 1.34284324607409e-05
7.67250000000000e+00 4.81654977782518e-04 1.20567821438900e-05
7.78616666666667e+00 4.29240619425311e-04 1.08240510494848e-05
7.89983333333333e+00 3.82530063748207e-04 9.71632328419004e-06
8.01350000000000e+00 3.40902615088368e-04 8.72105669614951e-06
8.12716666666667e+00 3.03805122782347e-04 7.82695000408069e-06
8.24083333333333e+00 2.70744630693518e-04 7.02382237670036e-06
8.35450000000000e+00 2.41281826898422e-04 6.30250437467821e-06
8.46816666666667e+00 2.15025206031017e-04 5.65473924800056e-06
8.58183333333333e+00 1.91625866817175e-04 5.07309360855692e-06
8.69550000000000e+00 1.70772875932172e-04 4.55087663850410e-06
8.80916666666667e+00 1.52189136263549e-04 4.08206706089872e-06
8.92283333333333e+00 1.35627704746638e-04 3.66124712653996e-06
9.03650000000000e+00 1.20868511023094e-04 3.28354297627262e-06
9.15016666666667e+00 1.07715433107440e-04 2.94457079052782e-06
9.26383333333333e+00 9.59936912504256e-05 2.64038816288742e-06
9.37750000000000e+00 8.55475254907700e-05 2.36745021278641e-06
9.49116666666667e+00 7.62381258898268e-05 2.12256999355351e-06
9.60483333333333e+00 6.79417879783247e-05 1.90288277341993e-06
9.71850000000000e+00 6.05482689879046e-05 1.70581382510486e-06
9.83216666666667e+00 5.39593229263273e-05 1.52904939128576e-06
9.94583333333333e+00 4.80873950523447e-05 1.37051051169702e-06
1.00595000000000e+01 4.28544584446238e-05 1.22832943423440e-06
1.01731666666667e+01 3.81909772394973e-05 1.10082837699755e-06
1.02868333333333e+01 3.40349824711156e-05 9.86500388179269e-07
1.04005000000000e+01 3.03312487690915e-05 8.83992103647365e-07
1.05141666666667e+01 2.70305604927661e-05 7.92088246634493e-07
1.06278333333333e+01 2.40890576532373e-05 7.09697654590586e-07
1.07415000000000e+01 2.14676531983525e-05 6.35840704351900e-07
1.08551666666667e+01 1.91315136025872e-05 5.69638012597229e-07
1.09688333333333e+01 1.70495959301232e-05 5.10300255825074e-07
1.10825000000000e+01 1.51942354023456e-05 4.57119013867519e-07
1.11961666666667e+01 1.35407777735180e-05 4.09458545717117e-07
1.13098333333333e+01 1.20672516777165e-05 3.66748384263401e-07
1.14235000000000e+01 1.07540767185295e-05 3.28476678727874e-07
1.15371666666667e+01 9.58380327456675e-06 2.94184217393477e-07
1.16508333333333e+01 8.54088059624610e-06 2.63459048198160e-07
1.17645000000000e+01 7.61145019841885e-06 2.35931644546804e-07
1.18781666666667e+01 6.78316170177983e-06 2.11270566688574e-07
1.19918333333333e+01 6.04500869854823e-06 1.89178558828038e-07
1.21055000000000e+01 5.38718252057692e-06 1.69389043168587e-07
1.22191666666667e+01 4.80094189689973e-06 1.51662974408595e-07
1.23328333333333e+01 4.27849678423094e-06 1.35786011317194e-07
1.24465000000000e+01 3.81290486746348e-06 1.21565976868499e-07
1.25601666666667e+01 3.39797930681328e-06 1.08830580195776e-07
1.26738333333333e+01 3.02820651640716e-06 9.74253689597448e-08
1.27875000000000e+01 2.69867290978080e-06 8.72118912160150e-08
1.29011666666667e+01 2.40499960580477e-06 7.80660472237680e-08
1.30148333333333e+01 2.14328423473676e-06 6.98766084789838e-08
1.31285000000000e+01 1.91004909042726e-06 6.25438886671576e-08
1.32421666666667e+01 1.70219491693946e-06 5.59785522564017e-08
1.33558333333333e+01 1.51695972054207e-06 5.01005443149693e-08
1.34695000000000e+01 1.35188207308091e-06 4.48381303743691e-08
1.35831666666667e+01 1.20476840339683e-06 4.01270359303517e-08
1.36968333333333e+01 1.07366384563101e-06 3.59096737292870e-08
1.38105000000000e+01 9.56826266234144e-07 3.21344506886801e-08
1.39241666666667e+01 8.52703113714794e-07 2.87551468772741e-08
1.40378333333333e+01 7.59910785899823e-07 2.57303580039826e-08
1.41515000000000e+01 6.77216246879493e-07 2.30229954810691e-08
1.42651666666667e+01 6.03520641883569e-07 2.05998385564627e-08
1.43788333333333e+01 5.37844694013754e-07 1.84311323509727e-08
1.44925000000000e+01 4.79315693163981e-07 1.64902274856498e-08
1.46061666666667e+01 4.27155899071189e-07 1.47532573032000e-08
1.47198333333333e+01 3.80672205535657e-07 1.31988482426827e-08
1.48335000000000e+01 3.39246931496223e-07 1.18078602343917e-08
1.49471666666667e+01 3.02329613021850e-07 1.05631542174919e-08
1.50608333333333e+01 2.69429687938335e-07 9.44938358326686e-09
1.51745000000000e+01 2.40109977976924e-07 8.45280727153477e-09
1.52881666666667e+01 2.13980879366781e-07 7.56112242159490e-09
1.54018333333333e+01 1.90695185219569e-07 6.76331427726456e-09
1.55155000000000e+01 1.69943472354498e-07 6.04952169954041e-09
1.56291666666667e+01 1.51449989555873e-07 5.41091676827391e-09
1.57428333333333e+01 1.34968993002196e-07 4.83959681853301e-09
1.58565000000000e+01 1.20281481174758e-07 4.32848771988610e-09
1.59701666666667e+01 1.07192284676810e-07 3.87125730068707e-09
1.60838333333333e+01 9.55274725528885e-08 3.46223772828500e-09
1.61975000000000e+01 8.51320413379219e-08 3.09635598329599e-09
1.63111666666667e+01 7.58678553094086e-08 2.76907163481480e-09
1.64248333333333e+01 6.76118107526813e-08 2.47632106230677e-09
1.65385000000000e+01 6.02542003272432e-08 2.21446750141452e-09
1.66521666666667e+01 5.36972552325450e-08 1.98025634117448e-09
1.67658333333333e+01 4.78538459261154e-08 1.77077505919994e-09
1.68795000000000e+01 4.26463244627755e-08 1.58341734517961e-09
1.69931666666667e+01 3.80054926786886e-08 1.41585099972809e-09
1.71068333333333e+01 3.38696825958021e-08 1.26598916826187e-09
1.72205000000000e+01 3.01839370584421e-08 1.13196458547530e-09
1.73341666666667e+01 2.68992794416544e-08 1.01210653273101e-09
1.74478333333333e+01 2.39720627870060e-08 9.04920192426994e-10
1.75615000000000e+01 2.13633898776719e-08 8.09068165422035e-10
1.76751666666667e+01 1.90385963575746e-08 7.23353937065133e-10
1.77888333333333e+01 1.69667900677481e-08 6.46707065225737e-10
1.79025000000000e+01 1.51204405900308e-08 5.78169921770407e-10
1.80161666666667e+01 1.34750134126421e-08 5.16885833080564e-10
1.81298333333333e+01 1.20086438852110e-08 4.62088457140602e-10
1.82435000000000e+01 1.07018467081198e-08 4.13092275812280e-10
1.83571666666667e+01 9.53725700469854e-09 3.69284091185180e-10
1.84708333333333e+01 8.49939955560328e-09 3.30115409553626e-10
1.85845000000000e+01 7.57448318269275e-09 2.95095625653728e-10
1.86981666666667e+01 6.75021748685943e-09 2.63785927246263e-10
1.88118333333333e+01 6.01564951849088e-09 2.35793836607741e-10
1.89255000000000e+01 5.36101824756688e-09 2.10768326080169e-10
1.90391666666667e+01 4.77762485560155e-09 1.88395450230019e-10
1.91528333333333e+01 4.25771713549650e-09 1.68394434850358e-10
1.92665000000000e+01 3.79438648915543e-09 1.50514177615621e-10
1.93801666666667e+01 3.38147612359138e-09 1.34530119107890e-10
1.94938333333333e+01 3.01349923232400e-09 1.20241441416902e-10
1.96075000000000e+01 2.68556609290023e-09 1.07468561835470e-10
1.97211666666667e+01 2.39331909055468e-09 9.60508919999048e-11
1.98348333333333e+01 2.13287480925133e-09 8.58448318368168e-11
1.99485000000000e+01 1.90077243315838e-09 7.67219749843986e-11
2.00621666666667e+01 1.69392775813259e-09 6.85675044001996e-11
2.01758333333333e+01 1.50959220534828e-09 6.12787562271953e-11
2.02895000000000e+01 1.34531630117249e-09 5.47639351637641e-11
2.04031666666667e+01 1.19891712772296e-09 4.89409660593978e-11
2.05168333333333e+01 1.06844931383873e-09 4.37364660459515e-11
2.06305000000000e+01 9.52179187065040e-10 3.90848251779790e-11
2.07441666666667e+01 8.48561736028352e-10 3.49273846211554e-11
2.08578333333333e+01 7.56220078639823e-10 3.12117011647248e-11
2.09715000000000e+01 6.73927167529044e-10 2.78908894284699e-11
2.10851666666667e+01 6.00589484628576e-10 2.49230339031865e-11
2.11988333333333e+01 5.35232509330232e-10 2.22706627973068e-11
2.13125000000000e+01 4.76987770057916e-10 1.99002774998041e-11
2.14261666666667e+01 4.25081303730144e-10 1.77819320234652e-11
2.15398333333333e+01 3.78823370518309e-10 1.58888566886844e-11
2.16535000000000e+01 3.37599289280788e-10 1.41971216093282e-11
2.17671666666667e+01 3.00861269478734e-10 1.26853359412965e-11
2.18808333333333e+01 2.68121131562882e-10 1.13343787904480e-11
2.19945000000000e+01 2.38943820528256e-10 1.01271585983046e-11
2.21081666666667e+01 2.12941624762272e-10 9.04839811129948e-12
2.22218333333333e+01 1.89769023733162e-10 8.08444200074575e-12
2.23355000000000e+01 1.69118097050116e-10 7.22308485358288e-12
2.24491666666667e+01 1.50714432718315e-10 6.45341746075638e-12
2.25628333333333e+01 1.34313480473261e-10 5.76568930742295e-12
2.26765000000000e+01 1.19697302431263e-10 5.15118563163454e-12
2.27901666666667e+01 1.06671677061559e-10 4.60211756690964e-12
2.29038333333333e+01 9.50635181756992e-11 4.11152387129616e-12
2.30175000000000e+01 8.47185751213563e-11 3.67318307312364e-12
2.31311666666667e+01 7.54993830510801e-11 3.28153497059624e-12
2.32448333333333e+01 6.72834361532396e-11 2.93161041557036e-12
2.33585000000000e+01 5.99615599082893e-11 2.61896854392656e-12
2.34721666666667e+01 5.34364603436819e-11 2.33964069181132e-12
2.35858333333333e+01 4.76214310964201e-11 2.09008023377668e-12
2.36995000000000e+01 4.24392013379009e-11 1.86711774324659e-12
2.38131666666667e+01 3.78209089752448e-11 1.66792093095832e-12
2.39268333333333e+01 3.37051855453138e-11 1.48995881582338e-12
2.40405000000000e+01 3.00373408055697e-11 1.33096969912190e-12
2.41541666666667e+01 2.67686359933637e-11 1.18893255259797e-12
2.42678333333333e+01 2.38556361387781e-11 1.06204143093448e-12
2.43815000000000e+01 2.12596329390434e-11 9.48682601601395e-13
2.44951666666667e+01 1.89461303908443e-11 8.47414113536380e-13
2.46088333333333e+01 1.68843863749306e-11 7.56947526585718e-13
2.47225000000000e+01 1.50470041815103e-11 6.76131582095507e-13
2.48361666666667e+01 1.34095684545108e-11 6.03937615468830e-13
2.49498333333333e+01 1.19503207376032e-11 5.39446512208197e-13
2.50635000000000e+01 1.06498703664153e-11 4.81837050383457e-13
2.51771666666667e+01 9.49093679958604e-12 4.30375487117962e-13
2.52908333333333e+01 8.45811997903796e-12 3.84406247442609e-13
2.54045000000000e+01 7.53769570695143e-12 3.43343603215679e-13
2.55181666666667e+01 6.71743327455401e-12 3.06664240313941e-13
2.56318333333333e+01 5.98643292934348e-12 2.73900613016948e-13
2.57455000000000e+01 5.33498104819820e-12 2.44635005301343e-13
2.58591666666667e+01 4.75442105989532e-12 2.18494226294818e-13
2.59728333333333e+01 4.23703840881264e-12 1.95144867772625e-13
2.60865000000000e+01 3.77595805020166e-12 1.74289066314297e-13
2.62001666666667e+01 3.36505309258584e-12 1.55660718136856e-13
2.63138333333333e+01 2.99886337818256e-12 1.39022095157139e-13
2.64275000000000e+01 2.67252293270994e-12 1.24160821276766e-13
2.65411666666667e+01 2.38169530491087e-12 1.10887171751321e-13
2.66548333333333e+01 2.12251593997825e-12 9.90316589464613e-14
2.67685000000000e+01 1.89154083040701e-12 8.84428751821767e-14
2.68821666666667e+01 1.68570075103205e-12 7.89855661370755e-14
2.69958333333333e+01 1.50226047249681e-12 7.05389086397698e-14
2.71095000000000e+01 1.33878241765686e-12 6.29949719172231e-14
2.72231666666667e+01 1.19309427035902e-12 5.62573433539920e-14
2.73368333333333e+01 1.06326010783672e-12 5.02399000977242e-14
2.74505000000000e+01 9.47554677654765e-13 4.48657115615344e-14
2.75641666666667e+01 8.44440472066032e-13 4.00660592943271e-14
2.76778333333333e+01 7.52547296300770e-13 3.57795609103135e-14
2.77915000000000e+01 6.70654062455386e-13 3.19513874018097e-14
2.79051666666667e+01 5.97672563332781e-13 2.85325641760950e-14
2.80188333333333e+01 5.32633011429210e-13 2.54793463276211e-14
2.81325000000000e+01 4.74671153121343e-13 2.27526605226749e-14
2.82461666666667e+01 4.23016784222601e-13 2.03176066011331e-14
2.83598333333333e+01 3.76983514868377e-13 1.81430121308909e-14
2.84735000000000e+01 3.35959649272284e-13 1.62010344728124e-14
2.85871666666667e+01 2.99400057342772e-13 1.44668054345609e-14
2.87008333333333e+01 2.66818930545030e-13 1.29181136915123e-14
2.88145000000000e+01 2.37783326829432e-13 1.15351210900426e-14
2.89281666666667e+01 2.11907417578229e-13 1.03001093207918e-14
2.90418333333333e+01 1.88847360399969e-13 9.19725352519050e-15
2.91555000000000e+01 1.68296730397666e-13 8.21242006265892e-15
2.92691666666667e+01 1.49982448310841e-13 7.33298593213849e-15
2.93828333333333e+01 1.33661151617644e-13 6.54767739869647e-15
2.94965000000000e+01 1.19115960905290e-13 5.84642584661782e-15
2.96101666666667e+01 1.06153597917403e-13 5.22023907076930e-15
2.97238333333333e+01 9.46018171178964e-14 4.66108626087491e-15
2.98375000000000e+01 8.43071170121036e-14 4.16179526692257e-15
2.99511666666667e+01 7.51327003774187e-14 3.71596087001098e-15
3.00648333333333e+01 6.69566563933958e-14 3.31786281499491e-15
3.01785000000000e+01 5.96703407744315e-14 2.96239259770912e-15
3.02921666666667e+01 5.31769320753062e-14 2.64498809681832e-15
3.04058333333333e+01 4.73901450518256e-14 2.36157516422716e-15
3.05195000000000e+01 4.22330841609207e-14 2.10851545554765e-15
3.06331666666667e+01 3.76372217521374e-14 1.88255985163003e-15
3.07468333333333e+01 3.35414874189364e-14 1.68080683991029e-15
3.08605000000000e+01 2.98914565359359e-14 1.50066534309062e-15
3.09741666666667e+01 2.66386270500439e-14 1.33982153233102e-15
3.10878333333333e+01 2.37397749478160e-14 1.19620917528147e-15
3.12015000000000e+01 2.11563799232668e-14 1.06798315345888e-15
3.13151666666667e+01 1.88541135098807e-14 9.53495818950395e-16
3.14288333333333e+01 1.68023828977480e-14 8.51275870145146e-16
3.15425000000000e+01 1.49739244362182e-14 7.60009485857822e-16
3.16561666666667e+01 1.33444413473587e-14 6.78523482547119e-16
3.17698333333333e+01 1.18922808519933e-14 6.05770266501178e-16
3.18835000000000e+01 1.05981464614836e-14 5.40814395149173e-16
3.19971666666667e+01 9.44484156095590e-15 4.82820579754280e-16
3.21108333333333e+01 8.41704088779240e-15 4.31042967019856e-16
3.22245000000000e+01 7.50108689926208e-15 3.84815567113349e-16
3.23381666666667e+01 6.68480828755101e-15 3.43543708533748e-16
3.24518333333333e+01 5.95735823838168e-15 3.06696404124888e-16
3.25655000000000e+01 5.30907030533755e-15 2.73799533781468e-16
3.26791666666667e+01 4.73132995963024e-15 2.44429758619690e-16
3.27928333333333e+01 4.21646011389675e-15 2.18209084227402e-16
3.29065000000000e+01 3.75761911380998e-15 1.94800005666960e-16
3.30201666666667e+01 3.34870982442132e-15 1.73901173489153e-16
3.31338333333333e+01 2.98429860697988e-15 1.55243522098361e-16
3.32475000000000e+01 2.65954312005900e-15 1.38586812482657e-16
3.33611666666667e+01 2.37012797328818e-15 1.23716546022603e-16
3.34748333333333e+01 2.11220738132193e-15 1.10441207614792e-16
3.35885000000000e+01 1.88235406336365e-15 9.85898039117575e-17
3.37021666666667e+01 1.67751370058885e-15 8.80096658340521e-17
3.38158333333333e+01 1.49496434816417e-15 7.85644856219347e-17
3.39295000000000e+01 1.33228026766606e-15 7.01325640567910e-17
3.40431666666667e+01 1.18729969325635e-15 6.62076496804025e-17
