Energy (eV)          EEDF (eV^-(3/2))     First Anisotropy
1.31372549019608e-02 1.47523454286989e-01 7.74138361080502e-05
3.94117647058824e-02 1.46526089698568e-01 1.27829866847554e-04
6.56862745098039e-02 1.45535468010823e-01 1.68743605495076e-04
9.19607843137255e-02 1.44551543637533e-01 1.99822263224703e-04
1.18235294117647e-01 1.43574271301715e-01 2.25739085934819e-04
1.44509803921569e-01 1.42603606027745e-01 2.48260661078392e-04
1.70784313725490e-01 1.41639503147357e-01 2.68301048371820e-04
1.97058823529412e-01 1.40681918294482e-01 2.86412132040782e-04
2.23333333333333e-01 1.39730807407427e-01 3.02959873214546e-04
2.49607843137255e-01 1.38786126712702e-01 3.18202884217686e-04
2.75882352941176e-01 1.37847832737766e-01 3.32332571956535e-04
3.02156862745098e-01 1.36915882303868e-01 3.45495693458236e-04
3.28431372549020e-01 1.35990232524221e-01 3.57807952672162e-04
3.54705882352941e-01 1.35070840804662e-01 3.69362658686878e-04
3.80980392156863e-01 1.34157664833436e-01 3.80236483157138e-04
4.07254901960784e-01 1.33250662587691e-01 3.90493428734450e-04
4.33529411764706e-01 1.32349792328638e-01 4.00187648626030e-04
4.59803921568627e-01 1.31455012599688e-01 4.09365499378637e-04
4.86078431372549e-01 1.30566282226398e-01 4.18067070190185e-04
5.12352941176471e-01 1.29683560308865e-01 4.26327342347849e-04
5.38627450980392e-01 1.28806806225651e-01 4.34177083642913e-04
5.64901960784314e-01 1.27935979629927e-01 4.41643549681080e-04
5.91176470588235e-01 1.27071040447644e-01 4.48751039338088e-04
6.17450980392157e-01 1.26211948877093e-01 4.55521341559068e-04
6.43725490196078e-01 1.25358665382782e-01 4.61974097071185e-04
6.70000000000000e-01 1.24511150697966e-01 4.68127094670001e-04
6.96274509803922e-01 1.23669365821362e-01 4.73996516998548e-04
7.22549019607843e-01 1.22833272015362e-01 4.79597144694814e-04
7.48823529411765e-01 1.22002830804259e-01 4.84942527784759e-04
7.75098039215686e-01 1.21178003973549e-01 4.90045131172994e-04
8.01372549019608e-01 1.20358753564884e-01 4.94916457685012e-04
8.27647058823529e-01 1.19545041877656e-01 4.99567153311337e-04
8.53921568627451e-01 1.18736831466135e-01 5.04007098527895e-04
8.80196078431373e-01 1.17934085137758e-01 5.08245486554265e-04
9.06470588235294e-01 1.17136765952299e-01 5.12290892051502e-04
9.32745098039216e-01 1.16344837217467e-01 5.16151330434497e-04
9.59019607843137e-01 1.15558262489952e-01 5.19834309831349e-04
9.85294117647059e-01 1.14777005572821e-01 5.23346877499001e-04
1.01156862745098e+00 1.14001030513865e-01 5.26695659928995e-04
1.03784313725490e+00 1.13230301606146e-01 5.29886899995148e-04
1.06411764705882e+00 1.12464783379646e-01 5.32926488231216e-04
1.09039215686275e+00 1.11704440606424e-01 5.35819990659376e-04
1.11666666666667e+00 1.10949238296708e-01 5.38572675535833e-04
1.14294117647059e+00 1.10199141697278e-01 5.41189535934824e-04
1.16921568627451e+00 1.09454116289872e-01 5.43675310425813e-04
1.19549019607843e+00 1.08714127789596e-01 5.46034501733285e-04
1.22176470588235e+00 1.07979142143343e-01 5.48271393618053e-04
1.24803921568627e+00 1.07249125528233e-01 5.50390066185631e-04
1.27431372549020e+00 1.06524044350050e-01 5.52394409799596e-04
1.30058823529412e+00 1.05803865241699e-01 5.54288137754717e-04
1.32686274509804e+00 1.05088555061670e-01 5.56074797844115e-04
1.35313725490196e+00 1.04378080892514e-01 5.57757782938572e-04
1.37941176470588e+00 1.03672410039324e-01 5.59340340678743e-04
1.40568627450980e+00 1.02971510028236e-01 5.60825582373706e-04
1.43196078431373e+00 1.02275348604934e-01 5.62216491185080e-04
1.45823529411765e+00 1.01583893733163e-01 5.63515929664127e-04
1.48450980392157e+00 1.00897113593255e-01 5.64726646706709e-04
1.51078431372549e+00 1.00214976580667e-01 5.65851283980388e-04
1.53705882352941e+00 9.95374513045255e-02 5.66892381872749e-04
1.56333333333333e+00 9.88645065861803e-02 5.67852385004800e-04
1.58960784313725e+00 9.81961114577718e-02 5.68733647348408e-04
1.61588235294118e+00 9.75322351608052e-02 5.69538436982646e-04
1.64215686274510e+00 9.68728471447351e-02 5.70268940520319e-04
1.66843137254902e+00 9.62179170655592e-02 5.70927267232814e-04
1.69470588235294e+00 9.55674147844228e-02 5.71515452898768e-04
1.72098039215686e+00 9.49213103662311e-02 5.72035463399038e-04
1.74725490196078e+00 9.42795740782720e-02 5.72489198078697e-04
1.77352941176471e+00 9.36421763888478e-02 5.72878492894728e-04
1.79980392156863e+00 9.30090879659161e-02 5.73205123366188e-04
1.82607843137255e+00 9.23802796757403e-02 5.73470807342317e-04
1.85235294117647e+00 9.17557225815484e-02 5.73677207602189e-04
1.87862745098039e+00 9.11353879422018e-02 5.73825934298836e-04
1.90490196078431e+00 9.05192472108725e-02 5.73918547259248e-04
1.93117647058824e+00 8.99072720337297e-02 5.73956558150831e-04
1.95745098039216e+00 8.92994342486347e-02 5.73941432523942e-04
1.98372549019608e+00 8.86957058838448e-02 5.73874591739134e-04
2.01000000000000e+00 8.80960591567266e-02 5.73757414094946e-04
2.03627450980392e+00 8.75004664753924e-02 5.73591238639567e-04
2.06254901960784e+00 8.69089004286091e-02 5.73377365395323e-04
2.08882352941176e+00 8.63213337934356e-02 5.73117055486198e-04
2.11509803921569e+00 8.57377395309775e-02 5.72811534731587e-04
2.14137254901961e+00 8.51580907851426e-02 5.72461994314628e-04
2.16764705882353e+00 8.45823608814051e-02 5.72069592095734e-04
2.19392156862745e+00 8.40105233255780e-02 5.71635453859901e-04
2.22019607843137e+00 8.34425518025941e-02 5.71160674501932e-04
2.24647058823529e+00 8.28784201752946e-02 5.70646319153360e-04
2.27274509803922e+00 8.23181024832268e-02 5.70093424254813e-04
2.29901960784314e+00 8.17615729414493e-02 5.69502998577016e-04
2.32529411764706e+00 8.12088059393452e-02 5.68876024193510e-04
2.35156862745098e+00 8.06597760394438e-02 5.68213457407926e-04
2.37784313725490e+00 8.01144579762499e-02 5.67516229638493e-04
2.40411764705882e+00 7.95728266550811e-02 5.66785248262321e-04
2.43039215686275e+00 7.90348571509131e-02 5.66021397421632e-04
2.45666666666667e+00 7.85005247072325e-02 5.65225538794158e-04
2.48294117647059e+00 7.79698047348978e-02 5.64398512329712e-04
2.50921568627451e+00 7.74426728110076e-02 5.63541136954689e-04
2.53549019607843e+00 7.69191046777770e-02 5.62654211246423e-04
2.56176470588235e+00 7.63990762414208e-02 5.61738514078932e-04
2.58803921568627e+00 7.58825635710454e-02 5.60794805241453e-04
2.61431372549020e+00 7.53695428975469e-02 5.59823826031428e-04
2.64058823529412e+00 7.48599906125178e-02 5.58826299823211e-04
2.66686274509804e+00 7.43538832671602e-02 5.57802932613573e-04
2.69313725490196e+00 7.38511975712071e-02 5.56754413545588e-04
2.71941176470588e+00 7.33519103918496e-02 5.55681415411208e-04
2.74568627450980e+00 7.28559987526738e-02 5.54584595134345e-04
2.77196078431373e+00 7.23634398326032e-02 5.53464594235750e-04
2.79823529411765e+00 7.18742109648475e-02 5.52322039279336e-04
2.82450980392157e+00 7.13882896358607e-02 5.51157542301611e-04
2.85078431372549e+00 7.09056534843043e-02 5.49971701225174e-04
2.87705882352941e+00 7.04262803000184e-02 5.48765100256731e-04
2.90333333333333e+00 6.99501480229999e-02 5.47538310270373e-04
2.92960784313725e+00 6.94772347423870e-02 5.46291889176825e-04
2.95588235294118e+00 6.90075186954512e-02 5.45026382279493e-04
2.98215686274510e+00 6.85409782665956e-02 5.43742322617686e-04
3.00843137254902e+00 6.80775919863601e-02 5.42440231297616e-04
3.03470588235294e+00 6.76173385304337e-02 5.41120617811871e-04
3.06098039215686e+00 6.71601967186731e-02 5.39783980347727e-04
3.08725490196078e+00 6.67061455141279e-02 5.38430806084889e-04
3.11352941176471e+00 6.62551640220724e-02 5.37061571483032e-04
3.13980392156863e+00 6.58072314890446e-02 5.35676742559630e-04
3.16607843137255e+00 6.53623273018905e-02 5.34276775158523e-04
3.19235294117647e+00 6.49204309868160e-02 5.32862115209515e-04
3.21862745098039e+00 6.44815222084444e-02 5.31433198979484e-04
3.24490196078431e+00 6.40455807688809e-02 5.29990453315270e-04
3.27117647058824e+00 6.36125866067827e-02 5.28534295878712e-04
3.29745098039216e+00 6.31825197964366e-02 5.27065135374331e-04
3.32372549019608e+00 6.27553605468409e-02 5.25583371769550e-04
3.35000000000000e+00 6.23310892007956e-02 5.24089396128003e-04
3.37627450980392e+00 6.19096862352382e-02 5.22583591962974e-04
3.40254901960784e+00 6.14911322565969e-02 5.21066334669694e-04
3.42882352941177e+00 6.10754080036734e-02 5.19537990943911e-04
3.45509803921569e+00 6.06624943454885e-02 5.17998920139256e-04
3.48137254901961e+00 6.02523722804024e-02 5.16449474057801e-04
3.50764705882353e+00 5.98450229352400e-02 5.14889997127318e-04
3.53392156862745e+00 5.94404275644223e-02 5.13320826573153e-04
3.56019607843137e+00 5.90385675491039e-02 5.11742292585061e-04
3.58647058823529e+00 5.86394243963162e-02 5.10154718479236e-04
3.61274509803922e+00 5.82429797381164e-02 5.08558420855510e-04
3.63901960784314e+00 5.78492153307420e-02 5.06953709750158e-04
3.66529411764706e+00 5.74581130537716e-02 5.05340888784350e-04
3.69156862745098e+00 5.70696549092908e-02 5.03720255308318e-04
3.71784313725490e+00 5.66838230210640e-02 5.02092100541541e-04
3.74411764705882e+00 5.63005996337118e-02 5.00456709708984e-04
3.77039215686275e+00 5.59199671118940e-02 4.98814362173582e-04
3.79666666666667e+00 5.55419079394977e-02 4.97165331565129e-04
3.82294117647059e+00 5.51664047188319e-02 4.95509885905587e-04
3.84921568627451e+00 5.47934401698261e-02 4.93848287731024e-04
3.87549019607843e+00 5.44229971292356e-02 4.92180794210307e-04
3.90176470588235e+00 5.40550585498517e-02 4.90507657260630e-04
3.92803921568627e+00 5.36896074997170e-02 4.88829123659953e-04
3.95431372549020e+00 5.33266271613461e-02 4.87145435156452e-04
3.98058823529412e+00 5.29661008309521e-02 4.85456828575180e-04
4.00686274509804e+00 5.26080119176777e-02 4.83763535921973e-04
4.03313725490196e+00 5.22523439428316e-02 4.82065784484658e-04
4.05941176470588e+00 5.18990805391301e-02 4.80363796931580e-04
4.08568627450980e+00 5.15482054499445e-02 4.78657791407672e-04
4.11196078431373e+00 5.11997025285522e-02 4.76947981628223e-04
4.13823529411765e+00 5.08535557373943e-02 4.75234576970186e-04
4.16450980392157e+00 5.05097491473374e-02 4.73517782561223e-04
4.19078431372549e+00 5.01682669369402e-02 4.71797799366525e-04
4.21705882352941e+00 4.98290933917259e-02 4.70074824273522e-04
4.24333333333333e+00 4.94922129034589e-02 4.68349050174564e-04
4.26960784313725e+00 4.91576099694261e-02 4.66620666047470e-04
4.29588235294118e+00 4.88252691917244e-02 4.64889857034276e-04
4.32215686274510e+00 4.84951752765513e-02 4.63156804518015e-04
4.34843137254902e+00 4.81673130335013e-02 4.61421686197634e-04
4.37470588235294e+00 4.78416673748672e-02 4.59684676161272e-04
4.40098039215686e+00 4.75182233149454e-02 4.57945944957656e-04
4.42725490196078e+00 4.71969659693464e-02 4.56205659665879e-04
4.45352941176471e+00 4.68778805543100e-02 4.54463983963612e-04
4.47980392156863e+00 4.65609523860247e-02 4.52721078193669e-04
4.50607843137255e+00 4.62461668799521e-02 4.50977099429013e-04
4.53235294117647e+00 4.59335095501558e-02 4.49232201536362e-04
4.55862745098039e+00 4.56229660086348e-02 4.47486535238322e-04
4.58490196078431e+00 4.53145219646612e-02 4.45740248174048e-04
4.61117647058824e+00 4.50081632241229e-02 4.43993484958613e-04
4.63745098039216e+00 4.47038756888699e-02 4.42246387241017e-04
4.66372549019608e+00 4.44016453560660e-02 4.40499093760905e-04
4.69000000000000e+00 4.41014583175443e-02 4.38751740176704e-04
4.71627450980392e+00 4.38033007597945e-02 4.37004459805517e-04
4.74254901960784e+00 4.35071589614329e-02 4.35257383217262e-04
4.76882352941176e+00 4.32130192944774e-02 4.33510637822494e-04
4.79509803921569e+00 4.29208682230810e-02 4.31764348622110e-04
4.82137254901961e+00 4.26306923029086e-02 4.30018638022748e-04
4.84764705882353e+00 4.23424781805186e-02 4.28273625885358e-04
4.87392156862745e+00 4.20562125927481e-02 4.26529429572827e-04
4.90019607843137e+00 4.17718823661029e-02 4.24786163996515e-04
4.92647058823529e+00 4.14894744161509e-02 4.23043941661836e-04
4.95274509803922e+00 4.12089757469202e-02 4.21302872712846e-04
4.97901960784314e+00 4.09303734503011e-02 4.19563064975950e-04
5.00529411764706e+00 4.06536547054520e-02 4.17824624002651e-04
5.03156862745098e+00 4.03788067782092e-02 4.16087653111400e-04
5.05784313725490e+00 4.01058170205013e-02 4.14352253428678e-04
5.08411764705882e+00 3.98346728697668e-02 4.12618523929088e-04
5.11039215686275e+00 3.95653618483763e-02 4.10886561474721e-04
5.13666666666667e+00 3.92978715630581e-02 4.09156460853722e-04
5.16294117647059e+00 3.90321897043278e-02 4.07428314818069e-04
5.18921568627451e+00 3.87683040459220e-02 4.05702214120516e-04
5.21549019607843e+00 3.85062024442357e-02 4.03978247550829e-04
5.24176470588235e+00 3.82458728377633e-02 4.02256501971366e-04
5.26803921568627e+00 3.79873032465437e-02 4.00537062351886e-04
5.29431372549020e+00 3.77304817716091e-02 3.98820011803678e-04
5.32058823529412e+00 3.74753965944369e-02 3.97105431612973e-04
5.34686274509804e+00 3.72220359764064e-02 3.95393401273758e-04
5.37313725490196e+00 3.69703882582586e-02 3.93683998519912e-04
5.39941176470588e+00 3.67204418595590e-02 3.91977299356738e-04
5.42568627450980e+00 3.64721852781657e-02 3.90273378091849e-04
5.45196078431373e+00 3.62256070896991e-02 3.88572307365490e-04
5.47823529411765e+00 3.59806959470168e-02 3.86874158180256e-04
5.50450980392157e+00 3.57374405796913e-02 3.85178999930208e-04
5.53078431372549e+00 3.54958297934912e-02 3.83486900429525e-04
5.55705882352941e+00 3.52558524698661e-02 3.81797925940474e-04
5.58333333333333e+00 3.50174975654351e-02 3.80112141200935e-04
5.60960784313725e+00 3.47807541114785e-02 3.78429609451416e-04
5.63588235294118e+00 3.45456112134330e-02 3.76750392461535e-04
5.66215686274510e+00 3.43120580503902e-02 3.75074550555986e-04
5.68843137254902e+00 3.40800838745990e-02 3.73402142639984e-04
5.71470588235294e+00 3.38496780109709e-02 3.71733226224314e-04
5.74098039215686e+00 3.36208298565884e-02 3.70067857449899e-04
5.76725490196078e+00 3.33935288802177e-02 3.68406091111887e-04
5.79352941176471e+00 3.31677646218232e-02 3.66747980683255e-04
5.81980392156863e+00 3.29435266920872e-02 3.65093578338044e-04
5.84607843137255e+00 3.27208047719309e-02 3.63442934974137e-04
5.87235294117647e+00 3.24995886120400e-02 3.61796100235678e-04
5.89862745098039e+00 3.22798680323930e-02 3.60153122534935e-04
5.92490196078431e+00 3.20616329217924e-02 3.58514049073903e-04
5.95117647058824e+00 3.18448732374001e-02 3.56878925865511e-04
5.97745098039216e+00 3.16295790042743e-02 3.55247797754329e-04
6.00372549019608e+00 3.14157403149113e-02 3.53620708437010e-04
6.03000000000000e+00 3.12033473287892e-02 3.51997700340443e-04
6.05627450980392e+00 3.09923902722606e-02 3.50378815069320e-04
6.08254901960784e+00 3.07828594370601e-02 3.48764093139182e-04
6.10882352941177e+00 3.05747451809066e-02 3.47153573705756e-04
6.13509803921569e+00 3.03680379267075e-02 3.45547295019648e-04
6.16137254901961e+00 3.01627281621186e-02 3.43945294298566e-04
6.18764705882353e+00 2.99588064391057e-02 3.42347607745254e-04
6.21392156862745e+00 2.97562633735102e-02 3.40754270565209e-04
6.24019607843137e+00 2.95550896446171e-02 3.39165316984076e-04
6.26647058823529e+00 2.93552759947263e-02 3.37580780264643e-04
6.29274509803922e+00 2.91568132287262e-02 3.36000692723645e-04
6.31901960784314e+00 2.89596922136708e-02 3.34425085748227e-04
6.34529411764706e+00 2.87639038783594e-02 3.32853989812084e-04
6.37156862745098e+00 2.85694392129192e-02 3.31287434491427e-04
6.39784313725490e+00 2.83762892683907e-02 3.29725448480580e-04
6.42411764705882e+00 2.81844451563154e-02 3.28168059607339e-04
6.45039215686274e+00 2.79938980483276e-02 3.26615294848073e-04
6.47666666666667e+00 2.78046391757475e-02 3.25067180342520e-04
6.50294117647059e+00 2.76166598291779e-02 3.23523741408406e-04
6.52921568627451e+00 2.74299513581033e-02 3.21985002555756e-04
6.55549019607843e+00 2.72445051704921e-02 3.20450987500994e-04
6.58176470588235e+00 2.70603127324008e-02 3.18921719180740e-04
6.60803921568627e+00 2.68773655675816e-02 3.17397219765469e-04
6.63431372549020e+00 2.66956552570923e-02 3.15877510672899e-04
6.66058823529412e+00 2.65151734389086e-02 3.14362612581094e-04
6.68686274509804e+00 2.63359118075396e-02 3.12852545441418e-04
6.71313725490196e+00 2.61578621136454e-02 3.11347328491249e-04
6.73941176470588e+00 2.59810161636579e-02 3.09846980266479e-04
6.76568627450980e+00 2.58053658194028e-02 3.08351518613782e-04
6.79196078431373e+00 2.56309029977263e-02 3.06860960702705e-04
6.81823529411765e+00 2.54576196701223e-02 3.05375323037549e-04
6.84450980392157e+00 2.52855078623630e-02 3.03894621469125e-04
6.87078431372549e+00 2.51145596541325e-02 3.02418871206136e-04
6.89705882352941e+00 2.49447671786614e-02 3.00948086826482e-04
6.92333333333333e+00 2.47761226223659e-02 2.99482282288449e-04
6.94960784313726e+00 2.46086182244871e-02 2.98021470941555e-04
6.97588235294118e+00 2.44422462767349e-02 2.96565665537347e-04
7.00215686274510e+00 2.42769991229323e-02 2.95114878239940e-04
7.02843137254902e+00 2.41128691586640e-02 2.93669120636414e-04
7.05470588235294e+00 2.39498488309257e-02 2.92228403747064e-04
7.08098039215686e+00 2.37879306377770e-02 2.90792738035427e-04
7.10725490196078e+00 2.36271071279959e-02 2.89362133418172e-04
7.13352941176471e+00 2.34673709007360e-02 2.87936599274830e-04
7.15980392156863e+00 2.33087146051862e-02 2.86516144457386e-04
7.18607843137255e+00 2.31511309402319e-02 2.85100777299671e-04
7.21235294117647e+00 2.29946126541192e-02 2.83690505626598e-04
7.23862745098039e+00 2.28391525441216e-02 2.82285336763339e-04
7.26490196078431e+00 2.26847434562080e-02 2.80885277544242e-04
7.29117647058824e+00 2.25313782847137e-02 2.79490334321635e-04
7.31745098039216e+00 2.23790499720135e-02 2.78100512974531e-04
7.34372549019608e+00 2.22277515081965e-02 2.76715818917128e-04
7.37000000000000e+00 2.20774759307443e-02 2.75336257016408e-04
7.39627450980392e+00 2.19282163244100e-02 2.73961831874250e-04
7.42254901960784e+00 2.17799658202964e-02 2.72592547652348e-04
7.44882352941177e+00 2.16327175961473e-02 2.71228407894841e-04
7.47509803921569e+00 2.14864648758298e-02 2.69869415815208e-04
7.50137254901961e+00 2.13412009290225e-02 2.68515574210517e-04
7.52764705882353e+00 2.11969190709058e-02 2.67166885469024e-04
7.55392156862745e+00 2.10536126618544e-02 2.65823351577674e-04
7.58019607843137e+00 2.09112751071315e-02 2.64484974129517e-04
7.60647058823529e+00 2.07698998565855e-02 2.63151754330919e-04
7.63274509803922e+00 2.06294804043486e-02 2.61823693008718e-04
7.65901960784314e+00 2.04900102885372e-02 2.60500790617241e-04
7.68529411764706e+00 2.03514830909549e-02 2.59183047245234e-04
7.71156862745098e+00 2.02138924367967e-02 2.57870462622663e-04
7.73784313725490e+00 2.00772319943560e-02 2.56563036127407e-04
7.76411764705882e+00 1.99414954747329e-02 2.55260766791833e-04
7.79039215686275e+00 1.98066766315452e-02 2.53963653309310e-04
7.81666666666667e+00 1.96727692606408e-02 2.52671694040586e-04
7.84294117647059e+00 1.95397671998117e-02 2.51384887020041e-04
7.86921568627451e+00 1.94076643285113e-02 2.50103229961909e-04
7.89549019607843e+00 1.92764545675721e-02 2.48826720266348e-04
7.92176470588235e+00 1.91461318789262e-02 2.47555355025419e-04
7.94803921568627e+00 1.90166902653273e-02 2.46289131028955e-04
7.97431372549020e+00 1.88881237700747e-02 2.45028044770419e-04
8.00058823529412e+00 1.87604264767397e-02 2.43772092452577e-04
8.02686274509804e+00 1.86335925088924e-02 2.42521269993088e-04
8.05313725490196e+00 1.85076160298320e-02 2.41275573030118e-04
8.07941176470588e+00 1.83824912423182e-02 2.40034996927725e-04
8.10568627450980e+00 1.82582123883038e-02 2.38799536781192e-04
8.13196078431373e+00 1.81347737486705e-02 2.37569187422331e-04
8.15823529411765e+00 1.80121696429651e-02 2.36343943424690e-04
8.18450980392157e+00 1.78903944291385e-02 2.35123799108637e-04
8.21078431372549e+00 1.77694425032858e-02 2.33908748546385e-04
8.23705882352941e+00 1.76493082993887e-02 2.32698785566959e-04
8.26333333333333e+00 1.75299862890589e-02 2.31493903761055e-04
8.28960784313725e+00 1.74114709812843e-02 2.30294096485831e-04
