Energy (eV)          EEDF (eV^-(3/2))     First Anisotropy
8.25396825396825e-05 2.15191191844903e+02 3.83830829654037e-02
2.47619047619048e-04 2.14015277877244e+02 6.34214159745582e-02
4.12698412698413e-04 2.12845789700245e+02 8.38295859716274e-02
5.77777777777778e-04 2.11682692200507e+02 9.93986005924462e-02
7.42857142857143e-04 2.10525950456196e+02 1.12437079938251e-01
9.07936507936508e-04 2.09375529736263e+02 1.23816094970452e-01
1.07301587301587e-03 2.08231395499429e+02 1.33985550123812e-01
1.23809523809524e-03 2.07093513392399e+02 1.43216614779460e-01
1.40317460317460e-03 2.05961849251892e+02 1.51688795993117e-01
1.56825396825397e-03 2.04836369098448e+02 1.59528728942076e-01
1.73333333333333e-03 2.03717039140765e+02 1.66829981313021e-01
1.89841269841270e-03 2.02603825770023e+02 1.73664172072203e-01
2.06349206349206e-03 2.01496695562996e+02 1.80087670613110e-01
2.22857142857143e-03 2.00395615277356e+02 1.86145858817248e-01
2.39365079365079e-03 1.99300551854014e+02 1.91875964189712e-01
2.55873015873016e-03 1.98211472413081e+02 1.97309011138866e-01
2.72380952380952e-03 1.97128344255679e+02 2.02471206130191e-01
2.88888888888889e-03 1.96051134860374e+02 2.07384945768183e-01
3.05396825396825e-03 1.94979811884599e+02 2.12069567033166e-01
3.21904761904762e-03 1.93914343161447e+02 2.16541915949566e-01
3.38412698412698e-03 1.92854696700797e+02 2.20816786206222e-01
3.54920634920635e-03 1.91800840686386e+02 2.24907262188305e-01
3.71428571428571e-03 1.90752743476712e+02 2.28824991093008e-01
3.87936507936508e-03 1.89710373602326e+02 2.32580401091050e-01
4.04444444444445e-03 1.88673699766553e+02 2.36182878354546e-01
4.20952380952381e-03 1.87642690842969e+02 2.39640911875932e-01
4.37460317460318e-03 1.86617315875974e+02 2.42962213203385e-01
4.53968253968254e-03 1.85597544078426e+02 2.46153816040893e-01
4.70476190476191e-03 1.84583344832087e+02 2.49222159905673e-01
4.86984126984127e-03 1.83574687685395e+02 2.52173160701250e-01
5.03492063492064e-03 1.82571542353802e+02 2.55012270798897e-01
5.20000000000000e-03 1.81573878717662e+02 2.57744530331664e-01
5.36507936507937e-03 1.80581666822484e+02 2.60374611376098e-01
5.53015873015873e-03 1.79594876876921e+02 2.62906856061891e-01
5.69523809523810e-03 1.78613479252941e+02 2.65345309735576e-01
5.86031746031746e-03 1.77637444483914e+02 2.67693749822681e-01
6.02539682539683e-03 1.76666743264714e+02 2.69955711173180e-01
6.19047619047619e-03 1.75701346449887e+02 2.72134508292147e-01
6.35555555555556e-03 1.74741225053695e+02 2.74233255021047e-01
6.52063492063492e-03 1.73786350248355e+02 2.76254881918813e-01
6.68571428571429e-03 1.72836693364040e+02 2.78202151763019e-01
6.85079365079365e-03 1.71892225887175e+02 2.80077673322351e-01
7.01587301587302e-03 1.70952919460400e+02 2.81883913721659e-01
7.18095238095238e-03 1.70018745880925e+02 2.83623209487113e-01
7.34603174603175e-03 1.69089677100449e+02 2.85297776523344e-01
7.51111111111111e-03 1.68165685223579e+02 2.86909719068175e-01
7.67619047619048e-03 1.67246742507710e+02 2.88461037827025e-01
7.84126984126984e-03 1.66332821361491e+02 2.89953637304973e-01
8.00634920634921e-03 1.65423894344681e+02 2.91389332501899e-01
8.17142857142857e-03 1.64519934166658e+02 2.92769854970142e-01
8.33650793650794e-03 1.63620913686251e+02 2.94096858372957e-01
8.50158730158730e-03 1.62726805910289e+02 2.95371923530848e-01
8.66666666666667e-03 1.61837583993409e+02 2.96596563073171e-01
8.83174603174603e-03 1.60953221236650e+02 2.97772225673957e-01
8.99682539682540e-03 1.60073691087235e+02 2.98900299973249e-01
9.16190476190476e-03 1.59198967137205e+02 2.99982118157625e-01
9.32698412698413e-03 1.58329023123180e+02 3.01018959288344e-01
9.49206349206349e-03 1.57463832925030e+02 3.02012052347680e-01
9.65714285714286e-03 1.56603370565619e+02 3.02962579081465e-01
9.82222222222222e-03 1.55747610209510e+02 3.03871676606503e-01
9.98730158730159e-03 1.54896526162691e+02 3.04740439688616e-01
1.01523809523810e-02 1.54050092870952e+02 3.05569923798546e-01
1.03174603174603e-02 1.53208284921390e+02 3.06361145782893e-01
1.04825396825397e-02 1.52371077037619e+02 3.07115086355452e-01
1.06476190476190e-02 1.51538444082552e+02 3.07832693773195e-01
1.08126984126984e-02 1.50710361057567e+02 3.08514882363252e-01
1.09777777777778e-02 1.49886803098440e+02 3.09162535651144e-01
1.11428571428571e-02 1.49067745477920e+02 3.09776509415337e-01
1.13079365079365e-02 1.48253163604919e+02 3.10357630023686e-01
1.14730158730159e-02 1.47443033020646e+02 3.10906697224919e-01
1.16380952380952e-02 1.46637329401007e+02 3.11424486878938e-01
1.18031746031746e-02 1.45836028555806e+02 3.11911749163154e-01
1.19682539682540e-02 1.45039106425071e+02 3.12369211090605e-01
1.21333333333333e-02 1.44246539081293e+02 3.12797578975262e-01
1.22984126984127e-02 1.43458302728634e+02 3.13197536552185e-01
1.24634920634921e-02 1.42674373699438e+02 3.13569747717346e-01
1.26285714285714e-02 1.41894728457191e+02 3.13914856990859e-01
1.27936507936508e-02 1.41119343592225e+02 3.14233489796308e-01
1.29587301587302e-02 1.40348195823684e+02 3.14526255035966e-01
1.31238095238095e-02 1.39581261998762e+02 3.14793743161875e-01
1.32888888888889e-02 1.38818519089498e+02 3.15036528154036e-01
1.34539682539683e-02 1.38059944194608e+02 3.15255169469340e-01
1.36190476190476e-02 1.37305514538742e+02 3.15450210093601e-01
1.37841269841270e-02 1.36555207469420e+02 3.15622178375224e-01
1.39492063492064e-02 1.35809000458740e+02 3.15771589837088e-01
1.41142857142857e-02 1.35066871102659e+02 3.15898945224479e-01
1.42793650793651e-02 1.34328797118049e+02 3.16004732215258e-01
1.44444444444444e-02 1.33594756344308e+02 3.16089427112443e-01
1.46095238095238e-02 1.32864726742644e+02 3.16153492899192e-01
1.47746031746032e-02 1.32138686393261e+02 3.16197380843326e-01
1.49396825396825e-02 1.31416613496865e+02 3.16221532084479e-01
1.51047619047619e-02 1.30698486373964e+02 3.16226375704929e-01
1.52698412698413e-02 1.29984283462167e+02 3.16212330242052e-01
1.54349206349206e-02 1.29273983317596e+02 3.16179805182253e-01
1.56000000000000e-02 1.28567564614206e+02 3.16129199054161e-01
1.57650793650794e-02 1.27865006141179e+02 3.16060901216410e-01
1.59301587301587e-02 1.27166286804888e+02 3.15975291844568e-01
1.60952380952381e-02 1.26471385625714e+02 3.15872741824022e-01
1.62603174603175e-02 1.25780281739312e+02 3.15753614473126e-01
1.64253968253968e-02 1.25092954395949e+02 3.15618263700342e-01
1.65904761904762e-02 1.24409382958078e+02 3.15467035307476e-01
1.67555555555556e-02 1.23729546901528e+02 3.15300268277655e-01
1.69206349206349e-02 1.23053425814855e+02 3.15118292963638e-01
1.70857142857143e-02 1.22380999397005e+02 3.14921432328666e-01
1.72507936507937e-02 1.21712247458437e+02 3.14710003174881e-01
1.74158730158730e-02 1.21047149920477e+02 3.14484314364831e-01
1.75809523809524e-02 1.20385686813082e+02 3.14244668005943e-01
1.77460317460317e-02 1.19727838275880e+02 3.13991360624369e-01
1.79111111111111e-02 1.19073584557550e+02 3.13724681421045e-01
1.80761904761905e-02 1.18422906013653e+02 3.13444913405660e-01
1.82412698412698e-02 1.17775783107626e+02 3.13152334519606e-01
1.84063492063492e-02 1.17132196410160e+02 3.12847215927486e-01
1.85714285714286e-02 1.16492126597116e+02 3.12529823105504e-01
1.87365079365079e-02 1.15855554450455e+02 3.12200416917188e-01
1.89015873015873e-02 1.15222460857634e+02 3.11859251940972e-01
1.90666666666667e-02 1.14592826809589e+02 3.11506577807471e-01
1.92317460317460e-02 1.13966633402077e+02 3.11142639068858e-01
1.93968253968254e-02 1.13343861833228e+02 3.10767675012335e-01
1.95619047619048e-02 1.12724493404381e+02 3.10381920959211e-01
1.97269841269841e-02 1.12108509519497e+02 3.09985606664597e-01
1.98920634920635e-02 1.11495891683266e+02 3.09578957293135e-01
2.00571428571429e-02 1.10886621501890e+02 3.09162194381718e-01
2.02222222222222e-02 1.10280680682515e+02 3.08735534274740e-01
2.03873015873016e-02 1.09678051031387e+02 3.08299189063999e-01
2.05523809523810e-02 1.09078714454605e+02 3.07853367517194e-01
2.07174603174603e-02 1.08482652957551e+02 3.07398273548474e-01
2.08825396825397e-02 1.07889848643117e+02 3.06934107124880e-01
2.10476190476190e-02 1.07300283712404e+02 3.06461065162813e-01
2.12126984126984e-02 1.06713940464172e+02 3.05979340033373e-01
2.13777777777778e-02 1.06130801293117e+02 3.05489120437942e-01
2.15428571428571e-02 1.05550848690537e+02 3.04990592273816e-01
2.17079365079365e-02 1.04974065243786e+02 3.04483937173858e-01
2.18730158730159e-02 1.04400433634606e+02 3.03969333353736e-01
2.20380952380952e-02 1.03829936639759e+02 3.03446956447979e-01
2.22031746031746e-02 1.03262557130489e+02 3.02916978083579e-01
2.23682539682540e-02 1.02698278070905e+02 3.02379566700437e-01
2.25333333333333e-02 1.02137082518578e+02 3.01834888359536e-01
2.26984126984127e-02 1.01578953624011e+02 3.01283105349784e-01
2.28634920634921e-02 1.01023874629080e+02 3.00724377217803e-01
2.30285714285714e-02 1.00471828867924e+02 3.00158860611730e-01
2.31936507936508e-02 9.99227997650749e+01 2.99586709091502e-01
2.33587301587302e-02 9.93767708359805e+01 2.99008074131650e-01
2.35238095238095e-02 9.88337256864984e+01 2.98423103789954e-01
2.36888888888889e-02 9.82936480114133e+01 2.97831943457661e-01
2.38539682539683e-02 9.77565215949397e+01 2.97234736598496e-01
2.40190476190476e-02 9.72223303102203e+01 2.96631623448443e-01
2.41841269841270e-02 9.66910581178884e+01 2.96022741743033e-01
2.43492063492063e-02 9.61626890665419e+01 2.95408227434494e-01
2.45142857142857e-02 9.56372072922516e+01 2.94788213421927e-01
2.46793650793651e-02 9.51145970171641e+01 2.94162830257009e-01
2.48444444444444e-02 9.45948425499510e+01 2.93532206839976e-01
2.50095238095238e-02 9.40779282853240e+01 2.92896469179454e-01
2.51746031746032e-02 9.35638387026794e+01 2.92255741078022e-01
2.53396825396825e-02 9.30525583665219e+01 2.91610144807559e-01
2.55047619047619e-02 9.25440719259879e+01 2.90959799898110e-01
2.56698412698413e-02 9.20383641135284e+01 2.90304823804338e-01
2.58349206349206e-02 9.15354197453104e+01 2.89645332561023e-01
2.60000000000000e-02 9.10352237207469e+01 2.88981439600302e-01
2.61650793650794e-02 9.05377610212180e+01 2.88313256596582e-01
2.63301587301587e-02 9.00430167107159e+01 2.87640893316493e-01
2.64952380952381e-02 8.95509759343155e+01 2.86964457446281e-01
2.66603174603175e-02 8.90616239185348e+01 2.86284055414909e-01
2.68253968253968e-02 8.85749459708798e+01 2.85599791262831e-01
2.69904761904762e-02 8.80909274786263e+01 2.84911767257542e-01
2.71555555555556e-02 8.76095539091606e+01 2.84220084498527e-01
2.73206349206349e-02 8.71308108095321e+01 2.83524841812321e-01
2.74857142857143e-02 8.66546838052686e+01 2.82826136351052e-01
2.76507936507937e-02 8.61811586006974e+01 2.82124064181159e-01
2.78158730158730e-02 8.57102209785062e+01 2.81418719204149e-01
2.79809523809524e-02 8.52418567985898e+01 2.80710193738931e-01
2.81460317460317e-02 8.47760519983538e+01 2.79998579094749e-01
2.83111111111111e-02 8.43127925922821e+01 2.79283964516969e-01
2.84761904761905e-02 8.38520646708154e+01 2.78566437754064e-01
2.86412698412698e-02 8.33938544006372e+01 2.77846085615102e-01
2.88063492063492e-02 8.29381480242491e+01 2.77122992939888e-01
2.89714285714286e-02 8.24849318588781e+01 2.76397243151431e-01
2.91365079365079e-02 8.20341922967480e+01 2.75668918798404e-01
2.93015873015873e-02 8.15859158046600e+01 2.74938100549038e-01
2.94666666666667e-02 8.11400889229304e+01 2.74204867895795e-01
2.96317460317460e-02 8.06966982658576e+01 2.73469299018704e-01
2.97968253968254e-02 8.02557305204604e+01 2.72731470633195e-01
2.99619047619048e-02 7.98171724467201e+01 2.71991458676399e-01
3.01269841269841e-02 7.93810108771736e+01 2.71249337343644e-01
3.02920634920635e-02 7.89472327158992e+01 2.70505179602043e-01
3.04571428571429e-02 7.85158249387447e+01 2.69759057694012e-01
3.06222222222222e-02 7.80867745929278e+01 2.69011042195836e-01
3.07873015873016e-02 7.76600687960472e+01 2.68261202517981e-01
3.09523809523810e-02 7.72356947362977e+01 2.67509607395990e-01
3.11174603174603e-02 7.68136396720774e+01 2.66756323970617e-01
3.12825396825397e-02 7.63938909310241e+01 2.66001418275358e-01
3.14476190476191e-02 7.59764359102176e+01 2.65244955715168e-01
3.16126984126984e-02 7.55612620757934e+01 2.64487000167485e-01
3.17777777777778e-02 7.51483569620039e+01 2.63727614457617e-01
3.19428571428571e-02 7.47377081714080e+01 2.62966860825435e-01
3.21079365079365e-02 7.43293033744921e+01 2.62204800046788e-01
3.22730158730159e-02 7.39231303087538e+01 2.61441491897377e-01
3.24380952380952e-02 7.35191767788815e+01 2.60676995607571e-01
3.26031746031746e-02 7.31174306563805e+01 2.59911369003776e-01
3.27682539682540e-02 7.27178798786802e+01 2.59144668961204e-01
3.29333333333333e-02 7.23205124493025e+01 2.58376951847181e-01
3.30984126984127e-02 7.19253164374945e+01 2.57608272681918e-01
3.32634920634921e-02 7.15322799773575e+01 2.56838685718529e-01
3.34285714285714e-02 7.11413912681712e+01 2.56068244323215e-01
3.35936507936508e-02 7.07526385733675e+01 2.55297000845344e-01
3.37587301587302e-02 7.03660102206800e+01 2.54525007182048e-01
3.39238095238095e-02 6.99814946017862e+01 2.53752313973306e-01
3.40888888888889e-02 6.95990801714747e+01 2.52978971024535e-01
3.42539682539683e-02 6.92187554477846e+01 2.52205027720333e-01
3.44190476190476e-02 6.88405090116547e+01 2.51430532237648e-01
3.45841269841270e-02 6.84643295061101e+01 2.50655531958014e-01
3.47492063492063e-02 6.80902056363930e+01 2.49880073871590e-01
3.49142857142857e-02 6.77181261696175e+01 2.49104203807841e-01
3.50793650793651e-02 6.73480799339763e+01 2.48327966837938e-01
3.52444444444444e-02 6.69800558188623e+01 2.47551407669157e-01
3.54095238095238e-02 6.66140427745300e+01 2.46774569892671e-01
3.55746031746032e-02 6.62500298113200e+01 2.45997496376594e-01
3.57396825396825e-02 6.58880059997742e+01 2.45220229650803e-01
3.59047619047619e-02 6.55279604703009e+01 2.44442811171504e-01
3.60698412698413e-02 6.51698824124194e+01 2.43665281705168e-01
3.62349206349206e-02 6.48137610748665e+01 2.42887681704148e-01
3.64000000000000e-02 6.44595857652677e+01 2.42110050587457e-01
3.65650793650794e-02 6.41073458493994e+01 2.41332427234003e-01
3.67301587301587e-02 6.37570307514232e+01 2.40554849877116e-01
3.68952380952381e-02 6.34086299530212e+01 2.39777355991825e-01
3.70603174603175e-02 6.30621329934891e+01 2.38999982774736e-01
3.72253968253968e-02 6.27175294694163e+01 2.38222766453602e-01
3.73904761904762e-02 6.23748090339785e+01 2.37445742646766e-01
3.75555555555556e-02 6.20339613970236e+01 2.36668946714610e-01
3.77206349206349e-02 6.16949763247578e+01 2.35892413084277e-01
3.78857142857143e-02 6.13578436390540e+01 2.35116175600690e-01
3.80507936507937e-02 6.10225532175319e+01 2.34340267870035e-01
3.82158730158730e-02 6.06890949932489e+01 2.33564722599268e-01
3.83809523809524e-02 6.03574589540248e+01 2.32789571938978e-01
3.85460317460318e-02 6.00276351425155e+01 2.32014847819040e-01
3.87111111111111e-02 5.96996136559095e+01 2.31240581302529e-01
3.88761904761905e-02 5.93733846452677e+01 2.30466802920829e-01
3.90412698412698e-02 5.90489383155915e+01 2.29693543001499e-01
3.92063492063492e-02 5.87262649255244e+01 2.28920831036233e-01
3.93714285714286e-02 5.84053547867069e+01 2.28148696008564e-01
3.95365079365079e-02 5.80861982638392e+01 2.27377166714048e-01
3.97015873015873e-02 5.77687857743873e+01 2.26606271141996e-01
3.98666666666667e-02 5.74531077879532e+01 2.25836036897194e-01
4.00317460317460e-02 5.71391548264433e+01 2.25066491107396e-01
4.01968253968254e-02 5.68269174633338e+01 2.24297660325730e-01
4.03619047619048e-02 5.65163863237244e+01 2.23529570940790e-01
4.05269841269841e-02 5.62075520840520e+01 2.22762248582505e-01
4.06920634920635e-02 5.59004054714854e+01 2.21995718429640e-01
4.08571428571429e-02 5.55949372639733e+01 2.21230005510011e-01
4.10222222222222e-02 5.52911382899639e+01 2.20465134119214e-01
4.11873015873016e-02 5.49889994278123e+01 2.19701128121109e-01
4.13523809523810e-02 5.46885116058246e+01 2.18938011241425e-01
4.15174603174603e-02 5.43896658019817e+01 2.18175806498941e-01
4.16825396825397e-02 5.40924530433601e+01 2.17414536499228e-01
4.18476190476191e-02 5.37968644061719e+01 2.16654223721758e-01
4.20126984126984e-02 5.35028910154925e+01 2.15894889963329e-01
4.21777777777778e-02 5.32105240446953e+01 2.15136556625270e-01
4.23428571428571e-02 5.29197547154865e+01 2.14379244994094e-01
4.25079365079365e-02 5.26305742976384e+01 2.13622975696821e-01
4.26730158730159e-02 5.23429741084354e+01 2.12867768981968e-01
4.28380952380952e-02 5.20569455127062e+01 2.12113644993894e-01
4.30031746031746e-02 5.17724799225603e+01 2.11360623239731e-01
4.31682539682540e-02 5.14895687968474e+01 2.10608722864301e-01
4.33333333333333e-02 5.12082036411847e+01 2.09857962918264e-01
4.34984126984127e-02 5.09283760076986e+01 2.09108361836452e-01
4.36634920634921e-02 5.06500774944955e+01 2.08359937792195e-01
4.38285714285714e-02 5.03732997457756e+01 2.07612708617896e-01
4.39936507936508e-02 5.00980344512197e+01 2.06866691722118e-01
4.41587301587302e-02 4.98242733460105e+01 2.06121904433980e-01
4.43238095238095e-02 4.95520082105811e+01 2.05378363501391e-01
4.44888888888889e-02 4.92812308701057e+01 2.04636085349421e-01
4.46539682539683e-02 4.90119331945173e+01 2.03895086332335e-01
4.48190476190476e-02 4.87441070982608e+01 2.03155382242416e-01
4.49841269841270e-02 4.84777445397944e+01 2.02416988562659e-01
4.51492063492064e-02 4.82128375216047e+01 2.01679920713414e-01
4.53142857142857e-02 4.79493780899633e+01 2.00944193571546e-01
4.54793650793651e-02 4.76873583344397e+01 2.00209821717622e-01
4.56444444444444e-02 4.74267703879125e+01 1.99476819677221e-01
4.58095238095238e-02 4.71676064263311e+01 1.98745201450213e-01
4.59746031746032e-02 4.69098586682381e+01 1.98014980752642e-01
4.61396825396825e-02 4.66535193747786e+01 1.97286171252725e-01
4.63047619047619e-02 4.63985808494653e+01 1.96558786110076e-01
4.64698412698413e-02 4.61450354377112e+01 1.95832838212441e-01
4.66349206349206e-02 4.58928755268366e+01 1.95108340406505e-01
4.68000000000000e-02 4.56420935458378e+01 1.94385305046797e-01
4.69650793650794e-02 4.53926819649296e+01 1.93663744301194e-01
4.71301587301587e-02 4.51446332956251e+01 1.92943670081452e-01
4.72952380952381e-02 4.48979400902083e+01 1.92225093971264e-01
4.74603174603175e-02 4.46525949417364e+01 1.91508027523104e-01
4.76253968253968e-02 4.44085904838146e+01 1.90792481824009e-01
4.77904761904762e-02 4.41659193901563e+01 1.90078467718451e-01
4.79555555555556e-02 4.39245743745821e+01 1.89365996025542e-01
4.81206349206349e-02 4.36845481907991e+01 1.88655077113866e-01
4.82857142857143e-02 4.34458336319696e+01 1.87945721119509e-01
4.84507936507937e-02 4.32084235307091e+01 1.87237938158730e-01
4.86158730158730e-02 4.29723107588682e+01 1.86531737911615e-01
4.87809523809524e-02 4.27374882271111e+01 1.85827129835431e-01
4.89460317460318e-02 4.25039488849109e+01 1.85124123372814e-01
4.91111111111111e-02 4.22716857203357e+01 1.84422727544042e-01
4.92761904761905e-02 4.20406917596356e+01 1.83722951155924e-01
4.94412698412698e-02 4.18109600672363e+01 1.83024803005473e-01
4.96063492063492e-02 4.15824837455284e+01 1.82328291480656e-01
4.97714285714286e-02 4.13552559344635e+01 1.81633424764955e-01
4.99365079365079e-02 4.11292698115456e+01 1.80940211036601e-01
5.01015873015873e-02 4.09045185916241e+01 1.80248658077650e-01
5.02666666666667e-02 4.06809955264979e+01 1.79558773538168e-01
5.04317460317460e-02 4.04586939049683e+01 1.78870564875407e-01
5.05968253968254e-02 4.02376070523846e+01 1.78184039291353e-01
5.07619047619048e-02 4.00177283306326e+01 1.77499203989336e-01
5.09269841269841e-02 3.97990511379330e+01 1.76816065797398e-01
5.10920634920635e-02 3.95815689084599e+01 1.76134631361108e-01
5.12571428571429e-02 3.93652751123276e+01 1.75454907331366e-01
5.14222222222222e-02 3.91501632553923e+01 1.74776899995482e-01
5.15873015873016e-02 3.89362268788786e+01 1.74100615465902e-01
5.17523809523810e-02 3.87234595593647e+01 1.73426059864104e-01
5.19174603174603e-02 3.85118549085876e+01 1.72753238959276e-01
5.20825396825397e-02 3.83014065730768e+01 1.72082158353066e-01
