Energy (eV)          EEDF (eV^-(3/2))     First Anisotropy
5.45000000000000e-01 1.70450593175935e-01 5.46497273292125e-04
1.63500000000000e+00 1.20062632287513e-01 7.71631060521575e-04
2.72500000000000e+00 8.45701701778632e-02 7.22370738407586e-04
3.81500000000000e+00 5.95698557298463e-02 6.06641548547177e-04
4.90500000000000e+00 4.19600398605271e-02 4.86015921861142e-04
5.99500000000000e+00 2.95559712798648e-02 3.79059249849174e-04
7.08500000000000e+00 2.08187466265485e-02 2.90520656932912e-04
8.17500000000000e+00 1.46643873414404e-02 2.19938629858841e-04
9.26500000000000e+00 1.03293565149388e-02 1.64987359705761e-04
1.03550000000000e+01 7.27583113623808e-03 1.22892429682687e-04
1.14450000000000e+01 5.12497740265724e-03 9.10226309064688e-05
1.25350000000000e+01 3.60995093013218e-03 6.71080424467636e-05
1.36250000000000e+01 2.54279086405442e-03 4.92875667512577e-05
1.47150000000000e+01 1.79110062808579e-03 3.60824346638646e-05
1.58050000000000e+01 1.26162222197628e-03 2.63422027115713e-05
1.68950000000000e+01 8.88666223452478e-04 1.91852511856396e-05
1.79850000000000e+01 6.25962069270002e-04 1.39435351849982e-05
1.90750000000000e+01 4.40917525415251e-04 1.01152334819739e-05
2.01650000000000e+01 3.10575151055123e-04 7.32598611659778e-06
2.12550000000000e+01 2.18764097349205e-04 5.29808319895009e-06
2.23450000000000e+01 1.54093880744884e-04 3.82646672511038e-06
2.34350000000000e+01 1.08541229437275e-04 2.76031339218482e-06
2.45250000000000e+01 7.64546809438857e-05 1.98905789881627e-06
2.56150000000000e+01 5.38534367865189e-05 1.43187841852264e-06
2.67050000000000e+01 3.79334871052329e-05 1.02984175562790e-06
2.77950000000000e+01 2.67197328494936e-05 7.40068818574008e-07
2.88850000000000e+01 1.88209462939097e-05 5.31421272837643e-07
2.99750000000000e+01 1.32571692012612e-05 3.81325484263385e-07
3.10650000000000e+01 9.33813488898486e-06 2.73441841693359e-07
3.21550000000000e+01 6.57763070539830e-06 1.95959460041407e-07
3.32450000000000e+01 4.63317634741319e-06 1.40351645297721e-07
3.43350000000000e+01 3.26353424624637e-06 1.00469662803884e-07
3.54250000000000e+01 2.29878057250495e-06 7.18841561634450e-08
3.65150000000000e+01 1.61922373776348e-06 5.14073850792814e-08
3.76050000000000e+01 1.14055492912040e-06 3.67471848767954e-08
3.86950000000000e+01 8.03388386670786e-07 2.62566882379245e-08
3.97850000000000e+01 5.65893744666246e-07 1.87535414803945e-08
4.08750000000000e+01 3.98606372167554e-07 1.33894718751020e-08
4.19650000000000e+01 2.80771861202119e-07 9.55628309556036e-09
4.30550000000000e+01 1.97771143532459e-07 6.81817128197125e-09
4.41450000000000e+01 1.39306784685165e-07 4.86303603457759e-09
4.52350000000000e+01 9.81254388921189e-08 3.46748467425874e-09
4.63250000000000e+01 6.91179670791466e-08 2.47169802339880e-09
4.74150000000000e+01 4.86855745777223e-08 1.76139168618993e-09
4.85050000000000e+01 3.42933288134583e-08 1.25487832867900e-09
4.95950000000000e+01 2.41556644100099e-08 8.93794236447655e-10
5.06850000000000e+01 1.70148580869183e-08 6.36456181133350e-10
5.17750000000000e+01 1.19849899718759e-08 4.53105115534252e-10
5.28650000000000e+01 8.44203248080000e-09 3.22502518285034e-10
5.39550000000000e+01 5.94643070825424e-09 2.29495871126908e-10
5.50450000000000e+01 4.18856931058836e-09 1.63278108842366e-10
5.61350000000000e+01 2.95036026321633e-09 1.16143750163461e-10
5.72250000000000e+01 2.07818590007843e-09 8.26003343219570e-11
5.83150000000000e+01 1.46384042963505e-09 5.87339129641251e-11
5.94050000000000e+01 1.03110544795500e-09 4.17561218757475e-11
6.04950000000000e+01 7.26293947945911e-10 2.96809795902559e-11
6.15850000000000e+01 5.11589672878811e-10 2.10943316701003e-11
6.26750000000000e+01 3.60355465079189e-10 1.49894346221388e-11
6.37650000000000e+01 2.53828542866618e-10 1.06497404667499e-11
6.48550000000000e+01 1.78792707249860e-10 7.56535504375512e-12
6.59450000000000e+01 1.25938682091132e-10 5.37351220569255e-12
6.70350000000000e+01 8.87091643211501e-11 3.81617087669013e-12
6.81250000000000e+01 6.24852960495681e-11 2.70981691388697e-12
6.92150000000000e+01 4.40136287189810e-11 1.92396192289968e-12
7.03050000000000e+01 3.10024859524643e-11 1.36583778123592e-12
7.13950000000000e+01 2.18376480923565e-11 9.69503887526410e-13
7.24850000000000e+01 1.53820850023705e-11 6.88096509150364e-13
7.35750000000000e+01 1.08348911027176e-11 4.88314963840934e-13
7.46650000000000e+01 7.63192149761607e-12 3.46499837338839e-13
7.57550000000000e+01 5.37580167567766e-12 2.45844073500639e-13
7.68450000000000e+01 3.78662747844639e-12 1.74410039625641e-13
7.79350000000000e+01 2.66723895812577e-12 1.23719886953406e-13
7.90250000000000e+01 1.87875984639047e-12 8.77536236195643e-14
8.01150000000000e+01 1.32336795308712e-12 6.22370899982455e-14
8.12050000000000e+01 9.32158914627994e-13 4.41360324112713e-14
8.22950000000000e+01 6.56597615269014e-13 3.12966725620734e-14
8.33850000000000e+01 4.62496706957963e-13 2.21903901085068e-14
8.44750000000000e+01 3.25775176413521e-13 1.57323859866778e-14
8.55650000000000e+01 2.29470748592610e-13 1.11529071235023e-14
8.66550000000000e+01 1.61635472166280e-13 7.90580923134839e-15
8.77450000000000e+01 1.13853404072861e-13 5.60363977444079e-15
8.88350000000000e+01 8.01964905676344e-14 3.97155490128471e-15
8.99250000000000e+01 5.64891067749613e-14 2.81461003573960e-15
9.10150000000000e+01 3.97900102815822e-14 1.99454565410793e-15
9.21050000000000e+01 2.80274376529916e-14 1.41331373460016e-15
9.31950000000000e+01 1.97420723401003e-14 1.00138886688385e-15
9.42850000000000e+01 1.39059954430102e-14 7.09475212780573e-16
9.53750000000000e+01 9.79515756652520e-15 5.02623357818988e-16
9.64650000000000e+01 6.89955006430568e-15 3.56057172977626e-16
9.75550000000000e+01 4.85993112071477e-15 2.52213936710167e-16
9.86450000000000e+01 3.42325662948410e-15 1.78645182184458e-16
9.97350000000000e+01 2.41128642777624e-15 1.26528109066782e-16
1.00825000000000e+02 1.69847103681915e-15 8.96100635597662e-17
1.01915000000000e+02 1.19637544079488e-15 6.34601609831533e-17
1.03005000000000e+02 8.42707449411484e-16 4.49387212388759e-17
1.04095000000000e+02 5.93589454512521e-16 3.18211543711818e-17
1.05185000000000e+02 4.18114780822857e-16 2.25313563932433e-17
1.06275000000000e+02 2.94513267736731e-16 1.59527449324941e-17
1.07365000000000e+02 2.07450367342348e-16 1.12943348414250e-17
1.08455000000000e+02 1.46124672892311e-16 9.38266296475219e-18
