Energy (eV)          EEDF (eV^-(3/2))     First Anisotropy
1.84090909090909e-02 1.10968561818514e-01 6.27044014435830e-05
5.52272727272727e-02 1.10099192007754e-01 1.03485089116659e-04
9.20454545454545e-02 1.09236633170006e-01 1.36459272782479e-04
1.28863636363636e-01 1.08380831947923e-01 1.61417229557607e-04
1.65681818181818e-01 1.07531735395791e-01 1.82155825675991e-04
2.02500000000000e-01 1.06689290987212e-01 2.00112629142692e-04
2.39318181818182e-01 1.05853446606977e-01 2.16032577513022e-04
2.76136363636364e-01 1.05024150548123e-01 2.30366103009868e-04
3.12954545454545e-01 1.04201351508787e-01 2.43412324221535e-04
3.49772727272727e-01 1.03384998591477e-01 2.55382921943808e-04
3.86590909090909e-01 1.02575041292166e-01 2.66434791870384e-04
4.23409090909091e-01 1.01771429505240e-01 2.76688400470918e-04
4.60227272727273e-01 1.00974113517568e-01 2.86238858315094e-04
4.97045454545455e-01 1.00183044005533e-01 2.95162973635634e-04
5.33863636363636e-01 9.93981720334434e-02 3.03523946892409e-04
5.70681818181818e-01 9.86194490458483e-02 3.11374607937824e-04
6.07500000000000e-01 9.78468268693088e-02 3.18759716252161e-04
6.44318181818182e-01 9.70802577077785e-02 3.25717638113175e-04
6.81136363636364e-01 9.63196941396614e-02 3.32281595464655e-04
7.17954545454546e-01 9.55650891148865e-02 3.38480614044884e-04
7.54772727272727e-01 9.48163959530057e-02 3.44340255727025e-04
7.91590909090909e-01 9.40735683371976e-02 3.49883191747745e-04
8.28409090909091e-01 9.33365603145680e-02 3.55129657698693e-04
8.65227272727273e-01 9.26053262922225e-02 3.60097819544672e-04
9.02045454545455e-01 9.18798210344685e-02 3.64804070285407e-04
9.38863636363636e-01 9.11599996607827e-02 3.69263273636085e-04
9.75681818181818e-01 9.04458176406679e-02 3.73488965124350e-04
1.01250000000000e+00 8.97372307933013e-02 3.77493519647047e-04
1.04931818181818e+00 8.90341952846461e-02 3.81288292865364e-04
1.08613636363636e+00 8.83366676239956e-02 3.84883740536277e-04
1.12295454545455e+00 8.76446046606887e-02 3.88289520675855e-04
1.15977272727273e+00 8.69579635762077e-02 3.91514577882420e-04
1.19659090909091e+00 8.62767018996251e-02 3.94567219990313e-04
1.23340909090909e+00 8.56007774865305e-02 3.97455184548916e-04
1.27022727272727e+00 8.49301485226547e-02 4.00185692540810e-04
1.30704545454545e+00 8.42647735213723e-02 4.02765499209189e-04
1.34386363636364e+00 8.36046113161590e-02 4.05200934976473e-04
1.38068181818182e+00 8.29496210730687e-02 4.07497944984600e-04
1.41750000000000e+00 8.22997622729227e-02 4.09662124226866e-04
1.45431818181818e+00 8.16549947139746e-02 4.11698745038545e-04
1.49113636363636e+00 8.10152785094411e-02 4.13612784418509e-04
1.52795454545455e+00 8.03805740850476e-02 4.15408948391584e-04
1.56477272727273e+00 7.97508421725469e-02 4.17091691254702e-04
1.60159090909091e+00 7.91260438195176e-02 4.18665235989637e-04
1.63840909090909e+00 7.85061403745363e-02 4.20133592784981e-04
1.67522727272727e+00 7.78910934889707e-02 4.21500572500950e-04
1.71204545454545e+00 7.72808651146537e-02 4.22769802000406e-04
1.74886363636364e+00 7.66754174980427e-02 4.23944735092380e-04
1.78568181818182e+00 7.60747131884143e-02 4.25028665344471e-04
1.82250000000000e+00 7.54787150248649e-02 4.26024737873989e-04
1.85931818181818e+00 7.48873861376170e-02 4.26935957139894e-04
1.89613636363636e+00 7.43006899457485e-02 4.27765196400921e-04
1.93295454545455e+00 7.37185901549372e-02 4.28515206355278e-04
1.96977272727273e+00 7.31410507522847e-02 4.29188620963437e-04
2.00659090909091e+00 7.25680360129662e-02 4.29787965390174e-04
2.04340909090909e+00 7.19995104890241e-02 4.30315663416704e-04
2.08022727272727e+00 7.14354390102018e-02 4.30774041602368e-04
2.11704545454545e+00 7.08757866817958e-02 4.31165335730538e-04
2.15386363636364e+00 7.03205188799091e-02 4.31491694315158e-04
2.19068181818182e+00 6.97696012571241e-02 4.31755184238115e-04
2.22750000000000e+00 6.92229997324635e-02 4.31957796063325e-04
2.26431818181818e+00 6.86806804919494e-02 4.32101446506927e-04
2.30113636363636e+00 6.81426099865171e-02 4.32187982679619e-04
2.33795454545455e+00 6.76087549299447e-02 4.32219186012968e-04
2.37477272727273e+00 6.70790822945684e-02 4.32196774154671e-04
2.41159090909091e+00 6.65535593159763e-02 4.32122404914450e-04
2.44840909090909e+00 6.60321534841640e-02 4.31997680021489e-04
2.48522727272727e+00 6.55148325438151e-02 4.31824146395868e-04
2.52204545454545e+00 6.50015644923235e-02 4.31603299527040e-04
2.55886363636364e+00 6.44923175758206e-02 4.31336584567272e-04
2.59568181818182e+00 6.39870602932295e-02 4.31025399378895e-04
2.63250000000000e+00 6.34857613882283e-02 4.30671097457565e-04
2.66931818181818e+00 6.29883898493662e-02 4.30274988598031e-04
2.70613636363636e+00 6.24949149081490e-02 4.29838341166489e-04
2.74295454545455e+00 6.20053060371387e-02 4.29362384218018e-04
2.77977272727273e+00 6.15195329463236e-02 4.28848307991937e-04
2.81659090909091e+00 6.10375655865144e-02 4.28297266232756e-04
2.85340909090909e+00 6.05593741421570e-02 4.27710378433551e-04
2.89022727272727e+00 6.00849290312787e-02 4.27088730047765e-04
2.92704545454545e+00 5.96142009036700e-02 4.26433374553121e-04
2.96386363636364e+00 5.91471606374929e-02 4.25745333633466e-04
3.00068181818182e+00 5.86837793422370e-02 4.25025599080032e-04
3.03750000000000e+00 5.82240283521243e-02 4.24275134639448e-04
3.07431818181818e+00 5.77678792259536e-02 4.23494875986809e-04
3.11113636363636e+00 5.73153037453431e-02 4.22685732108590e-04
3.14795454545455e+00 5.68662739129879e-02 4.21848586595155e-04
3.18477272727273e+00 5.64207619495341e-02 4.20984297580616e-04
3.22159090909091e+00 5.59787402960746e-02 4.20093699279305e-04
3.25840909090909e+00 5.55401816081867e-02 4.19177603487391e-04
3.29522727272727e+00 5.51050587556711e-02 4.18236799373677e-04
3.33204545454545e+00 5.46733448208809e-02 4.17272054882921e-04
3.36886363636364e+00 5.42450130957875e-02 4.16284116546855e-04
3.40568181818182e+00 5.38200370841614e-02 4.15273710795853e-04
3.44250000000000e+00 5.33983904960616e-02 4.14241545246110e-04
3.47931818181818e+00 5.29800472475110e-02 4.13188308394614e-04
3.51613636363636e+00 5.25649814588846e-02 4.12114670543292e-04
3.55295454545455e+00 5.21531674533106e-02 4.11021284663332e-04
3.58977272727273e+00 5.17445797539483e-02 4.09908786107119e-04
3.62659090909091e+00 5.13391930858384e-02 4.08777793712852e-04
3.66340909090909e+00 5.09369823708801e-02 4.07628910892914e-04
3.70022727272727e+00 5.05379227274415e-02 4.06462725257897e-04
3.73704545454545e+00 5.01419894688260e-02 4.05279809644707e-04
3.77386363636364e+00 4.97491581007068e-02 4.04080721777288e-04
3.81068181818182e+00 4.93594043227469e-02 4.02866005237215e-04
3.84750000000000e+00 4.89727040239309e-02 4.01636190422848e-04
3.88431818181818e+00 4.85890332821368e-02 4.00391794138508e-04
3.92113636363636e+00 4.82083683626584e-02 3.99133320256156e-04
3.95795454545455e+00 4.78306857167374e-02 3.97861260333853e-04
3.99477272727273e+00 4.74559619791738e-02 3.96576093239961e-04
4.03159090909091e+00 4.70841739697014e-02 3.95278285994407e-04
4.06840909090909e+00 4.67152986887068e-02 3.93968294602505e-04
4.10522727272727e+00 4.63493133167624e-02 3.92646563622285e-04
4.14204545454546e+00 4.59861952132188e-02 3.91313526957995e-04
4.17886363636364e+00 4.56259219139454e-02 3.89969607468250e-04
4.21568181818182e+00 4.52684711325347e-02 3.88615217720179e-04
4.25250000000000e+00 4.49138207563058e-02 3.87250760738633e-04
4.28931818181818e+00 4.45619488458160e-02 3.85876629566348e-04
4.32613636363636e+00 4.42128336335050e-02 3.84493207762488e-04
4.36295454545455e+00 4.38664535223486e-02 3.83100869867969e-04
4.39977272727273e+00 4.35227870837468e-02 3.81699981005805e-04
4.43659090909091e+00 4.31818130585446e-02 3.80290897548261e-04
4.47340909090909e+00 4.28435103533495e-02 3.78873967780979e-04
4.51022727272727e+00 4.25078580400211e-02 3.77449531463889e-04
4.54704545454545e+00 4.21748353543798e-02 3.76017920466422e-04
4.58386363636364e+00 4.18444216942040e-02 3.74579458368292e-04
4.62068181818182e+00 4.15165966201239e-02 3.73134461066080e-04
4.65750000000000e+00 4.11913398521697e-02 3.71683237378158e-04
4.69431818181818e+00 4.08686312692522e-02 3.70226088611299e-04
4.73113636363636e+00 4.05484509079185e-02 3.68763308950623e-04
4.76795454545455e+00 4.02307789611179e-02 3.67295185823048e-04
4.80477272727273e+00 3.99155957763243e-02 3.65821999503984e-04
4.84159090909091e+00 3.96028818562912e-02 3.64344023661705e-04
4.87840909090909e+00 3.92926178558579e-02 3.62861525901078e-04
4.91522727272727e+00 3.89847845814202e-02 3.61374767341232e-04
4.95204545454545e+00 3.86793629897448e-02 3.59884003137444e-04
4.98886363636364e+00 3.83763341861874e-02 3.58389482095844e-04
5.02568181818182e+00 3.80756794253486e-02 3.56891447173513e-04
5.06250000000000e+00 3.77773801080739e-02 3.55390135978641e-04
5.09931818181818e+00 3.74814177809209e-02 3.53885780359602e-04
5.13613636363636e+00 3.71877741350188e-02 3.52378606718637e-04
5.17295454545455e+00 3.68964310049359e-02 3.50868836303976e-04
5.20977272727273e+00 3.66073703670049e-02 3.49356684836649e-04
5.24659090909091e+00 3.63205743398734e-02 3.47842362963972e-04
5.28340909090909e+00 3.60360251817184e-02 3.46326076713741e-04
5.32022727272727e+00 3.57537052897119e-02 3.44808027098696e-04
5.35704545454545e+00 3.54735971989345e-02 3.43288410553629e-04
5.39386363636364e+00 3.51956835807815e-02 3.41767418573522e-04
5.43068181818182e+00 3.49199472434397e-02 3.40245238133303e-04
5.46750000000000e+00 3.46463711292625e-02 3.38722052108705e-04
5.50431818181818e+00 3.43749383142388e-02 3.37198038894404e-04
5.54113636363636e+00 3.41056320069471e-02 3.35673372661907e-04
5.57795454545455e+00 3.38384355475164e-02 3.34148223599363e-04
5.61477272727273e+00 3.35733324061273e-02 3.32622757564308e-04
5.65159090909091e+00 3.33103061834058e-02 3.31097136467366e-04
5.68840909090909e+00 3.30493406079808e-02 3.29571518657255e-04
5.72522727272727e+00 3.27904195359563e-02 3.28046058555887e-04
5.76204545454546e+00 3.25335269499148e-02 3.26520907029492e-04
5.79886363636364e+00 3.22786469574887e-02 3.24996211054058e-04
5.83568181818182e+00 3.20257637916975e-02 3.23472114072428e-04
5.87250000000000e+00 3.17748618086414e-02 3.21948756352891e-04
5.90931818181818e+00 3.15259254869809e-02 3.20426274638567e-04
5.94613636363636e+00 3.12789394269763e-02 3.18904802362850e-04
5.98295454545455e+00 3.10338883495359e-02 3.17384469849490e-04
6.01977272727273e+00 3.07907570948694e-02 3.15865403993263e-04
6.05659090909091e+00 3.05495306227618e-02 3.14347728588330e-04
6.09340909090909e+00 3.03101940104221e-02 3.12831564658143e-04
6.13022727272727e+00 3.00727324519692e-02 3.11317030121796e-04
6.16704545454545e+00 2.98371312575176e-02 3.09804240112539e-04
6.20386363636364e+00 2.96033758518941e-02 3.08293306671152e-04
6.24068181818182e+00 2.93714517748667e-02 3.06784339052862e-04
6.27750000000000e+00 2.91413446791107e-02 3.05277444035932e-04
6.31431818181818e+00 2.89130403297034e-02 3.03772725601872e-04
6.35113636363636e+00 2.86865246032438e-02 3.02270285117741e-04
6.38795454545455e+00 2.84617834869796e-02 3.00770221505207e-04
6.42477272727273e+00 2.82388030775951e-02 2.99272630948925e-04
6.46159090909091e+00 2.80175695813926e-02 2.97777607180001e-04
6.49840909090909e+00 2.77980693123899e-02 2.96285241761154e-04
6.53522727272727e+00 2.75802886918253e-02 2.94795623783199e-04
6.57204545454545e+00 2.73642142473190e-02 2.93308840140617e-04
6.60886363636364e+00 2.71498326117169e-02 2.91824975252137e-04
6.64568181818182e+00 2.69371305232371e-02 2.90344111326576e-04
6.68250000000000e+00 2.67260948236688e-02 2.88866328630413e-04
6.71931818181818e+00 2.65167124578872e-02 2.87391705197370e-04
6.75613636363636e+00 2.63089704730465e-02 2.85920316984174e-04
6.79295454545455e+00 2.61028560177787e-02 2.84452238014916e-04
6.82977272727273e+00 2.58983563411012e-02 2.82987540115785e-04
6.86659090909091e+00 2.56954587925259e-02 2.81526293161494e-04
6.90340909090909e+00 2.54941508203721e-02 2.80068565323428e-04
6.94022727272727e+00 2.52944199712933e-02 2.78614422794362e-04
6.97704545454545e+00 2.50962538895075e-02 2.77163930028509e-04
7.01386363636364e+00 2.48996403157546e-02 2.75717149487695e-04
7.05068181818182e+00 2.47045670873787e-02 2.74274141873071e-04
7.08750000000000e+00 2.45110221367285e-02 2.72834966358575e-04
7.12431818181818e+00 2.43189934906950e-02 2.71399680327776e-04
7.16113636363636e+00 2.41284692699711e-02 2.69968339508064e-04
7.19795454545455e+00 2.39394376883170e-02 2.68540998094882e-04
7.23477272727273e+00 2.37518870515736e-02 2.67117708511102e-04
7.27159090909091e+00 2.35658057577163e-02 2.65698521622397e-04
7.30840909090909e+00 2.33811822953543e-02 2.64283486954362e-04
7.34522727272727e+00 2.31980052432811e-02 2.62872652443380e-04
7.38204545454545e+00 2.30162632697686e-02 2.61466064646703e-04
7.41886363636364e+00 2.28359451316246e-02 2.60063768512434e-04
7.45568181818182e+00 2.26570396742262e-02 2.58665807582495e-04
7.49250000000000e+00 2.24795358300954e-02 2.57272224197260e-04
7.52931818181818e+00 2.23034226184608e-02 2.55883059257564e-04
7.56613636363636e+00 2.21286891445788e-02 2.54498352341014e-04
7.60295454545455e+00 2.19553245990593e-02 2.53118141809559e-04
7.63977272727273e+00 2.17833182569738e-02 2.51742464591615e-04
7.67659090909091e+00 2.16126594778668e-02 2.50371356371149e-04
7.71340909090909e+00 2.14433377044177e-02 2.49004851778445e-04
7.75022727272727e+00 2.12753424620156e-02 2.47642984164870e-04
7.78704545454545e+00 2.11086633581121e-02 2.46285785787560e-04
7.82386363636364e+00 2.09432900813681e-02 2.44933287601241e-04
7.86068181818182e+00 2.07792124016502e-02 2.43585519436690e-04
7.89750000000000e+00 2.06164201687586e-02 2.42242510180897e-04
7.93431818181818e+00 2.04549033120142e-02 2.40904287561933e-04
7.97113636363636e+00 2.02946518396355e-02 2.39570878250303e-04
8.00795454545455e+00 2.01356558381203e-02 2.38242307952671e-04
8.04477272727273e+00 1.99779054714383e-02 2.36918601214682e-04
8.08159090909091e+00 1.98213909810098e-02 2.35599781587623e-04
8.11840909090909e+00 1.96661026845107e-02 2.34285871796619e-04
8.15522727272727e+00 1.95120309754714e-02 2.32976893537146e-04
8.19204545454545e+00 1.93591663226834e-02 2.31672867637946e-04
8.22886363636364e+00 1.92074992694263e-02 2.30373813872725e-04
8.26568181818182e+00 1.90570204334356e-02 2.29079751117666e-04
8.30250000000000e+00 1.89077205057658e-02 2.27790697510500e-04
8.33931818181818e+00 1.87595902504009e-02 2.26506670256204e-04
8.37613636363636e+00 1.86126205036834e-02 2.25227685715655e-04
8.41295454545455e+00 1.84668021737476e-02 2.23953759487619e-04
8.44977272727273e+00 1.83221262397869e-02 2.22684906230491e-04
8.48659090909091e+00 1.81785837520094e-02 2.21421139809575e-04
8.52340909090909e+00 1.80361658305668e-02 2.20162473445836e-04
8.56022727272727e+00 1.78948636651790e-02 2.18908919532142e-04
8.59704545454546e+00 1.77546685145890e-02 2.17660489777357e-04
8.63386363636364e+00 1.76155717058623e-02 2.16417195036122e-04
8.67068181818182e+00 1.74775646343334e-02 2.15179045448277e-04
8.70750000000000e+00 1.73406387625870e-02 2.13946050579652e-04
8.74431818181818e+00 1.72047856200930e-02 2.12718219246621e-04
8.78113636363636e+00 1.70699968026828e-02 2.11495559593978e-04
8.81795454545455e+00 1.69362639720292e-02 2.10278079166876e-04
8.85477272727273e+00 1.68035788549821e-02 2.09065784749718e-04
8.89159090909091e+00 1.66719332435056e-02 2.07858682496675e-04
8.92840909090909e+00 1.65413189937180e-02 2.06656778063549e-04
8.96522727272727e+00 1.64117280255399e-02 2.05460076441828e-04
9.00204545454545e+00 1.62831523221941e-02 2.04268582086494e-04
9.03886363636364e+00 1.61555839295703e-02 2.03082298762152e-04
9.07568181818182e+00 1.60290149561554e-02 2.01901229666682e-04
9.11250000000000e+00 1.59034375721195e-02 2.00725377556223e-04
9.14931818181818e+00 1.57788440089746e-02 1.99554744586753e-04
9.18613636363636e+00 1.56552265590940e-02 1.98389332382630e-04
9.22295454545455e+00 1.55325775752354e-02 1.97229142099973e-04
9.25977272727273e+00 1.54108894699379e-02 1.96074174281056e-04
9.29659090909091e+00 1.52901547154455e-02 1.94924428970199e-04
9.33340909090909e+00 1.51703658428460e-02 1.93779905830943e-04
9.37022727272727e+00 1.50515154417410e-02 1.92640603996171e-04
9.40704545454546e+00 1.49335961597883e-02 1.91506522181689e-04
9.44386363636364e+00 1.48166007021238e-02 1.90377658547145e-04
9.48068181818182e+00 1.47005218312815e-02 1.89254010805967e-04
9.51750000000000e+00 1.45853523663720e-02 1.88135576336500e-04
9.55431818181818e+00 1.44710851827636e-02 1.87022352038873e-04
9.59113636363636e+00 1.43577132116418e-02 1.85914334395616e-04
9.62795454545455e+00 1.42452294395719e-02 1.84811519527595e-04
9.66477272727273e+00 1.41336269079504e-02 1.83713903062335e-04
9.70159090909091e+00 1.40228987129210e-02 1.82621480237202e-04
9.73840909090909e+00 1.39130380045986e-02 1.81534246003726e-04
9.77522727272727e+00 1.38040379867626e-02 1.80452194892167e-04
9.81204545454545e+00 1.36958919164368e-02 1.79375321112658e-04
9.84886363636364e+00 1.35885931033639e-02 1.78303618429485e-04
9.88568181818182e+00 1.34821349099182e-02 1.77237080258966e-04
9.92250000000000e+00 1.33765107503661e-02 1.76175699768476e-04
9.95931818181818e+00 1.32717140905691e-02 1.75119469747167e-04
9.99613636363636e+00 1.31677384475799e-02 1.74068382871741e-04
1.00329545454545e+01 1.30645773887295e-02 1.73022430738295e-04
1.00697727272727e+01 1.29622245335807e-02 1.71981605393569e-04
1.01065909090909e+01 1.28606735493434e-02 1.70945898931262e-04
1.01434090909091e+01 1.27599181538607e-02 1.69915302159034e-04
1.01802272727273e+01 1.26599521141916e-02 1.68889806029461e-04
1.02170454545455e+01 1.25607692462275e-02 1.67869400813927e-04
1.02538636363636e+01 1.24623634152605e-02 1.66854077315550e-04
1.02906818181818e+01 1.23647285327294e-02 1.65843826069371e-04
1.03275000000000e+01 1.22678585587357e-02 1.64838636530728e-04
1.03643181818182e+01 1.21717475006992e-02 1.63838498312838e-04
1.04011363636364e+01 1.20763894129876e-02 1.62843400779969e-04
1.04379545454545e+01 1.19817783965496e-02 1.61853332676736e-04
1.04747727272727e+01 1.18879085994390e-02 1.60868283272430e-04
1.05115909090909e+01 1.17947742137669e-02 1.59888241605722e-04
1.05484090909091e+01 1.17023694780446e-02 1.58913195718160e-04
1.05852272727273e+01 1.16106886759205e-02 1.57943133821874e-04
1.06220454545455e+01 1.15197261358277e-02 1.56978043556107e-04
1.06588636363636e+01 1.14294762314727e-02 1.56017913077622e-04
1.06956818181818e+01 1.13399333789513e-02 1.55062730340775e-04
1.07325000000000e+01 1.12510920389544e-02 1.54112482366913e-04
1.07693181818182e+01 1.11629467155700e-02 1.53167156357041e-04
1.08061363636364e+01 1.10754919559426e-02 1.52226739325405e-04
1.08429545454545e+01 1.09887223499373e-02 1.51291217765363e-04
1.08797727272727e+01 1.09026325305894e-02 1.50360578678592e-04
1.09165909090909e+01 1.08172171714019e-02 1.49434808894971e-04
1.09534090909091e+01 1.07324709884010e-02 1.48513894382377e-04
1.09902272727273e+01 1.06483887390093e-02 1.47597821296957e-04
1.10270454545455e+01 1.05649652217218e-02 1.46686575313521e-04
1.10638636363636e+01 1.04821952765271e-02 1.45780142606608e-04
1.11006818181818e+01 1.04000737823461e-02 1.44878509202015e-04
1.11375000000000e+01 1.03185956589709e-02 1.43981660318718e-04
1.11743181818182e+01 1.02377558659928e-02 1.43089581369977e-04
1.12111363636364e+01 1.01575494024922e-02 1.42202257633051e-04
1.12479545454545e+01 1.00779713067284e-02 1.41319673947938e-04
1.12847727272727e+01 9.99901665652768e-03 1.40441815643713e-04
1.13215909090909e+01 9.92068056688201e-03 1.39568667925706e-04
1.13584090909091e+01 9.84295819175613e-03 1.38700215253564e-04
1.13952272727273e+01 9.76584472307981e-03 1.37836442286612e-04
1.14320454545455e+01 9.68933539045163e-03 1.36977333280434e-04
1.14688636363636e+01 9.61342546150009e-03 1.36122872970133e-04
1.15056818181818e+01 9.53811023960849e-03 1.35273045985877e-04
1.15425000000000e+01 9.46338506561875e-03 1.34427836259752e-04
1.15793181818182e+01 9.38924531687407e-03 1.33587227927128e-04
1.16161363636364e+01 9.31568640693326e-03 1.32751205028832e-04
