Energy (eV)          EEDF (eV^-(3/2))     First Anisotropy
4.39772727272727e-03 9.47943411768750e-01 5.30445065861626e-04
1.31931818181818e-02 9.40529645756272e-01 8.75433385593406e-04
2.19886363636364e-02 9.33173862029898e-01 1.15439458756850e-03
3.07840909090909e-02 9.25875607130500e-01 1.36554815856083e-03
3.95795454545455e-02 9.18634431104842e-01 1.54101227881876e-03
4.83750000000000e-02 9.11449887565718e-01 1.69294727968724e-03
5.71704545454545e-02 9.04321533580230e-01 1.82765443851512e-03
6.59659090909091e-02 8.97248929709604e-01 1.94894380037616e-03
7.47613636363636e-02 8.90231639926361e-01 2.05934545797559e-03
8.35568181818182e-02 8.83269231635181e-01 2.16064987652950e-03
9.23522727272727e-02 8.76361275604575e-01 2.25418410690894e-03
1.01147727272727e-01 8.69507345977362e-01 2.34096706220793e-03
1.09943181818182e-01 8.62707020184535e-01 2.42180317145503e-03
1.18738636363636e-01 8.55959879061892e-01 2.49734206198132e-03
1.27534090909091e-01 8.49265506597084e-01 2.56811825674426e-03
1.36329545454545e-01 8.42623490146062e-01 2.63457855947088e-03
1.45125000000000e-01 8.36033420187587e-01 2.69710151653758e-03
1.53920454545455e-01 8.29494890499275e-01 2.75601159743653e-03
1.62715909090909e-01 8.23007497947236e-01 2.81158976167023e-03
1.71511363636364e-01 8.16570842632655e-01 2.86408147757812e-03
1.80306818181818e-01 8.10184527707787e-01 2.91370291549217e-03
1.89102272727273e-01 8.03848159500165e-01 2.96064579675551e-03
1.97897727272727e-01 7.97561347349108e-01 3.00508124907617e-03
2.06693181818182e-01 7.91323703682447e-01 3.04716288399136e-03
2.15488636363636e-01 7.85134843989340e-01 3.08702933001248e-03
2.24284090909091e-01 7.78994386706125e-01 3.12480627704798e-03
2.33079545454545e-01 7.72901953310106e-01 3.16060818163007e-03
2.41875000000000e-01 7.66857168185196e-01 3.19453968766650e-03
2.50670454545455e-01 7.60859658704038e-01 3.22669681791828e-03
2.59465909090909e-01 7.54909055105005e-01 3.25716798369251e-03
2.68261363636364e-01 7.49004990564606e-01 3.28603484252855e-03
2.77056818181818e-01 7.43147101084110e-01 3.31337303431927e-03
2.85852272727273e-01 7.37335025553762e-01 3.33925281348941e-03
2.94647727272727e-01 7.31568405647664e-01 3.36373960030086e-03
3.03443181818182e-01 7.25846885862417e-01 3.38689444584233e-03
3.12238636363636e-01 7.20170113493611e-01 3.40877446471146e-03
3.21034090909091e-01 7.14537738558118e-01 3.42943318939746e-03
3.29829545454545e-01 7.08949413845701e-01 3.44892089392296e-03
3.38625000000000e-01 7.03404794827310e-01 3.46728487876611e-03
3.47420454545455e-01 6.97903539701430e-01 3.48456972235386e-03
3.56215909090909e-01 6.92445309307967e-01 3.50081750616631e-03
3.65011363636364e-01 6.87029767169990e-01 3.51606801457075e-03
3.73806818181818e-01 6.81656579412585e-01 3.53035891495540e-03
3.82602272727273e-01 6.76325414800551e-01 3.54372591844003e-03
3.91397727272727e-01 6.71035944661707e-01 3.55620292781489e-03
4.00193181818182e-01 6.65787842908117e-01 3.56782215971947e-03
4.08988636363636e-01 6.60580786015025e-01 3.57861427655000e-03
4.17784090909091e-01 6.55414452962185e-01 3.58860848573360e-03
4.26579545454545e-01 6.50288525264937e-01 3.59783263952060e-03
4.35375000000000e-01 6.45202686905325e-01 3.60631332483453e-03
4.44170454545455e-01 6.40156624360323e-01 3.61407594442425e-03
4.52965909090909e-01 6.35150026536270e-01 3.62114479202784e-03
4.61761363636364e-01 6.30182584794519e-01 3.62754312043395e-03
4.70556818181818e-01 6.25253992888928e-01 3.63329320484622e-03
4.79352272727273e-01 6.20363946989180e-01 3.63841640038453e-03
4.88147727272727e-01 6.15512145621074e-01 3.64293319762495e-03
4.96943181818182e-01 6.10698289678248e-01 3.64686326452914e-03
5.05738636363636e-01 6.05922082403106e-01 3.65022550281390e-03
5.14534090909091e-01 6.01183229339992e-01 3.65303808318220e-03
5.23329545454545e-01 5.96481438354606e-01 3.65531848596988e-03
5.32125000000000e-01 5.91816419579453e-01 3.65708353790192e-03
5.40920454545455e-01 5.87187885431530e-01 3.65834944558365e-03
5.49715909090909e-01 5.82595550559985e-01 3.65913182737511e-03
5.58511363636364e-01 5.78039131862228e-01 3.65944574245307e-03
5.67306818181818e-01 5.73518348433653e-01 3.65930571859527e-03
5.76102272727273e-01 5.69032921582301e-01 3.65872577752213e-03
5.84897727272727e-01 5.64582574780509e-01 3.65771946069318e-03
5.93693181818182e-01 5.60167033670967e-01 3.65629984565394e-03
6.02488636363636e-01 5.55786026049352e-01 3.65447957616861e-03
6.11284090909091e-01 5.51439281825679e-01 3.65227087616963e-03
6.20079545454545e-01 5.47126533036500e-01 3.64968556964211e-03
6.28875000000000e-01 5.42847513800232e-01 3.64673509844505e-03
6.37670454545455e-01 5.38601960328244e-01 3.64343053853992e-03
6.46465909090909e-01 5.34389610881770e-01 3.63978261583178e-03
6.55261363636364e-01 5.30210205781964e-01 3.63580172058531e-03
6.64056818181818e-01 5.26063487368313e-01 3.63149792155750e-03
6.72852272727273e-01 5.21949200007742e-01 3.62688097884857e-03
6.81647727272727e-01 5.17867090054432e-01 3.62196035779637e-03
6.90443181818182e-01 5.13816905852314e-01 3.61674523549194e-03
6.99238636363636e-01 5.09798397719218e-01 3.61124451956366e-03
7.08034090909091e-01 5.05811317914255e-01 3.60546685372918e-03
7.16829545454545e-01 5.01855420645295e-01 3.59942062887656e-03
7.25625000000000e-01 4.97930462031565e-01 3.59311399280239e-03
7.34420454545455e-01 4.94036200110380e-01 3.58655485901425e-03
7.43215909090909e-01 4.90172394800930e-01 3.57975091554376e-03
7.52011363636364e-01 4.86338807910316e-01 3.57270963289916e-03
7.60806818181818e-01 4.82535203098476e-01 3.56543827206383e-03
7.69602272727273e-01 4.78761345883573e-01 3.55794389169952e-03
7.78397727272727e-01 4.75017003607998e-01 3.55023335649056e-03
7.87193181818182e-01 4.71301945438551e-01 3.54231333941150e-03
7.95988636363636e-01 4.67615942351953e-01 3.53419033473772e-03
8.04784090909091e-01 4.63958767106884e-01 3.52587065990597e-03
8.13579545454545e-01 4.60330194248273e-01 3.51736046231863e-03
8.22375000000000e-01 4.56730000075475e-01 3.50866572515658e-03
8.31170454545455e-01 4.53157962646043e-01 3.49979227256624e-03
8.39965909090909e-01 4.49613861744832e-01 3.49074577499265e-03
8.48761363636364e-01 4.46097478887297e-01 3.48153175392599e-03
8.57556818181818e-01 4.42608597289479e-01 3.47215558680371e-03
8.66352272727273e-01 4.39147001870866e-01 3.46262251136308e-03
8.75147727272727e-01 4.35712479225220e-01 3.45293763108047e-03
8.83943181818182e-01 4.32304817619260e-01 3.44310591547044e-03
8.92738636363636e-01 4.28923806979399e-01 3.43313220977108e-03
9.01534090909091e-01 4.25569238867499e-01 3.42302123507468e-03
9.10329545454545e-01 4.22240906482966e-01 3.41277759282759e-03
9.19125000000000e-01 4.18938604635340e-01 3.40240576854286e-03
9.27920454545455e-01 4.15662129746032e-01 3.39191013505516e-03
9.36715909090909e-01 4.12411279821654e-01 3.38129495596288e-03
9.45511363636364e-01 4.09185854455424e-01 3.37056438863630e-03
9.54306818181818e-01 4.05985654801208e-01 3.35972248741318e-03
9.63102272727273e-01 4.02810483574619e-01 3.34877320638399e-03
9.71897727272727e-01 3.99660145027739e-01 3.33772040316795e-03
9.80693181818182e-01 3.96534444946813e-01 3.32656783827369e-03
9.89488636363636e-01 3.93433190640112e-01 3.31531918267273e-03
9.98284090909091e-01 3.90356190916717e-01 3.30397801866054e-03
1.00707954545455e+00 3.87303256081134e-01 3.29254783447705e-03
1.01587500000000e+00 3.84274197942040e-01 3.28103204604856e-03
1.02467045454545e+00 3.81268829733212e-01 3.26943397713869e-03
1.03346590909091e+00 3.78286966206917e-01 3.25775687395431e-03
1.04226136363636e+00 3.75328423507289e-01 3.24600390524276e-03
1.05105681818182e+00 3.72393019272451e-01 3.23417816319797e-03
1.05985227272727e+00 3.69480572511534e-01 3.22228266658896e-03
1.06864772727273e+00 3.66590903703570e-01 3.21032035451981e-03
1.07744318181818e+00 3.63723834704043e-01 3.19829411762717e-03
1.08623863636364e+00 3.60879188736387e-01 3.18620675661644e-03
1.09503409090909e+00 3.58056790457952e-01 3.17406101238398e-03
1.10382954545455e+00 3.55256465846815e-01 3.16185956138382e-03
1.11262500000000e+00 3.52478042291922e-01 3.14960501622127e-03
1.12142045454545e+00 3.49721348483060e-01 3.13729992826969e-03
1.13021590909091e+00 3.46986214498228e-01 3.12494678818789e-03
1.13901136363636e+00 3.44272471696655e-01 3.11254802841761e-03
1.14780681818182e+00 3.41579952803510e-01 3.10010602363155e-03
1.15660227272727e+00 3.38908491805863e-01 3.08762309311981e-03
1.16539772727273e+00 3.36257924034820e-01 3.07510149499085e-03
1.17419318181818e+00 3.33628086086222e-01 3.06254345324536e-03
1.18298863636364e+00 3.31018815812556e-01 3.04995112106173e-03
1.19178409090909e+00 3.28429952377692e-01 3.03732660696312e-03
1.20057954545455e+00 3.25861336160749e-01 3.02467197046347e-03
1.20937500000000e+00 3.23312808831256e-01 3.01198922233322e-03
1.21817045454545e+00 3.20784213255586e-01 2.99928032663356e-03
1.22696590909091e+00 3.18275393569895e-01 2.98654720093669e-03
1.23576136363636e+00 3.15786195089047e-01 2.97379171827798e-03
1.24455681818182e+00 3.13316464377405e-01 2.96101570733359e-03
1.25335227272727e+00 3.10866049160166e-01 2.94822095429455e-03
1.26214772727273e+00 3.08434798392076e-01 2.93540919755537e-03
1.27094318181818e+00 3.06022562189644e-01 2.92258215136742e-03
1.27973863636364e+00 3.03629191823516e-01 2.90974147329192e-03
1.28853409090909e+00 3.01254539764193e-01 2.89688878707719e-03
1.29732954545455e+00 2.98898459599832e-01 2.88402567863758e-03
1.30612500000000e+00 2.96560806099322e-01 2.87115369612381e-03
1.31492045454545e+00 2.94241435132213e-01 2.85827435154518e-03
1.32371590909091e+00 2.91940203729983e-01 2.84538912081183e-03
1.33251136363636e+00 2.89656970008022e-01 2.83249944529697e-03
1.34130681818182e+00 2.87391593225149e-01 2.81960673185384e-03
1.35010227272727e+00 2.85143933707595e-01 2.80671235432082e-03
1.35889772727273e+00 2.82913852906826e-01 2.79381764869619e-03
1.36769318181818e+00 2.80701213341263e-01 2.78092393390835e-03
1.37648863636364e+00 2.78505878589123e-01 2.76803248292096e-03
1.38528409090909e+00 2.76327713326818e-01 2.75514454283367e-03
1.39407954545455e+00 2.74166583258273e-01 2.74226133120442e-03
1.40287500000000e+00 2.72022355168158e-01 2.72938403600322e-03
1.41167045454545e+00 2.69894896852977e-01 2.71651381693070e-03
1.42046590909091e+00 2.67784077172815e-01 2.70365180535463e-03
1.42926136363636e+00 2.65689765984148e-01 2.69079910558378e-03
1.43805681818182e+00 2.63611834190145e-01 2.67795679478875e-03
1.44685227272727e+00 2.61550153675151e-01 2.66512592423305e-03
1.45564772727273e+00 2.59504597353594e-01 2.65230751490867e-03
1.46444318181818e+00 2.57475039119620e-01 2.63950257584883e-03
1.47323863636364e+00 2.55461353840402e-01 2.62671207843615e-03
1.48203409090909e+00 2.53463417388548e-01 2.61393697413251e-03
1.49082954545455e+00 2.51481106581015e-01 2.60117819113541e-03
1.49962500000000e+00 2.49514299224256e-01 2.58843663426244e-03
1.50842045454545e+00 2.47562874054630e-01 2.57571318604008e-03
1.51721590909091e+00 2.45626710782311e-01 2.56300870657795e-03
1.52601136363636e+00 2.43705690033145e-01 2.55032403462300e-03
1.53480681818182e+00 2.41799693391374e-01 2.53765998742461e-03
1.54360227272727e+00 2.39908603342891e-01 2.52501736175584e-03
1.55239772727273e+00 2.38032303316804e-01 2.51239692997607e-03
1.56119318181818e+00 2.36170677641709e-01 2.49979945622934e-03
1.56998863636364e+00 2.34323611539465e-01 2.48722567356649e-03
1.57878409090909e+00 2.32490991152642e-01 2.47467629963354e-03
1.58757954545455e+00 2.30672703491526e-01 2.46215203364208e-03
1.59637500000000e+00 2.28868636472547e-01 2.44965355621473e-03
1.60517045454545e+00 2.27078678866546e-01 2.43718153029495e-03
1.61396590909091e+00 2.25302720336181e-01 2.42473660098675e-03
1.62276136363636e+00 2.23540651385414e-01 2.41231939643750e-03
1.63155681818182e+00 2.21792363395928e-01 2.39993052767203e-03
1.64035227272727e+00 2.20057748577799e-01 2.38757058944943e-03
1.64914772727273e+00 2.18336700004951e-01 2.37524015671615e-03
1.65794318181818e+00 2.16629111577045e-01 2.36293979897323e-03
1.66673863636364e+00 2.14934878013693e-01 2.35067005987441e-03
1.67553409090909e+00 2.13253894877807e-01 2.33843147114505e-03
1.68432954545455e+00 2.11586058529422e-01 2.32622454984299e-03
1.69312500000000e+00 2.09931266158557e-01 2.31404979818349e-03
1.70192045454545e+00 2.08289415740108e-01 2.30190770430726e-03
1.71071590909091e+00 2.06660406065851e-01 2.28979874210253e-03
1.71951136363636e+00 2.05044136700382e-01 2.27772337195145e-03
1.72830681818182e+00 2.03440508012279e-01 2.26568204054945e-03
1.73710227272727e+00 2.01849421131067e-01 2.25367518163103e-03
1.74589772727273e+00 2.00270777977564e-01 2.24170321277572e-03
1.75469318181818e+00 1.98704481230545e-01 2.22976654818101e-03
1.76348863636364e+00 1.97150434321391e-01 2.21786558044423e-03
1.77228409090909e+00 1.95608541453989e-01 2.20600069293920e-03
1.78107954545455e+00 1.94078707564392e-01 2.19417225734219e-03
1.78987500000000e+00 1.92560838348980e-01 2.18238063344845e-03
1.79867045454545e+00 1.91054840225030e-01 2.17062616982616e-03
1.80746590909091e+00 1.89560620358161e-01 2.15890920363185e-03
1.81626136363636e+00 1.88078086623796e-01 2.14723006124651e-03
1.82505681818182e+00 1.86607147633903e-01 2.13558905808986e-03
1.83385227272727e+00 1.85147712699331e-01 2.12398649923952e-03
1.84264772727273e+00 1.83699691855863e-01 2.11242267655636e-03
1.85144318181818e+00 1.82262995834978e-01 2.10089788006217e-03
1.86023863636364e+00 1.80837536058887e-01 2.08941238165042e-03
1.86903409090909e+00 1.79423224657565e-01 2.07796644611373e-03
1.87782954545455e+00 1.78019974433381e-01 2.06656032891009e-03
1.88662500000000e+00 1.76627698885319e-01 2.05519427597883e-03
1.89542045454545e+00 1.75246312174400e-01 2.04386852430132e-03
1.90421590909091e+00 1.73875729147291e-01 2.03258330171615e-03
1.91301136363636e+00 1.72515865302493e-01 2.02133882746549e-03
1.92180681818182e+00 1.71166636813359e-01 2.01013531201002e-03
1.93060227272727e+00 1.69827960495032e-01 1.99897295756118e-03
1.93939772727273e+00 1.68499753826880e-01 1.98785195549348e-03
1.94819318181818e+00 1.67181934926770e-01 1.97677249649623e-03
1.95698863636364e+00 1.65874422546488e-01 1.96573475599283e-03
1.96578409090909e+00 1.64577136086333e-01 1.95473890398182e-03
1.97457954545455e+00 1.63289995564035e-01 1.94378510302167e-03
1.98337500000000e+00 1.62012921635639e-01 1.93287350805016e-03
1.99217045454545e+00 1.60745835565099e-01 1.92200426686778e-03
2.00096590909091e+00 1.59488659244637e-01 1.91117751995757e-03
2.00976136363636e+00 1.58241315165011e-01 1.90039340095641e-03
2.01855681818182e+00 1.57003726435365e-01 1.88965203647566e-03
2.02735227272727e+00 1.55775816754145e-01 1.87895354656041e-03
2.03614772727273e+00 1.54557510428457e-01 1.86829804235965e-03
2.04494318181818e+00 1.53348732351383e-01 1.85768563519834e-03
2.05373863636364e+00 1.52149407997747e-01 1.84711642351094e-03
2.06253409090909e+00 1.50959463436659e-01 1.83659050163781e-03
2.07132954545455e+00 1.49778825304133e-01 1.82610795800636e-03
2.08012500000000e+00 1.48607420821128e-01 1.81566887495742e-03
2.08892045454545e+00 1.47445177766756e-01 1.80527332916401e-03
2.09771590909091e+00 1.46292024495875e-01 1.79492139145831e-03
2.10651136363636e+00 1.45147889912885e-01 1.78461312724005e-03
2.11530681818182e+00 1.44012703488882e-01 1.77434859630507e-03
2.12410227272727e+00 1.42886395236016e-01 1.76412785324368e-03
2.13289772727273e+00 1.41768895724230e-01 1.75395094534169e-03
2.14169318181818e+00 1.40660136061214e-01 1.74381792069913e-03
2.15048863636364e+00 1.39560047888499e-01 1.73372881650929e-03
2.15928409090909e+00 1.38468563392250e-01 1.72368366693072e-03
2.16807954545455e+00 1.37385615279102e-01 1.71368250144637e-03
2.17687500000000e+00 1.36311136791768e-01 1.70372534469817e-03
2.18567045454545e+00 1.35245061685386e-01 1.69381221685119e-03
2.19446590909091e+00 1.34187324242759e-01 1.68394313342946e-03
2.20326136363636e+00 1.33137859251194e-01 1.67411810567150e-03
2.21205681818182e+00 1.32096602017374e-01 1.66433714036775e-03
2.22085227272727e+00 1.31063488344692e-01 1.65460024020751e-03
2.22964772727273e+00 1.30038454547764e-01 1.64490740188771e-03
2.23844318181818e+00 1.29021437434668e-01 1.63525862338623e-03
2.24723863636364e+00 1.28012374303345e-01 1.62565389343861e-03
2.25603409090909e+00 1.27011202950915e-01 1.61609319859148e-03
2.26482954545455e+00 1.26017861652284e-01 1.60657652172134e-03
2.27362500000000e+00 1.25032289173701e-01 1.59710384187877e-03
2.28242045454545e+00 1.24054424751818e-01 1.58767513460604e-03
2.29121590909091e+00 1.23084208106916e-01 1.57829037178268e-03
2.30001136363636e+00 1.22121579422404e-01 1.56894952193577e-03
2.30880681818182e+00 1.21166479357731e-01 1.55965255008715e-03
2.31760227272727e+00 1.20218849028314e-01 1.55039941805651e-03
2.32639772727273e+00 1.19278630018137e-01 1.54119008275643e-03
2.33519318181818e+00 1.18345764363997e-01 1.53202450271589e-03
2.34398863636364e+00 1.17420194552187e-01 1.52290262862348e-03
2.35278409090909e+00 1.16501863526535e-01 1.51382440965458e-03
2.36157954545455e+00 1.15590714669459e-01 1.50478979213390e-03
2.37037500000000e+00 1.14686691813733e-01 1.49579871938922e-03
2.37917045454545e+00 1.13789739223936e-01 1.48685113202956e-03
2.38796590909091e+00 1.12899801607938e-01 1.47794696780069e-03
2.39676136363636e+00 1.12016824098733e-01 1.46908616185689e-03
2.40555681818182e+00 1.11140752265656e-01 1.46026864661773e-03
2.41435227272727e+00 1.10271532096585e-01 1.45149435203397e-03
2.42314772727273e+00 1.09409110008896e-01 1.44276320404978e-03
2.43194318181818e+00 1.08553432835462e-01 1.43407513045902e-03
2.44073863636364e+00 1.07704447821598e-01 1.42543005240081e-03
2.44953409090909e+00 1.06862102632013e-01 1.41682789004026e-03
2.45832954545455e+00 1.06026345333995e-01 1.40826856136043e-03
2.46712500000000e+00 1.05197124407649e-01 1.39975198202595e-03
2.47592045454545e+00 1.04374388729425e-01 1.39127806562710e-03
2.48471590909091e+00 1.03558087582122e-01 1.38284672354517e-03
2.49351136363636e+00 1.02748170638747e-01 1.37445786519095e-03
2.50230681818182e+00 1.01944587972283e-01 1.36611139787159e-03
2.51110227272727e+00 1.01147290039883e-01 1.35780722702388e-03
2.51989772727273e+00 1.00356227692405e-01 1.34954525482682e-03
2.52869318181818e+00 9.95713521619548e-02 1.34132538546391e-03
2.53748863636364e+00 9.87926150590695e-02 1.33314751746905e-03
2.54628409090909e+00 9.80199683787404e-02 1.32501154883157e-03
2.55507954545455e+00 9.72533644854601e-02 1.31691737590460e-03
2.56387500000000e+00 9.64927561221506e-02 1.30886489327852e-03
2.57267045454545e+00 9.57380963955125e-02 1.30085399399550e-03
2.58146590909091e+00 9.49893387847453e-02 1.29288456942443e-03
2.59026136363636e+00 9.42464371271932e-02 1.28495650947092e-03
2.59905681818182e+00 9.35093456268621e-02 1.27706970245342e-03
2.60785227272727e+00 9.27780188403555e-02 1.26922403530899e-03
2.61664772727273e+00 9.20524116851932e-02 1.26141939234033e-03
2.62544318181818e+00 9.13324794287045e-02 1.25365565994833e-03
2.63423863636364e+00 9.06181776854374e-02 1.24593271973871e-03
2.64303409090909e+00 8.99094624223802e-02 1.23825045311330e-03
2.65182954545455e+00 8.92062899456490e-02 1.23060874028338e-03
2.66062500000000e+00 8.85086169082788e-02 1.22300746015228e-03
2.66942045454545e+00 8.78164002971784e-02 1.21544649050454e-03
2.67821590909091e+00 8.71295974407409e-02 1.20792570788996e-03
2.68701136363636e+00 8.64481659960600e-02 1.20044498780886e-03
2.69580681818182e+00 8.57720639563650e-02 1.19300420459735e-03
2.70460227272727e+00 8.51012496384923e-02 1.18560323160862e-03
2.71339772727273e+00 8.44356816901488e-02 1.17824194008149e-03
2.72219318181818e+00 8.37753190799995e-02 1.17092020339951e-03
2.73098863636364e+00 8.31201210952826e-02 1.16363789087879e-03
2.73978409090909e+00 8.24700473463418e-02 1.15639487190013e-03
2.74857954545455e+00 8.18250577547584e-02 1.14919101501704e-03
2.75737500000000e+00 8.11851125601591e-02 1.14202618784699e-03
2.76617045454545e+00 8.05501723085849e-02 1.13490025723860e-03
2.77496590909091e+00 7.99201978591412e-02 1.12781308916447e-03
