Energy (eV)          EEDF (eV^-(3/2))     First Anisotropy
5.72500000000000e-03 2.23334942495039e+01 3.61953831096990e-02
1.71750000000000e-02 2.04864588622843e+01 5.74906208063695e-02
2.86250000000000e-02 1.87921778843626e+01 7.00887505052091e-02
4.00750000000000e-02 1.72380181470830e+01 7.66515954751523e-02
5.15250000000000e-02 1.58123912761824e+01 7.99724533688577e-02
6.29750000000000e-02 1.45046672847017e+01 8.12265291913008e-02
7.44250000000000e-02 1.33050953119779e+01 8.10715898799892e-02
8.58750000000000e-02 1.22047309177184e+01 7.99271012813252e-02
9.73250000000000e-02 1.11953693890350e+01 7.80807713565453e-02
1.08775000000000e-01 1.02694845631528e+01 7.57389758346158e-02
1.20225000000000e-01 9.42017270963169e+00 7.30540935895469e-02
1.31675000000000e-01 8.64110105366826e+00 7.01407843532855e-02
1.43125000000000e-01 7.92646055664791e+00 6.70863711889637e-02
1.54575000000000e-01 7.27092260186257e+00 6.39578169165045e-02
1.66025000000000e-01 6.66959926242705e+00 6.08066055358284e-02
1.77475000000000e-01 6.11800685513723e+00 5.76722688749063e-02
1.88925000000000e-01 5.61203250851468e+00 5.45850006166921e-02
2.00375000000000e-01 5.14790349575690e+00 5.15676344242349e-02
2.11825000000000e-01 4.72215910392864e+00 4.86371662838042e-02
2.23275000000000e-01 4.33162482964097e+00 4.58059423009255e-02
2.34725000000000e-01 3.97338870881164e+00 4.30825959371123e-02
2.46175000000000e-01 3.64477960401303e+00 4.04727943449301e-02
2.57625000000000e-01 3.34334728751029e+00 3.79798371114771e-02
2.69075000000000e-01 3.06684417148160e+00 3.56051394588704e-02
2.80525000000000e-01 2.81320854919465e+00 3.33486240184044e-02
2.91975000000000e-01 2.58054922217926e+00 3.12090395963837e-02
3.03425000000000e-01 2.36713139877112e+00 2.91842211819796e-02
3.14875000000000e-01 2.17136375888081e+00 2.72713023503613e-02
3.26325000000000e-01 1.99178658853863e+00 2.54668888794067e-02
3.37775000000000e-01 1.82706089574194e+00 2.37672006149229e-02
3.49225000000000e-01 1.67595842644896e+00 2.21681872411187e-02
3.60675000000000e-01 1.53735250627464e+00 2.06656225366633e-02
3.72125000000000e-01 1.41020963960105e+00 1.92551808478645e-02
3.83575000000000e-01 1.29358180346209e+00 1.79324988353570e-02
3.95025000000000e-01 1.18659937874317e+00 1.66932250094703e-02
4.06475000000000e-01 1.08846466598812e+00 1.55330591325161e-02
4.17925000000000e-01 9.98445937465019e-01 1.44477832112450e-02
4.29375000000000e-01 9.15871981140894e-01 1.34332855126627e-02
4.40825000000000e-01 8.40127095883280e-01 1.24855787981627e-02
4.52275000000000e-01 7.70646500571017e-01 1.16008137743700e-02
4.63725000000000e-01 7.06912122882970e-01 1.07752885962379e-02
4.75175000000000e-01 6.48448736364380e-01 1.00054551225238e-02
4.86625000000000e-01 5.94820416967405e-01 9.28792251080221e-03
4.98075000000000e-01 5.45627292644551e-01 8.61945864466364e-03
5.09525000000000e-01 5.00502561758798e-01 7.99698980648130e-03
5.20975000000000e-01 4.59109758078597e-01 7.41759894250750e-03
5.32425000000000e-01 4.21140241964571e-01 6.87852281095989e-03
5.43875000000000e-01 3.86310899041302e-01 6.37714825645010e-03
5.55325000000000e-01 3.54362029194669e-01 5.91100781415979e-03
5.66775000000000e-01 3.25055410154342e-01 5.47777481340782e-03
5.78225000000000e-01 2.98172521222816e-01 5.07525812169976e-03
5.89675000000000e-01 2.73512913906452e-01 4.70139664619311e-03
6.01125000000000e-01 2.50892717299375e-01 4.35425368907152e-03
6.12575000000000e-01 2.30143267075842e-01 4.03201123602857e-03
6.24025000000000e-01 2.11109847868327e-01 3.73296424243899e-03
6.35475000000000e-01 1.93650539654073e-01 3.45551496944043e-03
6.46925000000000e-01 1.77635159548328e-01 3.19816741172141e-03
6.58375000000000e-01 1.62944291113915e-01 2.95952185002385e-03
6.69825000000000e-01 1.49468393949301e-01 2.73826955397707e-03
6.81275000000000e-01 1.37106986915944e-01 2.53318765467773e-03
6.92725000000000e-01 1.25767898914771e-01 2.34313420124034e-03
7.04175000000000e-01 1.15366581625292e-01 2.16704341121533e-03
7.15625000000000e-01 1.05825479082898e-01 2.00392112117830e-03
7.27075000000000e-01 9.70734493936821e-02 1.85284044082610e-03
7.38525000000000e-01 8.90452342748772e-02 1.71293761147792e-03
7.49975000000000e-01 8.16809724656165e-02 1.58340806789451e-03
7.61425000000000e-01 7.49257533798319e-02 1.46350270072586e-03
7.72875000000000e-01 6.87292076731645e-02 1.35252431561987e-03
7.84325000000000e-01 6.30451316710080e-02 1.24982428402062e-03
7.95775000000000e-01 5.78311428572843e-02 1.15479937991282e-03
8.07225000000000e-01 5.30483638551524e-02 1.06688879619086e-03
8.18675000000000e-01 4.86611325432967e-02 9.85571333916708e-04
8.30125000000000e-01 4.46367361463176e-02 9.10362757452189e-04
8.41575000000000e-01 4.09451673165064e-02 8.40813308286023e-04
8.53025000000000e-01 3.75589003882626e-02 7.76505370304430e-04
8.64475000000000e-01 3.44526861368263e-02 7.17051279258946e-04
8.75925000000000e-01 3.16033635109723e-02 6.62091269252722e-04
8.87375000000000e-01 2.89896869358779e-02 6.11291549184231e-04
8.98825000000000e-01 2.65921678984717e-02 5.64342502245074e-04
9.10275000000000e-01 2.43929296340673e-02 5.20957001757404e-04
9.21725000000000e-01 2.23755738307728e-02 4.80868836849225e-04
9.33175000000000e-01 2.05250583577764e-02 4.43831241696075e-04
9.44625000000000e-01 1.88275851058062e-02 4.09615522300181e-04
9.56075000000000e-01 1.72704971034625e-02 3.78009775028795e-04
9.67525000000000e-01 1.58421841422841e-02 3.48817691388334e-04
9.78975000000000e-01 1.45319962068562e-02 3.21857443767199e-04
9.90425000000000e-01 1.33301640644631e-02 2.96960647135378e-04
1.00187500000000e+00 1.22277264221737e-02 2.73971391940915e-04
1.01332500000000e+00 1.12164631082166e-02 2.52745343690736e-04
1.02477500000000e+00 1.02888337794213e-02 2.33148904944633e-04
1.03622500000000e+00 9.43792169770647e-03 2.15058435685608e-04
1.04767500000000e+00 8.65738215639132e-03 1.98359528256450e-04
1.05912500000000e+00 7.94139517177989e-03 1.82946333270793e-04
1.07057500000000e+00 7.28462208726811e-03 1.68720933116690e-04
1.08202500000000e+00 6.68216576639905e-03 1.55592759871603e-04
1.09347500000000e+00 6.12953407805136e-03 1.43478054639632e-04
1.10492500000000e+00 5.62260640149303e-03 1.32299365504688e-04
1.11637500000000e+00 5.15760290155051e-03 1.21985081467279e-04
1.12782500000000e+00 4.73105634479743e-03 1.12468999897742e-04
1.13927500000000e+00 4.33978624661451e-03 1.03689925195232e-04
1.15072500000000e+00 3.98087515635176e-03 9.55912964899136e-05
1.16217500000000e+00 3.65164690376658e-03 8.81208423657318e-05
1.17362500000000e+00 3.34964664453541e-03 8.12302607131905e-05
1.18507500000000e+00 3.07262255605109e-03 7.48749219460450e-05
1.19652500000000e+00 2.81850904702320e-03 6.90135939330014e-05
1.20797500000000e+00 2.58541135568606e-03 6.36081871057177e-05
1.21942500000000e+00 2.37159142177322e-03 5.86235183079653e-05
1.23087500000000e+00 2.17545492691464e-03 5.40270920480170e-05
1.24232500000000e+00 1.99553940682526e-03 4.97888979075076e-05
1.25377500000000e+00 1.83050334664495e-03 4.58812229454703e-05
1.26522500000000e+00 1.67911617812105e-03 4.22784780162871e-05
1.27667500000000e+00 1.54024910404859e-03 3.89570369951906e-05
1.28812500000000e+00 1.41286668155219e-03 3.58950879750126e-05
1.29957500000000e+00 1.29601910145135e-03 3.30724955633519e-05
1.31102500000000e+00 1.18883510614141e-03 3.04706734705092e-05
1.32247500000000e+00 1.09051549318335e-03 2.80724666356431e-05
1.33392500000000e+00 1.00032715616279e-03 2.58620421919035e-05
1.34537500000000e+00 9.17597618384773e-04 2.38247886210044e-05
1.35682500000000e+00 8.41710018645523e-04 2.19472224940440e-05
1.36827500000000e+00 7.72098511693351e-04 2.02169022385693e-05
1.37972500000000e+00 7.08244049082828e-04 1.86223484121085e-05
1.39117500000000e+00 6.49670508962799e-04 1.71529699998544e-05
1.40262500000000e+00 5.95941145940531e-04 1.57989962890441e-05
1.41407500000000e+00 5.46655334550902e-04 1.45514139050224e-05
1.42552500000000e+00 5.01445582048767e-04 1.34019086241432e-05
1.43697500000000e+00 4.59974788250809e-04 1.23428116067209e-05
1.44842500000000e+00 4.21933731995271e-04 1.13670497193162e-05
1.45987500000000e+00 3.87038765477694e-04 1.04680996398749e-05
1.47132500000000e+00 3.55029699270824e-04 9.63994546174029e-06
1.48277500000000e+00 3.25667862258609e-04 8.87703953347205e-06
1.49422500000000e+00 2.98734322018474e-04 8.17426629080488e-06
1.50567500000000e+00 2.74028252382395e-04 7.52690885510008e-06
1.51712500000000e+00 2.51365436004726e-04 6.93061818935777e-06
1.52857500000000e+00 2.30576890771373e-04 6.38138461836848e-06
1.54002500000000e+00 2.11507609808351e-04 5.87551153396855e-06
1.55147500000000e+00 1.94015405694749e-04 5.40959111970455e-06
1.56292500000000e+00 1.77969850262153e-04 4.98048194158099e-06
1.57437500000000e+00 1.63251302075288e-04 4.58528826303160e-06
1.58582500000000e+00 1.49750014342427e-04 4.22134095287994e-06
1.59727500000000e+00 1.37365316603816e-04 3.88617986490184e-06
1.60872500000000e+00 1.26004864096501e-04 3.57753757672381e-06
1.62017500000000e+00 1.15583949198546e-04 3.29332438424096e-06
1.63162500000000e+00 1.06024869818522e-04 3.03161445556305e-06
1.64307500000000e+00 9.72563500207516e-05 2.79063305574289e-06
1.65452500000000e+00 8.92130085662838e-05 2.56874476024953e-06
1.66597500000000e+00 8.18348714068503e-05 2.36444258135809e-06
1.67742500000000e+00 7.50669244967789e-05 2.17633793737526e-06
1.68887500000000e+00 6.88587035884731e-05 2.00315139993785e-06
1.70032500000000e+00 6.31639179528215e-05 1.84370415954232e-06
1.71177500000000e+00 5.79401052188651e-05 1.69691015401612e-06
1.72322500000000e+00 5.31483147590783e-05 1.56176880885245e-06
1.73467500000000e+00 4.87528172594747e-05 1.43735834222494e-06
1.74612500000000e+00 4.47208383089840e-05 1.32282959110071e-06
1.75757500000000e+00 4.10223140216501e-05 1.21740031820056e-06
1.76902500000000e+00 3.76296668694783e-05 1.12034996263462e-06
1.78047500000000e+00 3.45176000544631e-05 1.03101479988809e-06
1.79192500000000e+00 3.16629088865593e-05 9.48783479463209e-07
1.80337500000000e+00 2.90443077611628e-05 8.73092910915322e-07
1.81482500000000e+00 2.66422714459831e-05 8.03424471268748e-07
1.82627500000000e+00 2.44388894938850e-05 7.39300508874564e-07
1.83772500000000e+00 2.24177326961501e-05 6.80281120691557e-07
1.84917500000000e+00 2.05637305803845e-05 6.25961181744392e-07
1.86062500000000e+00 1.88630590396530e-05 5.75967607150630e-07
1.87207500000000e+00 1.73030372549639e-05 5.29956828621106e-07
1.88352500000000e+00 1.58720331425193e-05 4.87612468735262e-07
1.89497500000000e+00 1.45593766207120e-05 4.48643197583463e-07
1.90642500000000e+00 1.33552800501580e-05 4.12780757559853e-07
1.91787500000000e+00 1.22507652535351e-05 3.79778143189627e-07
1.92932500000000e+00 1.12375965710615e-05 3.49407923890497e-07
1.94077500000000e+00 1.03082194524536e-05 3.21460698505968e-07
1.95222500000000e+00 9.45570412748020e-06 2.95743671313967e-07
1.96367500000000e+00 8.67369393510185e-06 2.72079340013519e-07
1.97512500000000e+00 7.95635792591906e-06 2.50304286929919e-07
1.98657500000000e+00 7.29834738451510e-06 2.30268065359699e-07
1.99802500000000e+00 6.69475594750918e-06 2.11832173605051e-07
2.00947500000000e+00 6.14108301994552e-06 1.94869109827237e-07
2.02092500000000e+00 5.63320021723787e-06 1.79261501383590e-07
2.03237500000000e+00 5.16732058244839e-06 1.64901302806404e-07
2.04382500000000e+00 4.73997034937401e-06 1.51689057037547e-07
2.05527500000000e+00 4.34796304089561e-06 1.39533214952869e-07
2.06672500000000e+00 3.98837570945794e-06 1.28349508598146e-07
2.07817500000000e+00 3.65852714252087e-06 1.18060373915960e-07
2.08962500000000e+00 3.35595787047380e-06 1.08594419072747e-07
2.10107500000000e+00 3.07841182794527e-06 9.98859347995471e-08
2.11252500000000e+00 2.82381953176767e-06 9.18744434405808e-08
2.12397500000000e+00 2.59028265016604e-06 8.45042836625996e-08
2.13542500000000e+00 2.37605984811328e-06 7.77242280166021e-08
2.14687500000000e+00 2.17955380330954e-06 7.14871307636114e-08
2.15832500000000e+00 1.99929929597237e-06 6.57496035791387e-08
2.16977500000000e+00 1.83395228363074e-06 6.04717169380827e-08
2.18122500000000e+00 1.68227987946078e-06 5.56167251543368e-08
2.19267500000000e+00 1.54315115943790e-06 5.11508132084412e-08
2.20412500000000e+00 1.41552872976037e-06 4.70428636432545e-08
2.21557500000000e+00 1.29846099166777e-06 4.32642419428032e-08
2.22702500000000e+00 1.19107504597824e-06 3.97885989340838e-08
2.23847500000000e+00 1.09257018443804e-06 3.65916888664579e-08
2.24992500000000e+00 1.00221191935272e-06 3.36512019291595e-08
2.26137500000000e+00 9.19326506982512e-07 3.09466100650203e-08
2.27282500000000e+00 8.43295923866596e-07 2.84590250284620e-08
2.28427500000000e+00 7.73553258617771e-07 2.61710677186955e-08
2.29572500000000e+00 7.09578484827151e-07 2.40667478954602e-08
2.30717500000000e+00 6.50894583560130e-07 2.21313534550315e-08
2.31862500000000e+00 5.97063986531549e-07 2.03513485091002e-08
2.33007500000000e+00 5.47685313439105e-07 1.87142795689008e-08
2.34152500000000e+00 5.02390379127382e-07 1.72086891920490e-08
2.35297500000000e+00 4.60841448266839e-07 1.58240365002965e-08
2.36442500000000e+00 4.22728717077660e-07 1.45506240231736e-08
2.37587500000000e+00 3.87768003321291e-07 1.33795303655674e-08
2.38732500000000e+00 3.55698627335405e-07 1.23025482369756e-08
2.39877500000000e+00 3.26281468312537e-07 1.13121274167380e-08
2.41022500000000e+00 2.99297181329293e-07 1.04013222632328e-08
2.42167500000000e+00 2.74544561831670e-07 9.56374340605397e-09
2.43312500000000e+00 2.51839045381504e-07 8.79351328876722e-09
2.44457500000000e+00 2.31011331477595e-07 8.08522525617274e-09
2.45602500000000e+00 2.11906121190256e-07 7.43390590425080e-09
2.46747500000000e+00 1.94380959196603e-07 6.83498043330578e-09
2.47892500000000e+00 1.78305171582410e-07 6.28424076539486e-09
2.49037500000000e+00 1.63558891490377e-07 5.77781620607648e-09
2.50182500000000e+00 1.50032165349712e-07 5.31214644796344e-09
2.51327500000000e+00 1.37624133022739e-07 4.88395672963647e-09
2.52472500000000e+00 1.26242275755416e-07 4.49023497827446e-09
2.53617500000000e+00 1.15801726324215e-07 4.12821077798611e-09
2.54762500000000e+00 1.06224636235560e-07 3.79533601837871e-09
2.55907500000000e+00 9.74395952594495e-08 3.48926708945693e-09
2.57052500000000e+00 8.93810989690823e-08 3.20784849958636e-09
2.58197500000000e+00 8.19890603162795e-08 2.94909780305501e-09
2.59342500000000e+00 7.52083616008324e-08 2.71119173278924e-09
2.60487500000000e+00 6.89884434930944e-08 2.49245344208700e-09
2.61632500000000e+00 6.32829280454263e-08 2.29134076688053e-09
2.62777500000000e+00 5.80492728815293e-08 2.10643542708190e-09
2.63922500000000e+00 5.32484539851787e-08 1.93643309204867e-09
2.65067500000000e+00 4.88446747231158e-08 1.78013424117517e-09
2.66212500000000e+00 4.48050989324697e-08 1.63643575610978e-09
2.67357500000000e+00 4.10996060825101e-08 1.50432318615735e-09
2.68502500000000e+00 3.77005666851318e-08 1.38286363308224e-09
2.69647500000000e+00 3.45826362794489e-08 1.27119920581432e-09
2.70792500000000e+00 3.17225664543740e-08 1.16854099950618e-09
2.71937500000000e+00 2.90990315000997e-08 1.07416355702214e-09
2.73082500000000e+00 2.66924693959320e-08 9.87399774282885e-10
2.74227500000000e+00 2.44849359488244e-08 9.07636213967142e-10
2.75372500000000e+00 2.24599709950178e-08 8.34308794904512e-10
2.76517500000000e+00 2.06024756671361e-08 7.66898827100433e-10
2.77662500000000e+00 1.88985998115978e-08 7.04929364734199e-10
2.78807500000000e+00 1.73356387168869e-08 6.47961851679279e-10
2.79952500000000e+00 1.59019383826521e-08 5.95593036127913e-10
2.81097500000000e+00 1.45868086232864e-08 5.47452132772640e-10
2.82242500000000e+00 1.33804433580566e-08 5.03198212719030e-10
2.83387500000000e+00 1.22738474934364e-08 4.62517802888329e-10
2.84532500000000e+00 1.12587698524525e-08 4.25122678126786e-10
2.85677500000000e+00 1.03276416509395e-08 3.90747830580241e-10
2.86822500000000e+00 9.47352006196183e-09 3.59149602127373e-10
2.87967500000000e+00 8.69003644759782e-09 3.30103966801237e-10
2.89112500000000e+00 7.97134887208336e-09 3.03404951174348e-10
2.90257500000000e+00 7.31209854223680e-09 2.78863181644710e-10
2.91402500000000e+00 6.70736985036858e-09 2.56304548445481e-10
2.92547500000000e+00 6.15265372174144e-09 2.35568977015651e-10
2.93692500000000e+00 5.64381399328659e-09 2.16509298118646e-10
2.94837500000000e+00 5.17705657288348e-09 1.98990208785446e-10
2.95982500000000e+00 4.74890114924365e-09 1.82887316793408e-10
2.97127500000000e+00 4.35615524145736e-09 1.68086261975852e-10
2.98272500000000e+00 3.99589039470714e-09 1.54481908194615e-10
2.99417500000000e+00 3.66542034465488e-09 1.41977600302062e-10
3.00562500000000e+00 3.36228098768825e-09 1.30484480873734e-10
3.01707500000000e+00 3.08421200767747e-09 1.19920861911162e-10
3.02852500000000e+00 2.82914002224488e-09 1.10211647099254e-10
3.03997500000000e+00 2.59516312287985e-09 1.01287800556726e-10
3.05142500000000e+00 2.38053669362446e-09 9.30858583438213e-11
3.06287500000000e+00 2.18366040258922e-09 8.55474792911906e-11
3.07432500000000e+00 2.00306626930252e-09 7.86190319895036e-11
3.08577500000000e+00 1.83740771892005e-09 7.22512150329533e-11
3.09722500000000e+00 1.68544954167820e-09 6.63987078431033e-11
3.10867500000000e+00 1.54605868272553e-09 6.10198496141240e-11
3.12012500000000e+00 1.41819579365811e-09 5.60763441178733e-11
3.13157500000000e+00 1.30090748276377e-09 5.15329882888590e-11
3.14302500000000e+00 1.19331920619048e-09 4.73574226761555e-11
3.15447500000000e+00 1.09462874703263e-09 4.35199020029869e-11
3.16592500000000e+00 1.00410023371313e-09 3.99930842160114e-11
3.17737500000000e+00 9.21058653060117e-10 3.67518365363345e-11
3.18882500000000e+00 8.44884817165864e-10 3.37730571438407e-11
3.20027500000000e+00 7.75010746498903e-10 3.10355112364089e-11
3.21172500000000e+00 7.10915434844263e-10 2.85196803067223e-11
3.22317500000000e+00 6.52120964493650e-10 2.62076235724219e-11
3.23462500000000e+00 5.98188942719029e-10 2.40828505809166e-11
3.24607500000000e+00 5.48717232958694e-10 2.21302040888599e-11
3.25752500000000e+00 5.03336956342351e-10 2.03357523886854e-11
3.26897500000000e+00 4.61709741197528e-10 1.86866903211608e-11
3.28042500000000e+00 4.23525200028614e-10 1.71712482741419e-11
3.29187500000000e+00 3.88498615156006e-10 1.57786085240127e-11
3.30332500000000e+00 3.56368815758630e-10 1.44988283280805e-11
3.31477500000000e+00 3.26896230490323e-10 1.33227692238149e-11
3.32622500000000e+00 2.99861101149657e-10 1.22420320346160e-11
3.33767500000000e+00 2.75061844083720e-10 1.12488971220703e-11
3.34912500000000e+00 2.52313547107852e-10 1.03362694616920e-11
3.36057500000000e+00 2.31446590733864e-10 9.49762815320599e-12
3.37202500000000e+00 2.12305383426087e-10 8.72698000775209e-12
3.38347500000000e+00 1.94747201454901e-10 8.01881688319226e-12
3.39492500000000e+00 1.78641124697243e-10 7.36807646518838e-12
3.40637500000000e+00 1.63867060449063e-10 6.77010621607540e-12
3.41782500000000e+00 1.50314847970901e-10 6.22063023595008e-12
3.42927500000000e+00 1.37883437089777e-10 5.71571880099104e-12
3.44072500000000e+00 1.26480134732737e-10 5.25176036296251e-12
3.45217500000000e+00 1.16019913773947e-10 4.82543581126777e-12
3.46362500000000e+00 1.06424779041843e-10 4.43369481492988e-12
3.47507500000000e+00 9.76231857590686e-11 4.07373407660011e-12
3.48652500000000e+00 8.95495060788669e-11 3.74297734423157e-12
3.49797500000000e+00 8.21435397402414e-11 3.43905703850306e-12
3.50942500000000e+00 7.53500651931457e-11 3.15979736552298e-12
3.52087500000000e+00 6.91184278467352e-11 2.90319879486633e-12
3.53232500000000e+00 6.34021623705101e-11 2.66742379267307e-12
3.54377500000000e+00 5.81586462320903e-11 2.45078370843226e-12
3.55522500000000e+00 5.33487818882763e-11 2.25172672225556e-12
3.56667500000000e+00 4.89367052596986e-11 2.06882676696360e-12
3.57812500000000e+00 4.48895183153354e-11 1.90077334622311e-12
3.58957500000000e+00 4.11770437729555e-11 1.74636217632911e-12
3.60102500000000e+00 3.77716000864427e-11 1.60448658507100e-12
3.61247500000000e+00 3.46477950422267e-11 1.47412960649458e-12
