Energy (eV)          EEDF (eV^-(3/2))     First Anisotropy
3.65625000000000e-02 1.79814237550627e-01 1.67253793353030e-04
1.09687500000000e-01 1.75962646366254e-01 2.74147277865176e-04
1.82812500000000e-01 1.72193555627108e-01 3.56550826519599e-04
2.55937500000000e-01 1.68505198187296e-01 4.15987728187500e-04
3.29062500000000e-01 1.64895844752918e-01 4.63005264982041e-04
4.02187500000000e-01 1.61363803071260e-01 5.01683244684261e-04
4.75312500000000e-01 1.57907417137386e-01 5.34178716868017e-04
5.48437500000000e-01 1.54525066417708e-01 5.61821226451217e-04
6.21562500000000e-01 1.51215165090201e-01 5.85510066339986e-04
6.94687500000000e-01 1.47976161300886e-01 6.05892936274165e-04
7.67812500000000e-01 1.44806536436238e-01 6.23458008662402e-04
8.40937500000000e-01 1.41704804411181e-01 6.38586097953369e-04
9.14062500000000e-01 1.38669510972337e-01 6.51582381433971e-04
9.87187500000000e-01 1.35699233016195e-01 6.62696769465154e-04
1.06031250000000e+00 1.32792577921884e-01 6.72137571144424e-04
1.13343750000000e+00 1.29948182898242e-01 6.80080996716143e-04
1.20656250000000e+00 1.27164714344867e-01 6.86677966174364e-04
1.27968750000000e+00 1.24440867226858e-01 6.92059113618714e-04
1.35281250000000e+00 1.21775364462946e-01 6.96338547084846e-04
1.42593750000000e+00 1.19166956326729e-01 6.99616727849434e-04
1.49906250000000e+00 1.16614419860740e-01 7.01982712783584e-04
1.57218750000000e+00 1.14116558303056e-01 7.03515926865076e-04
1.64531250000000e+00 1.11672200526198e-01 7.04287583054010e-04
1.71843750000000e+00 1.09280200488043e-01 7.04361833360994e-04
1.79156250000000e+00 1.06939436694499e-01 7.03796712127410e-04
1.86468750000000e+00 1.04648811673695e-01 7.02644916642185e-04
1.93781250000000e+00 1.02407251461423e-01 7.00954458946859e-04
2.01093750000000e+00 1.00213705097612e-01 6.98769214557411e-04
2.08406250000000e+00 9.80671441335789e-02 6.96129387892644e-04
2.15718750000000e+00 9.59665621498445e-02 6.93071909798608e-04
2.23031250000000e+00 9.39109742842663e-02 6.89630779258298e-04
2.30343750000000e+00 9.18994167702862e-02 6.85837358872701e-04
2.37656250000000e+00 8.99309464850659e-02 6.81720631780496e-04
2.44968750000000e+00 8.80046405073023e-02 6.77307426198797e-04
2.52281250000000e+00 8.61195956845137e-02 6.72622612607762e-04
2.59593750000000e+00 8.42749282095950e-02 6.67689277688601e-04
2.66906250000000e+00 8.24697732064427e-02 6.62528878399468e-04
2.74218750000000e+00 8.07032843244564e-02 6.57161378994316e-04
2.81531250000000e+00 7.89746333417253e-02 6.51605373322771e-04
2.88843750000000e+00 7.72830097767147e-02 6.45878194370882e-04
2.96156250000000e+00 7.56276205082701e-02 6.39996012694065e-04
3.03468750000000e+00 7.40076894037609e-02 6.33973925140484e-04
3.10781250000000e+00 7.24224569551887e-02 6.27826035054374e-04
3.18093750000000e+00 7.08711799230908e-02 6.21565524975603e-04
3.25406250000000e+00 6.93531309880707e-02 6.15204722707866e-04
3.32718750000000e+00 6.78675984097927e-02 6.08755161506775e-04
3.40031250000000e+00 6.64138856932813e-02 6.02227635037733e-04
3.47343750000000e+00 6.49913112623682e-02 5.95632247667864e-04
3.54656250000000e+00 6.35992081401334e-02 5.88978460583241e-04
3.61968750000000e+00 6.22369236361922e-02 5.82275134160914e-04
3.69281250000000e+00 6.09038190406800e-02 5.75530566972270e-04
3.76593750000000e+00 5.95992693247913e-02 5.68752531748853e-04
3.83906250000000e+00 5.83226628477345e-02 5.61948308602736e-04
3.91218750000000e+00 5.70734010699623e-02 5.55124715759758e-04
3.98531250000000e+00 5.58508982725451e-02 5.48288138034755e-04
4.05843750000000e+00 5.46545812825562e-02 5.41444553252580e-04
4.13156250000000e+00 5.34838892043378e-02 5.34599556796504e-04
4.20468750000000e+00 5.23382731565242e-02 5.27758384446266e-04
4.27781250000000e+00 5.12171960146977e-02 5.20925933651145e-04
4.35093750000000e+00 5.01201321595566e-02 5.14106783368610e-04
4.42406250000000e+00 4.90465672304776e-02 5.07305212585887e-04
4.49718750000000e+00 4.79959978843567e-02 5.00525217630168e-04
4.57031250000000e+00 4.69679315596160e-02 4.93770528363190e-04
4.64343750000000e+00 4.59618862452647e-02 4.87044623346622e-04
4.71656250000000e+00 4.49773902549080e-02 4.80350744056636e-04
4.78968750000000e+00 4.40139820055951e-02 4.73691908218962e-04
4.86281250000000e+00 4.30712098014059e-02 4.67070922329239e-04
4.93593750000000e+00 4.21486316216719e-02 4.60490393417708e-04
5.00906250000000e+00 4.12458149137342e-02 4.53952740112228e-04
5.08218750000000e+00 4.03623363901400e-02 4.47460203048878e-04
5.15531250000000e+00 3.94977818301840e-02 4.41014854675342e-04
5.22843750000000e+00 3.86517458856996e-02 4.34618608488509e-04
5.30156250000000e+00 3.78238318910106e-02 4.28273227744262e-04
5.37468750000000e+00 3.70136516769542e-02 4.21980333674498e-04
5.44781250000000e+00 3.62208253888865e-02 4.15741413243581e-04
5.52093750000000e+00 3.54449813085874e-02 4.09557826473933e-04
5.59406250000000e+00 3.46857556799794e-02 4.03430813368169e-04
5.66718750000000e+00 3.39427925385798e-02 3.97361500453161e-04
5.74031250000000e+00 3.32157435446064e-02 3.91350906969480e-04
5.81343750000000e+00 3.25042678196572e-02 3.85399950727984e-04
5.88656250000000e+00 3.18080317868893e-02 3.79509453653659e-04
5.95968750000000e+00 3.11267090146205e-02 3.73680147035482e-04
6.03281250000000e+00 3.04599800632809e-02 3.67912676499717e-04
6.10593750000000e+00 2.98075323356436e-02 3.62207606722816e-04
6.17906250000000e+00 2.91690599302625e-02 3.56565425899023e-04
6.25218750000000e+00 2.85442634980496e-02 3.50986549976737e-04
6.32531250000000e+00 2.79328501019248e-02 3.45471326676761e-04
6.39843750000000e+00 2.73345330794721e-02 3.40020039304699e-04
6.47156250000000e+00 2.67490319085364e-02 3.34632910368930e-04
6.54468750000000e+00 2.61760720757012e-02 3.29310105014909e-04
6.61781250000000e+00 2.56153849475817e-02 3.24051734285810e-04
6.69093750000000e+00 2.50667076448756e-02 3.18857858218921e-04
6.76406250000000e+00 2.45297829191118e-02 3.13728488786621e-04
6.83718750000000e+00 2.40043590320390e-02 3.08663592690184e-04
6.91031250000000e+00 2.34901896375974e-02 3.03663094014220e-04
6.98343750000000e+00 2.29870336664188e-02 2.98726876749011e-04
7.05656250000000e+00 2.24946552128014e-02 2.93854787187679e-04
7.12968750000000e+00 2.20128234241041e-02 2.89046636204583e-04
7.20281250000000e+00 2.15413123925112e-02 2.84302201421048e-04
7.27593750000000e+00 2.10799010491150e-02 2.79621229264207e-04
7.34906250000000e+00 2.06283730602674e-02 2.75003436924323e-04
7.42218750000000e+00 2.01865167261508e-02 2.70448514215660e-04
7.49531250000000e+00 1.97541248815230e-02 2.65956125345806e-04
7.56843750000000e+00 1.93309947985867e-02 2.61525910597941e-04
7.64156250000000e+00 1.89169280919407e-02 2.57157487930324e-04
7.71468750000000e+00 1.85117306255661e-02 2.52850454497126e-04
7.78781250000000e+00 1.81152124218052e-02 2.48604388094396e-04
7.86093750000000e+00 1.77271875722906e-02 2.44418848534825e-04
7.93406250000000e+00 1.73474741507811e-02 2.40293378954749e-04
8.00718750000000e+00 1.69758941278655e-02 2.36227507056643e-04
8.08031250000000e+00 1.66122732874931e-02 2.32220746290196e-04
8.15343750000000e+00 1.62564411452922e-02 2.28272596974912e-04
8.22656250000000e+00 1.59082308686381e-02 2.24382547367004e-04
8.29968750000000e+00 1.55674791984332e-02 2.20550074673204e-04
8.37281250000000e+00 1.52340263725628e-02 2.16774646014023e-04
8.44593750000000e+00 1.49077160509902e-02 2.13055719338828e-04
8.51906250000000e+00 1.45883952424564e-02 2.09392744294970e-04
8.59218750000000e+00 1.42759142327499e-02 2.05785163053122e-04
8.66531250000000e+00 1.39701265145127e-02 2.02232411090887e-04
8.73843750000000e+00 1.36708887185502e-02 1.98733917936584e-04
8.81156250000000e+00 1.33780605466121e-02 1.95289107875060e-04
8.88468750000000e+00 1.30915047056137e-02 1.91897400617310e-04
8.95781250000000e+00 1.28110868432650e-02 1.88558211935542e-04
9.03093750000000e+00 1.25366754850800e-02 1.85270954265288e-04
9.10406250000000e+00 1.22681419727345e-02 1.82035037276087e-04
9.17718750000000e+00 1.20053604037443e-02 1.78849868412165e-04
9.25031250000000e+00 1.17482075724353e-02 1.75714853404490e-04
9.32343750000000e+00 1.14965629121787e-02 1.72629396755520e-04
9.39656250000000e+00 1.12503084388630e-02 1.69592902197882e-04
9.46968750000000e+00 1.10093286955768e-02 1.66604773128177e-04
9.54281250000000e+00 1.07735106984764e-02 1.63664413017053e-04
9.61593750000000e+00 1.05427438838136e-02 1.60771225796606e-04
9.68906250000000e+00 1.03169200560972e-02 1.57924616226167e-04
9.76218750000000e+00 1.00959333373656e-02 1.55123990237459e-04
9.83531250000000e+00 9.87968011754548e-03 1.52368755260037e-04
9.90843750000000e+00 9.66805900587426e-03 1.49658320527944e-04
9.98156250000000e+00 9.46097078336262e-03 1.46992097368427e-04
1.00546875000000e+01 9.25831835627558e-03 1.44369499473521e-04
1.01278125000000e+01 9.06000671060987e-03 1.41789943155299e-04
1.02009375000000e+01 8.86594286754646e-03 1.39252847585530e-04
1.02740625000000e+01 8.67603583985720e-03 1.36757635020468e-04
1.03471875000000e+01 8.49019658924530e-03 1.34303731011431e-04
1.04203125000000e+01 8.30833798459953e-03 1.31890564601840e-04
1.04934375000000e+01 8.13037476114265e-03 1.29517568511343e-04
1.05665625000000e+01 7.95622348045481e-03 1.27184179307618e-04
1.06396875000000e+01 7.78580249135330e-03 1.24889837566409e-04
1.07128125000000e+01 7.61903189161022e-03 1.22633988020366e-04
1.07859375000000e+01 7.45583349049015e-03 1.20416079697192e-04
1.08590625000000e+01 7.29613077209028e-03 1.18235566047593e-04
1.09321875000000e+01 7.13984885946576e-03 1.16091905063525e-04
1.10053125000000e+01 6.98691447952349e-03 1.13984559387174e-04
1.10784375000000e+01 6.83725592866790e-03 1.11912996411115e-04
1.11515625000000e+01 6.69080303918255e-03 1.09876688370071e-04
1.12246875000000e+01 6.54748714633187e-03 1.07875112424667e-04
1.12978125000000e+01 6.40724105616755e-03 1.05907750737547e-04
1.13709375000000e+01 6.26999901402452e-03 1.03974090542248e-04
1.14440625000000e+01 6.13569667369175e-03 1.02073624205151e-04
1.15171875000000e+01 6.00427106724339e-03 1.00205849280865e-04
1.15903125000000e+01 5.87566057551614e-03 9.83702685613554e-05
1.16634375000000e+01 5.74980489921894e-03 9.65663901191195e-05
1.17365625000000e+01 5.62664503066159e-03 9.47937273447101e-05
1.18096875000000e+01 5.50612322608884e-03 9.30517989788860e-05
1.18828125000000e+01 5.38818297860709e-03 9.13401291396478e-05
1.19559375000000e+01 5.27276899169106e-03 8.96582473444327e-05
1.20290625000000e+01 5.15982715325788e-03 8.80056885276994e-05
1.21021875000000e+01 5.04930451029652e-03 8.63819930541468e-05
1.21753125000000e+01 4.94114924404068e-03 8.47867067277925e-05
1.22484375000000e+01 4.83531064567346e-03 8.32193807971177e-05
1.23215625000000e+01 4.73173909255242e-03 8.16795719564928e-05
1.23946875000000e+01 4.63038602494389e-03 8.01668423440830e-05
1.24678125000000e+01 4.53120392325565e-03 7.86807595364107e-05
1.25409375000000e+01 4.43414628575729e-03 7.72208965397688e-05
1.26140625000000e+01 4.33916760677775e-03 7.57868317786507e-05
1.26871875000000e+01 4.24622335536991e-03 7.43781490813623e-05
1.27603125000000e+01 4.15526995443216e-03 7.29944376629780e-05
1.28334375000000e+01 4.06626476027720e-03 7.16352921057876e-05
1.29065625000000e+01 3.97916604263843e-03 7.03003123373840e-05
1.29796875000000e+01 3.89393296510467e-03 6.89891036065241e-05
1.30528125000000e+01 3.81052556597387e-03 6.77012764568998e-05
1.31259375000000e+01 3.72890473951705e-03 6.64364466989440e-05
1.31990625000000e+01 3.64903221764346e-03 6.51942353797954e-05
1.32721875000000e+01 3.57087055195851e-03 6.39742687515313e-05
1.33453125000000e+01 3.49438309620602e-03 6.27761782377844e-05
1.34184375000000e+01 3.41953398908654e-03 6.15996003988523e-05
1.34915625000000e+01 3.34628813744374e-03 6.04441768953931e-05
1.35646875000000e+01 3.27461119981086e-03 5.93095544508048e-05
1.36378125000000e+01 3.20446957030968e-03 5.81953848123875e-05
1.37109375000000e+01 3.13583036289433e-03 5.71013247113720e-05
1.37840625000000e+01 3.06866139593258e-03 5.60270358218959e-05
1.38571875000000e+01 3.00293117711744e-03 5.49721847190135e-05
1.39303125000000e+01 2.93860888870192e-03 5.39364428358103e-05
1.40034375000000e+01 2.87566437305008e-03 5.29194864197008e-05
1.40765625000000e+01 2.81406811849752e-03 5.19209964879793e-05
1.41496875000000e+01 2.75379124551481e-03 5.09406587826844e-05
1.42228125000000e+01 2.69480549316728e-03 4.99781637248425e-05
1.42959375000000e+01 2.63708320586478e-03 4.90332063681578e-05
1.43690625000000e+01 2.58059732039531e-03 4.81054863522000e-05
1.44421875000000e+01 2.52532135323641e-03 4.71947078551431e-05
1.45153125000000e+01 2.47122938813828e-03 4.63005795461136e-05
1.45884375000000e+01 2.41829606397289e-03 4.54228145371953e-05
1.46615625000000e+01 2.36649656284336e-03 4.45611303351368e-05
1.47346875000000e+01 2.31580659844809e-03 4.37152487928089e-05
1.48078125000000e+01 2.26620240469400e-03 4.28848960604537e-05
1.48809375000000e+01 2.21766072455381e-03 4.20698025367663e-05
1.49540625000000e+01 2.17015879916188e-03 4.12697028198492e-05
1.50271875000000e+01 2.12367435714375e-03 4.04843356580765e-05
1.51003125000000e+01 2.07818560417407e-03 3.97134439008990e-05
1.51734375000000e+01 2.03367121275836e-03 3.89567744496286e-05
1.52465625000000e+01 1.99011031223351e-03 3.82140782082306e-05
1.53196875000000e+01 1.94748247898258e-03 3.74851100341546e-05
1.53928125000000e+01 1.90576772685912e-03 3.67696286892316e-05
1.54659375000000e+01 1.86494649781660e-03 3.60673967906657e-05
1.55390625000000e+01 1.82499965273865e-03 3.53781807621448e-05
1.56121875000000e+01 1.78590846246557e-03 3.47017507850924e-05
1.56853125000000e+01 1.74765459901316e-03 3.40378807500872e-05
1.57584375000000e+01 1.71022012697963e-03 3.33863482084677e-05
1.58315625000000e+01 1.67358749513650e-03 3.27469343241452e-05
1.59046875000000e+01 1.63773952819971e-03 3.21194238256445e-05
1.59778125000000e+01 1.60265941877693e-03 3.15036049583842e-05
1.60509375000000e+01 1.56833071948740e-03 3.08992694372222e-05
1.61240625000000e+01 1.53473733525053e-03 3.03062123992755e-05
1.61971875000000e+01 1.50186351573969e-03 2.97242323570310e-05
1.62703125000000e+01 1.46969384799763e-03 2.91531311517629e-05
1.63434375000000e+01 1.43821324921010e-03 2.85927139072677e-05
1.64165625000000e+01 1.40740695963422e-03 2.80427889839295e-05
1.64896875000000e+01 1.37726053567838e-03 2.75031679331274e-05
1.65628125000000e+01 1.34775984313029e-03 2.69736654519943e-05
1.66359375000000e+01 1.31889105053016e-03 2.64540993385372e-05
1.67090625000000e+01 1.29064062268576e-03 2.59442904471302e-05
1.67821875000000e+01 1.26299531432646e-03 2.54440626443849e-05
1.68553125000000e+01 1.23594216389311e-03 2.49532427654076e-05
1.69284375000000e+01 1.20946848746102e-03 2.44716605704514e-05
1.70015625000000e+01 1.18356187279308e-03 2.39991487019683e-05
1.70746875000000e+01 1.15821017352021e-03 2.35355426420676e-05
1.71478125000000e+01 1.13340150344657e-03 2.30806806703865e-05
1.72209375000000e+01 1.10912423097666e-03 2.26344038223756e-05
1.72940625000000e+01 1.08536697366182e-03 2.21965558480057e-05
1.73671875000000e+01 1.06211859286357e-03 2.17669831709009e-05
1.74403125000000e+01 1.03936818853122e-03 2.13455348478980e-05
1.75134375000000e+01 1.01710509409134e-03 2.09320625290346e-05
1.75865625000000e+01 9.95318871446759e-04 2.05264204179762e-05
1.76596875000000e+01 9.73999306082607e-04 2.01284652328747e-05
1.77328125000000e+01 9.53136402277233e-04 1.97380561676637e-05
1.78059375000000e+01 9.32720378415688e-04 1.93550548537966e-05
1.78790625000000e+01 9.12741662403596e-04 1.89793253224210e-05
1.79521875000000e+01 8.93190887179256e-04 1.86107339669951e-05
1.80253125000000e+01 8.74058886321879e-04 1.82491495063454e-05
1.80984375000000e+01 8.55336689753887e-04 1.78944429481656e-05
1.81715625000000e+01 8.37015519535282e-04 1.75464875529556e-05
1.82446875000000e+01 8.19086785748085e-04 1.72051587984034e-05
1.83178125000000e+01 8.01542082468937e-04 1.68703343442050e-05
1.83909375000000e+01 7.84373183827966e-04 1.65418939973252e-05
1.84640625000000e+01 7.67572040152069e-04 1.62197196776958e-05
1.85371875000000e+01 7.51130774190808e-04 1.59036953843517e-05
1.86103125000000e+01 7.35041677423146e-04 1.55937071620020e-05
1.86834375000000e+01 7.19297206443288e-04 1.52896430680346e-05
1.87565625000000e+01 7.03889979423942e-04 1.49913931399533e-05
1.88296875000000e+01 6.88812772655333e-04 1.46988493632447e-05
1.89028125000000e+01 6.74058517158356e-04 1.44119056396734e-05
1.89759375000000e+01 6.59620295370264e-04 1.41304577560026e-05
1.90490625000000e+01 6.45491337901361e-04 1.38544033531373e-05
1.91221875000000e+01 6.31665020361155e-04 1.35836418956880e-05
1.91953125000000e+01 6.18134860252502e-04 1.33180746419526e-05
1.92684375000000e+01 6.04894513932273e-04 1.30576046143134e-05
1.93415625000000e+01 5.91937773637125e-04 1.28021365700461e-05
1.94146875000000e+01 5.79258564572975e-04 1.25515769725365e-05
1.94878125000000e+01 5.66850942066825e-04 1.23058339629047e-05
1.95609375000000e+01 5.54709088779588e-04 1.20648173320315e-05
1.96340625000000e+01 5.42827311978616e-04 1.18284384929837e-05
1.97071875000000e+01 5.31200040868652e-04 1.15966104538363e-05
1.97803125000000e+01 5.19821823979950e-04 1.13692477908858e-05
1.98534375000000e+01 5.08687326612343e-04 1.11462666222542e-05
1.99265625000000e+01 4.97791328334059e-04 1.09275845818776e-05
1.99996875000000e+01 4.87128720534109e-04 1.07131207938763e-05
2.00728125000000e+01 4.76694504027105e-04 1.05027958473048e-05
2.01459375000000e+01 4.66483786709382e-04 1.02965317712747e-05
2.02190625000000e+01 4.56491781265327e-04 1.00942520104487e-05
2.02921875000000e+01 4.46713802922831e-04 9.89588140090224e-06
2.03653125000000e+01 4.37145267256830e-04 9.70134614634806e-06
2.04384375000000e+01 4.27781688039886e-04 9.51057379472026e-06
2.05115625000000e+01 4.18618675138808e-04 9.32349321511335e-06
2.05846875000000e+01 4.09651932456331e-04 9.14003457507384e-06
2.06578125000000e+01 4.00877255916884e-04 8.96012931823911e-06
2.07309375000000e+01 3.92290531495494e-04 8.78371014232011e-06
2.08040625000000e+01 3.83887733288927e-04 8.61071097742418e-06
2.08771875000000e+01 3.75664921628124e-04 8.44106696471375e-06
2.09503125000000e+01 3.67618241231090e-04 8.27471443539752e-06
2.10234375000000e+01 3.59743919395326e-04 8.11159089004905e-06
2.10965625000000e+01 3.52038264229001e-04 7.95163497825042e-06
2.11696875000000e+01 3.44497662919993e-04 7.79478647855596e-06
2.12428125000000e+01 3.37118580042016e-04 7.64098627877194e-06
2.13159375000000e+01 3.29897555897031e-04 7.49017635654923e-06
2.13890625000000e+01 3.22831204893160e-04 7.34229976028430e-06
2.14621875000000e+01 3.15916213957337e-04 7.19730059032502e-06
2.15353125000000e+01 3.09149340981977e-04 7.05512398047691e-06
2.16084375000000e+01 3.02527413304901e-04 6.91571607980688e-06
2.16815625000000e+01 2.96047326221827e-04 6.77902403473949e-06
2.17546875000000e+01 2.89706041530727e-04 6.64499597144255e-06
2.18278125000000e+01 2.83500586107355e-04 6.51358097849856e-06
2.19009375000000e+01 2.77428050511294e-04 6.38472908985703e-06
2.19740625000000e+01 2.71485587621861e-04 6.25839126806488e-06
2.20471875000000e+01 2.65670411303224e-04 6.13451938777127e-06
2.21203125000000e+01 2.59979795098121e-04 6.01306621950243e-06
2.21934375000000e+01 2.54411070949551e-04 5.89398541370293e-06
2.22665625000000e+01 2.48961627949853e-04 5.77723148504033e-06
2.23396875000000e+01 2.43628911116576e-04 5.66275979696878e-06
2.24128125000000e+01 2.38410420194569e-04 5.55052654654830e-06
2.24859375000000e+01 2.33303708483733e-04 5.44048874951631e-06
2.25590625000000e+01 2.28306381691880e-04 5.33260422560756e-06
2.26321875000000e+01 2.23416096812163e-04 5.22683158411878e-06
2.27053125000000e+01 2.18630561024554e-04 5.12313020971485e-06
2.27784375000000e+01 2.13947530620852e-04 5.02146024847331e-06
2.28515625000000e+01 2.09364809952710e-04 4.92178259416272e-06
2.29246875000000e+01 2.04880250402210e-04 4.82405887475237e-06
2.29978125000000e+01 2.00491749374469e-04 4.72825143914987e-06
2.30709375000000e+01 1.96197249311842e-04 4.63432334416268e-06
