Energy (eV)          EEDF (eV^-(3/2))     First Anisotropy
4.89130434782609e-02 6.71427878482455e-02 5.22260562627472e-05
1.46739130434783e-01 6.61440781535080e-02 8.58874145025785e-05
2.44565217391304e-01 6.51602236812633e-02 1.12450716816288e-04
3.42391304347826e-01 6.41910034689215e-02 1.32073743897518e-04
4.40217391304348e-01 6.32361998403446e-02 1.47984792863179e-04
5.38043478260870e-01 6.22955983572598e-02 1.61419480540386e-04
6.35869565217391e-01 6.13689877710515e-02 1.73024705493497e-04
7.33695652173913e-01 6.04561599753077e-02 1.83195529317748e-04
8.31521739130435e-01 5.95569099590798e-02 1.92196857698055e-04
9.29347826086957e-01 5.86710357608379e-02 2.00217943193443e-04
1.02717391304348e+00 5.77983384231126e-02 2.07400359108732e-04
1.12500000000000e+00 5.69386219452661e-02 2.13853786687932e-04
1.22282608695652e+00 5.60916932524221e-02 2.19665577527674e-04
1.32065217391304e+00 5.52573621264037e-02 2.24906867798913e-04
1.41847826086957e+00 5.44354411859400e-02 2.29636661945486e-04
1.51630434782609e+00 5.36257458425783e-02 2.33904664049747e-04
1.61413043478261e+00 5.28280942421859e-02 2.37753294736923e-04
1.71195652173913e+00 5.20423072412850e-02 2.41219167226643e-04
1.80978260869565e+00 5.12682083610569e-02 2.44334192887423e-04
1.90760869565217e+00 5.05056237518808e-02 2.47126423973624e-04
2.00543478260870e+00 4.97543821415007e-02 2.49620705781760e-04
2.10326086956522e+00 4.90143148095336e-02 2.51839189286551e-04
2.20108695652174e+00 4.82852555486583e-02 2.53801742554681e-04
2.29891304347826e+00 4.75670406168394e-02 2.55526280193595e-04
2.39673913043478e+00 4.68595087110752e-02 2.57029031895268e-04
2.49456521739130e+00 4.61625009305450e-02 2.58324766003017e-04
2.59239130434783e+00 4.54758607321905e-02 2.59426973040475e-04
2.69021739130435e+00 4.47994339043444e-02 2.60348019353826e-04
2.78804347826087e+00 4.41330685315730e-02 2.61099278957289e-04
2.88586956521739e+00 4.34766149531986e-02 2.61691243561488e-04
2.98369565217391e+00 4.28299257371306e-02 2.62133616827825e-04
3.08152173913044e+00 4.21928556442366e-02 2.62435396407418e-04
3.17934782608696e+00 4.15652615977509e-02 2.62604944855996e-04
3.27717391304348e+00 4.09470026450059e-02 2.62650050563120e-04
3.37500000000000e+00 4.03379399319726e-02 2.62577980739382e-04
3.47282608695652e+00 3.97379366717583e-02 2.62395529702257e-04
3.57065217391304e+00 3.91468581085484e-02 2.62109059780950e-04
3.66847826086957e+00 3.85645714927205e-02 2.61724537482665e-04
3.76630434782609e+00 3.79909460507684e-02 2.61247567244425e-04
3.86413043478261e+00 3.74258529512600e-02 2.60683420000643e-04
3.96195652173913e+00 3.68691652806188e-02 2.60037058868599e-04
4.05978260869565e+00 3.63207580130346e-02 2.59313162912822e-04
4.15760869565217e+00 3.57805079837010e-02 2.58516148485308e-04
4.25543478260870e+00 3.52482938571461e-02 2.57650187920620e-04
4.35326086956522e+00 3.47239961040363e-02 2.56719226278633e-04
4.45108695652174e+00 3.42074969741425e-02 2.55726997887876e-04
4.54891304347826e+00 3.36986804663325e-02 2.54677040114212e-04
4.64673913043478e+00 3.31974323061105e-02 2.53572705898509e-04
4.74456521739130e+00 3.27036399198005e-02 2.52417176460616e-04
4.84239130434783e+00 3.22171924060783e-02 2.51213471749789e-04
4.94021739130435e+00 3.17379805142755e-02 2.49964460020654e-04
5.03804347826087e+00 3.12658966197028e-02 2.48672867789532e-04
5.13586956521739e+00 3.08008346966305e-02 2.47341287907161e-04
5.23369565217391e+00 3.03426902973552e-02 2.45972187111878e-04
5.33152173913043e+00 2.98913605277707e-02 2.44567913521188e-04
5.42934782608696e+00 2.94467440250860e-02 2.43130703528727e-04
5.52717391304348e+00 2.90087409325552e-02 2.41662687787399e-04
5.62500000000000e+00 2.85772528795809e-02 2.40165896640873e-04
5.72282608695652e+00 2.81521829595197e-02 2.38642266152009e-04
5.82065217391304e+00 2.77334357056511e-02 2.37093642780750e-04
5.91847826086957e+00 2.73209170720231e-02 2.35521787739485e-04
6.01630434782609e+00 2.69145344122403e-02 2.33928381968145e-04
6.11413043478261e+00 2.65141964566031e-02 2.32315029913050e-04
6.21195652173913e+00 2.61198132936828e-02 2.30683263147856e-04
6.30978260869565e+00 2.57312963494309e-02 2.29034544170617e-04
6.40760869565217e+00 2.53485583678865e-02 2.27370269933119e-04
6.50543478260870e+00 2.49715133897563e-02 2.25691774824840e-04
6.60326086956522e+00 2.46000767349523e-02 2.24000333381094e-04
6.70108695652174e+00 2.42341649835020e-02 2.22297163608174e-04
6.79891304347826e+00 2.38736959551507e-02 2.20583429365281e-04
6.89673913043478e+00 2.35185886925819e-02 2.18860242606210e-04
6.99456521739130e+00 2.31687634431744e-02 2.17128666219892e-04
7.09239130434783e+00 2.28241416395703e-02 2.15389716012364e-04
7.19021739130435e+00 2.24846458835633e-02 2.13644362576651e-04
7.28804347826087e+00 2.21501999286584e-02 2.11893533738898e-04
7.38586956521739e+00 2.18207286615586e-02 2.10138116218127e-04
7.48369565217391e+00 2.14961580866995e-02 2.08378957263536e-04
7.58152173913044e+00 2.11764153091563e-02 2.06616866508190e-04
7.67934782608696e+00 2.08614285186852e-02 2.04852617701844e-04
7.77717391304348e+00 2.05511269723479e-02 2.03086950106593e-04
7.87500000000000e+00 2.02454409798833e-02 2.01320569750053e-04
7.97282608695652e+00 1.99443018880106e-02 1.99554151201148e-04
8.07065217391304e+00 1.96476420638644e-02 1.97788338691547e-04
8.16847826086957e+00 1.93553948809618e-02 1.96023747180943e-04
8.26630434782609e+00 1.90674947041977e-02 1.94260963919134e-04
8.36413043478261e+00 1.87838768740501e-02 1.92500549402022e-04
8.46195652173913e+00 1.85044776931225e-02 1.90743038335658e-04
8.55978260869565e+00 1.82292344114799e-02 1.88988940800118e-04
8.65760869565217e+00 1.79580852128695e-02 1.87238743338701e-04
8.75543478260870e+00 1.76909691998860e-02 1.85492909794254e-04
8.85326086956522e+00 1.74278263812561e-02 1.83751882049789e-04
8.95108695652174e+00 1.71685976583313e-02 1.82016081210886e-04
9.04891304347826e+00 1.69132248109373e-02 1.80285908273450e-04
9.14673913043478e+00 1.66616504851840e-02 1.78561744761181e-04
9.24456521739130e+00 1.64138181805551e-02 1.76843953781374e-04
9.34239130434783e+00 1.61696722364071e-02 1.75132880601003e-04
9.44021739130435e+00 1.59291578202871e-02 1.73428853197312e-04
9.53804347826087e+00 1.56922209155906e-02 1.71732183203956e-04
9.63586956521739e+00 1.54588083086796e-02 1.70043166408982e-04
9.73369565217391e+00 1.52288675776893e-02 1.68362083273307e-04
9.83152173913044e+00 1.50023470804991e-02 1.66689199614742e-04
9.92934782608696e+00 1.47791959433596e-02 1.65024767247416e-04
1.00271739130435e+01 1.45593640487854e-02 1.63369024596389e-04
1.01250000000000e+01 1.43428020241311e-02 1.61722196306540e-04
1.02228260869565e+01 1.41294612347412e-02 1.60084495275323e-04
1.03206521739130e+01 1.39192937645160e-02 1.58456122637144e-04
1.04184782608696e+01 1.37122524122026e-02 1.56837267002762e-04
1.05163043478261e+01 1.35082906786383e-02 1.55228106240368e-04
1.06141304347826e+01 1.33073627563055e-02 1.53628807490674e-04
1.07119565217391e+01 1.31094235190474e-02 1.52039527574766e-04
1.08097826086957e+01 1.29144285119333e-02 1.50460413387724e-04
1.09076086956522e+01 1.27223339412730e-02 1.48891601948176e-04
1.10054347826087e+01 1.25330966664913e-02 1.47333221757008e-04
1.11032608695652e+01 1.23466741852460e-02 1.45785392479227e-04
1.12010869565217e+01 1.21630246291403e-02 1.44248224594100e-04
1.12989130434783e+01 1.19821067525448e-02 1.42721820757102e-04
1.13967391304348e+01 1.18038799233319e-02 1.41206275761654e-04
1.14945652173913e+01 1.16283041137554e-02 1.39701676839958e-04
1.15923913043478e+01 1.14553398914580e-02 1.38208103667522e-04
1.16902173913043e+01 1.12849484120630e-02 1.36725629510241e-04
1.17880434782609e+01 1.11170914060544e-02 1.35254320910711e-04
1.18858695652174e+01 1.09517311746320e-02 1.33794237348426e-04
1.19836956521739e+01 1.07888305797426e-02 1.32345432394674e-04
1.20815217391304e+01 1.06283530357393e-02 1.30907953648593e-04
1.21793478260870e+01 1.04702625011638e-02 1.29481842968987e-04
1.22771739130435e+01 1.03145234706550e-02 1.28067136698711e-04
1.23750000000000e+01 1.01611009669728e-02 1.26663865635190e-04
1.24728260869565e+01 1.00099605343463e-02 1.25272055984534e-04
1.25706521739130e+01 9.86106822708146e-03 1.23891729062072e-04
1.26684782608696e+01 9.71439060563556e-03 1.22522900971652e-04
1.27663043478261e+01 9.56989472785945e-03 1.21165583570178e-04
1.28641304347826e+01 9.42754814159777e-03 1.19819784385947e-04
1.29619565217391e+01 9.28731887740239e-03 1.18485506792713e-04
1.30597826086957e+01 9.14917544135234e-03 1.17162750178349e-04
1.31576086956522e+01 9.01308680798006e-03 1.15851509895432e-04
1.32554347826087e+01 8.87902241430830e-03 1.14551778059831e-04
1.33532608695652e+01 8.74695214993550e-03 1.13263543271195e-04
1.34510869565217e+01 8.61684635336061e-03 1.11986790315973e-04
1.35489130434783e+01 8.48867580427986e-03 1.10721500977479e-04
1.36467391304348e+01 8.36241171702292e-03 1.09467653946016e-04
1.37445652173913e+01 8.23802573409062e-03 1.08225224950272e-04
1.38423913043478e+01 8.11548991978484e-03 1.06994186699064e-04
1.39402173913043e+01 7.99477675479374e-03 1.05774509566603e-04
1.40380434782609e+01 7.87585912740277e-03 1.04566161333024e-04
1.41358695652174e+01 7.75871033004537e-03 1.03369106910053e-04
1.42336956521739e+01 7.64330405241423e-03 1.02183309037949e-04
1.43315217391304e+01 7.52961437555196e-03 1.01008728194354e-04
1.44293478260870e+01 7.41761576603002e-03 9.98453226968262e-05
1.45271739130435e+01 7.30728307021524e-03 9.86930488023324e-05
1.46250000000000e+01 7.19859150861991e-03 9.75518606430533e-05
1.47228260869565e+01 7.09151667105839e-03 9.64217108049785e-05
1.48206521739130e+01 6.98603450897387e-03 9.53025500912470e-05
1.49184782608696e+01 6.88212133225431e-03 9.41943272730581e-05
1.50163043478261e+01 6.77975380316412e-03 9.30969896796058e-05
1.51141304347826e+01 6.67890893110217e-03 9.20104831077934e-05
1.52119565217391e+01 6.57956406743924e-03 9.09347518998856e-05
1.53097826086957e+01 6.48169690043141e-03 8.98697390188733e-05
1.54076086956522e+01 6.38528545020877e-03 8.88153859823503e-05
1.55054347826087e+01 6.29030806444713e-03 8.77716333527554e-05
1.56032608695652e+01 6.19674341165947e-03 8.67384205230419e-05
1.57010869565217e+01 6.10457047827254e-03 8.57156854918937e-05
1.57989130434783e+01 6.01376856327759e-03 8.47033653646856e-05
1.58967391304348e+01 5.92431727358048e-03 8.37013962664619e-05
1.59945652173913e+01 5.83619651942300e-03 8.27097134006368e-05
1.60923913043478e+01 5.74938650987026e-03 8.17282509839383e-05
1.61902173913043e+01 5.66386774888975e-03 8.07569426709225e-05
1.62880434782609e+01 5.57962102938284e-03 7.97957213585639e-05
1.63858695652174e+01 5.49662743047956e-03 7.88445189818289e-05
1.64836956521739e+01 5.41486831274673e-03 7.79032669482585e-05
1.65815217391304e+01 5.33432531400156e-03 7.69718960555018e-05
1.66793478260870e+01 5.25498034518773e-03 7.60503365368569e-05
1.67771739130435e+01 5.17681558631333e-03 7.51385181054659e-05
1.68750000000000e+01 5.09981348244835e-03 7.42363698912114e-05
1.69728260869565e+01 5.02395674022537e-03 7.33438208022718e-05
1.70706521739130e+01 4.94922832261024e-03 7.24607993496179e-05
1.71684782608696e+01 4.87561144643682e-03 7.15872334638476e-05
1.72663043478261e+01 4.80308957817870e-03 7.07230508659776e-05
1.73641304347826e+01 4.73164643023559e-03 6.98681789902184e-05
1.74619565217391e+01 4.66126595727584e-03 6.90225450180203e-05
1.75597826086957e+01 4.59193235263280e-03 6.81860759110980e-05
1.76576086956522e+01 4.52363004475468e-03 6.73586983513384e-05
1.77554347826087e+01 4.45634369408338e-03 6.65403390493982e-05
1.78532608695652e+01 4.39005818846838e-03 6.57309245875272e-05
1.79510869565217e+01 4.32475864092690e-03 6.49303812558755e-05
1.80489130434783e+01 4.26043038591128e-03 6.41386353694847e-05
1.81467391304348e+01 4.19705897601486e-03 6.33556131966709e-05
1.82445652173913e+01 4.13463017872802e-03 6.25812409842084e-05
1.83423913043478e+01 4.07312997324136e-03 6.18154449007295e-05
1.84402173913043e+01 4.01254454762248e-03 6.10581513054571e-05
1.85380434782609e+01 3.95286029472565e-03 6.03092866059143e-05
1.86358695652174e+01 3.89406381013551e-03 5.95687771099598e-05
1.87336956521739e+01 3.83614188881945e-03 5.88365493022170e-05
1.88315217391304e+01 3.77908152216189e-03 5.81125297777487e-05
1.89293478260870e+01 3.72286989504260e-03 5.73966452609929e-05
1.90271739130435e+01 3.66749438295897e-03 5.66888226240899e-05
1.91250000000000e+01 3.61294254919041e-03 5.59889888341055e-05
1.92228260869565e+01 3.55920214228247e-03 5.52970711831614e-05
1.93206521739130e+01 3.50626109245415e-03 5.46129971614558e-05
1.94184782608696e+01 3.45410750973792e-03 5.39366943254305e-05
1.95163043478261e+01 3.40272968102254e-03 5.32680905348391e-05
1.96141304347826e+01 3.35211606742221e-03 5.26071138919536e-05
1.97119565217391e+01 3.30225530168536e-03 5.19536927550569e-05
1.98097826086957e+01 3.25313618564170e-03 5.13077557514818e-05
1.99076086956522e+01 3.20474768768711e-03 5.06692317287557e-05
2.00054347826087e+01 3.15707894054244e-03 5.00380499519640e-05
2.01032608695652e+01 3.11011923809581e-03 4.94141399905879e-05
2.02010869565217e+01 3.06385803372331e-03 4.87974316011762e-05
2.02989130434783e+01 3.01828493767586e-03 4.81878549309290e-05
2.03967391304348e+01 2.97338971474558e-03 4.75853404622347e-05
2.04945652173913e+01 2.92916228196748e-03 4.69898190219602e-05
2.05923913043478e+01 2.88559270635477e-03 4.64012217362360e-05
2.06902173913043e+01 2.84267120287357e-03 4.58194802029773e-05
2.07880434782609e+01 2.80038813162161e-03 4.52445263897535e-05
2.08858695652174e+01 2.75873399629398e-03 4.46762925280168e-05
2.09836956521739e+01 2.71769944183774e-03 4.41147112912682e-05
2.10815217391304e+01 2.67727525235079e-03 4.35597157442115e-05
2.11793478260870e+01 2.63745234901209e-03 4.30112393490817e-05
2.12771739130435e+01 2.59822178804286e-03 4.24692159717039e-05
2.13750000000000e+01 2.55957475869776e-03 4.19335798400446e-05
2.14728260869565e+01 2.52150258146187e-03 4.14042656925082e-05
2.15706521739130e+01 2.48399670556818e-03 4.08812086870691e-05
2.16684782608696e+01 2.44704870761636e-03 4.03643443072727e-05
2.17663043478261e+01 2.41065028949923e-03 3.98536085155697e-05
2.18641304347826e+01 2.37479327653898e-03 3.93489377071993e-05
2.19619565217391e+01 2.33946961565136e-03 3.88502687139725e-05
2.20597826086957e+01 2.30467137353709e-03 3.83575388078554e-05
2.21576086956522e+01 2.27039073490001e-03 3.78706856631187e-05
2.22554347826087e+01 2.23662000084239e-03 3.73896474839460e-05
2.23532608695652e+01 2.20335158667939e-03 3.69143629236391e-05
2.24510869565217e+01 2.17057802069716e-03 3.64447710011194e-05
2.25489130434783e+01 2.13829194231921e-03 3.59808112330263e-05
2.26467391304348e+01 2.10648610045318e-03 3.55224235919919e-05
2.27445652173913e+01 2.07515335186256e-03 3.50695485084822e-05
2.28423913043478e+01 2.04428665956229e-03 3.46221268360646e-05
2.29402173913043e+01 2.01387909136968e-03 3.41800999632527e-05
2.30380434782609e+01 1.98392381794908e-03 3.37434097406931e-05
2.31358695652174e+01 1.95441411168099e-03 3.33119984059820e-05
2.32336956521739e+01 1.92534334501529e-03 3.28858086995697e-05
2.33315217391304e+01 1.89670498898275e-03 3.24647838267067e-05
2.34293478260870e+01 1.86849261172867e-03 3.20488674579352e-05
2.35271739130435e+01 1.84069987706850e-03 3.16380037294752e-05
2.36250000000000e+01 1.81332054306468e-03 3.12321372116711e-05
2.37228260869565e+01 1.78634846073753e-03 3.08312130053909e-05
2.38206521739130e+01 1.75977757234237e-03 3.04351766773382e-05
2.39184782608696e+01 1.73360191035471e-03 3.00439741933161e-05
2.40163043478261e+01 1.70781559601348e-03 2.96575520182348e-05
2.41141304347826e+01 1.68241283800065e-03 2.92758570817943e-05
2.42119565217391e+01 1.65738793114070e-03 2.88988367778572e-05
2.43097826086957e+01 1.63273525511923e-03 2.85264389637522e-05
2.44076086956522e+01 1.60844927322077e-03 2.81586119316771e-05
2.45054347826087e+01 1.58452453118197e-03 2.77953044918472e-05
2.46032608695652e+01 1.56095565567317e-03 2.74364659150400e-05
2.47010869565217e+01 1.53773735338837e-03 2.70820458733758e-05
2.47989130434783e+01 1.51486440975640e-03 2.67319945266714e-05
2.48967391304348e+01 1.49233168776970e-03 2.63862624915372e-05
2.49945652173913e+01 1.47013412683074e-03 2.60448008399338e-05
2.50923913043478e+01 1.44826674161542e-03 2.57075610730529e-05
2.51902173913043e+01 1.42672462103812e-03 2.53744951943420e-05
2.52880434782609e+01 1.40550292689178e-03 2.50455556577620e-05
2.53858695652174e+01 1.38459689302109e-03 2.47206953144869e-05
2.54836956521739e+01 1.36400182416449e-03 2.43998674888189e-05
2.55815217391304e+01 1.34371309489968e-03 2.40830259500924e-05
2.56793478260870e+01 1.32372614860476e-03 2.37701249106763e-05
2.57771739130435e+01 1.30403649643498e-03 2.34611190239523e-05
2.58750000000000e+01 1.28463971631446e-03 2.31559633607152e-05
2.59728260869565e+01 1.26553145201607e-03 2.28546134722363e-05
2.60706521739130e+01 1.24670741196183e-03 2.25570253443281e-05
2.61684782608696e+01 1.22816336848275e-03 2.22631553500592e-05
2.62663043478261e+01 1.20989515679389e-03 2.19729603153855e-05
2.63641304347826e+01 1.19189867405903e-03 2.16863974938981e-05
2.64619565217391e+01 1.17416987846923e-03 2.14034245644164e-05
2.65597826086957e+01 1.15670478833512e-03 2.11239996285673e-05
2.66576086956522e+01 1.13949948119261e-03 2.08480811894925e-05
2.67554347826087e+01 1.12255009298474e-03 2.05756282063454e-05
2.68532608695652e+01 1.10585281700344e-03 2.03066000535131e-05
2.69510869565217e+01 1.08940390322714e-03 2.00409564786724e-05
2.70489130434783e+01 1.07319965741360e-03 1.97786576595628e-05
2.71467391304348e+01 1.05723644027025e-03 1.95196641813129e-05
2.72445652173913e+01 1.04151066663688e-03 1.92639370337666e-05
2.73423913043478e+01 1.02601880468045e-03 1.90114375920911e-05
2.74402173913043e+01 1.01075737515694e-03 1.87621276647111e-05
2.75380434782609e+01 9.95722950462906e-04 1.85159694565955e-05
2.76358695652174e+01 9.80912154034557e-04 1.82729255315124e-05
2.77336956521739e+01 9.66321659532514e-04 1.80329588620140e-05
2.78315217391304e+01 9.51948190094728e-04 1.77960328088599e-05
2.79293478260870e+01 9.37788517600540e-04 1.75621111181816e-05
2.80271739130435e+01 9.23839461945716e-04 1.73311579186586e-05
2.81250000000000e+01 9.10097890328203e-04 1.71031377040562e-05
2.82228260869565e+01 8.96560716592059e-04 1.68780153746843e-05
2.83206521739130e+01 8.83224900390225e-04 1.66557562048150e-05
2.84184782608696e+01 8.70087446647391e-04 1.64363258092053e-05
2.85163043478261e+01 8.57145404838234e-04 1.62196901863738e-05
2.86141304347826e+01 8.44395868324743e-04 1.60058157001498e-05
2.87119565217391e+01 8.31835973703453e-04 1.57946690767675e-05
2.88097826086957e+01 8.19462900162352e-04 1.55862174019720e-05
2.89076086956522e+01 8.07273868847354e-04 1.53804281053129e-05
2.90054347826087e+01 7.95266142279215e-04 1.51772689960197e-05
2.91032608695652e+01 7.83437023614327e-04 1.49767082340854e-05
2.92010869565217e+01 7.71783856164802e-04 1.47787143005739e-05
2.92989130434783e+01 7.60304022759426e-04 1.45832560351092e-05
2.93967391304348e+01 7.48994945155842e-04 1.43903026193387e-05
2.94945652173913e+01 7.37854083461565e-04 1.41998235740217e-05
2.95923913043478e+01 7.26878935563516e-04 1.40117887447513e-05
2.96902173913043e+01 7.16067036602148e-04 1.38261683335458e-05
2.97880434782609e+01 7.05415958308489e-04 1.36429328728167e-05
2.98858695652174e+01 6.94923308569353e-04 1.34620531986511e-05
2.99836956521739e+01 6.84586730852832e-04 1.32835004838548e-05
3.00815217391304e+01 6.74403903679038e-04 1.31072462229627e-05
3.01793478260870e+01 6.64372540098732e-04 1.29332622293520e-05
3.02771739130435e+01 6.54490387179714e-04 1.27615206323741e-05
3.03750000000000e+01 6.44755225500827e-04 1.25919938645275e-05
3.04728260869565e+01 6.35164868684679e-04 1.24246546888156e-05
3.05706521739130e+01 6.25717162812064e-04 1.22594761756459e-05
3.06684782608696e+01 6.16409986033791e-04 1.20964316791333e-05
3.07663043478261e+01 6.07241248061926e-04 1.19354948657434e-05
3.08641304347826e+01 5.98208889700332e-04 1.17766397008726e-05
