Energy (eV)          EEDF (eV^-(3/2))     First Anisotropy
2.53703703703704e-02 5.03662600736016e-02 2.57178574307292e-05
7.61111111111111e-02 5.00450168097742e-02 4.24748526211612e-05
1.26851851851852e-01 4.97258224826702e-02 5.60911206667944e-05
1.77592592592593e-01 4.94086640222289e-02 6.64473882783572e-05
2.28333333333333e-01 4.90935284437016e-02 7.50944867333259e-05
2.79074074074074e-01 4.87804028449411e-02 8.26183366123459e-05
3.29814814814815e-01 4.84692744071967e-02 8.93219421381024e-05
3.80555555555556e-01 4.81601303912008e-02 9.53881546759180e-05
4.31296296296296e-01 4.78529581400767e-02 1.00938163022445e-04
4.82037037037037e-01 4.75477450776501e-02 1.06057563743918e-04
5.32777777777778e-01 4.72444787085804e-02 1.10809677788382e-04
5.83518518518519e-01 4.69431466159595e-02 1.15243030581304e-04
6.34259259259259e-01 4.66437364627118e-02 1.19395860611467e-04
6.85000000000000e-01 4.63462359904453e-02 1.23298989644706e-04
7.35740740740741e-01 4.60506330193793e-02 1.26977731302823e-04
7.86481481481481e-01 4.57569154465515e-02 1.30453206244057e-04
8.37222222222222e-01 4.54650712466289e-02 1.33743275988432e-04
8.87962962962963e-01 4.51750884709785e-02 1.36863223178781e-04
9.38703703703704e-01 4.48869552474977e-02 1.39826257929907e-04
9.89444444444444e-01 4.46006597791542e-02 1.42643901649811e-04
1.04018518518519e+00 4.43161903458319e-02 1.45326284028199e-04
1.09092592592593e+00 4.40335352970371e-02 1.47882373757593e-04
1.14166666666667e+00 4.37526830631277e-02 1.50320162799580e-04
1.19240740740741e+00 4.34736221454653e-02 1.52646815171103e-04
1.24314814814815e+00 4.31963411187545e-02 1.54868785522779e-04
1.29388888888889e+00 4.29208286305751e-02 1.56991917608088e-04
1.34462962962963e+00 4.26470734009164e-02 1.59021525364655e-04
1.39537037037037e+00 4.23750642217153e-02 1.60962460466519e-04
1.44611111111111e+00 4.21047899563895e-02 1.62819169020974e-04
1.49685185185185e+00 4.18362395393975e-02 1.64595739487107e-04
1.54759259259259e+00 4.15694019757764e-02 1.66295943433720e-04
1.59833333333333e+00 4.13042663406918e-02 1.67923270406570e-04
1.64907407407407e+00 4.10408217789903e-02 1.69480957924448e-04
1.69981481481481e+00 4.07790575047548e-02 1.70972017660998e-04
1.75055555555556e+00 4.05189627993656e-02 1.72399257237986e-04
1.80129629629630e+00 4.02605270156202e-02 1.73765300394397e-04
1.85203703703704e+00 4.00037395726682e-02 1.75072604722575e-04
1.90277777777778e+00 3.97485899571461e-02 1.76323476076884e-04
1.95351851851852e+00 3.94950677227471e-02 1.77520082226239e-04
2.00425925925926e+00 3.92431624897928e-02 1.78664464728543e-04
2.05500000000000e+00 3.89928639448085e-02 1.79758549491468e-04
2.10574074074074e+00 3.87441618400993e-02 1.80804156193915e-04
2.15648148148148e+00 3.84970459933322e-02 1.81803006716678e-04
2.20722222222222e+00 3.82515062871205e-02 1.82756732709519e-04
2.25796296296296e+00 3.80075326686084e-02 1.83666882400263e-04
2.30870370370370e+00 3.77651151490585e-02 1.84534926737617e-04
2.35944444444444e+00 3.75242438034437e-02 1.85362264947321e-04
2.41018518518519e+00 3.72849087700400e-02 1.86150229757433e-04
2.46092592592593e+00 3.70471002490547e-02 1.86900091406185e-04
2.51166666666667e+00 3.68108085051652e-02 1.87613062193396e-04
2.56240740740741e+00 3.65760238641442e-02 1.88290300667127e-04
2.61314814814815e+00 3.63427367134685e-02 1.88932914519613e-04
2.66388888888889e+00 3.61109375019252e-02 1.89541963968233e-04
2.71462962962963e+00 3.58806167392204e-02 1.90118464678932e-04
2.76537037037037e+00 3.56517649955913e-02 1.90663390454265e-04
2.81611111111111e+00 3.54243729014176e-02 1.91177675707790e-04
2.86685185185185e+00 3.51984311468420e-02 1.91662217747169e-04
2.91759259259259e+00 3.49739304813868e-02 1.92117878884185e-04
2.96833333333333e+00 3.47508617135755e-02 1.92545488385954e-04
3.01907407407407e+00 3.45292157105563e-02 1.92945844283350e-04
3.06981481481481e+00 3.43089833977279e-02 1.93319715202835e-04
3.12055555555556e+00 3.40901557576662e-02 1.93667841460930e-04
3.17129629629630e+00 3.38727238318832e-02 1.93990936827512e-04
3.22203703703704e+00 3.36566787183094e-02 1.94289690190729e-04
3.27277777777778e+00 3.34420115716542e-02 1.94564766343246e-04
3.32351851851852e+00 3.32287136030440e-02 1.94816807318782e-04
3.37425925925926e+00 3.30167760796615e-02 1.95046433492739e-04
3.42500000000000e+00 3.28061903243890e-02 1.95254244612440e-04
3.47574074074074e+00 3.25969477154522e-02 1.95440820762250e-04
3.52648148148148e+00 3.23890396860679e-02 1.95606723268756e-04
3.57722222222222e+00 3.21824577240937e-02 1.95752495551077e-04
3.62796296296296e+00 3.19771933716788e-02 1.95878663919970e-04
3.67870370370370e+00 3.17732382249181e-02 1.95985738329338e-04
3.72944444444444e+00 3.15705839335078e-02 1.96074213084073e-04
3.78018518518518e+00 3.13692222004035e-02 1.96144567633835e-04
3.83092592592593e+00 3.11691447809587e-02 1.96197266819665e-04
3.88166666666667e+00 3.09703434841675e-02 1.96232761725253e-04
3.93240740740741e+00 3.07728101707339e-02 1.96251490496634e-04
3.98314814814815e+00 3.05765367532758e-02 1.96253878482833e-04
4.03388888888889e+00 3.03815151959938e-02 1.96240338869477e-04
4.08462962962963e+00 3.01877375143417e-02 1.96211273154836e-04
4.13537037037037e+00 2.99951957747002e-02 1.96167071601180e-04
4.18611111111111e+00 2.98038820940512e-02 1.96108113662540e-04
4.23685185185185e+00 2.96137886396563e-02 1.96034768391041e-04
4.28759259259259e+00 2.94249076287353e-02 1.95947394823229e-04
4.33833333333333e+00 2.92372313281480e-02 1.95846342346849e-04
4.38907407407407e+00 2.90507520540772e-02 1.95731951049893e-04
4.43981481481481e+00 2.88654621717142e-02 1.95604552160519e-04
4.49055555555555e+00 2.86813540945367e-02 1.95464468038272e-04
4.54129629629630e+00 2.84984202852374e-02 1.95312012693968e-04
4.59203703703704e+00 2.83166532541653e-02 1.95147492296824e-04
4.64277777777778e+00 2.81360455594397e-02 1.94971205117282e-04
4.69351851851852e+00 2.79565898066452e-02 1.94783441900276e-04
4.74425925925926e+00 2.77782786485292e-02 1.94584486115514e-04
4.79500000000000e+00 2.76011047847010e-02 1.94374614196736e-04
4.84574074074074e+00 2.74250609613325e-02 1.94154095770419e-04
4.89648148148148e+00 2.72501399708617e-02 1.93923193874523e-04
4.94722222222222e+00 2.70763346516978e-02 1.93682165168182e-04
4.99796296296296e+00 2.69036378879276e-02 1.93431260132455e-04
5.04870370370370e+00 2.67320426090242e-02 1.93170723262580e-04
5.09944444444444e+00 2.65615417895577e-02 1.92900793252332e-04
5.15018518518518e+00 2.63921284489073e-02 1.92621703262331e-04
5.20092592592593e+00 2.62237956506529e-02 1.92333680813792e-04
5.25166666666667e+00 2.60565365032669e-02 1.92036948136535e-04
5.30240740740741e+00 2.58903441588488e-02 1.91731722511922e-04
5.35314814814815e+00 2.57252118131745e-02 1.91418216141924e-04
5.40388888888889e+00 2.55611327054188e-02 1.91096636388036e-04
5.45462962962963e+00 2.53981001178775e-02 1.90767185910315e-04
5.50537037037037e+00 2.52361073756934e-02 1.90430062801271e-04
5.55611111111111e+00 2.50751478465818e-02 1.90085460714434e-04
5.60685185185185e+00 2.49152149405603e-02 1.89733568988314e-04
5.65759259259259e+00 2.47563021096782e-02 1.89374572766011e-04
5.70833333333333e+00 2.45984028477487e-02 1.89008653110222e-04
5.75907407407407e+00 2.44415106900825e-02 1.88635987114165e-04
5.80981481481481e+00 2.42856192132227e-02 1.88256748087782e-04
5.86055555555556e+00 2.41307220344189e-02 1.87871105421780e-04
5.91129629629630e+00 2.39768128121620e-02 1.87479224847566e-04
5.96203703703704e+00 2.38238852451222e-02 1.87081268694988e-04
6.01277777777778e+00 2.36719330721605e-02 1.86677395741395e-04
6.06351851851852e+00 2.35209500720725e-02 1.86267761383097e-04
6.11425925925926e+00 2.33709300633331e-02 1.85852517722003e-04
6.16500000000000e+00 2.32218669038444e-02 1.85431813649421e-04
6.21574074074074e+00 2.30737544906832e-02 1.85005794927041e-04
6.26648148148148e+00 2.29265867598520e-02 1.84574604265183e-04
6.31722222222222e+00 2.27803576860301e-02 1.84138381398716e-04
6.36796296296296e+00 2.26350612823275e-02 1.83697263160414e-04
6.41870370370370e+00 2.24906916000393e-02 1.83251383551949e-04
6.46944444444444e+00 2.23472427284022e-02 1.82800873812670e-04
6.52018518518519e+00 2.22047087943529e-02 1.82345862554586e-04
6.57092592592593e+00 2.20630839620724e-02 1.81886475620568e-04
6.62166666666667e+00 2.19223624333961e-02 1.81422836285201e-04
6.67240740740741e+00 2.17825384469230e-02 1.80955065454875e-04
6.72314814814815e+00 2.16436062779993e-02 1.80483281516306e-04
6.77388888888889e+00 2.15055602384835e-02 1.80007600464070e-04
6.82462962962963e+00 2.13683946765143e-02 1.79528135955965e-04
6.87537037037037e+00 2.12321039762786e-02 1.79044999366759e-04
6.92611111111111e+00 2.10966825577816e-02 1.78558299840186e-04
6.97685185185185e+00 2.09621248766187e-02 1.78068144339578e-04
7.02759259259259e+00 2.08284254237484e-02 1.77574637697123e-04
7.07833333333333e+00 2.06955787252665e-02 1.77077882661527e-04
7.12907407407407e+00 2.05635793421825e-02 1.76577979944408e-04
7.17981481481481e+00 2.04324218701961e-02 1.76075028325393e-04
7.23055555555556e+00 2.03021009392971e-02 1.75569124514872e-04
7.28129629629630e+00 2.01726112140879e-02 1.75060363317888e-04
7.33203703703704e+00 2.00439473930183e-02 1.74548837797932e-04
7.38277777777778e+00 1.99161042083524e-02 1.74034639132756e-04
7.43351851851852e+00 1.97890764259526e-02 1.73517856715423e-04
7.48425925925926e+00 1.96628588450654e-02 1.72998578192463e-04
7.53500000000000e+00 1.95374462981085e-02 1.72476889500981e-04
7.58574074074074e+00 1.94128336504591e-02 1.71952874904775e-04
7.63648148148148e+00 1.92890158002437e-02 1.71426617029487e-04
7.68722222222222e+00 1.91659876781296e-02 1.70898196896903e-04
7.73796296296296e+00 1.90437442471168e-02 1.70367693958319e-04
7.78870370370370e+00 1.89222805023321e-02 1.69835186127054e-04
7.83944444444444e+00 1.88015914708240e-02 1.69300749810108e-04
7.89018518518519e+00 1.86816722113595e-02 1.68764459991356e-04
7.94092592592593e+00 1.85625178140717e-02 1.68226390103762e-04
7.99166666666667e+00 1.84441234007107e-02 1.67686612164453e-04
8.04240740740741e+00 1.83264841239893e-02 1.67145196910020e-04
8.09314814814815e+00 1.82095951675367e-02 1.66602213663585e-04
8.14388888888889e+00 1.80934517457020e-02 1.66057730415904e-04
8.19462962962963e+00 1.79780491033577e-02 1.65511813851907e-04
8.24537037037037e+00 1.78633825157052e-02 1.64964529376627e-04
8.29611111111111e+00 1.77494472880812e-02 1.64415941140382e-04
8.34685185185185e+00 1.76362387557658e-02 1.63866112063425e-04
8.39759259259259e+00 1.75237522837914e-02 1.63315103860098e-04
8.44833333333333e+00 1.74119832667529e-02 1.62762977062287e-04
8.49907407407407e+00 1.73009271286191e-02 1.62209791042358e-04
8.54981481481481e+00 1.71905793225454e-02 1.61655604081873e-04
8.60055555555556e+00 1.70809353305606e-02 1.61100473253828e-04
8.65129629629630e+00 1.69719906637654e-02 1.60544454537529e-04
8.70203703703704e+00 1.68637408617629e-02 1.59987602933878e-04
8.75277777777778e+00 1.67561814926049e-02 1.59429972343560e-04
8.80351851851852e+00 1.66493081526111e-02 1.58871615634646e-04
8.85425925925926e+00 1.65431164661885e-02 1.58312584662089e-04
8.90500000000000e+00 1.64376020856520e-02 1.57752930286788e-04
8.95574074074074e+00 1.63327606910469e-02 1.57192702394200e-04
9.00648148148148e+00 1.62285879899718e-02 1.56631949912539e-04
9.05722222222222e+00 1.61250797174027e-02 1.56070720830625e-04
9.10796296296296e+00 1.60222316355187e-02 1.55509062215287e-04
9.15870370370370e+00 1.59200395335282e-02 1.54947020228414e-04
9.20944444444444e+00 1.58184992274969e-02 1.54384640143619e-04
9.26018518518518e+00 1.57176065601759e-02 1.53821966403165e-04
9.31092592592593e+00 1.56173574007248e-02 1.53259042511360e-04
9.36166666666667e+00 1.55177476448662e-02 1.52695911132243e-04
9.41240740740741e+00 1.54187732143916e-02 1.52132614187760e-04
9.46314814814815e+00 1.53204300571038e-02 1.51569192747859e-04
9.51388888888889e+00 1.52227141466515e-02 1.51005687086955e-04
9.56462962962963e+00 1.51256214823637e-02 1.50442136698295e-04
9.61537037037037e+00 1.50291480890865e-02 1.49878580308014e-04
9.66611111111111e+00 1.49332900170197e-02 1.49315055888824e-04
9.71685185185185e+00 1.48380433415560e-02 1.48751600673492e-04
9.76759259259259e+00 1.47434041631195e-02 1.48188251168061e-04
9.81833333333333e+00 1.46493686070065e-02 1.47625043164743e-04
9.86907407407407e+00 1.45559328232267e-02 1.47062011754581e-04
9.91981481481482e+00 1.44630929863455e-02 1.46499191376005e-04
9.97055555555555e+00 1.43708452952356e-02 1.45936615717907e-04
1.00212962962963e+01 1.42791859731988e-02 1.45374317911547e-04
1.00720370370370e+01 1.41881112672612e-02 1.44812330152200e-04
1.01227777777778e+01 1.40976174492881e-02 1.44250684102009e-04
1.01735185185185e+01 1.40077008142819e-02 1.43689411498013e-04
1.02242592592593e+01 1.39183576800107e-02 1.43128542505072e-04
1.02750000000000e+01 1.38295843894744e-02 1.42568107021003e-04
1.03257407407407e+01 1.37413773072695e-02 1.42008134365051e-04
1.03764814814815e+01 1.36537328228910e-02 1.41448653249511e-04
1.04272222222222e+01 1.35666473471674e-02 1.40889691828299e-04
1.04779629629630e+01 1.34801173154971e-02 1.40331277339843e-04
1.05287037037037e+01 1.33941391851682e-02 1.39773437471743e-04
1.05794444444444e+01 1.33087094352638e-02 1.39216198363333e-04
1.06301851851852e+01 1.32238245689406e-02 1.38659585937014e-04
1.06809259259259e+01 1.31394811100577e-02 1.38103625603776e-04
1.07316666666667e+01 1.30556756062306e-02 1.37548341921471e-04
1.07824074074074e+01 1.29724046262953e-02 1.36993759899360e-04
1.08331481481481e+01 1.28896647602151e-02 1.36439903087045e-04
1.08838888888889e+01 1.28074526212313e-02 1.35886794847686e-04
1.09346296296296e+01 1.27257648426729e-02 1.35334458075673e-04
1.09853703703704e+01 1.26445980808408e-02 1.34782914869580e-04
1.10361111111111e+01 1.25639490126065e-02 1.34232187779641e-04
1.10868518518519e+01 1.24838143353210e-02 1.33682297978842e-04
1.11375925925926e+01 1.24041907688453e-02 1.33133266480906e-04
1.11883333333333e+01 1.23250750525302e-02 1.32585113869668e-04
1.12390740740741e+01 1.22464639479410e-02 1.32037859985691e-04
1.12898148148148e+01 1.21683542365835e-02 1.31491525119967e-04
1.13405555555556e+01 1.20907427198135e-02 1.30946128263116e-04
1.13912962962963e+01 1.20136262207560e-02 1.30401688270535e-04
1.14420370370370e+01 1.19370015814441e-02 1.29858223603259e-04
1.14927777777778e+01 1.18608656653943e-02 1.29315752027536e-04
1.15435185185185e+01 1.17852153554520e-02 1.28774291757389e-04
1.15942592592593e+01 1.17100475537020e-02 1.28233859778169e-04
1.16450000000000e+01 1.16353591832830e-02 1.27694472961494e-04
1.16957407407407e+01 1.15611471856761e-02 1.27156147817038e-04
1.17464814814815e+01 1.14874085231402e-02 1.26618900468498e-04
1.17972222222222e+01 1.14141401760510e-02 1.26082746689839e-04
1.18479629629630e+01 1.13413391452902e-02 1.25547701621272e-04
1.18987037037037e+01 1.12690024502401e-02 1.25013780846729e-04
1.19494444444444e+01 1.11971271286972e-02 1.24480998812203e-04
1.20001851851852e+01 1.11257102385549e-02 1.23949369877241e-04
1.20509259259259e+01 1.10547488552796e-02 1.23418908080136e-04
1.21016666666667e+01 1.09842400741715e-02 1.22889626865869e-04
1.21524074074074e+01 1.09141810084625e-02 1.22361540117754e-04
1.22031481481481e+01 1.08445687892309e-02 1.21834660642144e-04
1.22538888888889e+01 1.07754005669944e-02 1.21309001175512e-04
1.23046296296296e+01 1.07066735093148e-02 1.20784574159174e-04
1.23553703703704e+01 1.06383848029393e-02 1.20261391478657e-04
1.24061111111111e+01 1.05705316519940e-02 1.19739465451690e-04
1.24568518518519e+01 1.05031112779012e-02 1.19218807376132e-04
1.25075925925926e+01 1.04361209208872e-02 1.18699428494827e-04
1.25583333333333e+01 1.03695578377088e-02 1.18181339779461e-04
1.26090740740741e+01 1.03034193036813e-02 1.17664551680558e-04
1.26598148148148e+01 1.02377026109636e-02 1.17149075074239e-04
1.27105555555556e+01 1.01724050684762e-02 1.16634919870440e-04
1.27612962962963e+01 1.01075240033303e-02 1.16122095937171e-04
1.28120370370370e+01 1.00430567586685e-02 1.15610612893388e-04
1.28627777777778e+01 9.97900069558627e-03 1.15100479869123e-04
1.29135185185185e+01 9.91535319150324e-03 1.14591706412865e-04
1.29642592592593e+01 9.85211164008260e-03 1.14084301157282e-04
1.30150000000000e+01 9.78927345258556e-03 1.13578272704879e-04
1.30657407407407e+01 9.72683605581941e-03 1.13073629429414e-04
1.31164814814815e+01 9.66479689396002e-03 1.12570379455924e-04
1.31672222222222e+01 9.60315342653703e-03 1.12068530688370e-04
1.32179629629630e+01 9.54190313022230e-03 1.11568090582649e-04
1.32687037037037e+01 9.48104349730910e-03 1.11069067003607e-04
1.33194444444444e+01 9.42057203563466e-03 1.10571466964496e-04
1.33701851851852e+01 9.36048626983975e-03 1.10075297463501e-04
1.34209259259259e+01 9.30078373945343e-03 1.09580565295701e-04
1.34716666666667e+01 9.24146200058959e-03 1.09087276835447e-04
1.35224074074074e+01 9.18251862450048e-03 1.08595438857934e-04
1.35731481481481e+01 9.12395119750129e-03 1.08105057330203e-04
1.36238888888889e+01 9.06575732216477e-03 1.07616138213308e-04
1.36746296296296e+01 9.00793461549987e-03 1.07128687281777e-04
1.37253703703704e+01 8.95048071056176e-03 1.06642709914908e-04
1.37761111111111e+01 8.89339325507551e-03 1.06158211884507e-04
1.38268518518519e+01 8.83666991136270e-03 1.05675198195136e-04
1.38775925925926e+01 8.78030835747484e-03 1.05193673853502e-04
1.39283333333333e+01 8.72430628546063e-03 1.04713643695119e-04
1.39790740740741e+01 8.66866140289437e-03 1.04235112183939e-04
1.40298148148148e+01 8.61337143156627e-03 1.03758084168028e-04
1.40805555555556e+01 8.55843410741051e-03 1.03282563766858e-04
1.41312962962963e+01 8.50384718158130e-03 1.02808555109169e-04
1.41820370370370e+01 8.44960841880384e-03 1.02336062166683e-04
1.42327777777778e+01 8.39571559882576e-03 1.01865088561704e-04
1.42835185185185e+01 8.34216651517031e-03 1.01395638292152e-04
1.43342592592593e+01 8.28895897506600e-03 1.00927714663795e-04
1.43850000000000e+01 8.23609080046845e-03 1.00461320998015e-04
1.44357407407407e+01 8.18355982649059e-03 9.99964604722640e-05
1.44864814814815e+01 8.13136390278134e-03 9.95331361036079e-05
1.45372222222222e+01 8.07950089198331e-03 9.90713507701556e-05
1.45879629629630e+01 8.02796867108643e-03 9.86111070288468e-05
1.46387037037037e+01 7.97676513026161e-03 9.81524078010522e-05
1.46894444444444e+01 7.92588817279278e-03 9.76952553626688e-05
1.47401851851852e+01 7.87533571602963e-03 9.72396520134476e-05
1.47909259259259e+01 7.82510568991881e-03 9.67855999258252e-05
1.48416666666667e+01 7.77519603829040e-03 9.63331009700803e-05
1.48924074074074e+01 7.72560471774645e-03 9.58821573722167e-05
1.49431481481481e+01 7.67632969759503e-03 9.54327707444942e-05
1.49938888888889e+01 7.62736896075536e-03 9.49849427278905e-05
1.50446296296296e+01 7.57872050235857e-03 9.45386748468439e-05
1.50953703703704e+01 7.53038233097067e-03 9.40939683414365e-05
1.51461111111111e+01 7.48235246753323e-03 9.36508247988056e-05
1.51968518518519e+01 7.43462894529917e-03 9.32092452223388e-05
1.52475925925926e+01 7.38720981069307e-03 9.27692306484374e-05
1.52983333333333e+01 7.34009312197773e-03 9.23307820069711e-05
1.53490740740741e+01 7.29327695041713e-03 9.18938999600640e-05
1.53998148148148e+01 7.24675937926657e-03 9.14585855082988e-05
1.54505555555556e+01 7.20053850371008e-03 9.10248390969612e-05
1.55012962962963e+01 7.15461243167837e-03 9.05926612080673e-05
1.55520370370370e+01 7.10897928257776e-03 9.01620522263724e-05
1.56027777777778e+01 7.06363718839638e-03 8.97330122844593e-05
1.56535185185185e+01 7.01858429274127e-03 8.93055418448779e-05
1.57042592592593e+01 6.97381875077719e-03 8.88796408417894e-05
1.57550000000000e+01 6.92933873000470e-03 8.84553092493297e-05
1.58057407407407e+01 6.88514240904816e-03 8.80325469529684e-05
1.58564814814815e+01 6.84122797870816e-03 8.76113537360031e-05
1.59072222222222e+01 6.79759364077024e-03 8.71917292963380e-05
1.59579629629630e+01 6.75423760903866e-03 8.67736730996416e-05
1.60087037037037e+01 6.71115810843380e-03 8.63571849304084e-05
