Energy (eV)          EEDF (eV^-(3/2))     First Anisotropy
1.88157894736842e-02 1.33630303187464e-01 8.11546351435098e-05
5.64473684210526e-02 1.32419378438364e-01 1.33852174201858e-04
9.40789473684210e-02 1.31219426788495e-01 1.76284091639916e-04
1.31710526315789e-01 1.30030348801487e-01 2.08267918218959e-04
1.69342105263158e-01 1.28852045945220e-01 2.34735064427130e-04
2.06973684210526e-01 1.27684420578046e-01 2.57556086873670e-04
2.44605263157895e-01 1.26527375943171e-01 2.77701985129448e-04
2.82236842105263e-01 1.25380816160599e-01 2.95760879779148e-04
3.19868421052632e-01 1.24244646219183e-01 3.12123978654416e-04
3.57500000000000e-01 1.23118771968746e-01 3.27068590604286e-04
3.95131578947368e-01 1.22003100115242e-01 3.40800591758120e-04
4.32763157894737e-01 1.20897538203830e-01 3.53478313404301e-04
4.70394736842105e-01 1.19801994620758e-01 3.65226960774898e-04
5.08026315789474e-01 1.18716378582445e-01 3.76147805543408e-04
5.45657894736842e-01 1.17640600127963e-01 3.86324306392708e-04
5.83289473684210e-01 1.16574570111582e-01 3.95826333198100e-04
6.20921052631579e-01 1.15518200195384e-01 4.04713170680397e-04
6.58552631578947e-01 1.14471402841946e-01 4.13035709043144e-04
6.96184210526316e-01 1.13434091307084e-01 4.20838076898258e-04
7.33815789473684e-01 1.12406179632666e-01 4.28158881792995e-04
7.71447368421053e-01 1.11387582639487e-01 4.35032168477145e-04
8.09078947368421e-01 1.10378215920217e-01 4.41488170150209e-04
8.46710526315789e-01 1.09377995832405e-01 4.47553905225859e-04
8.84342105263158e-01 1.08386839491546e-01 4.53253657022274e-04
9.21973684210526e-01 1.07404664764213e-01 4.58609363492270e-04
9.59605263157895e-01 1.06431390261250e-01 4.63640936952183e-04
9.97236842105263e-01 1.05466935331030e-01 4.68366528493339e-04
1.03486842105263e+00 1.04511220054602e-01 4.72802749579090e-04
1.07250000000000e+00 1.03564165232614e-01 4.76964857004111e-04
1.11013157894737e+00 1.02625692386227e-01 4.80866909572692e-04
1.14776315789474e+00 1.01695723747758e-01 4.84521902870912e-04
1.18539473684211e+00 1.00774182254249e-01 4.87941883631740e-04
1.22302631578947e+00 9.98609915410627e-02 4.91138048578705e-04
1.26065789473684e+00 9.89560759355532e-02 4.94120829083060e-04
1.29828947368421e+00 9.80593604577558e-02 4.96899968534995e-04
1.33592105263158e+00 9.71707707929984e-02 4.99484585544728e-04
1.37355263157895e+00 9.62902333072286e-02 5.01883229178903e-04
1.41118421052632e+00 9.54176750336435e-02 5.04103932312177e-04
1.44881578947368e+00 9.45530236666429e-02 5.06154255233812e-04
1.48644736842105e+00 9.36962075558152e-02 5.08041325237954e-04
1.52407894736842e+00 9.28471557000496e-02 5.09771871902182e-04
1.56171052631579e+00 9.20057977416268e-02 5.11352258625372e-04
1.59934210526316e+00 9.11720639603885e-02 5.12788510116659e-04
1.63697368421053e+00 9.03458852730178e-02 5.14086340150313e-04
1.67460526315789e+00 8.95271932119547e-02 5.15251172902327e-04
1.71223684210526e+00 8.87159199352781e-02 5.16288162069386e-04
1.74986842105263e+00 8.79119982158312e-02 5.17202212039415e-04
1.78750000000000e+00 8.71153614356510e-02 5.17997994128094e-04
1.82513157894737e+00 8.63259435804411e-02 5.18679962094062e-04
1.86276315789474e+00 8.55436792341093e-02 5.19252366293193e-04
1.90039473684211e+00 8.47685035733537e-02 5.19719266623605e-04
1.93802631578947e+00 8.40003523622833e-02 5.20084544383075e-04
1.97565789473684e+00 8.32391619470957e-02 5.20351912512960e-04
2.01328947368421e+00 8.24848692545521e-02 5.20524927531405e-04
2.05092105263158e+00 8.17374117753736e-02 5.20606997456657e-04
2.08855263157895e+00 8.09967275705694e-02 5.20601389003001e-04
2.12618421052632e+00 8.02627552624233e-02 5.20511237419923e-04
2.16381578947368e+00 7.95354340294078e-02 5.20339553105334e-04
2.20144736842105e+00 7.88147036011348e-02 5.20089228348351e-04
2.23907894736842e+00 7.81005042533803e-02 5.19763043592850e-04
2.27671052631579e+00 7.73927768031256e-02 5.19363673264441e-04
2.31434210526316e+00 7.66914626036526e-02 5.18893690648979e-04
2.35197368421053e+00 7.59965035426336e-02 5.18355574585405e-04
2.38960526315789e+00 7.53078420283757e-02 5.17751713084735e-04
2.42723684210526e+00 7.46254209940838e-02 5.17084406626497e-04
2.46486842105263e+00 7.39491838900870e-02 5.16355873966744e-04
2.50250000000000e+00 7.32790746791530e-02 5.15568255439221e-04
2.54013157894737e+00 7.26150378318413e-02 5.14723616580160e-04
2.57776315789474e+00 7.19570183219048e-02 5.13823951530977e-04
2.61539473684210e+00 7.13049616217336e-02 5.12871186238490e-04
2.65302631578947e+00 7.06588136978327e-02 5.11867181465260e-04
2.69065789473684e+00 7.00185210063446e-02 5.10813735163914e-04
2.72828947368421e+00 6.93840304909333e-02 5.09712586537669e-04
2.76592105263158e+00 6.87552895713566e-02 5.08565417629587e-04
2.80355263157895e+00 6.81322461462105e-02 5.07373854758902e-04
2.84118421052632e+00 6.75148485862205e-02 5.06139472196485e-04
2.87881578947368e+00 6.69030457299636e-02 5.04863793815568e-04
2.91644736842105e+00 6.62967868796240e-02 5.03548295105330e-04
2.95407894736842e+00 6.56960217968012e-02 5.02194405080572e-04
2.99171052631579e+00 6.51007006983422e-02 5.00803508094381e-04
3.02934210526316e+00 6.45107742522163e-02 4.99376945157216e-04
3.06697368421053e+00 6.39261935753251e-02 4.97916016773754e-04
3.10460526315789e+00 6.33469102237036e-02 4.96421983686102e-04
3.14223684210526e+00 6.27728761943092e-02 4.94896067529858e-04
3.17986842105263e+00 6.22040439190908e-02 4.93339453474292e-04
3.21750000000000e+00 6.16403662610466e-02 4.91753291144558e-04
3.25513157894737e+00 6.10817965103169e-02 4.90138695895533e-04
3.29276315789474e+00 6.05282883803153e-02 4.88496750026201e-04
3.33039473684211e+00 5.99797960038939e-02 4.86828503939718e-04
3.36802631578947e+00 5.94362739295416e-02 4.85134977250491e-04
3.40565789473684e+00 5.88976771176171e-02 4.83417159497653e-04
3.44328947368421e+00 5.83639609381611e-02 4.81676012193955e-04
3.48092105263158e+00 5.78350811625235e-02 4.79912469096179e-04
3.51855263157895e+00 5.73109939644161e-02 4.78127436423795e-04
3.55618421052632e+00 5.67916559146930e-02 4.76321794809619e-04
3.59381578947368e+00 5.62770239777524e-02 4.74496399790696e-04
3.63144736842105e+00 5.57670555079680e-02 4.72652082620017e-04
3.66907894736842e+00 5.52617082461598e-02 4.70789651045893e-04
3.70671052631579e+00 5.47609403160899e-02 4.68909890060634e-04
3.74434210526316e+00 5.42647102209921e-02 4.67013562315736e-04
3.78197368421053e+00 5.37729768414270e-02 4.65101409722470e-04
3.81960526315789e+00 5.32856994279599e-02 4.63174153502668e-04
3.85723684210526e+00 5.28028376017337e-02 4.61232494204528e-04
3.89486842105263e+00 5.23243513497940e-02 4.59277113249281e-04
3.93250000000000e+00 5.18502010217741e-02 4.57308673205526e-04
3.97013157894737e+00 5.13803473266078e-02 4.55327818354882e-04
4.00776315789474e+00 5.09147513292747e-02 4.53335175236335e-04
4.04539473684210e+00 5.04533744475749e-02 4.51331353171221e-04
4.08302631578947e+00 4.99961784489304e-02 4.49316944768753e-04
4.12065789473684e+00 4.95431254472176e-02 4.47292526150053e-04
4.15828947368421e+00 4.90941779007011e-02 4.45258658211652e-04
4.19592105263158e+00 4.86492986056736e-02 4.43215886546213e-04
4.23355263157895e+00 4.82084506966506e-02 4.41164741339104e-04
4.27118421052632e+00 4.77715976422132e-02 4.39105738604456e-04
4.30881578947368e+00 4.73387032419815e-02 4.37039380319008e-04
4.34644736842105e+00 4.69097316236125e-02 4.34966154814375e-04
4.38407894736842e+00 4.64846472398312e-02 4.32886537156732e-04
4.42171052631579e+00 4.60634148654829e-02 4.30800989514310e-04
4.45934210526316e+00 4.56459995946144e-02 4.28709961278969e-04
4.49697368421053e+00 4.52323668384956e-02 4.26613890111854e-04
4.53460526315789e+00 4.48224823199882e-02 4.24513201804141e-04
4.57223684210526e+00 4.44163120734934e-02 4.22408310119584e-04
4.60986842105263e+00 4.40138224412004e-02 4.20299617825780e-04
4.64750000000000e+00 4.36149800702970e-02 4.18187516752863e-04
4.68513157894737e+00 4.32197519102053e-02 4.16072388084188e-04
4.72276315789474e+00 4.28281052098434e-02 4.13954602637850e-04
4.76039473684211e+00 4.24400075149122e-02 4.11834521139937e-04
4.79802631578947e+00 4.20554266652054e-02 4.09712494489104e-04
4.83565789473684e+00 4.16743307919441e-02 4.07588863808697e-04
4.87328947368421e+00 4.12966883159071e-02 4.05463961311786e-04
4.91092105263158e+00 4.09224679424832e-02 4.03338110129126e-04
4.94855263157895e+00 4.05516386614278e-02 4.01211624123274e-04
4.98618421052632e+00 4.01841697435035e-02 3.99084808747696e-04
5.02381578947368e+00 3.98200307379334e-02 3.96957961054745e-04
5.06144736842105e+00 3.94591914698772e-02 3.94831369908707e-04
5.09907894736842e+00 3.91016220379322e-02 3.92705316192998e-04
5.13671052631579e+00 3.87472928116550e-02 3.90580073011887e-04
5.17434210526316e+00 3.83961744291056e-02 3.88455905704028e-04
5.21197368421053e+00 3.80482377950776e-02 3.86333072581088e-04
5.24960526315789e+00 3.77034540766824e-02 3.84211824744581e-04
5.28723684210526e+00 3.73617947029806e-02 3.82092405891566e-04
5.32486842105263e+00 3.70232313619358e-02 3.79975053051699e-04
5.36250000000000e+00 3.66877359980680e-02 3.77859996567650e-04
5.40013157894737e+00 3.63552808101289e-02 3.75747460259603e-04
5.43776315789474e+00 3.60258382487980e-02 3.73637661585155e-04
5.47539473684211e+00 3.56993810144002e-02 3.71530811795150e-04
5.51302631578947e+00 3.53758820546432e-02 3.69427116085169e-04
5.55065789473684e+00 3.50553145623761e-02 3.67326773582468e-04
5.58828947368421e+00 3.47376519739322e-02 3.65229977973466e-04
5.62592105263158e+00 3.44228679652203e-02 3.63136917319041e-04
5.66355263157895e+00 3.41109364512651e-02 3.61047773860815e-04
5.70118421052632e+00 3.38018315834664e-02 3.58962724649851e-04
5.73881578947368e+00 3.34955277474579e-02 3.56881941508845e-04
5.77644736842105e+00 3.31919995609836e-02 3.54805591157142e-04
5.81407894736842e+00 3.28912218717957e-02 3.52733835332810e-04
5.85171052631579e+00 3.25931697555699e-02 3.50666830911883e-04
5.88934210526316e+00 3.22978185138399e-02 3.48604729880718e-04
5.92697368421053e+00 3.20051436724408e-02 3.46547679881620e-04
5.96460526315789e+00 3.17151209779994e-02 3.44495824033062e-04
6.00223684210526e+00 3.14277263974176e-02 3.42449300742295e-04
6.03986842105263e+00 3.11429361153791e-02 3.40408244253600e-04
6.07750000000000e+00 3.08607265323765e-02 3.38372784601265e-04
6.11513157894737e+00 3.05810742627548e-02 3.36343047708829e-04
6.15276315789474e+00 3.03039561327738e-02 3.34319155485731e-04
6.19039473684211e+00 3.00293491786886e-02 3.32301225921870e-04
6.22802631578947e+00 2.97572306448457e-02 3.30289373179749e-04
6.26565789473684e+00 2.94875779817979e-02 3.28283707557322e-04
6.30328947368421e+00 2.92203688448562e-02 3.26284335958863e-04
6.34092105263158e+00 2.89555810909660e-02 3.24291361723804e-04
6.37855263157895e+00 2.86931927781543e-02 3.22304884449304e-04
6.41618421052632e+00 2.84331821632811e-02 3.20325000464627e-04
6.45381578947368e+00 2.81755277002371e-02 3.18351802778789e-04
6.49144736842105e+00 2.79202080381580e-02 3.16385381157836e-04
6.52907894736842e+00 2.76672020196565e-02 3.14425822200476e-04
6.56671052631579e+00 2.74164886790678e-02 3.12473209412215e-04
6.60434210526316e+00 2.71680472407131e-02 3.10527623163502e-04
6.64197368421053e+00 2.69218571175454e-02 3.08589141103918e-04
6.67960526315789e+00 2.66778979083314e-02 3.06657838000746e-04
6.71723684210526e+00 2.64361493970820e-02 3.04733785572089e-04
6.75486842105263e+00 2.61965915510003e-02 3.02817052904982e-04
6.79250000000000e+00 2.59592045188215e-02 3.00907706401160e-04
6.83013157894737e+00 2.57239686291679e-02 2.99005809839547e-04
6.86776315789474e+00 2.54908643889190e-02 2.97111424437264e-04
6.90539473684210e+00 2.52598724815964e-02 2.95224608909423e-04
6.94302631578947e+00 2.50309737657625e-02 2.93345419527505e-04
6.98065789473684e+00 2.48041492734348e-02 2.91473910075134e-04
7.01828947368421e+00 2.45793802088319e-02 2.89610132209173e-04
7.05592105263158e+00 2.43566479458550e-02 2.87754135309719e-04
7.09355263157895e+00 2.41359340275125e-02 2.85905966325342e-04
7.13118421052632e+00 2.39172201640657e-02 2.84065670138191e-04
7.16881578947368e+00 2.37004882315127e-02 2.82233289509848e-04
7.20644736842105e+00 2.34857202700868e-02 2.80408865130768e-04
7.24407894736842e+00 2.32728984827682e-02 2.78592435668845e-04
7.28171052631579e+00 2.30620052338096e-02 2.76784037817012e-04
7.31934210526316e+00 2.28530230472743e-02 2.74983706248556e-04
7.35697368421053e+00 2.26459346058674e-02 2.73191473937237e-04
7.39460526315789e+00 2.24407227486568e-02 2.71407372017723e-04
7.43223684210526e+00 2.22373704705017e-02 2.69631429641918e-04
7.46986842105263e+00 2.20358609203575e-02 2.67863674303063e-04
7.50750000000000e+00 2.18361773998795e-02 2.66104131782739e-04
7.54513157894737e+00 2.16383033620394e-02 2.64352826191352e-04
7.58276315789474e+00 2.14422224097538e-02 2.62609780007740e-04
7.62039473684210e+00 2.12479182945257e-02 2.60875014118048e-04
7.65802631578947e+00 2.10553749150980e-02 2.59148547853683e-04
7.69565789473684e+00 2.08645763161191e-02 2.57430398947392e-04
7.73328947368421e+00 2.06755066870636e-02 2.55720583814261e-04
7.77092105263158e+00 2.04881503601886e-02 2.54019117423424e-04
7.80855263157895e+00 2.03024918099743e-02 2.52326013166237e-04
7.84618421052632e+00 2.01185156515892e-02 2.50641283141178e-04
7.88381578947368e+00 1.99362066396156e-02 2.48964938102967e-04
7.92144736842105e+00 1.97555496667855e-02 2.47296987494993e-04
7.95907894736842e+00 1.95765297627295e-02 2.45637439481140e-04
7.99671052631579e+00 1.93991320927361e-02 2.43986300977056e-04
8.03434210526316e+00 1.92233419565221e-02 2.42343577607576e-04
8.07197368421053e+00 1.90491447872286e-02 2.40709273957070e-04
8.10960526315789e+00 1.88765261495674e-02 2.39083393451010e-04
8.14723684210526e+00 1.87054717392759e-02 2.37465938234411e-04
8.18486842105263e+00 1.85359673817132e-02 2.35856909425910e-04
8.22250000000000e+00 1.83679990306855e-02 2.34256307069277e-04
8.26013157894737e+00 1.82015527672821e-02 2.32664130160135e-04
8.29776315789474e+00 1.80366147987221e-02 2.31080376672157e-04
8.33539473684210e+00 1.78731714572111e-02 2.29505043582768e-04
8.37302631578947e+00 1.77112091988092e-02 2.27938126898227e-04
8.41065789473684e+00 1.75507146023081e-02 2.26379621613008e-04
8.44828947368421e+00 1.73916743683061e-02 2.24829521930746e-04
8.48592105263158e+00 1.72340753175413e-02 2.23287821155982e-04
8.52355263157895e+00 1.70779043903683e-02 2.21754511583180e-04
8.56118421052632e+00 1.69231486454849e-02 2.20229584721142e-04
8.59881578947368e+00 1.67697952588598e-02 2.18713031247407e-04
8.63644736842105e+00 1.66178315226697e-02 2.17204841029766e-04
8.67407894736842e+00 1.64672448442468e-02 2.15705003147425e-04
8.71171052631579e+00 1.63180227450345e-02 2.14213505911817e-04
8.74934210526316e+00 1.61701528595542e-02 2.12730336827942e-04
8.78697368421053e+00 1.60236229345453e-02 2.11255482792027e-04
8.82460526315789e+00 1.58784208274505e-02 2.09788929991959e-04
8.86223684210526e+00 1.57345345059129e-02 2.08330663805246e-04
8.89986842105263e+00 1.55919520466096e-02 2.06880668999967e-04
8.93750000000000e+00 1.54506616342641e-02 2.05438929691839e-04
8.97513157894737e+00 1.53106515606669e-02 2.04005429362034e-04
9.01276315789474e+00 1.51719102237053e-02 2.02580150874639e-04
9.05039473684210e+00 1.50344261264022e-02 2.01163076493803e-04
9.08802631578947e+00 1.48981878759633e-02 1.99754187900502e-04
9.12565789473684e+00 1.47631841828329e-02 1.98353466156250e-04
9.16328947368421e+00 1.46294038599033e-02 1.96960891878161e-04
9.20092105263158e+00 1.44968358211500e-02 1.95576445148261e-04
9.23855263157895e+00 1.43654690811543e-02 1.94200105420633e-04
9.27618421052632e+00 1.42352927540442e-02 1.92831851699484e-04
9.31381578947368e+00 1.41062960525932e-02 1.91471662499227e-04
9.35144736842105e+00 1.39784682873256e-02 1.90119515858861e-04
9.38907894736842e+00 1.38517988656313e-02 1.88775389356100e-04
9.42671052631579e+00 1.37262772908876e-02 1.87439260121307e-04
9.46434210526316e+00 1.36018931615899e-02 1.86111104803353e-04
9.50197368421053e+00 1.34786361706179e-02 1.84790899726673e-04
9.53960526315789e+00 1.33564961039929e-02 1.83478620808064e-04
9.57723684210526e+00 1.32354628404233e-02 1.82174243471457e-04
9.61486842105263e+00 1.31155263503339e-02 1.80877742807798e-04
9.65250000000000e+00 1.29966766950351e-02 1.79589093537779e-04
9.69013157894737e+00 1.28789040258992e-02 1.78308270023745e-04
9.72776315789474e+00 1.27621985835442e-02 1.77035246281349e-04
9.76539473684210e+00 1.26465506970255e-02 1.75769995991006e-04
9.80302631578947e+00 1.25319507830339e-02 1.74512492509098e-04
9.84065789473684e+00 1.24183893451020e-02 1.73262708836247e-04
9.87828947368421e+00 1.23058569729298e-02 1.72020617756822e-04
9.91592105263158e+00 1.21943443412640e-02 1.70786191763272e-04
9.95355263157895e+00 1.20838422094687e-02 1.69559402978678e-04
9.99118421052632e+00 1.19743414206444e-02 1.68340223298851e-04
1.00288157894737e+01 1.18658329008689e-02 1.67128624438845e-04
1.00664473684211e+01 1.17583076582337e-02 1.65924577778132e-04
1.01040789473684e+01 1.16517567825301e-02 1.64728053976030e-04
1.01417105263158e+01 1.15461714453243e-02 1.63539024341079e-04
1.01793421052632e+01 1.14415428961061e-02 1.62357459957290e-04
1.02169736842105e+01 1.13378624647048e-02 1.61183330880885e-04
1.02546052631579e+01 1.12351215595157e-02 1.60016607370763e-04
1.02922368421053e+01 1.11333116667901e-02 1.58857259112981e-04
1.03298684210526e+01 1.10324243508973e-02 1.57705256359072e-04
1.03675000000000e+01 1.09324512506995e-02 1.56560569178470e-04
1.04051315789474e+01 1.08333840818047e-02 1.55423166697054e-04
1.04427631578947e+01 1.07352146348921e-02 1.54293017904352e-04
1.04803947368421e+01 1.06379347759521e-02 1.53170092353508e-04
1.05180263157895e+01 1.05415364428327e-02 1.52054359446264e-04
1.05556578947368e+01 1.04460116473701e-02 1.50945787704646e-04
1.05932894736842e+01 1.03513524737860e-02 1.49844345884868e-04
1.06309210526316e+01 1.02575510780337e-02 1.48750002273642e-04
1.06685526315789e+01 1.01645996880109e-02 1.47662725718936e-04
1.07061842105263e+01 1.00724906003068e-02 1.46582484951976e-04
1.07438157894737e+01 9.98121618219084e-03 1.45509247897146e-04
1.07814473684211e+01 9.89076887009715e-03 1.44442982726517e-04
1.08190789473684e+01 9.80114116899997e-03 1.43383657193033e-04
1.08567105263158e+01 9.71232565260274e-03 1.42331239606887e-04
1.08943421052632e+01 9.62431496027236e-03 1.41285698192650e-04
1.09319736842105e+01 9.53710179889625e-03 1.40247000434932e-04
1.09696052631579e+01 9.45067894144972e-03 1.39215114077285e-04
1.10072368421053e+01 9.36503922639817e-03 1.38190006490276e-04
1.10448684210526e+01 9.28017555786506e-03 1.37171645596047e-04
1.10825000000000e+01 9.19608090274200e-03 1.36159999259017e-04
1.11201315789474e+01 9.11274829242325e-03 1.35155034665281e-04
1.11577631578947e+01 9.03017082145081e-03 1.34156718977760e-04
1.11953947368421e+01 8.94834164766693e-03 1.33165019904796e-04
1.12330263157895e+01 8.86725398945877e-03 1.32179905117094e-04
1.12706578947368e+01 8.78690112739937e-03 1.31201341653812e-04
1.13082894736842e+01 8.70727640295097e-03 1.30229296827934e-04
1.13459210526316e+01 8.62837321791410e-03 1.29263737652329e-04
1.13835526315789e+01 8.55018503456157e-03 1.28304631677889e-04
1.14211842105263e+01 8.47270537303992e-03 1.27351946440422e-04
1.14588157894737e+01 8.39592781290311e-03 1.26405648897602e-04
1.14964473684211e+01 8.31984599188486e-03 1.25465706286599e-04
1.15340789473684e+01 8.24445360537280e-03 1.24532085579969e-04
1.15717105263158e+01 8.16974440652543e-03 1.23604754279988e-04
1.16093421052632e+01 8.09571220382108e-03 1.22683679893948e-04
1.16469736842105e+01 8.02235086249131e-03 1.21768829400084e-04
1.16846052631579e+01 7.94965430335906e-03 1.20860170060390e-04
1.17222368421053e+01 7.87761650233570e-03 1.19957668904707e-04
1.17598684210526e+01 7.80623149052330e-03 1.19061293483361e-04
1.17975000000000e+01 7.73549335190185e-03 1.18171011369602e-04
1.18351315789474e+01 7.66539622466927e-03 1.17286789652840e-04
1.18727631578947e+01 7.59593430014167e-03 1.16408595471667e-04
