Energy (eV)          EEDF (eV^-(3/2))     First Anisotropy
3.89285714285714e-02 2.00050046293918e-01 1.98691527979441e-04
1.16785714285714e-01 1.95153903041588e-01 3.25174349214150e-04
1.94642857142857e-01 1.90377590887499e-01 4.21595499081812e-04
2.72500000000000e-01 1.85718177027220e-01 4.90339876095886e-04
3.50357142857143e-01 1.81172800436257e-01 5.44057497499743e-04
4.28214285714286e-01 1.76738670080113e-01 5.87666105718922e-04
5.06071428571429e-01 1.72413063253361e-01 6.23777640580042e-04
5.83928571428571e-01 1.68193323887375e-01 6.54008725613249e-04
6.61785714285714e-01 1.64076860919388e-01 6.79456944100397e-04
7.39642857142857e-01 1.60061146701994e-01 7.00915463055712e-04
8.17500000000000e-01 1.56143715450832e-01 7.18983851322883e-04
8.95357142857143e-01 1.52322161734983e-01 7.34131000965399e-04
9.73214285714286e-01 1.48594138986153e-01 7.46733462805520e-04
1.05107142857143e+00 1.44957358061066e-01 7.57100112391363e-04
1.12892857142857e+00 1.41409585875725e-01 7.65488737117968e-04
1.20678571428571e+00 1.37948643974771e-01 7.72117594958429e-04
1.28464285714286e+00 1.34572407194683e-01 7.77173705350208e-04
1.36250000000000e+00 1.31278802440333e-01 7.80818966808654e-04
1.44035714285714e+00 1.28065807325039e-01 7.83194763193717e-04
1.51821428571429e+00 1.24931448959533e-01 7.84425493179516e-04
1.59607142857143e+00 1.21873802721705e-01 7.84621326451116e-04
1.67392857142857e+00 1.18890991133516e-01 7.83880391561460e-04
1.75178571428571e+00 1.15981182646341e-01 7.82290534107321e-04
1.82964285714286e+00 1.13142590522996e-01 7.79930735473054e-04
1.90750000000000e+00 1.10373471788256e-01 7.76872287690119e-04
1.98535714285714e+00 1.07672126108573e-01 7.73179767170619e-04
2.06321428571429e+00 1.05036894765481e-01 7.68911845240678e-04
2.14107142857143e+00 1.02466159625309e-01 7.64121972837305e-04
2.21892857142857e+00 9.99583421821666e-02 7.58858965635387e-04
2.29678571428571e+00 9.75119025505285e-02 7.53167505917867e-04
2.37464285714286e+00 9.51253385231918e-02 7.47088567535216e-04
2.45250000000000e+00 9.27971846795481e-02 7.40659791250027e-04
2.53035714285714e+00 9.05260114538007e-02 7.33915811102367e-04
2.60821428571429e+00 8.83104242682423e-02 7.26888536905800e-04
2.68607142857143e+00 8.61490626690516e-02 7.19607403360363e-04
2.76392857142857e+00 8.40405995153445e-02 7.12099592520895e-04
2.84178571428571e+00 8.19837401389294e-02 7.04390231922673e-04
2.91964285714286e+00 7.99772215514058e-02 6.96502565440707e-04
2.99750000000000e+00 7.80198116895460e-02 6.88458111454265e-04
3.07535714285714e+00 7.61103086370968e-02 6.80276804177445e-04
3.15321428571429e+00 7.42475398942410e-02 6.71977118300340e-04
3.23107142857143e+00 7.24303616521325e-02 6.63576181889846e-04
3.30892857142857e+00 7.06576581075811e-02 6.55089880360393e-04
3.38678571428571e+00 6.89283407603109e-02 6.46532951348453e-04
3.46464285714286e+00 6.72413477459028e-02 6.37919066659452e-04
3.54250000000000e+00 6.55956431985407e-02 6.29260911184197e-04
3.62035714285714e+00 6.39902165996933e-02 6.20570254573799e-04
3.69821428571429e+00 6.24240821628726e-02 6.11858014901898e-04
3.77607142857143e+00 6.08962782243645e-02 6.03134317381768e-04
3.85392857142857e+00 5.94058666649582e-02 5.94408549737258e-04
3.93178571428571e+00 5.79519323213013e-02 5.85689413590177e-04
4.00964285714286e+00 5.65335824248419e-02 5.76984968443515e-04
4.08750000000000e+00 5.51499460643446e-02 5.68302675599226e-04
4.16535714285714e+00 5.38001736400824e-02 5.59649438435404e-04
4.24321428571429e+00 5.24834363459436e-02 5.51031638173195e-04
4.32107142857143e+00 5.11989256576057e-02 5.42455167291118e-04
4.39892857142857e+00 4.99458528450417e-02 5.33925461663915e-04
4.47678571428571e+00 4.87234484789808e-02 5.25447530760647e-04
4.55464285714286e+00 4.75309619590647e-02 5.17025983063534e-04
4.63250000000000e+00 4.63676610608661e-02 5.08665052354014e-04
4.71035714285714e+00 4.52328314781338e-02 5.00368621952621e-04
4.78821428571429e+00 4.41257763869764e-02 4.92140246130503e-04
4.86607142857143e+00 4.30458160158150e-02 4.83983170303547e-04
4.94392857142857e+00 4.19922872346688e-02 4.75900350799107e-04
5.02178571428571e+00 4.09645431410950e-02 4.67894473606543e-04
5.09964285714286e+00 3.99619526634046e-02 4.59967969803288e-04
5.17750000000000e+00 3.89839001790975e-02 4.52123032082851e-04
5.25535714285714e+00 3.80297851307494e-02 4.44361630035912e-04
5.33321428571429e+00 3.70990216593379e-02 4.36685523523604e-04
5.41107142857143e+00 3.61910382428612e-02 4.29096275383325e-04
5.48892857142857e+00 3.53052773504575e-02 4.21595264072113e-04
5.56678571428571e+00 3.44411950948731e-02 4.14183695752285e-04
5.64464285714286e+00 3.35982608988144e-02 4.06862613952495e-04
5.72250000000000e+00 3.27759571736589e-02 3.99632910312999e-04
5.80035714285714e+00 3.19737789970139e-02 3.92495334524838e-04
5.87821428571429e+00 3.11912338042592e-02 3.85450502916802e-04
5.95607142857143e+00 3.04278410848397e-02 3.78498906662229e-04
6.03392857142857e+00 2.96831320910726e-02 3.71640920080035e-04
6.11178571428571e+00 2.89566495463639e-02 3.64876808621224e-04
6.18964285714286e+00 2.82479473646588e-02 3.58206735031829e-04
6.26750000000000e+00 2.75565903799803e-02 3.51630766494649e-04
6.34535714285714e+00 2.68821540756827e-02 3.45148881226702e-04
6.42321428571429e+00 2.62242243249938e-02 3.38760974084976e-04
6.50107142857143e+00 2.55823971357604e-02 3.32466861950935e-04
6.57892857142857e+00 2.49562784053515e-02 3.26266289270819e-04
6.65678571428571e+00 2.43454836756233e-02 3.20158933417026e-04
6.73464285714286e+00 2.37496378970232e-02 3.14144408649310e-04
6.81250000000000e+00 2.31683752009615e-02 3.08222270926137e-04
6.89035714285714e+00 2.26013386724241e-02 3.02392022336508e-04
6.96821428571429e+00 2.20481801317479e-02 2.96653114786880e-04
7.04607142857143e+00 2.15085599200759e-02 2.91004953558413e-04
7.12392857142857e+00 2.09821466930974e-02 2.85446901037006e-04
7.20178571428571e+00 2.04686172152332e-02 2.79978280342760e-04
7.27964285714286e+00 1.99676561612902e-02 2.74598377868680e-04
7.35750000000000e+00 1.94789559249124e-02 2.69306446543455e-04
7.43535714285714e+00 1.90022164275782e-02 2.64101708823066e-04
7.51321428571429e+00 1.85371449350663e-02 2.58983359113116e-04
7.59107142857143e+00 1.80834558771219e-02 2.53950566116004e-04
7.66892857142857e+00 1.76408706739017e-02 2.49002475346987e-04
7.74678571428572e+00 1.72091175630789e-02 2.44138211595967e-04
7.82464285714286e+00 1.67879314330721e-02 2.39356880530677e-04
7.90250000000000e+00 1.63770536618777e-02 2.34657570909912e-04
7.98035714285714e+00 1.59762319566089e-02 2.30039356599409e-04
8.05821428571429e+00 1.55852201991451e-02 2.25501298147122e-04
8.13607142857143e+00 1.52037782945478e-02 2.21042444316432e-04
8.21392857142857e+00 1.48316720250421e-02 2.16661833775054e-04
8.29178571428571e+00 1.44686729047582e-02 2.12358496757433e-04
8.36964285714286e+00 1.41145580395111e-02 2.08131456046007e-04
8.44750000000000e+00 1.37691099912080e-02 2.03979728463220e-04
8.52535714285714e+00 1.34321166430322e-02 1.99902326217929e-04
8.60321428571429e+00 1.31033710696399e-02 1.95898257907443e-04
8.68107142857143e+00 1.27826714097395e-02 1.91966529497864e-04
8.75892857142857e+00 1.24698207432509e-02 1.88106145443466e-04
8.83678571428571e+00 1.21646269692550e-02 1.84316109796225e-04
8.91464285714286e+00 1.18669026880981e-02 1.80595426771780e-04
8.99250000000000e+00 1.15764650873253e-02 1.76943101741429e-04
9.07035714285714e+00 1.12931358284010e-02 1.73358142115527e-04
9.14821428571429e+00 1.10167409375528e-02 1.69839557955766e-04
9.22607142857143e+00 1.07471106986595e-02 1.66386362578261e-04
9.30392857142857e+00 1.04840795499169e-02 1.62997573278487e-04
9.38178571428571e+00 1.02274859812802e-02 1.59672212056225e-04
9.45964285714286e+00 9.97717243533833e-03 1.56409305904685e-04
9.53750000000000e+00 9.73298521136321e-03 1.53207887454250e-04
9.61535714285714e+00 9.49477437011943e-03 1.50066995534523e-04
9.69321428571429e+00 9.26239364207351e-03 1.46985675521701e-04
9.77107142857143e+00 9.03570033735213e-03 1.43962979684387e-04
9.84892857142857e+00 8.81455525882196e-03 1.40997967634857e-04
9.92678571428571e+00 8.59882261590616e-03 1.38089706786066e-04
1.00046428571429e+01 8.38836994124113e-03 1.35237272363721e-04
1.00825000000000e+01 8.18306801056646e-03 1.32439748278561e-04
1.01603571428571e+01 7.98279075974096e-03 1.29696226591128e-04
1.02382142857143e+01 7.78741521372527e-03 1.27005808365284e-04
1.03160714285714e+01 7.59682140342117e-03 1.24367603741480e-04
1.03939285714286e+01 7.41089229963113e-03 1.21780731771147e-04
1.04717857142857e+01 7.22951373550953e-03 1.19244321826515e-04
1.05496428571429e+01 7.05257433676632e-03 1.16757512006226e-04
1.06275000000000e+01 6.87996545829382e-03 1.14319450401745e-04
1.07053571428571e+01 6.71158111078683e-03 1.11929295028559e-04
1.07832142857143e+01 6.54731790212904e-03 1.09586213826930e-04
1.08610714285714e+01 6.38707496763390e-03 1.07289384867788e-04
1.09389285714286e+01 6.23075391419473e-03 1.05037996105706e-04
1.10167857142857e+01 6.07825875532819e-03 1.02831246454287e-04
1.10946428571429e+01 5.92949585247629e-03 1.00668344402788e-04
1.11725000000000e+01 5.78437386151780e-03 9.85485089797403e-05
1.12503571428571e+01 5.64280367134941e-03 9.64709696249118e-05
1.13282142857143e+01 5.50469835434000e-03 9.44349661209950e-05
1.14060714285714e+01 5.36997310793683e-03 9.24397486955652e-05
1.14839285714286e+01 5.23854520746181e-03 9.04845777541399e-05
1.15617857142857e+01 5.11033395168350e-03 8.85687247002056e-05
1.16396428571429e+01 4.98526061345436e-03 8.66914707401316e-05
1.17175000000000e+01 4.86324839458193e-03 8.48521076157914e-05
1.17953571428571e+01 4.74422237440073e-03 8.30499374433694e-05
1.18732142857143e+01 4.62810946791358e-03 8.12842726032152e-05
1.19510714285714e+01 4.51483837689232e-03 7.95544357710547e-05
1.20289285714286e+01 4.40433955000210e-03 7.78597596482200e-05
1.21067857142857e+01 4.29654513718163e-03 7.61995875862078e-05
1.21846428571429e+01 4.19138894813198e-03 7.45732725577178e-05
1.22625000000000e+01 4.08880641425343e-03 7.29801777126776e-05
1.23403571428571e+01 3.98873454556782e-03 7.14196762015056e-05
1.24182142857143e+01 3.89111189537028e-03 6.98911510418686e-05
1.24960714285714e+01 3.79587851926682e-03 6.83939951028022e-05
1.25739285714286e+01 3.70297594150379e-03 6.69276108429170e-05
1.26517857142857e+01 3.61234711672075e-03 6.54914107851119e-05
1.27296428571429e+01 3.52393639504285e-03 6.40848166329624e-05
1.28075000000000e+01 3.43768948998612e-03 6.27072596915864e-05
1.28853571428571e+01 3.35355344236326e-03 6.13581806870882e-05
1.29632142857143e+01 3.27147659044494e-03 6.00370296229580e-05
1.30410714285714e+01 3.19140853563578e-03 5.87432657339616e-05
1.31189285714286e+01 3.11330011405416e-03 5.74763572388268e-05
1.31967857142857e+01 3.03710336445886e-03 5.62357816999894e-05
1.32746428571429e+01 2.96277149889506e-03 5.50210252664026e-05
1.33525000000000e+01 2.89025887563882e-03 5.38315829909050e-05
1.34303571428571e+01 2.81952096894604e-03 5.26669586534526e-05
1.35082142857143e+01 2.75051434387322e-03 5.15266646157053e-05
1.35860714285714e+01 2.68319662750838e-03 5.04102217566035e-05
1.36639285714286e+01 2.61752648499056e-03 4.93171592431465e-05
1.37417857142857e+01 2.55346359260809e-03 4.82470148019274e-05
1.38196428571429e+01 2.49096861311514e-03 4.71993340713755e-05
1.38975000000000e+01 2.43000317292912e-03 4.61736708399070e-05
1.39753571428571e+01 2.37052983677072e-03 4.51695868776899e-05
1.40532142857143e+01 2.31251208642298e-03 4.41866517949749e-05
1.41310714285714e+01 2.25591429661250e-03 4.32244429677431e-05
1.42089285714286e+01 2.20070171478091e-03 4.22825453282179e-05
1.42867857142857e+01 2.14684043851695e-03 4.13605515687626e-05
1.43646428571429e+01 2.09429739480060e-03 4.04580615885162e-05
1.44425000000000e+01 2.04304032078855e-03 3.95746826709600e-05
1.45203571428571e+01 1.99303774255007e-03 3.87100293269871e-05
1.45982142857143e+01 1.94425895715300e-03 3.78637231604470e-05
1.46760714285714e+01 1.89667401243948e-03 3.70353927896660e-05
1.47539285714286e+01 1.85025368996672e-03 3.62246736580518e-05
1.48317857142857e+01 1.80496948607162e-03 3.54312081861879e-05
1.49096428571429e+01 1.76079359441783e-03 3.46546452996588e-05
1.49875000000000e+01 1.71769888980738e-03 3.38946405603712e-05
1.50653571428571e+01 1.67565891034749e-03 3.31508560223234e-05
1.51432142857143e+01 1.63464784234596e-03 3.24229601063763e-05
1.52210714285714e+01 1.59464050334934e-03 3.17106275215919e-05
1.52989285714286e+01 1.55561232775981e-03 3.10135390954475e-05
1.53767857142857e+01 1.51753935094530e-03 3.03313818863364e-05
1.54546428571429e+01 1.48039819456410e-03 2.96638487810662e-05
1.55325000000000e+01 1.44416605292807e-03 2.90106385909621e-05
1.56103571428571e+01 1.40882067804425e-03 2.83714559208163e-05
1.56882142857143e+01 1.37434036688170e-03 2.77460110538874e-05
1.57660714285714e+01 1.34070394714351e-03 2.71340198756506e-05
1.58439285714286e+01 1.30789076514243e-03 2.65352037226331e-05
1.59217857142857e+01 1.27588067246495e-03 2.59492894647334e-05
1.59996428571429e+01 1.24465401363151e-03 2.53760091623952e-05
1.60775000000000e+01 1.21419161461071e-03 2.48151001359852e-05
1.61553571428571e+01 1.18447477027028e-03 2.42663048477834e-05
1.62332142857143e+01 1.15548523364521e-03 2.37293707975256e-05
1.63110714285714e+01 1.12720520400099e-03 2.32040504502038e-05
1.63889285714286e+01 1.09961731661522e-03 2.26901011022316e-05
1.64667857142857e+01 1.07270463158388e-03 2.21872849408377e-05
1.65446428571429e+01 1.04645062344546e-03 2.16953687522776e-05
1.66225000000000e+01 1.02083917150809e-03 2.12141239710167e-05
1.67003571428571e+01 9.95854549320344e-04 2.07433265742323e-05
1.67782142857143e+01 9.71481415627518e-04 2.02827569877540e-05
1.68560714285714e+01 9.47704804355930e-04 1.98322000188670e-05
1.69339285714286e+01 9.24510116002184e-04 1.93914447383725e-05
1.70117857142857e+01 9.01883108236546e-04 1.89602845226452e-05
1.70896428571429e+01 8.79809887178540e-04 1.85385168054407e-05
1.71675000000000e+01 8.58276899251687e-04 1.81259431118995e-05
1.72453571428571e+01 8.37270922347957e-04 1.77223689647962e-05
1.73232142857143e+01 8.16779058207793e-04 1.73276038004378e-05
1.74010714285714e+01 7.96788724015242e-04 1.69414609069436e-05
1.74789285714286e+01 7.77287645143038e-04 1.65637573207191e-05
1.75567857142857e+01 7.58263847263807e-04 1.61943138554794e-05
1.76346428571429e+01 7.39705649014318e-04 1.58329548912524e-05
1.77125000000000e+01 7.21601655137270e-04 1.54795083970554e-05
1.77903571428571e+01 7.03940749066093e-04 1.51338058479968e-05
1.78682142857143e+01 6.86712086505485e-04 1.47956821505158e-05
1.79460714285714e+01 6.69905088377481e-04 1.44649755862753e-05
1.80239285714286e+01 6.53509434709709e-04 1.41415277215934e-05
1.81017857142857e+01 6.37515058011887e-04 1.38251834267365e-05
1.81796428571429e+01 6.21912137107736e-04 1.35157906966290e-05
1.82575000000000e+01 6.06691091360967e-04 1.32132006651495e-05
1.83353571428571e+01 5.91842574451453e-04 1.29172675321368e-05
1.84132142857143e+01 5.77357468967803e-04 1.26278484972582e-05
1.84910714285714e+01 5.63226880486632e-04 1.23448037094266e-05
1.85689285714286e+01 5.49442132424478e-04 1.20679961877988e-05
1.86467857142857e+01 5.35994760476206e-04 1.17972918338689e-05
1.87246428571429e+01 5.22876507428755e-04 1.15325592791843e-05
1.88025000000000e+01 5.10079318300320e-04 1.12736698935102e-05
1.88803571428571e+01 4.97595335115981e-04 1.10204977207879e-05
1.89582142857143e+01 4.85416892353284e-04 1.07729194208775e-05
1.90360714285714e+01 4.73536511972191e-04 1.05308142242680e-05
1.91139285714286e+01 4.61946899079199e-04 1.02940638633370e-05
1.91917857142857e+01 4.50640937257061e-04 1.00625525791776e-05
1.92696428571429e+01 4.39611684204101e-04 9.83616699230247e-06
1.93475000000000e+01 4.28852367642471e-04 9.61479610638687e-06
1.94253571428571e+01 4.18356380932350e-04 9.39833125225472e-06
1.95032142857143e+01 4.08117279236369e-04 9.18666603674111e-06
1.95810714285714e+01 3.98128775347231e-04 8.97969630237204e-06
1.96589285714286e+01 3.88384736036263e-04 8.77732006768492e-06
1.97367857142857e+01 3.78879178131351e-04 8.57943753026021e-06
1.98146428571429e+01 3.69606264850417e-04 8.38595095698033e-06
1.98925000000000e+01 3.60560302357304e-04 8.19676468464410e-06
1.99703571428571e+01 3.51735736079652e-04 8.01178507110776e-06
2.00482142857143e+01 3.43127147479009e-04 7.83092045053546e-06
2.01260714285714e+01 3.34729250547826e-04 7.65408109767596e-06
2.02039285714286e+01 3.26536888734681e-04 7.48117917615056e-06
2.02817857142857e+01 3.18545031650358e-04 7.31212873880287e-06
2.03596428571429e+01 3.10748771984999e-04 7.14684563458350e-06
2.04375000000000e+01 3.03143322609296e-04 6.98524750700987e-06
2.05153571428571e+01 2.95724013482908e-04 6.82725375164903e-06
2.05932142857143e+01 2.88486288934851e-04 6.67278547706360e-06
2.06710714285714e+01 2.81425704722265e-04 6.52176547329162e-06
2.07489285714286e+01 2.74537925441456e-04 6.37411816711621e-06
2.08267857142857e+01 2.67818721761360e-04 6.22976962057125e-06
2.09046428571429e+01 2.61263967831466e-04 6.08864745195512e-06
2.09825000000000e+01 2.54869638842118e-04 5.95068083286210e-06
2.10603571428571e+01 2.48631808428580e-04 5.81580045126163e-06
2.11382142857143e+01 2.42546646381276e-04 5.68393847749607e-06
2.12160714285714e+01 2.36610416176063e-04 5.55502853656831e-06
2.12939285714286e+01 2.30819472794507e-04 5.42900566950982e-06
2.13717857142857e+01 2.25170260400174e-04 5.30580633066830e-06
2.14496428571429e+01 2.19659310159201e-04 5.18536832072368e-06
2.15275000000000e+01 2.14283238187101e-04 5.06763078282874e-06
2.16053571428571e+01 2.09038743368878e-04 4.95253417060841e-06
2.16832142857143e+01 2.03922605431319e-04 4.84002021861762e-06
2.17610714285714e+01 1.98931682869051e-04 4.73003191805236e-06
2.18389285714286e+01 1.94062911109505e-04 4.62251348343181e-06
2.19167857142857e+01 1.89313300561050e-04 4.51741034913034e-06
2.19946428571429e+01 1.84679934780528e-04 4.41466911258526e-06
2.20725000000000e+01 1.80159968745421e-04 4.31423752993980e-06
2.21503571428571e+01 1.75750627023223e-04 4.21606448835313e-06
2.22282142857143e+01 1.71449202148644e-04 4.12009998038184e-06
2.23060714285714e+01 1.67253052881936e-04 4.02629508274948e-06
2.23839285714286e+01 1.63159602664127e-04 3.93460192764774e-06
2.24617857142857e+01 1.59166337977430e-04 3.84497369885129e-06
2.25396428571429e+01 1.55270806804509e-04 3.75736458357702e-06
2.26175000000000e+01 1.51470617174512e-04 3.67172976791281e-06
2.26953571428571e+01 1.47763435625663e-04 3.58802541289345e-06
2.27732142857143e+01 1.44146985839233e-04 3.50620863232203e-06
2.28510714285714e+01 1.40619047176820e-04 3.42623747425764e-06
2.29289285714286e+01 1.37177453380022e-04 3.34807089632353e-06
2.30067857142857e+01 1.33820091193100e-04 3.27166876164854e-06
2.30846428571429e+01 1.30544899067539e-04 3.19699179806782e-06
2.31625000000000e+01 1.27349865938584e-04 3.12400159353710e-06
2.32403571428571e+01 1.24233029934026e-04 3.05266057549083e-06
2.33182142857143e+01 1.21192477224375e-04 2.98293199167065e-06
2.33960714285714e+01 1.18226340794357e-04 2.91477989401788e-06
2.34739285714286e+01 1.15332799348408e-04 2.84816911745123e-06
2.35517857142857e+01 1.12510076153599e-04 2.78306527580667e-06
2.36296428571429e+01 1.09756437950441e-04 2.71943472726645e-06
2.37075000000000e+01 1.07070193923426e-04 2.65724456989608e-06
2.37853571428571e+01 1.04449694616523e-04 2.59646262385635e-06
2.38632142857143e+01 1.01893330965395e-04 2.53705741485394e-06
2.39410714285714e+01 9.93995332655564e-05 2.47899816015327e-06
2.40189285714286e+01 9.69667702511604e-05 2.42225475035389e-06
2.40967857142857e+01 9.45935481229282e-05 2.36679774544596e-06
2.41746428571429e+01 9.22784096323591e-05 2.31259834552220e-06
2.42525000000000e+01 9.00199332155509e-05 2.25962838652777e-06
2.43303571428571e+01 8.78167320822715e-05 2.20786032494889e-06
2.44082142857143e+01 8.56674534014379e-05 2.15726722354485e-06
2.44860714285714e+01 8.35707774344142e-05 2.10782273922153e-06
2.45639285714286e+01 8.15254167596956e-05 2.05950110739791e-06
