Energy (eV)          EEDF (eV^-(3/2))     First Anisotropy
4.28571428571429e-02 4.81164835382752e-01 6.64311105844764e-04
1.28571428571429e-01 4.57977148786137e-01 1.07414571067608e-03
2.14285714285714e-01 4.35906893863459e-01 1.35879589927377e-03
3.00000000000000e-01 4.14900220695464e-01 1.54193767031808e-03
3.85714285714286e-01 3.94905874507694e-01 1.66926677291557e-03
4.71428571428571e-01 3.75875070527160e-01 1.75923126660817e-03
5.57142857142857e-01 3.57761374989529e-01 1.82193734683733e-03
6.42857142857143e-01 3.40520591726950e-01 1.86379662379099e-03
7.28571428571429e-01 3.24110654457508e-01 1.88924491773518e-03
8.14285714285714e-01 3.08491524125170e-01 1.90153054143529e-03
9.00000000000000e-01 2.93625091142718e-01 1.90312863310294e-03
9.85714285714286e-01 2.79475082473430e-01 1.89598071054188e-03
1.07142857142857e+00 2.66006973091240e-01 1.88164333505283e-03
1.15714285714286e+00 2.53187901849978e-01 1.86138558620759e-03
1.24285714285714e+00 2.40986591016380e-01 1.83625582096810e-03
1.32857142857143e+00 2.29373270268599e-01 1.80712907020289e-03
1.41428571428571e+00 2.18319604021755e-01 1.77474174130466e-03
1.50000000000000e+00 2.07798622033563e-01 1.73971762461073e-03
1.58571428571429e+00 1.97784653927800e-01 1.70258783989208e-03
1.67142857142857e+00 1.88253266269958e-01 1.66380641543898e-03
1.75714285714286e+00 1.79181203208907e-01 1.62376264491950e-03
1.84285714285714e+00 1.70546329504771e-01 1.58279103837357e-03
1.92857142857143e+00 1.62327576683960e-01 1.54117941531914e-03
2.01428571428571e+00 1.54504891618135e-01 1.49917559095139e-03
2.10000000000000e+00 1.47059187472051e-01 1.45699291650728e-03
2.18571428571429e+00 1.39972297293100e-01 1.41481493178479e-03
2.27142857142857e+00 1.33226929540649e-01 1.37279929699363e-03
2.35714285714286e+00 1.26806626026785e-01 1.33108113340043e-03
2.44285714285714e+00 1.20695721640724e-01 1.28977588548788e-03
2.52857142857143e+00 1.14879306212618e-01 1.24898177433979e-03
2.61428571428571e+00 1.09343188126106e-01 1.20878193104955e-03
2.70000000000000e+00 1.04073859625303e-01 1.16924623642924e-03
2.78571428571429e+00 9.90584639432045e-02 1.13043292818991e-03
2.87142857142857e+00 9.42847638531170e-02 1.09239000651449e-03
2.95714285714286e+00 8.97411118829905e-02 1.05515646440612e-03
3.04285714285714e+00 8.54164218301228e-02 1.01876337177498e-03
3.12857142857143e+00 8.13001417596721e-02 9.83234825448489e-04
3.21428571428571e+00 7.73822282544998e-02 9.48588796467508e-04
3.30000000000000e+00 7.36531218720735e-02 9.14837872100499e-04
3.38571428571429e+00 7.01037238695023e-02 8.81989916268726e-04
3.47142857142857e+00 6.67253739577418e-02 8.50048655984649e-04
3.55714285714286e+00 6.35098292130664e-02 8.19014201104987e-04
3.64285714285714e+00 6.04492439261893e-02 7.88883508104512e-04
3.72857142857143e+00 5.75361504874846e-02 7.59650789437841e-04
3.81428571428571e+00 5.47634411641494e-02 7.31307883523366e-04
3.90000000000000e+00 5.21243507354090e-02 7.03844579464242e-04
3.98571428571429e+00 4.96124400151919e-02 6.77248908350403e-04
4.07142857142857e+00 4.72215801138093e-02 6.51507403147275e-04
4.15714285714286e+00 4.49459375090711e-02 6.26605329534302e-04
4.24285714285714e+00 4.27799597895646e-02 6.02526892601373e-04
4.32857142857143e+00 4.07183621242068e-02 5.79255418737146e-04
4.41428571428571e+00 3.87561143662038e-02 5.56773521085283e-04
4.50000000000000e+00 3.68884287662007e-02 5.35063243487206e-04
4.58571428571429e+00 3.51107483083967e-02 5.14106189636202e-04
4.67142857142857e+00 3.34187355751275e-02 4.93883637852577e-04
4.75714285714286e+00 3.18082621793332e-02 4.74376642282879e-04
4.84285714285714e+00 3.02753986772035e-02 4.55566123076987e-04
4.92857142857143e+00 2.88164049911378e-02 4.37432944538940e-04
5.01428571428571e+00 2.74277212833509e-02 4.19957986285562e-04
5.10000000000000e+00 2.61059592616495e-02 4.03122203616563e-04
5.18571428571429e+00 2.48478939233565e-02 3.86906681174290e-04
5.27142857142857e+00 2.36504556761712e-02 3.71292679827262e-04
5.35714285714286e+00 2.25107228582456e-02 3.56261677028581e-04
5.44285714285714e+00 2.14259146005226e-02 3.41795402082148e-04
5.52857142857143e+00 2.03933840482189e-02 3.27875865426882e-04
5.61428571428571e+00 1.94106119021467e-02 3.14485385091365e-04
5.70000000000000e+00 1.84752002664633e-02 3.01606607608941e-04
5.78571428571429e+00 1.75848668049892e-02 2.89222525958811e-04
5.87142857142857e+00 1.67374391659176e-02 2.77316494345104e-04
5.95714285714286e+00 1.59308496875544e-02 2.65872239860822e-04
6.04285714285714e+00 1.51631303476455e-02 2.54873871878894e-04
6.12857142857143e+00 1.44324079657436e-02 2.44305888475664e-04
6.21428571428571e+00 1.37368996324391e-02 2.34153181909519e-04
6.30000000000000e+00 1.30749083557825e-02 2.24401041253906e-04
6.38571428571429e+00 1.24448189252226e-02 2.15035153834859e-04
6.47142857142857e+00 1.18450939664162e-02 2.06041605278341e-04
6.55714285714286e+00 1.12742701940682e-02 1.97406878141226e-04
6.64285714285714e+00 1.07309548379446e-02 1.89117849635880e-04
6.72857142857143e+00 1.02138222473119e-02 1.81161787932103e-04
6.81428571428571e+00 9.72161065622505e-03 1.73526348354548e-04
6.90000000000000e+00 9.25311910271446e-03 1.66199568152210e-04
6.98571428571429e+00 8.80720450141112e-03 1.59169860916650e-04
7.07142857142857e+00 8.38277885179362e-03 1.52426010482262e-04
7.15714285714286e+00 7.97880658608108e-03 1.45957164261031e-04
7.24285714285714e+00 7.59430204014264e-03 1.39752826326606e-04
7.32857142857143e+00 7.22832705029586e-03 1.33802849872868e-04
7.41428571428571e+00 6.87998866411368e-03 1.28097429915090e-04
7.50000000000000e+00 6.54843696025933e-03 1.22627095314959e-04
7.58571428571429e+00 6.23286297661442e-03 1.17382700838977e-04
7.67142857142857e+00 5.93249673470858e-03 1.12355419117848e-04
7.75714285714286e+00 5.64660536267916e-03 1.07536732458110e-04
7.84285714285714e+00 5.37449130556465e-03 1.02918424702953e-04
7.92857142857143e+00 5.11549062446156e-03 9.84925728733105e-05
8.01428571428571e+00 4.86897137646951e-03 9.42515391653789e-05
8.10000000000000e+00 4.63433207186399e-03 9.01879626672771e-05
8.18571428571429e+00 4.41100020773131e-03 8.62947512658282e-05
8.27142857142857e+00 4.19843086994937e-03 8.25650736422236e-05
8.35714285714286e+00 3.99610540471926e-03 7.89923513137841e-05
8.44285714285714e+00 3.80353015206880e-03 7.55702508461436e-05
8.52857142857143e+00 3.62023524210680e-03 7.22926760442481e-05
8.61428571428571e+00 3.44577344851432e-03 6.91537605066977e-05
8.70000000000000e+00 3.27971909673162e-03 6.61478601013902e-05
8.78571428571429e+00 3.12166702614990e-03 6.32695456767938e-05
8.87142857142857e+00 2.97123160078908e-03 6.05135959330639e-05
8.95714285714286e+00 2.82804576908737e-03 5.78749904180094e-05
9.04285714285714e+00 2.69176016765005e-03 5.53489027268861e-05
9.12857142857143e+00 2.56204226932229e-03 5.29306937699846e-05
9.21428571428571e+00 2.43857557180728e-03 5.06159053658263e-05
9.30000000000000e+00 2.32105882501833e-03 4.84002538531614e-05
9.38571428571429e+00 2.20920529658384e-03 4.62796239324417e-05
9.47142857142857e+00 2.10274207173839e-03 4.42500626807955e-05
9.55714285714286e+00 2.00140938790293e-03 4.23077737129483e-05
9.64285714285714e+00 1.90496000043751e-03 4.04491115384717e-05
9.72857142857143e+00 1.81315857970993e-03 3.86705760189994e-05
9.81428571428571e+00 1.72578113688225e-03 3.69688070988795e-05
9.90000000000000e+00 1.64261447712517e-03 3.53405795961538e-05
9.98571428571429e+00 1.56345567979232e-03 3.37827981735051e-05
1.00714285714286e+01 1.48811160318993e-03 3.22924925745439e-05
1.01571428571429e+01 1.41639841283432e-03 3.08668128347224e-05
1.02428571428571e+01 1.34814113366367e-03 2.95030247111576e-05
1.03285714285714e+01 1.28317322279074e-03 2.81985053693195e-05
1.04142857142857e+01 1.22133616315264e-03 2.69507390943641e-05
1.05000000000000e+01 1.16247907673922e-03 2.57573131276831e-05
1.05857142857143e+01 1.10645835697293e-03 2.46159138621572e-05
1.06714285714286e+01 1.05313731673152e-03 2.35243228947635e-05
1.07571428571429e+01 1.00238585648543e-03 2.24804131996143e-05
1.08428571428571e+01 9.54080146296217e-04 2.14821457452525e-05
1.09285714285714e+01 9.08102323679730e-04 2.05275659814650e-05
1.10142857142857e+01 8.64340206031639e-04 1.96148005143299e-05
1.11000000000000e+01 8.22687016909103e-04 1.87420538634720e-05
1.11857142857143e+01 7.83041125846274e-04 1.79076054859454e-05
1.12714285714286e+01 7.45305799320431e-04 1.71098067205666e-05
1.13571428571429e+01 7.09388965829690e-04 1.63470778327512e-05
1.14428571428571e+01 6.75202990864973e-04 1.56179053818033e-05
1.15285714285714e+01 6.42664463087661e-04 1.49208395141792e-05
1.16142857142857e+01 6.11693990812869e-04 1.42544914012239e-05
1.17000000000000e+01 5.82216008298918e-04 1.36175307475733e-05
1.17857142857143e+01 5.54158591602240e-04 1.30086834966047e-05
1.18714285714286e+01 5.27453282374479e-04 1.24267294935959e-05
1.19571428571429e+01 5.02034921567938e-04 1.18705002300277e-05
1.20428571428571e+01 4.77841490196952e-04 1.13388768213946e-05
1.21285714285714e+01 4.54813958015742e-04 1.08307879446417e-05
1.22142857142857e+01 4.32896139489456e-04 1.03452078852640e-05
1.23000000000000e+01 4.12034556705166e-04 9.88115464263392e-06
1.23857142857143e+01 3.92178309044378e-04 9.43768818030283e-06
1.24714285714286e+01 3.73278948508740e-04 9.01390865560067e-06
1.25571428571429e+01 3.55290362007796e-04 8.60895471327573e-06
1.26428571428571e+01 3.38168658674565e-04 8.22200194792590e-06
1.27285714285714e+01 3.21872062774797e-04 7.85226134578616e-06
1.28142857142857e+01 3.06360811777572e-04 7.49897780904553e-06
1.29000000000000e+01 2.91597059337358e-04 7.16142872682111e-06
1.29857142857143e+01 2.77544783056099e-04 6.83892265240607e-06
1.30714285714286e+01 2.64169696266948e-04 6.53079797198109e-06
1.31571428571429e+01 2.51439164712873e-04 6.23642162304579e-06
1.32428571428571e+01 2.39322126805510e-04 5.95518793467681e-06
1.33285714285714e+01 2.27789017836997e-04 5.68651745843985e-06
1.34142857142857e+01 2.16811697844461e-04 5.42985586099191e-06
1.35000000000000e+01 2.06363382950387e-04 5.18467285333576e-06
1.35857142857143e+01 1.96418580082522e-04 4.95046119774680e-06
1.36714285714286e+01 1.86953024553359e-04 4.72673571273049e-06
1.37571428571429e+01 1.77943621082988e-04 4.51303231610673e-06
1.38428571428571e+01 1.69368387369902e-04 4.30890715591392e-06
1.39285714285714e+01 1.61206400455681e-04 4.11393573820849e-06
1.40142857142857e+01 1.53437745674634e-04 3.92771210072670e-06
1.41000000000000e+01 1.46043468063358e-04 3.74984801491857e-06
1.41857142857143e+01 1.39005526159855e-04 3.57997224460891e-06
1.42714285714286e+01 1.32306747835093e-04 3.41772980598865e-06
1.43571428571429e+01 1.25930788548014e-04 3.26278125656244e-06
1.44428571428571e+01 1.19862091412932e-04 3.11480204733477e-06
1.45285714285714e+01 1.14085849241797e-04 2.97348187514972e-06
1.46142857142857e+01 1.08587968415823e-04 2.83852406897238e-06
1.47000000000000e+01 1.03355034498008e-04 2.70964499788651e-06
1.47857142857143e+01 9.83742795353728e-05 2.58657352028925e-06
1.48714285714286e+01 9.36335508052150e-05 2.46905043585599e-06
1.49571428571429e+01 8.91212812677182e-05 2.35682795932888e-06
1.50428571428571e+01 8.48264613071648e-05 2.24966923980158e-06
1.51285714285714e+01 8.07386118692307e-05 2.14734788169219e-06
1.52142857142857e+01 7.68477588929122e-05 2.04964749074196e-06
1.53000000000000e+01 7.31444089744939e-05 1.95636123648785e-06
1.53857142857143e+01 6.96195262264241e-05 1.86729144465218e-06
1.54714285714286e+01 6.62645101618187e-05 1.78224919272519e-06
1.55571428571429e+01 6.30711747808622e-05 1.70105392189260e-06
1.56428571428571e+01 6.00317285730514e-05 1.62353308166914e-06
1.57285714285714e+01 5.71387555064475e-05 1.54952177679192e-06
1.58142857142857e+01 5.43851969331339e-05 1.47886243250689e-06
1.59000000000000e+01 5.17643343665964e-05 1.41140447226245e-06
1.59857142857143e+01 4.92697731041484e-05 1.34700401709483e-06
1.60714285714286e+01 4.68954265776122e-05 1.28552358810587e-06
1.61571428571429e+01 4.46355015508591e-05 1.22683182111925e-06
1.62428571428571e+01 4.24844839680432e-05 1.17080320483173e-06
1.63285714285714e+01 4.04371254996867e-05 1.11731782128410e-06
1.64142857142857e+01 3.84884307371610e-05 1.06626109981330e-06
1.65000000000000e+01 3.66336450042311e-05 1.01752358029389e-06
1.65857142857143e+01 3.48682427662513e-05 9.71000692085562e-07
1.66714285714286e+01 3.31879165563346e-05 9.26592535733577e-07
1.67571428571429e+01 3.15885664984009e-05 8.84203673703733e-07
1.68428571428571e+01 3.00662902923951e-05 8.43742937985091e-07
1.69285714285714e+01 2.86173736929456e-05 8.05123239822662e-07
1.70142857142857e+01 2.72382814468911e-05 7.68261389307946e-07
1.71000000000000e+01 2.59256486675047e-05 7.33077921889844e-07
1.71857142857143e+01 2.46762726314219e-05 6.99496936243983e-07
1.72714285714286e+01 2.34871049424747e-05 6.67445934473646e-07
1.73571428571429e+01 2.23552441163291e-05 6.36855668988065e-07
1.74428571428571e+01 2.12779284933026e-05 6.07660001483937e-07
1.75285714285714e+01 2.02525295001060e-05 5.79795763766184e-07
1.76142857142857e+01 1.92765452363259e-05 5.53202625762078e-07
1.77000000000000e+01 1.83475943699590e-05 5.27822968669373e-07
1.77857142857143e+01 1.74634103319266e-05 5.03601766309810e-07
1.78714285714286e+01 1.66218357709365e-05 4.80486468393652e-07
1.79571428571429e+01 1.58208173050880e-05 4.58426888703721e-07
1.80428571428571e+01 1.50584005064555e-05 4.37375101959572e-07
1.81285714285714e+01 1.43327251324206e-05 4.17285342209341e-07
1.82142857142857e+01 1.36420205868216e-05 3.98113906461078e-07
1.83000000000000e+01 1.29846015998206e-05 3.79819062109154e-07
1.83857142857143e+01 1.23588641192474e-05 3.62360960282530e-07
1.84714285714286e+01 1.17632813866471e-05 3.45701550723469e-07
1.85571428571429e+01 1.11964002226312e-05 3.29804500280612e-07
1.86428571428571e+01 1.06568374775889e-05 3.14635117624429e-07
1.87285714285714e+01 1.01432766568980e-05 3.00160279198023e-07
1.88142857142857e+01 9.65446470877797e-06 2.86348358978106e-07
1.89000000000000e+01 9.18920896693034e-06 2.73169161032574e-07
1.89857142857143e+01 8.74637424276651e-06 2.60593856348175e-07
1.90714285714286e+01 8.32488004865343e-06 2.48594920862940e-07
1.91571428571429e+01 7.92369796881819e-06 2.37146076147618e-07
1.92428571428571e+01 7.54184914759615e-06 2.26222234545811e-07
1.93285714285714e+01 7.17840190109147e-06 2.15799445293777e-07
1.94142857142857e+01 6.83246944393873e-06 2.05854843406999e-07
1.95000000000000e+01 6.50320772560803e-06 1.96366600621954e-07
1.95857142857143e+01 6.18981337252446e-06 1.87313879414530e-07
1.96714285714286e+01 5.89152172310932e-06 1.78676787954306e-07
1.97571428571429e+01 5.60760496701081e-06 1.70436336996181e-07
1.98428571428571e+01 5.33737036759040e-06 1.62574399965679e-07
1.99285714285714e+01 5.08015857169379e-06 1.55073673809755e-07
2.00142857142857e+01 4.83534200087891e-06 1.47917641854074e-07
2.01000000000000e+01 4.60232332016796e-06 1.41090538167046e-07
2.01857142857143e+01 4.38053398165185e-06 1.34577314138997e-07
2.02714285714286e+01 4.16943283398882e-06 1.28363605780744e-07
2.03571428571429e+01 3.96850480543252e-06 1.22435702436329e-07
2.04428571428571e+01 3.77725964592092e-06 1.16780517782537e-07
2.05285714285714e+01 3.59523073090036e-06 1.11385561419643e-07
2.06142857142857e+01 3.42197392279677e-06 1.06238911915563e-07
2.07000000000000e+01 3.25706648735072e-06 1.01329190952320e-07
2.07857142857143e+01 3.10010606290392e-06 9.66455390663403e-08
2.08714285714286e+01 2.95070967640795e-06 9.21775919370404e-08
2.09571428571429e+01 2.80851281133293e-06 8.79154577059400e-08
2.10428571428571e+01 2.67316851746727e-06 8.38496959326397e-08
2.11285714285714e+01 2.54434656438343e-06 7.99712970031997e-08
2.12142857142857e+01 2.42173263570040e-06 7.62716625901666e-08
2.13000000000000e+01 2.30502756217362e-06 7.27425869175325e-08
2.13857142857143e+01 2.19394659224393e-06 6.93762391717578e-08
2.14714285714286e+01 2.08821869571145e-06 6.61651463277732e-08
2.15571428571429e+01 1.98758590404755e-06 6.31021767247722e-08
2.16428571428571e+01 1.89180268041576e-06 6.01805248133168e-08
2.17285714285714e+01 1.80063532057909e-06 5.73936962459678e-08
2.18142857142857e+01 1.71386138267917e-06 5.47354937281309e-08
2.19000000000000e+01 1.63126914449358e-06 5.22000034556707e-08
2.19857142857143e+01 1.55265708719334e-06 4.97815823761701e-08
2.20714285714286e+01 1.47783340258259e-06 4.74748457624093e-08
2.21571428571429e+01 1.40661552620593e-06 4.52746553306257e-08
2.22428571428571e+01 1.33882969152267e-06 4.31761081967110e-08
2.23285714285714e+01 1.27431050592867e-06 4.11745260915964e-08
2.24142857142857e+01 1.21290054721069e-06 3.92654451256942e-08
2.25000000000000e+01 1.15444997944716e-06 3.74446059804218e-08
2.25857142857143e+01 1.09881618765663e-06 3.57079446913468e-08
2.26714285714286e+01 1.04586342909116e-06 3.40515836650642e-08
2.27571428571429e+01 9.95462502795319e-07 3.24718230914042e-08
2.28428571428571e+01 9.47490434102267e-07 3.09651329549224e-08
2.29285714285714e+01 9.01830174584222e-07 2.95281452408966e-08
2.30142857142857e+01 8.58370316462984e-07 2.81576465375475e-08
2.31000000000000e+01 8.17004820782738e-07 2.68505709486820e-08
2.31857142857143e+01 7.77632758846198e-07 2.56039934310938e-08
2.32714285714286e+01 7.40158065448313e-07 2.44151233061850e-08
2.33571428571429e+01 7.04489305008981e-07 2.32812980581379e-08
2.34428571428571e+01 6.70539448295634e-07 2.21999775605786e-08
2.35285714285714e+01 6.38225660078023e-07 2.11687384485348e-08
2.36142857142857e+01 6.07469097016399e-07 2.01852687761121e-08
2.37000000000000e+01 5.78194715289276e-07 1.92473628995152e-08
2.37857142857143e+01 5.50331087604732e-07 1.83529166648863e-08
2.38714285714286e+01 5.23810228572864e-07 1.74999227255235e-08
2.39571428571429e+01 4.98567429188391e-07 1.66864660665822e-08
2.40428571428571e+01 4.74541098820365e-07 1.59107198360805e-08
2.41285714285714e+01 4.51672614935360e-07 1.51709412840042e-08
2.42142857142857e+01 4.29906180062833e-07 1.44654679073000e-08
2.43000000000000e+01 4.09188685653198e-07 1.37927137582664e-08
2.43857142857143e+01 3.89469582574663e-07 1.31511659715978e-08
2.44714285714286e+01 3.70700757535340e-07 1.25393813871938e-08
2.45571428571429e+01 3.52836415940174e-07 1.19559833230572e-08
2.46428571428571e+01 3.35832970069173e-07 1.13996585671013e-08
2.47285714285714e+01 3.19648932726433e-07 1.08691544491050e-08
2.48142857142857e+01 3.04244816014452e-07 1.03632760609342e-08
2.49000000000000e+01 2.89583034986417e-07 9.88088359511764e-09
2.49857142857143e+01 2.75627815995432e-07 9.42088984020832e-09
2.50714285714286e+01 2.62345109242496e-07 8.98225774682175e-09
2.51571428571429e+01 2.49702505870031e-07 8.56399810215149e-09
2.52428571428571e+01 2.37669158827036e-07 8.16516736089993e-09
2.53285714285714e+01 2.26215707604451e-07 7.78486553545124e-09
2.54142857142857e+01 2.15314206597680e-07 7.42223419275201e-09
2.55000000000000e+01 2.04938056921274e-07 7.07645453683628e-09
2.55857142857143e+01 1.95061941546740e-07 6.74674560373106e-09
2.56714285714286e+01 1.85661763415470e-07 6.43236250839208e-09
2.57571428571429e+01 1.76714586762924e-07 6.13259476997573e-09
2.58428571428571e+01 1.68198581115850e-07 5.84676474885111e-09
2.59285714285714e+01 1.60092968027465e-07 5.57422612728321e-09
2.60142857142857e+01 1.52377970379573e-07 5.31436246687007e-09
2.61000000000000e+01 1.45034764127788e-07 5.06658582789942e-09
2.61857142857143e+01 1.38045432397921e-07 4.83033546922995e-09
2.62714285714286e+01 1.31392921690344e-07 4.60507658638705e-09
2.63571428571429e+01 1.25061000353148e-07 4.39029910618584e-09
2.64428571428571e+01 1.19034218949613e-07 4.18551656116438e-09
2.65285714285714e+01 1.13297872562675e-07 3.99026499613130e-09
2.66142857142857e+01 1.07837964916005e-07 3.80410192989348e-09
2.67000000000000e+01 1.02641174224082e-07 3.62660536171307e-09
2.67857142857143e+01 9.76948207057741e-08 3.45737283544451e-09
2.68714285714286e+01 9.29868355914121e-08 3.29602053168130e-09
2.69571428571429e+01 8.85057317329103e-08 3.14218240066379e-09
2.70428571428571e+01 8.42405755562612e-08 2.99550935218099e-09
