Energy (eV)          EEDF (eV^-(3/2))     First Anisotropy
9.75000000000000e-02 1.76533627097361e-01 2.63438951413046e-04
2.92500000000000e-01 1.66626937337301e-01 4.24232785394391e-04
4.87500000000000e-01 1.57276189828105e-01 5.32185572305685e-04
6.82500000000000e-01 1.48450186279147e-01 5.98885125212134e-04
8.77500000000000e-01 1.40119479181173e-01 6.42939777410665e-04
1.07250000000000e+00 1.32256273556196e-01 6.71947466911777e-04
1.26750000000000e+00 1.24834334220974e-01 6.90102599799740e-04
1.46250000000000e+00 1.17828898254663e-01 7.00078249506896e-04
1.65750000000000e+00 1.11216592378598e-01 7.03726922197156e-04
1.85250000000000e+00 1.04975354972545e-01 7.02404115922739e-04
2.04750000000000e+00 9.90843624672366e-02 6.97139555141742e-04
2.24250000000000e+00 9.35239598675937e-02 6.88736873930167e-04
2.43750000000000e+00 8.82755951748438e-02 6.77835899967591e-04
2.63250000000000e+00 8.33217574887253e-02 6.64953759605302e-04
2.82750000000000e+00 7.86459185832641e-02 6.50513214318518e-04
3.02250000000000e+00 7.42324777611940e-02 6.34862900570816e-04
3.21750000000000e+00 7.00667098030285e-02 6.18292217416197e-04
3.41250000000000e+00 6.61347158371187e-02 6.01042550113786e-04
3.60750000000000e+00 6.24233769667802e-02 5.83315909678013e-04
3.80250000000000e+00 5.89203104997648e-02 5.65281702621117e-04
3.99750000000000e+00 5.56138286340415e-02 5.47082117185751e-04
4.19250000000000e+00 5.24928994620435e-02 5.28836465676407e-04
4.38750000000000e+00 4.95471101632724e-02 5.10644725441122e-04
4.58250000000000e+00 4.67666322624557e-02 4.92590455232936e-04
4.77750000000000e+00 4.41421888373422e-02 4.74743218047291e-04
4.97250000000000e+00 4.16650235667249e-02 4.57160609261989e-04
5.16750000000000e+00 3.93268715154241e-02 4.39889965674524e-04
5.36250000000000e+00 3.71199315587533e-02 4.22969814031766e-04
5.55750000000000e+00 3.50368403544665e-02 4.06431105020871e-04
5.75250000000000e+00 3.30706477753431e-02 3.90298269184080e-04
5.94750000000000e+00 3.12147937204442e-02 3.74590123972346e-04
6.14250000000000e+00 2.94630862276714e-02 3.59320655562669e-04
6.33750000000000e+00 2.78096808146021e-02 3.44499694706009e-04
6.53250000000000e+00 2.62490609786730e-02 3.30133502441298e-04
6.72750000000000e+00 2.47760197916515e-02 3.16225278784196e-04
6.92250000000000e+00 2.33856425269862e-02 3.02775605313722e-04
7.11750000000000e+00 2.20732902620728e-02 2.89782830813929e-04
7.31250000000000e+00 2.08345844007267e-02 2.77243407690446e-04
7.50750000000000e+00 1.96653920642207e-02 2.65152185703407e-04
7.70250000000000e+00 1.85618123021462e-02 2.53502668586235e-04
7.89750000000000e+00 1.75201630770925e-02 2.42287238312805e-04
8.09250000000000e+00 1.65369689797167e-02 2.31497351101918e-04
8.28750000000000e+00 1.56089496332185e-02 2.21123708682717e-04
8.48250000000000e+00 1.47330087485310e-02 2.11156407867820e-04
8.67750000000000e+00 1.39062237937105e-02 2.01585071076979e-04
8.87250000000000e+00 1.31258362430580e-02 1.92398960110150e-04
9.06750000000000e+00 1.23892423734399e-02 1.83587075175113e-04
9.26250000000000e+00 1.16939845770983e-02 1.75138240922683e-04
9.45750000000000e+00 1.10377431619690e-02 1.67041181025622e-04
9.65250000000000e+00 1.04183286121474e-02 1.59284582649962e-04
9.84750000000000e+00 9.83367428268069e-03 1.51857152005118e-04
1.00425000000000e+01 9.28182950431276e-03 1.44747662018076e-04
1.02375000000000e+01 8.76095307517604e-03 1.37944993054099e-04
1.04325000000000e+01 8.26930711771562e-03 1.31438167498978e-04
1.06275000000000e+01 7.80525128034980e-03 1.25216378923944e-04
1.08225000000000e+01 7.36723726452087e-03 1.19269016471860e-04
1.10175000000000e+01 6.95380365887624e-03 1.13585685030837e-04
1.12125000000000e+01 6.56357106334425e-03 1.08156221697578e-04
1.14075000000000e+01 6.19523748683636e-03 1.02970708976367e-04
1.16025000000000e+01 5.84757400322055e-03 9.80194851098801e-05
1.17975000000000e+01 5.51942065107214e-03 9.32931518938953e-05
1.19925000000000e+01 5.20968256352181e-03 8.87825802889001e-05
1.21875000000000e+01 4.91732631528839e-03 8.44789141069651e-05
1.23825000000000e+01 4.64137647470822e-03 8.03735720214266e-05
1.25775000000000e+01 4.38091234925731e-03 7.64582481195404e-05
1.27725000000000e+01 4.13506491370790e-03 7.27249111938759e-05
1.29675000000000e+01 3.90301391067019e-03 6.91658029465014e-05
1.31625000000000e+01 3.68398511384558e-03 6.57734352606351e-05
1.33575000000000e+01 3.47724774486017e-03 6.25405866771499e-05
1.35525000000000e+01 3.28211203506019e-03 5.94602981978850e-05
1.37475000000000e+01 3.09792692413411e-03 5.65258685239423e-05
1.39425000000000e+01 2.92407788788326e-03 5.37308488248206e-05
1.41375000000000e+01 2.75998488789327e-03 5.10690371232315e-05
1.43325000000000e+01 2.60510043626558e-03 4.85344723705999e-05
1.45275000000000e+01 2.45890776895208e-03 4.61214282794457e-05
1.47225000000000e+01 2.32091912159833e-03 4.38244069709735e-05
1.49175000000000e+01 2.19067410214267e-03 4.16381324891537e-05
1.51125000000000e+01 2.06773815474176e-03 3.95575442262859e-05
1.53075000000000e+01 1.95170110989718e-03 3.75777902994039e-05
1.55025000000000e+01 1.84217581594591e-03 3.56942209118505e-05
1.56975000000000e+01 1.73879684734860e-03 3.39023817298572e-05
1.58925000000000e+01 1.64121928546596e-03 3.21980072999489e-05
1.60875000000000e+01 1.54911756775539e-03 3.05770145294046e-05
1.62825000000000e+01 1.46218440154818e-03 2.90354962488172e-05
1.64775000000000e+01 1.38012973878326e-03 2.75697148729402e-05
1.66725000000000e+01 1.30267980827669e-03 2.61760961734767e-05
1.68675000000000e+01 1.22957620229810e-03 2.48512231752063e-05
1.70625000000000e+01 1.16057501440654e-03 2.35918301848418e-05
1.72575000000000e+01 1.09544602566908e-03 2.23947969602325e-05
1.74525000000000e+01 1.03397193654716e-03 2.12571430259512e-05
1.76475000000000e+01 9.75947641887793e-04 2.01760221399111e-05
1.78425000000000e+01 9.21179546600680e-04 1.91487169144309e-05
1.80375000000000e+01 8.69484919738140e-04 1.81726335940844e-05
1.82325000000000e+01 8.20691284822630e-04 1.72452969917186e-05
1.84275000000000e+01 7.74635844387808e-04 1.63643455831957e-05
1.86225000000000e+01 7.31164936813114e-04 1.55275267606894e-05
1.88175000000000e+01 6.90133523639640e-04 1.47326922437331e-05
1.90125000000000e+01 6.51404705656726e-04 1.39777936466744e-05
1.92075000000000e+01 6.14849266144753e-04 1.32608782007223e-05
1.94025000000000e+01 5.80345239750171e-04 1.25800846283722e-05
1.95975000000000e+01 5.47777505554329e-04 1.19336391676523e-05
1.97925000000000e+01 5.17037402978431e-04 1.13198517433544e-05
1.99875000000000e+01 4.88022369243066e-04 1.07371122821701e-05
2.01825000000000e+01 4.60635597172747e-04 1.01838871684622e-05
2.03775000000000e+01 4.34785712203719e-04 9.65871583724588e-06
2.05725000000000e+01 4.10386467517409e-04 9.16020750083062e-06
2.07675000000000e+01 3.87356456282319e-04 8.68703800548419e-06
2.09625000000000e+01 3.65618840044309e-04 8.23794681441404e-06
2.11575000000000e+01 3.45101092359016e-04 7.81173411331894e-06
2.13525000000000e+01 3.25734756811091e-04 7.40725803474459e-06
2.15475000000000e+01 3.07455218612867e-04 7.02343199747157e-06
2.17425000000000e+01 2.90201489020429e-04 6.65922215717759e-06
2.19375000000000e+01 2.73916001847788e-04 6.31364496464193e-06
2.21325000000000e+01 2.58544421400249e-04 5.98576482779762e-06
2.23275000000000e+01 2.44035461186143e-04 5.67469187398488e-06
2.25225000000000e+01 2.30340712802076e-04 5.37957980881587e-06
2.27175000000000e+01 2.17414484420763e-04 5.09962386812485e-06
2.29125000000000e+01 2.05213648342587e-04 4.83405885954744e-06
2.31075000000000e+01 1.93697497102237e-04 4.58215729034806e-06
2.33025000000000e+01 1.82827607650329e-04 4.34322757819352e-06
2.34975000000000e+01 1.72567713156871e-04 4.11661234165312e-06
2.36925000000000e+01 1.62883582008838e-04 3.90168676729040e-06
2.38875000000000e+01 1.53742903598149e-04 3.69785705029875e-06
2.40825000000000e+01 1.45115180518975e-04 3.50455890572075e-06
2.42775000000000e+01 1.36971626814704e-04 3.32125614738025e-06
2.44725000000000e+01 1.29285071935072e-04 3.14743933174506e-06
2.46675000000000e+01 1.22029870083009e-04 2.98262446402696e-06
2.48625000000000e+01 1.15181814648751e-04 2.82635176391488e-06
2.50575000000000e+01 1.08718057445729e-04 2.67818448842466e-06
2.52525000000000e+01 1.02617032478754e-04 2.53770780943539e-06
2.54475000000000e+01 9.68583839901876e-05 2.40452774356851e-06
2.56425000000000e+01 9.14228985439917e-05 2.27827013214979e-06
2.58375000000000e+01 8.62924409210847e-05 2.15857966907726e-06
2.60325000000000e+01 8.14498936121104e-05 2.04511897449885e-06
2.62275000000000e+01 7.68790997057442e-05 1.93756771228306e-06
2.64225000000000e+01 7.25648089819845e-05 1.83562174934313e-06
2.66175000000000e+01 6.84926270305747e-05 1.73899235495076e-06
2.68125000000000e+01 6.46489672247892e-05 1.64740543824836e-06
2.70075000000000e+01 6.10210053903491e-05 1.56060082224068e-06
2.72025000000000e+01 5.75966370182205e-05 1.47833155261555e-06
2.73975000000000e+01 5.43644368785394e-05 1.40036323981064e-06
2.75925000000000e+01 5.13136209009171e-05 1.32647343280838e-06
2.77875000000000e+01 4.84340101939409e-05 1.25645102320387e-06
2.79825000000000e+01 4.57159970838239e-05 1.19009567815176e-06
2.81775000000000e+01 4.31505130588929e-05 1.12721730085680e-06
2.83725000000000e+01 4.07289985129630e-05 1.06763551732937e-06
2.85675000000000e+01 3.84433741866499e-05 1.01117918818232e-06
2.87625000000000e+01 3.62860142113340e-05 9.57685944298232e-07
2.89575000000000e+01 3.42497206658404e-05 9.07001745246932e-07
2.91525000000000e+01 3.23276995609424e-05 8.58980459382101e-07
2.93475000000000e+01 3.05135381715649e-05 8.13483464593102e-07
2.95425000000000e+01 2.88011836410548e-05 7.70379268733295e-07
2.97375000000000e+01 2.71849227861346e-05 7.29543148789705e-07
2.99325000000000e+01 2.56593630351587e-05 6.90856807900802e-07
3.01275000000000e+01 2.42194144360742e-05 6.54208049369225e-07
3.03225000000000e+01 2.28602726740559e-05 6.19490466854946e-07
3.05175000000000e+01 2.15774030421561e-05 5.86603149971292e-07
3.07125000000000e+01 2.03665253114867e-05 5.55450404541719e-07
3.09075000000000e+01 1.92235994504546e-05 5.25941486809256e-07
3.11025000000000e+01 1.81448121454028e-05 4.97990350923064e-07
3.12975000000000e+01 1.71265640776848e-05 4.71515409057840e-07
3.14925000000000e+01 1.61654579147219e-05 4.46439303551590e-07
3.16875000000000e+01 1.52582869749769e-05 4.22688690475916e-07
3.18825000000000e+01 1.44020245290251e-05 4.00194034080400e-07
3.20775000000000e+01 1.35938137010270e-05 3.78889411578738e-07
3.22725000000000e+01 1.28309579369073e-05 3.58712327769359e-07
3.24675000000000e+01 1.21109120074411e-05 3.39603539007254e-07
3.26625000000000e+01 1.14312735162262e-05 3.21506886066497e-07
3.28575000000000e+01 1.07897748842107e-05 3.04369135454927e-07
3.30525000000000e+01 1.01842757840317e-05 2.88139828763252e-07
3.32475000000000e+01 9.61275599892194e-06 2.72771139650810e-07
3.34425000000000e+01 9.07330868236062e-06 2.58217738089297e-07
3.36375000000000e+01 8.56413399597715e-06 2.44436661503903e-07
3.38325000000000e+01 8.08353310448260e-06 2.31387192468674e-07
3.40275000000000e+01 7.62990250759272e-06 2.19030742629484e-07
3.42225000000000e+01 7.20172869003124e-06 2.07330742543786e-07
3.44175000000000e+01 6.79758307176363e-06 1.96252537141371e-07
3.46125000000000e+01 6.41611724161286e-06 1.85763286524775e-07
3.48075000000000e+01 6.05605845835455e-06 1.75831871841612e-07
3.50025000000000e+01 5.71620540428096e-06 1.66428805974247e-07
3.51975000000000e+01 5.39542417706595e-06 1.57526148804606e-07
3.53925000000000e+01 5.09264450655785e-06 1.49097426823850e-07
3.55875000000000e+01 4.80685618387791e-06 1.41117556867895e-07
3.57825000000000e+01 4.53710569091003e-06 1.33562773770564e-07
3.59775000000000e+01 4.28249301893636e-06 1.26410561736408e-07
3.61725000000000e+01 4.04216866580424e-06 1.19639589245017e-07
3.63675000000000e+01 3.81533080160578e-06 1.13229647307930e-07
3.65625000000000e+01 3.60122259341338e-06 1.07161590908133e-07
3.67575000000000e+01 3.39912968014535e-06 1.01417283460578e-07
3.69525000000000e+01 3.20837778913678e-06 9.59795441401562e-08
3.71475000000000e+01 3.02833048646325e-06 9.08320979312402e-08
3.73425000000000e+01 2.85838705351159e-06 8.59595282601651e-08
3.75375000000000e+01 2.69798048271302e-06 8.13472320789448e-08
3.77325000000000e+01 2.54657558575136e-06 7.69813772751127e-08
3.79275000000000e+01 2.40366720793461e-06 7.28488622888323e-08
3.81225000000000e+01 2.26877854277217e-06 6.89372778243977e-08
3.83175000000000e+01 2.14145954113439e-06 6.52348705489047e-08
3.85125000000000e+01 2.02128540968664e-06 6.17305086762670e-08
3.87075000000000e+01 1.90785519358813e-06 5.84136493398841e-08
3.89025000000000e+01 1.80079043872655e-06 5.52743076621401e-08
3.90975000000000e+01 1.69973392902535e-06 5.23030274335500e-08
3.92925000000000e+01 1.60434849461052e-06 4.94908533187747e-08
3.94875000000000e+01 1.51431588686058e-06 4.68293045109188e-08
3.96825000000000e+01 1.42933571658633e-06 4.43103497595090e-08
3.98775000000000e+01 1.34912445179773e-06 4.19263837013292e-08
4.00725000000000e+01 1.27341447171385e-06 3.96702044268892e-08
4.02675000000000e+01 1.20195317385989e-06 3.75349922187239e-08
4.04625000000000e+01 1.13450213127192e-06 3.55142894009625e-08
4.06575000000000e+01 1.07083629699750e-06 3.36019812426958e-08
4.08525000000000e+01 1.01074325323809e-06 3.17922778606011e-08
4.10475000000000e+01 9.54022502627871e-07 3.00796970690676e-08
4.12425000000000e+01 9.00484799284579e-07 2.84590481287101e-08
4.14375000000000e+01 8.49951517400299e-07 2.69254163466739e-08
4.16325000000000e+01 8.02254055265585e-07 2.54741484845152e-08
4.18275000000000e+01 7.57233272738494e-07 2.41008389317124e-08
4.20225000000000e+01 7.14738960281635e-07 2.28013166050119e-08
4.22175000000000e+01 6.74629337795742e-07 2.15716325358558e-08
4.24125000000000e+01 6.36770581577622e-07 2.04080481100824e-08
4.26075000000000e+01 6.01036377824217e-07 1.93070239259266e-08
4.28025000000000e+01 5.67307501193064e-07 1.82652092381015e-08
4.29975000000000e+01 5.35471417013040e-07 1.72794319573984e-08
4.31925000000000e+01 5.05421905818189e-07 1.63466891768226e-08
4.33875000000000e+01 4.77058708951910e-07 1.54641381967724e-08
4.35825000000000e+01 4.50287194059076e-07 1.46290880231940e-08
4.37775000000000e+01 4.25018039350027e-07 1.38389913139902e-08
4.39725000000000e+01 4.01166935582986e-07 1.30914367502371e-08
4.41675000000000e+01 3.78654304770591e-07 1.23841418099816e-08
4.43625000000000e+01 3.57405034672006e-07 1.17149459235399e-08
4.45575000000000e+01 3.37348228184777e-07 1.10818039903111e-08
4.47525000000000e+01 3.18416966800279e-07 1.04827802381575e-08
4.49475000000000e+01 3.00548087333530e-07 9.91604240738671e-09
4.51425000000000e+01 2.83681971182460e-07 9.37985624230164e-09
4.53375000000000e+01 2.67762345413496e-07 8.87258027417442e-09
4.55325000000000e+01 2.52736095009795e-07 8.39266088033504e-09
4.57275000000000e+01 2.38553085655713e-07 7.93862760486603e-09
4.59225000000000e+01 2.25165996466220e-07 7.50908872714812e-09
4.61175000000000e+01 2.12530162103194e-07 7.10272706521983e-09
4.63125000000000e+01 2.00603423751803e-07 6.71829600159324e-09
4.65075000000000e+01 1.89345988459774e-07 6.35461571981277e-09
4.67025000000000e+01 1.78720296370250e-07 6.01056964065597e-09
4.68975000000000e+01 1.68690895405242e-07 5.68510104745516e-09
4.70925000000000e+01 1.59224322981590e-07 5.37720989056821e-09
4.72875000000000e+01 1.50288994364767e-07 5.08594976154894e-09
4.74825000000000e+01 1.41855097288021e-07 4.81042502806156e-09
4.76775000000000e+01 1.33894492485283e-07 4.54978812105302e-09
4.78725000000000e+01 1.26380619805937e-07 4.30323696614119e-09
4.80675000000000e+01 1.19288409598238e-07 4.07001255159896e-09
4.82625000000000e+01 1.12594199065707e-07 3.84939662571324e-09
4.84575000000000e+01 1.06275653317414e-07 3.64070951667737e-09
4.86525000000000e+01 1.00311690848762e-07 3.44330806853434e-09
4.88475000000000e+01 9.46824132041243e-08 3.25658368702862e-09
4.90425000000000e+01 8.93690385866637e-08 3.07996048954756e-09
4.92375000000000e+01 8.43538391938313e-08 2.91289355363885e-09
4.94325000000000e+01 7.96200820694583e-08 2.75486725888077e-09
4.96275000000000e+01 7.51519732751045e-08 2.60539371715690e-09
4.98225000000000e+01 7.09346051943908e-08 2.46401128664742e-09
5.00175000000000e+01 6.69539067944999e-08 2.33028316509602e-09
5.02125000000000e+01 6.31965966788952e-08 2.20379605814555e-09
5.04075000000000e+01 5.96501387746209e-08 2.08415891875749e-09
5.06025000000000e+01 5.63027005063357e-08 1.97100175394014e-09
5.07975000000000e+01 5.31431133175312e-08 1.86397449521009e-09
5.09925000000000e+01 5.01608354072137e-08 1.76274592940003e-09
5.11875000000000e+01 4.73459165577256e-08 1.66700268660488e-09
5.13825000000000e+01 4.46889649363523e-08 1.57644828222771e-09
5.15775000000000e+01 4.21811157599536e-08 1.49080221024776e-09
5.17725000000000e+01 3.98140017180679e-08 1.40979908498464e-09
5.19675000000000e+01 3.75797250558091e-08 1.33318782877745e-09
5.21625000000000e+01 3.54708312234116e-08 1.26073090313381e-09
5.23575000000000e+01 3.34802840045064e-08 1.19220358103345e-09
5.25525000000000e+01 3.16014420401449e-08 1.12739325819373e-09
5.27475000000000e+01 2.98280366702452e-08 1.06609880122016e-09
5.29425000000000e+01 2.81541510185277e-08 1.00812993067577e-09
5.31375000000000e+01 2.65742002511609e-08 9.53306637206938e-10
5.33325000000000e+01 2.50829129432484e-08 9.01458628962190e-10
5.35275000000000e+01 2.36753134909899e-08 8.52424808634225e-10
5.37225000000000e+01 2.23467055108337e-08 8.06052778543821e-10
5.39175000000000e+01 2.10926561702328e-08 7.62198372268443e-10
5.41125000000000e+01 1.99089813977265e-08 7.20725211397798e-10
5.43075000000000e+01 1.87917319229996e-08 6.81504286073986e-10
5.45025000000000e+01 1.77371801003445e-08 6.44413558045179e-10
5.46975000000000e+01 1.67418074715616e-08 6.09337585029434e-10
5.48925000000000e+01 1.58022930268037e-08 5.76167165249203e-10
5.50875000000000e+01 1.49155021241967e-08 5.44799001057760e-10
5.52825000000000e+01 1.40784760312672e-08 5.15135380636186e-10
5.54775000000000e+01 1.32884220532829e-08 4.87083876793908e-10
5.56725000000000e+01 1.25427042155700e-08 4.60557061957329e-10
5.58675000000000e+01 1.18388344687180e-08 4.35472238479861e-10
5.60625000000000e+01 1.11744643873303e-08 4.11751183452830e-10
5.62575000000000e+01 1.05473773346233e-08 3.89319907240498e-10
5.64525000000000e+01 9.95548106673094e-09 3.68108425003869e-10
5.66475000000000e+01 9.39680075204000e-09 3.48050540517157e-10
5.68425000000000e+01 8.86947238226572e-09 3.29083641617929e-10
5.70375000000000e+01 8.37173655328342e-09 3.11148506667173e-10
5.72325000000000e+01 7.90193259496663e-09 2.94189121428755e-10
5.74275000000000e+01 7.45849303044619e-09 2.78152505809326e-10
5.76225000000000e+01 7.03993834630392e-09 2.62988549929601e-10
5.78175000000000e+01 6.64487205625175e-09 2.48649859026168e-10
5.80125000000000e+01 6.27197604182672e-09 2.35091606709789e-10
5.82075000000000e+01 5.92000615455613e-09 2.22271396131482e-10
5.84025000000000e+01 5.58778806491982e-09 2.10149128631686e-10
5.85975000000000e+01 5.27421334425986e-09 1.98686879470506e-10
5.87925000000000e+01 4.97823576656498e-09 1.87848780258580e-10
5.89875000000000e+01 4.69886781779106e-09 1.77600907728433e-10
5.91825000000000e+01 4.43517740107102e-09 1.67911178505504e-10
5.93775000000000e+01 4.18628472682136e-09 1.58749249556261e-10
5.95725000000000e+01 3.95135937736916e-09 1.50086424008088e-10
5.97675000000000e+01 3.72961753630608e-09 1.41895562052013e-10
5.99625000000000e+01 3.52031937332493e-09 1.34150996654813e-10
6.01575000000000e+01 3.32276657581380e-09 1.26828453821694e-10
6.03525000000000e+01 3.13630001897168e-09 1.19904977164624e-10
6.05475000000000e+01 2.96029756667233e-09 1.13358856544524e-10
6.07425000000000e+01 2.79417199573893e-09 1.07169560567970e-10
6.09375000000000e+01 2.63736903670396e-09 1.01317672730808e-10
6.11325000000000e+01 2.48936552451750e-09 9.57848310122557e-11
6.13275000000000e+01 2.34966765303383e-09 9.05536707335646e-11
6.15225000000000e+01 2.21780932745247e-09 8.56077705053593e-11
