Energy (eV)          EEDF (eV^-(3/2))     First Anisotropy
2.40350877192982e-02 5.03748528639751e-02 2.50403978038205e-05
7.21052631578947e-02 5.00704141201250e-02 4.13629229873296e-05
1.20175438596491e-01 4.97678152413004e-02 5.46411353415651e-05
1.68245614035088e-01 4.94670451093294e-02 6.47514905187372e-05
2.16315789473684e-01 4.91680926706177e-02 7.32025423136052e-05
2.64385964912281e-01 4.88709469416746e-02 8.05639618397172e-05
3.12456140350877e-01 4.85755970023999e-02 8.71302144108277e-05
3.60526315789474e-01 4.82820320011205e-02 9.30789186849240e-05
4.08596491228070e-01 4.79902411496752e-02 9.85277432827487e-05
4.56666666666667e-01 4.77002137268841e-02 1.03559761702442e-04
5.04736842105263e-01 4.74119390754067e-02 1.08236401466208e-04
5.52807017543860e-01 4.71254066018603e-02 1.12604716159129e-04
6.00877192982456e-01 4.68406057779895e-02 1.16701768348993e-04
6.48947368421053e-01 4.65575261381401e-02 1.20557418935714e-04
6.97017543859649e-01 4.62761572808559e-02 1.24196181657679e-04
7.45087719298246e-01 4.59964888666554e-02 1.27638500956977e-04
7.93157894736842e-01 4.57185106193707e-02 1.30901659118850e-04
8.41228070175439e-01 4.54422123244984e-02 1.34000437033616e-04
8.89298245614035e-01 4.51675838289798e-02 1.36947605567699e-04
9.37368421052632e-01 4.48946150417496e-02 1.39754298612064e-04
9.85438596491228e-01 4.46232959321244e-02 1.42430300487427e-04
1.03350877192982e+00 4.43536165316403e-02 1.44984271558771e-04
1.08157894736842e+00 4.40855669284529e-02 1.47423926237757e-04
1.12964912280702e+00 4.38191372729829e-02 1.49756175498160e-04
1.17771929824561e+00 4.35543177775875e-02 1.51987244871007e-04
1.22578947368421e+00 4.32910987089634e-02 1.54122768308129e-04
1.27385964912281e+00 4.30294703971960e-02 1.56167867062839e-04
1.32192982456140e+00 4.27694232264795e-02 1.58127215279205e-04
1.37000000000000e+00 4.25109476432419e-02 1.60005094859871e-04
1.41807017543860e+00 4.22540341477231e-02 1.61805441993312e-04
1.46614035087719e+00 4.19986733013219e-02 1.63531886562641e-04
1.51421052631579e+00 4.17448557188985e-02 1.65187786003580e-04
1.56228070175439e+00 4.14925720754601e-02 1.66776254285034e-04
1.61035087719298e+00 4.12418130990844e-02 1.68300187097063e-04
1.65842105263158e+00 4.09925695770370e-02 1.69762283603729e-04
1.70649122807018e+00 4.07448323492290e-02 1.71165065787862e-04
1.75456140350877e+00 4.04985923124412e-02 1.72510894100113e-04
1.80263157894737e+00 4.02538404198807e-02 1.73801983643471e-04
1.85070175438596e+00 4.00105676766100e-02 1.75040416157309e-04
1.89877192982456e+00 3.97687651447691e-02 1.76228151705007e-04
1.94684210526316e+00 3.95284239378939e-02 1.77367038941950e-04
1.99491228070175e+00 3.92895352257549e-02 1.78458824172123e-04
2.04298245614035e+00 3.90520902290444e-02 1.79505159549364e-04
2.09105263157895e+00 3.88160802238751e-02 1.80507610340903e-04
2.13912280701754e+00 3.85814965367962e-02 1.81467661553912e-04
2.18719298245614e+00 3.83483305489886e-02 1.82386723824515e-04
2.23526315789474e+00 3.81165736915753e-02 1.83266139027593e-04
2.28333333333333e+00 3.78862174485351e-02 1.84107184299118e-04
2.33140350877193e+00 3.76572533563252e-02 1.84911077686593e-04
2.37947368421053e+00 3.74296730005303e-02 1.85678981370673e-04
2.42754385964912e+00 3.72034680195498e-02 1.86412005505521e-04
2.47561403508772e+00 3.69786301004107e-02 1.87111211613254e-04
2.52368421052632e+00 3.67551509822307e-02 1.87777615618214e-04
2.57175438596491e+00 3.65330224522523e-02 1.88412190703381e-04
2.61982456140351e+00 3.63122363491021e-02 1.89015869865541e-04
2.66789473684211e+00 3.60927845590264e-02 1.89589548336130e-04
2.71596491228070e+00 3.58746590189650e-02 1.90134085747366e-04
2.76403508771930e+00 3.56578517129718e-02 1.90650308365910e-04
2.81210526315789e+00 3.54423546743508e-02 1.91139010266452e-04
2.86017543859649e+00 3.52281599853196e-02 1.91600956109109e-04
2.90824561403509e+00 3.50152597744132e-02 1.92036882079476e-04
2.95631578947368e+00 3.48036462192330e-02 1.92447497535469e-04
3.00438596491228e+00 3.45933115431963e-02 1.92833486433608e-04
3.05245614035088e+00 3.43842480181410e-02 1.93195508599814e-04
3.10052631578947e+00 3.41764479612213e-02 1.93534200970657e-04
3.14859649122807e+00 3.39699037373780e-02 1.93850178697370e-04
3.19666666666667e+00 3.37646077563706e-02 1.94144036231300e-04
3.24473684210526e+00 3.35605524751229e-02 1.94416348287330e-04
3.29280701754386e+00 3.33577303948818e-02 1.94667670942032e-04
3.34087719298246e+00 3.31561340628438e-02 1.94898541899292e-04
3.38894736842105e+00 3.29557560718490e-02 1.95109482194596e-04
3.43701754385965e+00 3.27565890582965e-02 1.95300996382051e-04
3.48508771929825e+00 3.25586257042667e-02 1.95473573382905e-04
3.53315789473684e+00 3.23618587349116e-02 1.95627687188942e-04
3.58122807017544e+00 3.21662809204779e-02 1.95763797478960e-04
3.62929824561404e+00 3.19718850737998e-02 1.95882350245540e-04
3.67736842105263e+00 3.17786640522289e-02 1.95983778342264e-04
3.72543859649123e+00 3.15866107552240e-02 1.96068502044187e-04
3.77350877192982e+00 3.13957181261928e-02 1.96136929535131e-04
3.82157894736842e+00 3.12059791501736e-02 1.96189457536071e-04
3.86964912280702e+00 3.10173868551075e-02 1.96226471237492e-04
3.91771929824561e+00 3.08299343115570e-02 1.96248345502442e-04
3.96578947368421e+00 3.06436146309890e-02 1.96255444771841e-04
4.01385964912281e+00 3.04584209674554e-02 1.96248123564946e-04
4.06192982456140e+00 3.02743465154460e-02 1.96226726868522e-04
4.11000000000000e+00 3.00913845114966e-02 1.96191590468507e-04
4.15807017543860e+00 2.99095282321183e-02 1.96143041302966e-04
4.20614035087719e+00 2.97287709953377e-02 1.96081397761146e-04
4.25421052631579e+00 2.95491061586984e-02 1.96006970004375e-04
4.30228070175439e+00 2.93705271207363e-02 1.95920060236340e-04
4.35035087719298e+00 2.91930273190501e-02 1.95820962995601e-04
4.39842105263158e+00 2.90166002317158e-02 1.95709965400482e-04
4.44649122807018e+00 2.88412393754215e-02 1.95587347523638e-04
4.49456140350877e+00 2.86669383064388e-02 1.95453382184103e-04
4.54263157894737e+00 2.84936906203675e-02 1.95308335834506e-04
4.59070175438597e+00 2.83214899507400e-02 1.95152468347774e-04
4.63877192982456e+00 2.81503299703224e-02 1.94986033321896e-04
4.68684210526316e+00 2.79802043893745e-02 1.94809278295879e-04
4.73491228070175e+00 2.78111069568997e-02 1.94622444925394e-04
4.78298245614035e+00 2.76430314589602e-02 1.94425769181651e-04
4.83105263157895e+00 2.74759717198783e-02 1.94219481511966e-04
4.87912280701754e+00 2.73099216006048e-02 1.94003807023300e-04
4.92719298245614e+00 2.71448749998735e-02 1.93778965629274e-04
4.97526315789474e+00 2.69808258526208e-02 1.93545172314934e-04
5.02333333333333e+00 2.68177681307724e-02 1.93302636890625e-04
5.07140350877193e+00 2.66556958430075e-02 1.93051564718003e-04
5.11947368421053e+00 2.64946030335670e-02 1.92792156465650e-04
5.16754385964912e+00 2.63344837833211e-02 1.92524608326627e-04
5.21561403508772e+00 2.61753322082868e-02 1.92249112159453e-04
5.26368421052632e+00 2.60171424606558e-02 1.91965855597168e-04
5.31175438596491e+00 2.58599087273559e-02 1.91675022178487e-04
5.35982456140351e+00 2.57036252310409e-02 1.91376791448297e-04
5.40789473684211e+00 2.55482862286947e-02 1.91071339079922e-04
5.45596491228070e+00 2.53938860125847e-02 1.90758836967937e-04
5.50403508771930e+00 2.52404189089063e-02 1.90439453426950e-04
5.55210526315789e+00 2.50878792784276e-02 1.90113352938257e-04
5.60017543859649e+00 2.49362615162707e-02 1.89780696762898e-04
5.64824561403509e+00 2.47855600508833e-02 1.89441642692917e-04
5.69631578947368e+00 2.46357693449233e-02 1.89096345215697e-04
5.74438596491228e+00 2.44868838939830e-02 1.88744955610915e-04
5.79245614035088e+00 2.43388982274425e-02 1.88387622021155e-04
5.84052631578947e+00 2.41918069072295e-02 1.88024489542860e-04
5.88859649122807e+00 2.40456045286426e-02 1.87655700291883e-04
5.93666666666667e+00 2.39002857191451e-02 1.87281393488951e-04
5.98473684210526e+00 2.37558451391598e-02 1.86901705520558e-04
6.03280701754386e+00 2.36122774808959e-02 1.86516770095073e-04
6.08087719298246e+00 2.34695774688820e-02 1.86126717996199e-04
6.12894736842105e+00 2.33277398597617e-02 1.85731677611482e-04
6.17701754385965e+00 2.31867594414000e-02 1.85331774691385e-04
6.22508771929825e+00 2.30466310336210e-02 1.84927132478812e-04
6.27315789473684e+00 2.29073494871019e-02 1.84517871778626e-04
6.32122807017544e+00 2.27689096840865e-02 1.84104111004962e-04
6.36929824561404e+00 2.26313065373070e-02 1.83685966246912e-04
6.41736842105263e+00 2.24945349906745e-02 1.83263551312696e-04
6.46543859649123e+00 2.23585900182289e-02 1.82836977791748e-04
6.51350877192982e+00 2.22234666248054e-02 1.82406355095965e-04
6.56157894736842e+00 2.20891598450122e-02 1.81971790586444e-04
6.60964912280702e+00 2.19556647436736e-02 1.81533389339940e-04
6.65771929824561e+00 2.18229764156402e-02 1.81091254611034e-04
6.70578947368421e+00 2.16910899850044e-02 1.80645487604370e-04
6.75385964912281e+00 2.15600006057227e-02 1.80196187580056e-04
6.80192982456140e+00 2.14297034606475e-02 1.79743451905299e-04
6.85000000000000e+00 2.13001937621289e-02 1.79287376086963e-04
6.89807017543860e+00 2.11714667510709e-02 1.78828053820601e-04
6.94614035087719e+00 2.10435176975139e-02 1.78365577020946e-04
6.99421052631579e+00 2.09163418997139e-02 1.77900035868579e-04
7.04228070175439e+00 2.07899346847062e-02 1.77431518838514e-04
7.09035087719298e+00 2.06642914074078e-02 1.76960112744581e-04
7.13842105263158e+00 2.05394074511624e-02 1.76485902766274e-04
7.18649122807018e+00 2.04152782268646e-02 1.76008972550909e-04
7.23456140350877e+00 2.02918991733184e-02 1.75529403998841e-04
7.28263157894737e+00 2.01692657570623e-02 1.75047277662354e-04
7.33070175438596e+00 2.00473734716935e-02 1.74562672536432e-04
7.37877192982456e+00 1.99262178383783e-02 1.74075666143842e-04
7.42684210526316e+00 1.98057944050205e-02 1.73586334572828e-04
7.47491228070175e+00 1.96860987467554e-02 1.73094752498586e-04
7.52298245614035e+00 1.95671264651389e-02 1.72600993219221e-04
7.57105263157895e+00 1.94488731886255e-02 1.72105128675979e-04
7.61912280701754e+00 1.93313345717764e-02 1.71607229487634e-04
7.66719298245614e+00 1.92145062957229e-02 1.71107364969510e-04
7.71526315789474e+00 1.90983840673926e-02 1.70605603220481e-04
7.76333333333333e+00 1.89829636198106e-02 1.70102010924067e-04
7.81140350877193e+00 1.88682407119370e-02 1.69596653703901e-04
7.85947368421053e+00 1.87542111280668e-02 1.69089595930072e-04
7.90754385964912e+00 1.86408706782642e-02 1.68580900791625e-04
7.95561403508772e+00 1.85282151976274e-02 1.68070630326213e-04
8.00368421052632e+00 1.84162405467091e-02 1.67558845435386e-04
8.05175438596491e+00 1.83049426107979e-02 1.67045605913019e-04
8.09982456140351e+00 1.81943173003268e-02 1.66530970459789e-04
8.14789473684210e+00 1.80843605501703e-02 1.66014996710409e-04
8.19596491228070e+00 1.79750683200405e-02 1.65497741247276e-04
8.24403508771930e+00 1.78664365938002e-02 1.64979259675590e-04
8.29210526315789e+00 1.77584613797170e-02 1.64459606440003e-04
8.34017543859649e+00 1.76511387103116e-02 1.63938835143019e-04
8.38824561403509e+00 1.75444646418235e-02 1.63416998366485e-04
8.43631578947369e+00 1.74384352545813e-02 1.62894147734197e-04
8.48438596491228e+00 1.73330466523499e-02 1.62370333935669e-04
8.53245614035088e+00 1.72282949626902e-02 1.61845606737198e-04
8.58052631578947e+00 1.71241763363198e-02 1.61320015004692e-04
8.62859649122807e+00 1.70206869474626e-02 1.60793606714167e-04
8.67666666666667e+00 1.69178229932231e-02 1.60266428973674e-04
8.72473684210526e+00 1.68155806939259e-02 1.59738528033231e-04
8.77280701754386e+00 1.67139562925035e-02 1.59209949350429e-04
8.82087719298246e+00 1.66129460547114e-02 1.58680737421677e-04
8.86894736842105e+00 1.65125462689867e-02 1.58150936068726e-04
8.91701754385965e+00 1.64127532459693e-02 1.57620588274435e-04
8.96508771929825e+00 1.63135633188208e-02 1.57089736237454e-04
9.01315789473684e+00 1.62149728426407e-02 1.56558421391555e-04
9.06122807017544e+00 1.61169781947762e-02 1.56026684413697e-04
9.10929824561403e+00 1.60195757742508e-02 1.55494565242689e-04
9.15736842105263e+00 1.59227620020647e-02 1.54962103086809e-04
9.20543859649123e+00 1.58265333206359e-02 1.54429336441795e-04
9.25350877192983e+00 1.57308861940919e-02 1.53896303098064e-04
9.30157894736842e+00 1.56358171077222e-02 1.53363040198468e-04
9.34964912280702e+00 1.55413225681610e-02 1.52829584083288e-04
9.39771929824561e+00 1.54473991032548e-02 1.52295970548870e-04
9.44578947368421e+00 1.53540432616329e-02 1.51762234696744e-04
9.49385964912281e+00 1.52612516129816e-02 1.51228410981764e-04
9.54192982456140e+00 1.51690207475219e-02 1.50694533228087e-04
9.59000000000000e+00 1.50773472762754e-02 1.50160634635064e-04
9.63807017543860e+00 1.49862278305535e-02 1.49626747792657e-04
9.68614035087719e+00 1.48956590622155e-02 1.49092904687035e-04
9.73421052631579e+00 1.48056376431678e-02 1.48559136715487e-04
9.78228070175439e+00 1.47161602656150e-02 1.48025474691702e-04
9.83035087719298e+00 1.46272236415697e-02 1.47491948860189e-04
9.87842105263158e+00 1.45388245030956e-02 1.46958588901290e-04
9.92649122807018e+00 1.44509596018278e-02 1.46425423981246e-04
9.97456140350877e+00 1.43636257091222e-02 1.45892482612237e-04
1.00226315789474e+01 1.42768196159335e-02 1.45359792989143e-04
1.00707017543860e+01 1.41905381321794e-02 1.44827382284143e-04
1.01187719298246e+01 1.41047780883362e-02 1.44295277717221e-04
1.01668421052632e+01 1.40195363322511e-02 1.43763506183748e-04
1.02149122807018e+01 1.39348097316735e-02 1.43232093324611e-04
1.02629824561404e+01 1.38505951732815e-02 1.42701064309308e-04
1.03110526315789e+01 1.37668895633784e-02 1.42170444509900e-04
1.03591228070175e+01 1.36836898253392e-02 1.41640258823415e-04
1.04071929824561e+01 1.36009929019479e-02 1.41110530985005e-04
1.04552631578947e+01 1.35187957544640e-02 1.40581284289158e-04
1.05033333333333e+01 1.34370953632877e-02 1.40052542241054e-04
1.05514035087719e+01 1.33558887255109e-02 1.39524327901117e-04
1.05994736842105e+01 1.32751728571551e-02 1.38996663220694e-04
1.06475438596491e+01 1.31949447922746e-02 1.38469569738995e-04
1.06956140350877e+01 1.31152015835919e-02 1.37943069212706e-04
1.07436842105263e+01 1.30359403001494e-02 1.37417182981936e-04
1.07917543859649e+01 1.29571580294515e-02 1.36891931327540e-04
1.08398245614035e+01 1.28788518766035e-02 1.36367334144739e-04
1.08878947368421e+01 1.28010189649185e-02 1.35843411551861e-04
1.09359649122807e+01 1.27236564336649e-02 1.35320183276858e-04
1.09840350877193e+01 1.26467614401178e-02 1.34797668035507e-04
1.10321052631579e+01 1.25703311587311e-02 1.34275884480936e-04
1.10801754385965e+01 1.24943627810358e-02 1.33754850597224e-04
1.11282456140351e+01 1.24188535162127e-02 1.33234584599108e-04
1.11763157894737e+01 1.23438005889491e-02 1.32715104341149e-04
1.12243859649123e+01 1.22692012413866e-02 1.32196426719084e-04
1.12724561403509e+01 1.21950527323346e-02 1.31678568296227e-04
1.13205263157895e+01 1.21213523378183e-02 1.31161545869879e-04
1.13685964912281e+01 1.20480973490206e-02 1.30645375899533e-04
1.14166666666667e+01 1.19752850741494e-02 1.30130073927522e-04
1.14647368421053e+01 1.19029128376809e-02 1.29615655184805e-04
1.15128070175439e+01 1.18309779808838e-02 1.29102135138880e-04
1.15608771929825e+01 1.17594778598433e-02 1.28589528940333e-04
1.16089473684211e+01 1.16884098472507e-02 1.28077850862064e-04
1.16570175438596e+01 1.16177713316758e-02 1.27567114885257e-04
1.17050877192982e+01 1.15475597180689e-02 1.27057335229459e-04
1.17531578947368e+01 1.14777724258617e-02 1.26548525816817e-04
1.18012280701754e+01 1.14084068906845e-02 1.26040699729260e-04
1.18492982456140e+01 1.13394605636653e-02 1.25533869775344e-04
1.18973684210526e+01 1.12709309119106e-02 1.25028049003175e-04
1.19454385964912e+01 1.12028154166811e-02 1.24523250181732e-04
1.19935087719298e+01 1.11351115750378e-02 1.24019485275319e-04
1.20415789473684e+01 1.10678168991687e-02 1.23516765992011e-04
1.20896491228070e+01 1.10009289168479e-02 1.23015104280078e-04
1.21377192982456e+01 1.09344451696833e-02 1.22514511825743e-04
1.21857894736842e+01 1.08683632146954e-02 1.22014999544309e-04
1.22338596491228e+01 1.08026806236688e-02 1.21516578110931e-04
1.22819298245614e+01 1.07373949835932e-02 1.21019258441073e-04
1.23300000000000e+01 1.06725038949769e-02 1.20523051204158e-04
1.23780701754386e+01 1.06080049733637e-02 1.20027966330787e-04
1.24261403508772e+01 1.05438958487074e-02 1.19534013526432e-04
1.24742105263158e+01 1.04801741657946e-02 1.19041202736554e-04
1.25222807017544e+01 1.04168375826232e-02 1.18549543675594e-04
1.25703508771930e+01 1.03538837718580e-02 1.18059045349677e-04
1.26184210526316e+01 1.02913104202286e-02 1.17569716553882e-04
1.26664912280702e+01 1.02291152289345e-02 1.17081566322580e-04
1.27145614035088e+01 1.01672959120854e-02 1.16594603473179e-04
1.27626315789474e+01 1.01058501980987e-02 1.16108836143838e-04
1.28107017543860e+01 1.00447758291199e-02 1.15624272274867e-04
1.28587719298246e+01 9.98407056141020e-03 1.15140920044796e-04
1.29068421052632e+01 9.92373216384656e-03 1.14658787428407e-04
1.29549122807018e+01 9.86375841926352e-03 1.14177881748903e-04
1.30029824561404e+01 9.80414712389470e-03 1.13698210144012e-04
1.30510526315789e+01 9.74489608774468e-03 1.13219779988309e-04
1.30991228070175e+01 9.68600313314510e-03 1.12742598465029e-04
1.31471929824561e+01 9.62746609604407e-03 1.12266672132189e-04
1.31952631578947e+01 9.56928282546769e-03 1.11792007373955e-04
1.32433333333333e+01 9.51145118387670e-03 1.11318610809696e-04
1.32914035087719e+01 9.45396904577663e-03 1.10846488879094e-04
1.33394736842105e+01 9.39683429895675e-03 1.10375647421726e-04
1.33875438596491e+01 9.34004484397099e-03 1.09906092114259e-04
1.34356140350877e+01 9.28359859447995e-03 1.09437828866679e-04
1.34836842105263e+01 9.22749347591286e-03 1.08970863420222e-04
1.35317543859649e+01 9.17172742665827e-03 1.08505200940000e-04
1.35798245614035e+01 9.11629839756354e-03 1.08040846438471e-04
1.36278947368421e+01 9.06120435226296e-03 1.07577805159305e-04
1.36759649122807e+01 9.00644326588920e-03 1.07116082187733e-04
1.37240350877193e+01 8.95201312621798e-03 1.06655682055743e-04
1.37721052631579e+01 8.89791193318528e-03 1.06196609341345e-04
1.38201754385965e+01 8.84413769881488e-03 1.05738868283220e-04
1.38682456140351e+01 8.79068844752895e-03 1.05282463349366e-04
1.39163157894737e+01 8.73756221491752e-03 1.04827398861380e-04
1.39643859649123e+01 8.68475704882933e-03 1.04373678613773e-04
1.40124561403509e+01 8.63227100891128e-03 1.03921306269317e-04
1.40605263157895e+01 8.58010216690647e-03 1.03470285717570e-04
1.41085964912281e+01 8.52824860546879e-03 1.03020620710649e-04
1.41566666666667e+01 8.47670841921197e-03 1.02572314494296e-04
1.42047368421053e+01 8.42547971426516e-03 1.02125370190908e-04
1.42528070175439e+01 8.37456060855908e-03 1.01679791146987e-04
1.43008771929825e+01 8.32394923068379e-03 1.01235580580085e-04
1.43489473684211e+01 8.27364372089768e-03 1.00792741221131e-04
1.43970175438596e+01 8.22364223069867e-03 1.00351275685624e-04
1.44450877192982e+01 8.17394292309889e-03 9.99111868103696e-05
1.44931578947368e+01 8.12454397152386e-03 9.94724773112062e-05
1.45412280701754e+01 8.07544356078323e-03 9.90351494362491e-05
1.45892982456140e+01 8.02663988665685e-03 9.85992053256407e-05
1.46373684210526e+01 7.97813115615854e-03 9.81646473379421e-05
1.46854385964912e+01 7.92991558647498e-03 9.77314777182510e-05
1.47335087719298e+01 7.88199140589983e-03 9.72996982620454e-05
1.47815789473684e+01 7.83435685343406e-03 9.68693106638333e-05
1.48296491228070e+01 7.78701017903932e-03 9.64403168335579e-05
1.48777192982456e+01 7.73994964261493e-03 9.60127185748157e-05
1.49257894736842e+01 7.69317351489684e-03 9.55865172588686e-05
1.49738596491228e+01 7.64668007707177e-03 9.51617141626193e-05
1.50219298245614e+01 7.60046762102056e-03 9.47383107753661e-05
1.50700000000000e+01 7.55453444833176e-03 9.43163084867575e-05
1.51180701754386e+01 7.50887887116687e-03 9.38957082706540e-05
1.51661403508772e+01 7.46349921188778e-03 9.34765110127888e-05
