Energy (eV)          EEDF (eV^-(3/2))     First Anisotropy
1.92000000000000e-02 8.56292011983171e-02 4.53584426211611e-05
5.76000000000000e-02 8.50404788185544e-02 7.48939827797493e-05
9.60000000000000e-02 8.44558040539710e-02 9.88534500652517e-05
1.34400000000000e-01 8.38751490760654e-02 1.17046463884349e-04
1.72800000000000e-01 8.32984862477649e-02 1.32212069542465e-04
2.11200000000000e-01 8.27257881220248e-02 1.45385858590642e-04
2.49600000000000e-01 8.21570274405102e-02 1.57103747481945e-04
2.88000000000000e-01 8.15921771322960e-02 1.67689358245225e-04
3.26400000000000e-01 8.10312103125773e-02 1.77357321109027e-04
3.64800000000000e-01 8.04741002813895e-02 1.86259331023645e-04
4.03200000000000e-01 7.99208205223370e-02 1.94507679463918e-04
4.41600000000000e-01 7.93713447013316e-02 2.02188476280671e-04
4.80000000000000e-01 7.88256466653385e-02 2.09369621255984e-04
5.18400000000000e-01 7.82837004411316e-02 2.16105879847101e-04
5.56800000000000e-01 7.77454802340575e-02 2.22442259222314e-04
5.95200000000000e-01 7.72109604268074e-02 2.28416335497503e-04
6.33600000000000e-01 7.66801155781981e-02 2.34059906631899e-04
6.72000000000000e-01 7.61529204219610e-02 2.39400196525834e-04
7.10400000000000e-01 7.56293498655395e-02 2.44460751520393e-04
7.48800000000000e-01 7.51093789888945e-02 2.49262120662970e-04
7.87200000000000e-01 7.45929830433186e-02 2.53822380568059e-04
8.25600000000000e-01 7.40801374502581e-02 2.58157546396309e-04
8.64000000000000e-01 7.35708178001429e-02 2.62281897926749e-04
9.02400000000000e-01 7.30649998512250e-02 2.66208241340651e-04
9.40800000000000e-01 7.25626595284245e-02 2.69948121648374e-04
9.79200000000000e-01 7.20637729221836e-02 2.73511996744010e-04
1.01760000000000e+00 7.15683162873290e-02 2.76909381285664e-04
1.05600000000000e+00 7.10762660419413e-02 2.80148966599219e-04
1.09440000000000e+00 7.05875987662328e-02 2.83238721347653e-04
1.13280000000000e+00 7.01022912014328e-02 2.86185976633973e-04
1.17120000000000e+00 6.96203202486805e-02 2.88997498403394e-04
1.20960000000000e+00 6.91416629679254e-02 2.91679549404834e-04
1.24800000000000e+00 6.86662965768359e-02 2.94237942509453e-04
1.28640000000000e+00 6.81941984497147e-02 2.96678086827665e-04
1.32480000000000e+00 6.77253461164217e-02 2.99005027788963e-04
1.36320000000000e+00 6.72597172613047e-02 3.01223482131973e-04
1.40160000000000e+00 6.67972897221375e-02 3.03337868580509e-04
1.44000000000000e+00 6.63380414890644e-02 3.05352334844475e-04
1.47840000000000e+00 6.58819507035535e-02 3.07270781475398e-04
1.51680000000000e+00 6.54289956573553e-02 3.09096883017750e-04
1.55520000000000e+00 6.49791547914703e-02 3.10834106825628e-04
1.59360000000000e+00 6.45324066951226e-02 3.12485729855716e-04
1.63200000000000e+00 6.40887301047407e-02 3.14054853699475e-04
1.67040000000000e+00 6.36481039029454e-02 3.15544418077793e-04
1.70880000000000e+00 6.32105071175451e-02 3.16957212988412e-04
1.74720000000000e+00 6.27759189205371e-02 3.18295889669186e-04
1.78560000000000e+00 6.23443186271165e-02 3.19562970517016e-04
1.82400000000000e+00 6.19156856946918e-02 3.20760858083312e-04
1.86240000000000e+00 6.14899997219068e-02 3.21891843250439e-04
1.90080000000000e+00 6.10672404476700e-02 3.22958112679746e-04
1.93920000000000e+00 6.06473877501897e-02 3.23961755610219e-04
1.97760000000000e+00 6.02304216460169e-02 3.24904770076758e-04
2.01600000000000e+00 5.98163222890937e-02 3.25789068608438e-04
2.05440000000000e+00 5.94050699698089e-02 3.26616483459813e-04
2.09280000000000e+00 5.89966451140600e-02 3.27388771422032e-04
2.13120000000000e+00 5.85910282823211e-02 3.28107618255006e-04
2.16960000000000e+00 5.81882001687182e-02 3.28774642777129e-04
2.20800000000000e+00 5.77881416001100e-02 3.29391400645008e-04
2.24640000000000e+00 5.73908335351752e-02 3.29959387851904e-04
2.28480000000000e+00 5.69962570635067e-02 3.30480043970603e-04
2.32320000000000e+00 5.66043934047109e-02 3.30954755163629e-04
2.36160000000000e+00 5.62152239075145e-02 3.31384856981335e-04
2.40000000000000e+00 5.58287300488761e-02 3.31771636966199e-04
2.43840000000000e+00 5.54448934331051e-02 3.32116337079845e-04
2.47680000000000e+00 5.50636957909858e-02 3.32420155967638e-04
2.51520000000000e+00 5.46851189789080e-02 3.32684251074243e-04
2.55360000000000e+00 5.43091449780034e-02 3.32909740622326e-04
2.59200000000000e+00 5.39357558932881e-02 3.33097705465240e-04
2.63040000000000e+00 5.35649339528104e-02 3.33249190823541e-04
2.66880000000000e+00 5.31966615068056e-02 3.33365207914505e-04
2.70720000000000e+00 5.28309210268554e-02 3.33446735482680e-04
2.74560000000000e+00 5.24676951050539e-02 3.33494721238913e-04
2.78400000000000e+00 5.21069664531788e-02 3.33510083214693e-04
2.82240000000000e+00 5.17487179018690e-02 3.33493711037934e-04
2.86080000000000e+00 5.13929323998067e-02 3.33446467135886e-04
2.89920000000000e+00 5.10395930129065e-02 3.33369187870255e-04
2.93760000000000e+00 5.06886829235090e-02 3.33262684609417e-04
2.97600000000000e+00 5.03401854295805e-02 3.33127744741931e-04
3.01440000000000e+00 4.99940839439179e-02 3.32965132635416e-04
3.05280000000000e+00 4.96503619933594e-02 3.32775590544431e-04
3.09120000000000e+00 4.93090032180004e-02 3.32559839470720e-04
3.12960000000000e+00 4.89699913704147e-02 3.32318579978996e-04
3.16800000000000e+00 4.86333103148812e-02 3.32052492971074e-04
3.20640000000000e+00 4.82989440266160e-02 3.31762240420985e-04
3.24480000000000e+00 4.79668765910097e-02 3.31448466073583e-04
3.28320000000000e+00 4.76370922028698e-02 3.31111796108956e-04
3.32160000000000e+00 4.73095751656686e-02 3.30752839774529e-04
3.36000000000000e+00 4.69843098907958e-02 3.30372189987063e-04
3.39840000000000e+00 4.66612808968168e-02 3.29970423906179e-04
3.43680000000000e+00 4.63404728087358e-02 3.29548103481171e-04
3.47520000000000e+00 4.60218703572640e-02 3.29105775972681e-04
3.51360000000000e+00 4.57054583780929e-02 3.28643974450553e-04
3.55200000000000e+00 4.53912218111721e-02 3.28163218269432e-04
3.59040000000000e+00 4.50791456999933e-02 3.27664013523212e-04
3.62880000000000e+00 4.47692151908777e-02 3.27146853479525e-04
3.66720000000000e+00 4.44614155322693e-02 3.26612218995381e-04
3.70560000000000e+00 4.41557320740329e-02 3.26060578915065e-04
3.74400000000000e+00 4.38521502667566e-02 3.25492390451151e-04
3.78240000000000e+00 4.35506556610593e-02 3.24908099549535e-04
3.82080000000000e+00 4.32512339069033e-02 3.24308141239376e-04
3.85920000000000e+00 4.29538707529106e-02 3.23692939968736e-04
3.89760000000000e+00 4.26585520456855e-02 3.23062909926574e-04
3.93600000000000e+00 4.23652637291402e-02 3.22418455351867e-04
3.97440000000000e+00 4.20739918438261e-02 3.21759970830553e-04
4.01280000000000e+00 4.17847225262693e-02 3.21087841580735e-04
4.05120000000000e+00 4.14974420083108e-02 3.20402443726842e-04
4.08960000000000e+00 4.12121366164513e-02 3.19704144563315e-04
4.12800000000000e+00 4.09287927712001e-02 3.18993302808313e-04
4.16640000000000e+00 4.06473969864289e-02 3.18270268847792e-04
4.20480000000000e+00 4.03679358687302e-02 3.17535384970550e-04
4.24320000000000e+00 4.00903961167792e-02 3.16788985594644e-04
4.28160000000000e+00 3.98147645207013e-02 3.16031397485506e-04
4.32000000000000e+00 3.95410279614430e-02 3.15262939966227e-04
4.35840000000000e+00 3.92691734101478e-02 3.14483925120300e-04
4.39680000000000e+00 3.89991879275357e-02 3.13694657987231e-04
4.43520000000000e+00 3.87310586632876e-02 3.12895436751254e-04
4.47360000000000e+00 3.84647728554334e-02 3.12086552923503e-04
4.51200000000000e+00 3.82003178297451e-02 3.11268291517944e-04
4.55040000000000e+00 3.79376809991330e-02 3.10440931221281e-04
4.58880000000000e+00 3.76768498630468e-02 3.09604744557171e-04
4.62720000000000e+00 3.74178120068808e-02 3.08759998044914e-04
4.66560000000000e+00 3.71605551013827e-02 3.07906952352912e-04
4.70400000000000e+00 3.69050669020669e-02 3.07045862447061e-04
4.74240000000000e+00 3.66513352486319e-02 3.06176977734337e-04
4.78080000000000e+00 3.63993480643811e-02 3.05300542201788e-04
4.81920000000000e+00 3.61490933556486e-02 3.04416794551007e-04
4.85760000000000e+00 3.59005592112276e-02 3.03525968328400e-04
4.89600000000000e+00 3.56537338018040e-02 3.02628292051314e-04
4.93440000000000e+00 3.54086053793933e-02 3.01723989330317e-04
4.97280000000000e+00 3.51651622767813e-02 3.00813278987642e-04
5.01120000000000e+00 3.49233929069689e-02 2.99896375172035e-04
5.04960000000000e+00 3.46832857626203e-02 2.98973487470084e-04
5.08800000000000e+00 3.44448294155160e-02 2.98044821014178e-04
5.12640000000000e+00 3.42080125160079e-02 2.97110576587346e-04
5.16480000000000e+00 3.39728237924799e-02 2.96170950724868e-04
5.20320000000000e+00 3.37392520508110e-02 2.95226135812956e-04
5.24160000000000e+00 3.35072861738427e-02 2.94276320184596e-04
5.28000000000000e+00 3.32769151208496e-02 2.93321688212554e-04
5.31840000000000e+00 3.30481279270143e-02 2.92362420399698e-04
5.35680000000000e+00 3.28209137029051e-02 2.91398693466825e-04
5.39520000000000e+00 3.25952616339579e-02 2.90430680437967e-04
5.43360000000000e+00 3.23711609799616e-02 2.89458550723310e-04
5.47200000000000e+00 3.21486010745466e-02 2.88482470199768e-04
5.51040000000000e+00 3.19275713246775e-02 2.87502601289358e-04
5.54880000000000e+00 3.17080612101485e-02 2.86519103035478e-04
5.58720000000000e+00 3.14900602830829e-02 2.85532131177011e-04
5.62560000000000e+00 3.12735581674359e-02 2.84541838220490e-04
5.66400000000000e+00 3.10585445585004e-02 2.83548373510306e-04
5.70240000000000e+00 3.08450092224170e-02 2.82551883297043e-04
5.74080000000000e+00 3.06329419956866e-02 2.81552510804058e-04
5.77920000000000e+00 3.04223327846867e-02 2.80550396292197e-04
5.81760000000000e+00 3.02131715651910e-02 2.79545677122894e-04
5.85600000000000e+00 3.00054483818922e-02 2.78538487819675e-04
5.89440000000000e+00 2.97991533479285e-02 2.77528960128029e-04
5.93280000000000e+00 2.95942766444125e-02 2.76517223073724e-04
5.97120000000000e+00 2.93908085199644e-02 2.75503403019689e-04
6.00960000000000e+00 2.91887392902472e-02 2.74487623721424e-04
6.04800000000000e+00 2.89880593375066e-02 2.73470006381041e-04
6.08640000000000e+00 2.87887591101125e-02 2.72450669699961e-04
6.12480000000000e+00 2.85908291221048e-02 2.71429729930319e-04
6.16320000000000e+00 2.83942599527417e-02 2.70407300925086e-04
6.20160000000000e+00 2.81990422460515e-02 2.69383494186933e-04
6.24000000000000e+00 2.80051667103870e-02 2.68358418915954e-04
6.27840000000000e+00 2.78126241179835e-02 2.67332182056246e-04
6.31680000000000e+00 2.76214053045195e-02 2.66304888341343e-04
6.35520000000000e+00 2.74315011686807e-02 2.65276640338565e-04
6.39360000000000e+00 2.72429026717262e-02 2.64247538492328e-04
6.43200000000000e+00 2.70556008370593e-02 2.63217681166434e-04
6.47040000000000e+00 2.68695867497991e-02 2.62187164685359e-04
6.50880000000000e+00 2.66848515563572e-02 2.61156083374577e-04
6.54720000000000e+00 2.65013864640155e-02 2.60124529599961e-04
6.58560000000000e+00 2.63191827405085e-02 2.59092593806278e-04
6.62400000000000e+00 2.61382317136067e-02 2.58060364554821e-04
6.66240000000000e+00 2.59585247707048e-02 2.57027928560113e-04
6.70080000000000e+00 2.57800533584111e-02 2.55995370725850e-04
6.73920000000000e+00 2.56028089821408e-02 2.54962774180036e-04
6.77760000000000e+00 2.54267832057113e-02 2.53930220309238e-04
6.81600000000000e+00 2.52519676509410e-02 2.52897788792200e-04
6.85440000000000e+00 2.50783539972505e-02 2.51865557632663e-04
6.89280000000000e+00 2.49059339812664e-02 2.50833603191408e-04
6.93120000000000e+00 2.47346993964280e-02 2.49802000217663e-04
6.96960000000000e+00 2.45646420925968e-02 2.48770821879804e-04
7.00800000000000e+00 2.43957539756688e-02 2.47740139795394e-04
7.04640000000000e+00 2.42280270071887e-02 2.46710024060552e-04
7.08480000000000e+00 2.40614532039677e-02 2.45680543278723e-04
7.12320000000000e+00 2.38960246377035e-02 2.44651764588790e-04
7.16160000000000e+00 2.37317334346030e-02 2.43623753692629e-04
7.20000000000000e+00 2.35685717750070e-02 2.42596574882065e-04
7.23840000000000e+00 2.34065318930189e-02 2.41570291065215e-04
7.27680000000000e+00 2.32456060761344e-02 2.40544963792375e-04
7.31520000000000e+00 2.30857866648745e-02 2.39520653281292e-04
7.35360000000000e+00 2.29270660524211e-02 2.38497418441882e-04
7.39200000000000e+00 2.27694366842552e-02 2.37475316900543e-04
7.43040000000000e+00 2.26128910577967e-02 2.36454405023896e-04
7.46880000000000e+00 2.24574217220476e-02 2.35434737942006e-04
7.50720000000000e+00 2.23030212772376e-02 2.34416369571197e-04
7.54560000000000e+00 2.21496823744716e-02 2.33399352636369e-04
7.58400000000000e+00 2.19973977153800e-02 2.32383738692899e-04
7.62240000000000e+00 2.18461600517713e-02 2.31369578148019e-04
7.66080000000000e+00 2.16959621852872e-02 2.30356920281841e-04
7.69920000000000e+00 2.15467969670601e-02 2.29345813267953e-04
7.73760000000000e+00 2.13986572973722e-02 2.28336304193565e-04
7.77600000000000e+00 2.12515361253186e-02 2.27328439079293e-04
7.81440000000000e+00 2.11054264484707e-02 2.26322262898508e-04
7.85280000000000e+00 2.09603213125436e-02 2.25317819596342e-04
7.89120000000000e+00 2.08162138110649e-02 2.24315152108336e-04
7.92960000000000e+00 2.06730970850459e-02 2.23314302378691e-04
7.96800000000000e+00 2.05309643226550e-02 2.22315311378148e-04
8.00640000000000e+00 2.03898087588939e-02 2.21318219121566e-04
8.04480000000000e+00 2.02496236752753e-02 2.20323064685138e-04
8.08320000000000e+00 2.01104023995031e-02 2.19329886223268e-04
8.12160000000000e+00 1.99721383051550e-02 2.18338720985143e-04
8.16000000000000e+00 1.98348248113671e-02 2.17349605330979e-04
8.19840000000000e+00 1.96984553825205e-02 2.16362574747939e-04
8.23680000000000e+00 1.95630235279303e-02 2.15377663865785e-04
8.27520000000000e+00 1.94285228015367e-02 2.14394906472219e-04
8.31360000000000e+00 1.92949468015984e-02 2.13414335527927e-04
8.35200000000000e+00 1.91622891703875e-02 2.12435983181354e-04
8.39040000000000e+00 1.90305435938870e-02 2.11459880783175e-04
8.42880000000000e+00 1.88997038014905e-02 2.10486058900526e-04
8.46720000000000e+00 1.87697635657037e-02 2.09514547330954e-04
8.50560000000000e+00 1.86407167018476e-02 2.08545375116125e-04
8.54400000000000e+00 1.85125570677647e-02 2.07578570555273e-04
8.58240000000000e+00 1.83852785635263e-02 2.06614161218379e-04
8.62080000000000e+00 1.82588751311421e-02 2.05652173959142e-04
8.65920000000000e+00 1.81333407542724e-02 2.04692634927675e-04
8.69760000000000e+00 1.80086694579408e-02 2.03735569583011e-04
8.73600000000000e+00 1.78848553082510e-02 2.02781002705353e-04
8.77440000000000e+00 1.77618924121031e-02 2.01828958408098e-04
8.81280000000000e+00 1.76397749169142e-02 2.00879460149677e-04
8.85120000000000e+00 1.75184970103393e-02 1.99932530745144e-04
8.88960000000000e+00 1.73980529199946e-02 1.98988192377581e-04
8.92800000000000e+00 1.72784369131830e-02 1.98046466609283e-04
8.96640000000000e+00 1.71596432966211e-02 1.97107374392744e-04
9.00480000000000e+00 1.70416664161683e-02 1.96170936081477e-04
9.04320000000000e+00 1.69245006565577e-02 1.95237171440603e-04
9.08160000000000e+00 1.68081404411286e-02 1.94306099657238e-04
9.12000000000000e+00 1.66925802315614e-02 1.93377739350770e-04
9.15840000000000e+00 1.65778145276137e-02 1.92452108582882e-04
9.19680000000000e+00 1.64638378668589e-02 1.91529224867444e-04
9.23520000000000e+00 1.63506448244258e-02 1.90609105180203e-04
9.27360000000000e+00 1.62382300127404e-02 1.89691765968292e-04
9.31200000000000e+00 1.61265880812700e-02 1.88777223159628e-04
9.35040000000000e+00 1.60157137162680e-02 1.87865492172099e-04
9.38880000000000e+00 1.59056016405209e-02 1.86956587922604e-04
9.42720000000000e+00 1.57962466130978e-02 1.86050524835936e-04
9.46560000000000e+00 1.56876434291002e-02 1.85147316853525e-04
9.50400000000000e+00 1.55797869194148e-02 1.84246977441978e-04
9.54240000000000e+00 1.54726719504671e-02 1.83349519601548e-04
9.58080000000000e+00 1.53662934239773e-02 1.82454955874428e-04
9.61920000000000e+00 1.52606462767176e-02 1.81563298352847e-04
9.65760000000000e+00 1.51557254802710e-02 1.80674558687119e-04
9.69600000000000e+00 1.50515260407924e-02 1.79788748093490e-04
9.73440000000000e+00 1.49480429987705e-02 1.78905877361882e-04
9.77280000000000e+00 1.48452714287918e-02 1.78025956863482e-04
9.81120000000000e+00 1.47432064393063e-02 1.77148996558219e-04
9.84960000000000e+00 1.46418431723949e-02 1.76275006002111e-04
9.88800000000000e+00 1.45411768035376e-02 1.75403994354494e-04
9.92640000000000e+00 1.44412025413843e-02 1.74535970385135e-04
9.96480000000000e+00 1.43419156275267e-02 1.73670942481168e-04
1.00032000000000e+01 1.42433113362716e-02 1.72808918653978e-04
1.00416000000000e+01 1.41453849744165e-02 1.71949906545976e-04
1.00800000000000e+01 1.40481318810253e-02 1.71093913437200e-04
1.01184000000000e+01 1.39515474272075e-02 1.70240946251836e-04
1.01568000000000e+01 1.38556270158971e-02 1.69391011564658e-04
1.01952000000000e+01 1.37603660816343e-02 1.68544115607325e-04
1.02336000000000e+01 1.36657600903479e-02 1.67700264274573e-04
1.02720000000000e+01 1.35718045391394e-02 1.66859463130316e-04
1.03104000000000e+01 1.34784949560691e-02 1.66021717413643e-04
1.03488000000000e+01 1.33858268999430e-02 1.65187032044742e-04
1.03872000000000e+01 1.32937959601013e-02 1.64355411630684e-04
1.04256000000000e+01 1.32023977562088e-02 1.63526860471102e-04
1.04640000000000e+01 1.31116279380459e-02 1.62701382563822e-04
1.05024000000000e+01 1.30214821853022e-02 1.61878981610396e-04
1.05408000000000e+01 1.29319562073702e-02 1.61059661021521e-04
1.05792000000000e+01 1.28430457431418e-02 1.60243423922365e-04
1.06176000000000e+01 1.27547465608047e-02 1.59430273157821e-04
1.06560000000000e+01 1.26670544576416e-02 1.58620211297677e-04
1.06944000000000e+01 1.25799652598299e-02 1.57813240641698e-04
1.07328000000000e+01 1.24934748222430e-02 1.57009363224627e-04
1.07712000000000e+01 1.24075790282533e-02 1.56208580821081e-04
1.08096000000000e+01 1.23222737895358e-02 1.55410894950400e-04
1.08480000000000e+01 1.22375550458741e-02 1.54616306881409e-04
1.08864000000000e+01 1.21534187649663e-02 1.53824817637084e-04
1.09248000000000e+01 1.20698609422341e-02 1.53036427999153e-04
1.09632000000000e+01 1.19868776006314e-02 1.52251138512637e-04
1.10016000000000e+01 1.19044647904555e-02 1.51468949490293e-04
1.10400000000000e+01 1.18226185891586e-02 1.50689861017006e-04
1.10784000000000e+01 1.17413351011617e-02 1.49913872954109e-04
1.11168000000000e+01 1.16606104576688e-02 1.49140984943591e-04
1.11552000000000e+01 1.15804408164828e-02 1.48371196412297e-04
1.11936000000000e+01 1.15008223618226e-02 1.47604506576027e-04
1.12320000000000e+01 1.14217513041419e-02 1.46840914443573e-04
1.12704000000000e+01 1.13432238799480e-02 1.46080418820706e-04
1.13088000000000e+01 1.12652363516235e-02 1.45323018314059e-04
1.13472000000000e+01 1.11877850072480e-02 1.44568711334995e-04
1.13856000000000e+01 1.11108661604214e-02 1.43817496103402e-04
1.14240000000000e+01 1.10344761500887e-02 1.43069370651399e-04
1.14624000000000e+01 1.09586113403654e-02 1.42324332826999e-04
1.15008000000000e+01 1.08832681203647e-02 1.41582380297726e-04
1.15392000000000e+01 1.08084429040256e-02 1.40843510554156e-04
1.15776000000000e+01 1.07341321299422e-02 1.40107720913411e-04
1.16160000000000e+01 1.06603322611939e-02 1.39375008522600e-04
1.16544000000000e+01 1.05870397851776e-02 1.38645370362183e-04
1.16928000000000e+01 1.05142512134402e-02 1.37918803249310e-04
1.17312000000000e+01 1.04419630815125e-02 1.37195303841096e-04
1.17696000000000e+01 1.03701719487445e-02 1.36474868637835e-04
1.18080000000000e+01 1.02988743981414e-02 1.35757493986169e-04
1.18464000000000e+01 1.02280670362013e-02 1.35043176082206e-04
1.18848000000000e+01 1.01577464927533e-02 1.34331910974598e-04
1.19232000000000e+01 1.00879094207973e-02 1.33623694567544e-04
1.19616000000000e+01 1.00185524963448e-02 1.32918522623768e-04
1.20000000000000e+01 9.94967241826050e-03 1.32216390767445e-04
1.20384000000000e+01 9.88126590810512e-03 1.31517294487090e-04
1.20768000000000e+01 9.81332970997962e-03 1.30821229138373e-04
1.21152000000000e+01 9.74586059037003e-03 1.30128189946898e-04
