Energy (eV)          EEDF (eV^-(3/2))     First Anisotropy
3.69230769230769e-02 8.53527675658671e-02 6.24994591353093e-05
1.10769230769231e-01 8.42278336828017e-02 1.02870093103666e-04
1.84615384615385e-01 8.31177262186076e-02 1.34917491226575e-04
2.58461538461538e-01 8.20222497687330e-02 1.58733627812041e-04
3.32307692307692e-01 8.09412115025546e-02 1.78162363949823e-04
4.06153846153846e-01 7.98744211226292e-02 1.94670994654910e-04
4.80000000000000e-01 7.88216908446064e-02 2.09025776807721e-04
5.53846153846154e-01 7.77828353589930e-02 2.21693532348450e-04
6.27692307692308e-01 7.67576717986260e-02 2.32986555131827e-04
7.01538461538462e-01 7.57460197065036e-02 2.43127451335813e-04
7.75384615384615e-01 7.47477010053435e-02 2.52282386301791e-04
8.49230769230769e-01 7.37625399620538e-02 2.60579829837191e-04
9.23076923076923e-01 7.27903631611477e-02 2.68121896923146e-04
9.96923076923077e-01 7.18309994727140e-02 2.74991593729574e-04
1.07076923076923e+00 7.08842800257347e-02 2.81257654833795e-04
1.14461538461538e+00 6.99500381627781e-02 2.86977886656642e-04
1.21846153846154e+00 6.90281094400597e-02 2.92201553088185e-04
1.29230769230769e+00 6.81183315648852e-02 2.96971118257214e-04
1.36615384615385e+00 6.72205443988233e-02 3.01323548151421e-04
1.44000000000000e+00 6.63345899059784e-02 3.05291304756058e-04
1.51384615384615e+00 6.54603121277748e-02 3.08903110637740e-04
1.58769230769231e+00 6.45975571732467e-02 3.12184554254758e-04
1.66153846153846e+00 6.37461731733075e-02 3.15158572064237e-04
1.73538461538462e+00 6.29060102558577e-02 3.17845832905262e-04
1.80923076923077e+00 6.20769205339841e-02 3.20265055444360e-04
1.88307692307692e+00 6.12587580604059e-02 3.22433267314537e-04
1.95692307692308e+00 6.04513788204975e-02 3.24366019973564e-04
2.03076923076923e+00 5.96546406929503e-02 3.26077570628313e-04
2.10461538461538e+00 5.88684034259981e-02 3.27581031622003e-04
2.17846153846154e+00 5.80925286240159e-02 3.28888501008001e-04
2.25230769230769e+00 5.73268797080247e-02 3.30011172360313e-04
2.32615384615385e+00 5.65713219062308e-02 3.30959428981644e-04
2.40000000000000e+00 5.58257222194275e-02 3.31742927188304e-04
2.47384615384615e+00 5.50899493984050e-02 3.32370665192656e-04
2.54769230769231e+00 5.43638739299008e-02 3.32851046211008e-04
2.62153846153846e+00 5.36473680044487e-02 3.33191933807841e-04
2.69538461538462e+00 5.29403054945441e-02 3.33400697810658e-04
2.76923076923077e+00 5.22425619403315e-02 3.33484257914072e-04
2.84307692307692e+00 5.15540145171700e-02 3.33449120982592e-04
2.91692307692308e+00 5.08745420242073e-02 3.33301414155527e-04
2.99076923076923e+00 5.02040248554169e-02 3.33046915924532e-04
3.06461538461538e+00 4.95423449790593e-02 3.32691081211607e-04
3.13846153846154e+00 4.88893859234129e-02 3.32239066594150e-04
3.21230769230769e+00 4.82450327475739e-02 3.31695751808496e-04
3.28615384615385e+00 4.76091720296671e-02 3.31065759095192e-04
3.36000000000000e+00 4.69816918405738e-02 3.30353472067144e-04
3.43384615384615e+00 4.63624817246099e-02 3.29563050382717e-04
3.50769230769231e+00 4.57514326855468e-02 3.28698445271476e-04
3.58153846153846e+00 4.51484371618190e-02 3.27763413710390e-04
3.65538461538462e+00 4.45533890079145e-02 3.26761529351148e-04
3.72923076923077e+00 4.39661834805811e-02 3.25696194744858e-04
3.80307692307692e+00 4.33867172138702e-02 3.24570651546239e-04
3.87692307692308e+00 4.28148882072861e-02 3.23387989828199e-04
3.95076923076923e+00 4.22505958030823e-02 3.22151157765523e-04
4.02461538461538e+00 4.16937406688119e-02 3.20862968531831e-04
4.09846153846154e+00 4.11442247840058e-02 3.19526108662922e-04
4.17230769230769e+00 4.06019514173611e-02 3.18143144880938e-04
4.24615384615385e+00 4.00668251151297e-02 3.16716530359977e-04
4.32000000000000e+00 3.95387516802682e-02 3.15248611534976e-04
4.39384615384615e+00 3.90176381560657e-02 3.13741632596700e-04
4.46769230769231e+00 3.85033928133661e-02 3.12197741297740e-04
4.54153846153846e+00 3.79959251307568e-02 3.10618994368238e-04
4.61538461538462e+00 3.74951457788190e-02 3.09007361042296e-04
4.68923076923077e+00 3.70009666076606e-02 3.07364728020820e-04
4.76307692307692e+00 3.65133006270601e-02 3.05692903342193e-04
4.83692307692308e+00 3.60320619953896e-02 3.03993619956376e-04
4.91076923076923e+00 3.55571660013338e-02 3.02268539906058e-04
4.98461538461538e+00 3.50885290491361e-02 3.00519256705009e-04
5.05846153846154e+00 3.46260686467106e-02 2.98747299081625e-04
5.13230769230769e+00 3.41697033873506e-02 2.96954133797386e-04
5.20615384615385e+00 3.37193529390820e-02 2.95141168253665e-04
5.28000000000000e+00 3.32749380277696e-02 2.93309753699590e-04
5.35384615384615e+00 3.28363804232896e-02 2.91461186855231e-04
5.42769230769231e+00 3.24036029282308e-02 2.89596712682209e-04
5.50153846153846e+00 3.19765293617857e-02 2.87717527000170e-04
5.57538461538462e+00 3.15550845464545e-02 2.85824777786694e-04
5.64923076923077e+00 3.11391942970802e-02 2.83919567687750e-04
5.72307692307692e+00 3.07287854047692e-02 2.82002955797192e-04
5.79692307692308e+00 3.03237856269588e-02 2.80075959303376e-04
5.87076923076923e+00 2.99241236724888e-02 2.78139555687516e-04
5.94461538461539e+00 2.95297291891528e-02 2.76194683615779e-04
6.01846153846154e+00 2.91405327533073e-02 2.74242244951227e-04
6.09230769230769e+00 2.87564658549940e-02 2.72283106119961e-04
6.16615384615385e+00 2.83774608884802e-02 2.70318099373902e-04
6.24000000000000e+00 2.80034511384141e-02 2.68348024572058e-04
6.31384615384615e+00 2.76343707681639e-02 2.66373649788283e-04
6.38769230769231e+00 2.72701548099903e-02 2.64395712850913e-04
6.46153846153846e+00 2.69107391518169e-02 2.62414922807674e-04
6.53538461538462e+00 2.65560605260199e-02 2.60431960408261e-04
6.60923076923077e+00 2.62060564999191e-02 2.58447479561836e-04
6.68307692307692e+00 2.58606654626205e-02 2.56462108260549e-04
6.75692307692308e+00 2.55198266162935e-02 2.54476449430389e-04
6.83076923076923e+00 2.51834799638802e-02 2.52491082240095e-04
6.90461538461539e+00 2.48515662986008e-02 2.50506562418798e-04
6.97846153846154e+00 2.45240271949750e-02 2.48523423470364e-04
7.05230769230769e+00 2.42008049966140e-02 2.46542177407024e-04
7.12615384615385e+00 2.38818428079555e-02 2.44563315423209e-04
7.20000000000000e+00 2.35670844828396e-02 2.42587308994077e-04
7.27384615384615e+00 2.32564746146815e-02 2.40614610074387e-04
7.34769230769231e+00 2.29499585280038e-02 2.38645652042830e-04
7.42153846153846e+00 2.26474822675052e-02 2.36680850604669e-04
7.49538461538462e+00 2.23489925886139e-02 2.34720603938152e-04
7.56923076923077e+00 2.20544369493093e-02 2.32765293619463e-04
7.64307692307692e+00 2.17637634992836e-02 2.30815285141237e-04
7.71692307692308e+00 2.14769210723727e-02 2.28870928385853e-04
7.79076923076923e+00 2.11938591763832e-02 2.26932558470284e-04
7.86461538461539e+00 2.09145279842506e-02 2.25000495821101e-04
7.93846153846154e+00 2.06388783263342e-02 2.23075046965023e-04
8.01230769230769e+00 2.03668616803414e-02 2.21156504950121e-04
8.08615384615385e+00 2.00984301641794e-02 2.19245149728400e-04
8.16000000000000e+00 1.98335365264849e-02 2.17341248881511e-04
8.23384615384616e+00 1.95721341383457e-02 2.15445057643770e-04
8.30769230769231e+00 1.93141769860479e-02 2.13556819520676e-04
8.38153846153846e+00 1.90596196620062e-02 2.11676766881812e-04
8.45538461538462e+00 1.88084173568064e-02 2.09805120961482e-04
8.52923076923077e+00 1.85605258522089e-02 2.07942092481308e-04
8.60307692307692e+00 1.83159015121795e-02 2.06087881956663e-04
8.67692307692308e+00 1.80745012763706e-02 2.04242679972509e-04
8.75076923076923e+00 1.78362826516718e-02 2.02406667758786e-04
8.82461538461539e+00 1.76012037047617e-02 2.00580017159711e-04
8.89846153846154e+00 1.73692230555264e-02 1.98762891175227e-04
8.97230769230769e+00 1.71402998687105e-02 1.96955444213435e-04
9.04615384615385e+00 1.69143938477734e-02 1.95157822316256e-04
9.12000000000000e+00 1.66914652270150e-02 1.93370163661588e-04
9.19384615384615e+00 1.64714747646037e-02 1.91592598510153e-04
9.26769230769231e+00 1.62543837363884e-02 1.89825249629149e-04
9.34153846153846e+00 1.60401539283514e-02 1.88068232699100e-04
9.41538461538462e+00 1.58287476299079e-02 1.86321656251729e-04
9.48923076923077e+00 1.56201276279407e-02 1.84585622106227e-04
9.56307692307692e+00 1.54142571993541e-02 1.82860225556192e-04
9.63692307692308e+00 1.52111001054885e-02 1.81145555534675e-04
9.71076923076923e+00 1.50106205850838e-02 1.79441695020776e-04
9.78461538461539e+00 1.48127833480076e-02 1.77748720964641e-04
9.85846153846154e+00 1.46175535696499e-02 1.76066704671387e-04
9.93230769230769e+00 1.44248968839851e-02 1.74395711956347e-04
1.00061538461538e+01 1.42347793783159e-02 1.72735803198216e-04
1.00800000000000e+01 1.40471675870774e-02 1.71087034111617e-04
1.01538461538462e+01 1.38620284841289e-02 1.69449454799614e-04
1.02276923076923e+01 1.36793294816967e-02 1.67823111018391e-04
1.03015384615385e+01 1.34990384179283e-02 1.66208043827419e-04
1.03753846153846e+01 1.33211235583627e-02 1.64604289779776e-04
1.04492307692308e+01 1.31455535833630e-02 1.63011881176427e-04
1.05230769230769e+01 1.29722975894381e-02 1.61430846117708e-04
1.05969230769231e+01 1.28013250771110e-02 1.59861209107351e-04
1.06707692307692e+01 1.26326059505336e-02 1.58302989641751e-04
1.07446153846154e+01 1.24661105120669e-02 1.56756204607867e-04
1.08184615384615e+01 1.23018094523620e-02 1.55220866947760e-04
1.08923076923077e+01 1.21396738514165e-02 1.53696986086714e-04
1.09661538461538e+01 1.19796751673973e-02 1.52184568145543e-04
1.10400000000000e+01 1.18217852375769e-02 1.50683615973211e-04
1.11138461538462e+01 1.16659762675383e-02 1.49194129348356e-04
1.11876923076923e+01 1.15122208320002e-02 1.47716105007775e-04
1.12615384615385e+01 1.13604918643889e-02 1.46249536837797e-04
1.13353846153846e+01 1.12107626575596e-02 1.44794415898979e-04
1.14092307692308e+01 1.10630068537215e-02 1.43350730607918e-04
1.14830769230769e+01 1.09171984450625e-02 1.41918466758437e-04
1.15569230769231e+01 1.07733117640134e-02 1.40497607986940e-04
1.16307692307692e+01 1.06313214825723e-02 1.39088134616423e-04
1.17046153846154e+01 1.04912026077530e-02 1.37690025569446e-04
1.17784615384615e+01 1.03529304735647e-02 1.36303257273220e-04
1.18523076923077e+01 1.02164807414690e-02 1.34927803987440e-04
1.19261538461538e+01 1.00818293913933e-02 1.33563637957398e-04
1.20000000000000e+01 9.94895272211078e-03 1.32210729424315e-04
1.20738461538462e+01 9.81782734255219e-03 1.30869046770971e-04
1.21476923076923e+01 9.68843017211427e-03 1.29538556529738e-04
1.22215384615385e+01 9.56073843225949e-03 1.28219223521157e-04
1.22953846153846e+01 9.43472964675738e-03 1.26911010859818e-04
1.23692307692308e+01 9.31038163356151e-03 1.25613880086271e-04
1.24430769230769e+01 9.18767250498892e-03 1.24327791170936e-04
1.25169230769231e+01 9.06658065986388e-03 1.23052702876331e-04
1.25907692307692e+01 8.94708478269905e-03 1.21788571809676e-04
1.26646153846154e+01 8.82916383987166e-03 1.20535353956999e-04
1.27384615384615e+01 8.71279707310716e-03 1.19293003785303e-04
1.28123076923077e+01 8.59796399955573e-03 1.18061474496273e-04
1.28861538461538e+01 8.48464440452929e-03 1.16840718138042e-04
1.29600000000000e+01 8.37281834152909e-03 1.15630685602903e-04
1.30338461538462e+01 8.26246612521862e-03 1.14431326733795e-04
1.31076923076923e+01 8.15356833140591e-03 1.13242590320734e-04
1.31815384615385e+01 8.04610579024388e-03 1.12064424202292e-04
1.32553846153846e+01 7.94005958617081e-03 1.10896775260844e-04
1.33292307692308e+01 7.83541105132994e-03 1.09739589519315e-04
1.34030769230769e+01 7.73214176547136e-03 1.08592812135349e-04
1.34769230769231e+01 7.63023354958305e-03 1.07456387685482e-04
1.35507692307692e+01 7.52966846502158e-03 1.06330259388148e-04
1.36246153846154e+01 7.43042881029879e-03 1.05214370339107e-04
1.36984615384615e+01 7.33249711576615e-03 1.04108662774713e-04
1.37723076923077e+01 7.23585614345670e-03 1.03013078269820e-04
1.38461538461538e+01 7.14048888118945e-03 1.01927557820098e-04
1.39200000000000e+01 7.04637854238130e-03 1.00852041832784e-04
1.39938461538462e+01 6.95350856033918e-03 9.97864702052072e-05
1.40676923076923e+01 6.86186258804439e-03 9.87307823148798e-05
1.41415384615385e+01 6.77142449262583e-03 9.76849170944010e-05
1.42153846153846e+01 6.68217835511917e-03 9.66488130209447e-05
1.42892307692308e+01 6.59410846511489e-03 9.56224081877375e-05
1.43630769230769e+01 6.50719932049440e-03 9.46056402930096e-05
1.44369230769231e+01 6.42143562224684e-03 9.35984468642889e-05
1.45107692307692e+01 6.33680227360619e-03 9.26007646205409e-05
1.45846153846154e+01 6.25328437735038e-03 9.16125304704754e-05
1.46584615384615e+01 6.17086723145070e-03 9.06336809074504e-05
1.47323076923077e+01 6.08953632877630e-03 8.96641521647895e-05
1.48061538461538e+01 6.00927735229102e-03 8.87038802768002e-05
1.48800000000000e+01 5.93007617474061e-03 8.77528010659679e-05
1.49538461538462e+01 5.85191885399979e-03 8.68108502011925e-05
1.50276923076923e+01 5.77479163274377e-03 8.58779631846985e-05
1.51015384615385e+01 5.69868093394049e-03 8.49540754076268e-05
1.51753846153846e+01 5.62357336050794e-03 8.40391221366956e-05
1.52492307692308e+01 5.54945569094669e-03 8.31330385672760e-05
1.53230769230769e+01 5.47631487898451e-03 8.22357598098335e-05
1.53969230769231e+01 5.40413804934436e-03 8.13472210678164e-05
1.54707692307692e+01 5.33291249692155e-03 8.04673571134535e-05
1.55446153846154e+01 5.26262568451325e-03 7.95961030967818e-05
1.56184615384615e+01 5.19326523924758e-03 7.87333940481273e-05
1.56923076923077e+01 5.12481895221526e-03 7.78791650006061e-05
1.57661538461538e+01 5.05727477454422e-03 7.70333510355208e-05
1.58400000000000e+01 4.99062081702231e-03 7.61958872680694e-05
1.59138461538462e+01 4.92484534629279e-03 7.53667088906981e-05
1.59876923076923e+01 4.85993678446924e-03 7.45457511587280e-05
1.60615384615385e+01 4.79588370544802e-03 7.37329494317665e-05
1.61353846153846e+01 4.73267483451630e-03 7.29282391592934e-05
1.62092307692308e+01 4.67029904477763e-03 7.21315559202043e-05
1.62830769230769e+01 4.60874535675407e-03 7.13428354083742e-05
1.63569230769231e+01 4.54800293492114e-03 7.05620135742982e-05
1.64307692307692e+01 4.48806108694353e-03 6.97890261938206e-05
1.65046153846154e+01 4.42890926176618e-03 6.90238095253611e-05
1.65784615384615e+01 4.37053704667638e-03 6.82662999004240e-05
1.66523076923077e+01 4.31293416690469e-03 6.75164338205904e-05
1.67261538461538e+01 4.25609048240841e-03 6.67741479913711e-05
1.68000000000000e+01 4.19999598746914e-03 6.60393793076460e-05
1.68738461538462e+01 4.14464080757391e-03 6.53120648860023e-05
1.69476923076923e+01 4.09001519901013e-03 6.45921420502411e-05
1.70215384615385e+01 4.03610954584129e-03 6.38795483622615e-05
1.70953846153846e+01 3.98291435949988e-03 6.31742216076366e-05
1.71692307692308e+01 3.93042027585466e-03 6.24760998251159e-05
1.72430769230769e+01 3.87861805480211e-03 6.17851212922834e-05
1.73169230769231e+01 3.82749857742235e-03 6.11012246387110e-05
1.73907692307692e+01 3.77705284528239e-03 6.04243484907522e-05
1.74646153846154e+01 3.72727197883087e-03 5.97544320065792e-05
1.75384615384615e+01 3.67814721497600e-03 5.90914145387902e-05
1.76123076923077e+01 3.62966990668307e-03 5.84352357114423e-05
1.76861538461538e+01 3.58183152033260e-03 5.77858354453166e-05
1.77600000000000e+01 3.53462363531798e-03 5.71431539438160e-05
1.78338461538462e+01 3.48803794148296e-03 5.65071317170995e-05
1.79076923076923e+01 3.44206623871992e-03 5.58777095681173e-05
1.79815384615385e+01 3.39670043448414e-03 5.52548286156545e-05
1.80553846153846e+01 3.35193254339312e-03 5.46384302805085e-05
1.81292307692308e+01 3.30775468481522e-03 5.40284563074994e-05
1.82030769230769e+01 3.26415908247037e-03 5.34248487517884e-05
1.82769230769231e+01 3.22113806209079e-03 5.28275500695081e-05
1.83507692307692e+01 3.17868405079421e-03 5.22365028249117e-05
1.84246153846154e+01 3.13678957573401e-03 5.16516501267315e-05
1.84984615384615e+01 3.09544726209872e-03 5.10729353499133e-05
1.85723076923077e+01 3.05464983272315e-03 5.05003021969542e-05
1.86461538461538e+01 3.01439010591409e-03 4.99336947167407e-05
1.87200000000000e+01 2.97466099506374e-03 4.93730572913158e-05
1.87938461538462e+01 2.93545550654010e-03 4.88183346538646e-05
1.88676923076923e+01 2.89676673930293e-03 4.82694718756493e-05
1.89415384615385e+01 2.85858788285677e-03 4.77264143831833e-05
1.90153846153846e+01 2.82091221686980e-03 4.71891079453431e-05
1.90892307692308e+01 2.78373310918742e-03 4.66574986897582e-05
1.91630769230769e+01 2.74704401545425e-03 4.61315330901016e-05
1.92369230769231e+01 2.71083847718647e-03 4.56111580388435e-05
1.93107692307692e+01 2.67511012121386e-03 4.50963206055638e-05
1.93846153846154e+01 2.63985265854443e-03 4.45869683934157e-05
1.94584615384615e+01 2.60505988270968e-03 4.40830493094014e-05
1.95323076923077e+01 2.57072566939919e-03 4.35845116133221e-05
1.96061538461538e+01 2.53684397466810e-03 4.30913039317889e-05
1.96800000000000e+01 2.50340883457529e-03 4.26033752460538e-05
1.97538461538462e+01 2.47041436344363e-03 4.21206749053828e-05
1.98276923076923e+01 2.43785475350196e-03 4.16431526150785e-05
1.99015384615385e+01 2.40572427319643e-03 4.11707584492356e-05
1.99753846153846e+01 2.37401726683642e-03 4.07034428389447e-05
2.00492307692308e+01 2.34272815295546e-03 4.02411565844706e-05
2.01230769230769e+01 2.31185142396114e-03 3.97838508436418e-05
2.01969230769231e+01 2.28138164454416e-03 3.93314771903673e-05
2.02707692307692e+01 2.25131345118538e-03 3.88839874149959e-05
2.03446153846154e+01 2.22164155120102e-03 3.84413338159260e-05
2.04184615384615e+01 2.19236072137184e-03 3.80034690097874e-05
2.04923076923077e+01 2.16346580760673e-03 3.75703459705688e-05
2.05661538461538e+01 2.13495172346244e-03 3.71419180400003e-05
2.06400000000000e+01 2.10681344981141e-03 3.67181389165317e-05
2.07138461538462e+01 2.07904603340473e-03 3.62989626652309e-05
2.07876923076923e+01 2.05164458654426e-03 3.58843437069482e-05
2.08615384615385e+01 2.02460428568759e-03 3.54742368277574e-05
2.09353846153846e+01 1.99792037112447e-03 3.50685971683051e-05
2.10092307692308e+01 1.97158814562242e-03 3.46673802328063e-05
2.10830769230769e+01 1.94560297410763e-03 3.42705418785827e-05
2.11569230769231e+01 1.91996028235000e-03 3.38780383632041e-05
2.12307692307692e+01 1.89465555653045e-03 3.34898261794350e-05
2.13046153846154e+01 1.86968434243784e-03 3.31058622941014e-05
2.13784615384615e+01 1.84504224433206e-03 3.27261039911059e-05
2.14523076923077e+01 1.82072492463871e-03 3.23505089027549e-05
2.15261538461538e+01 1.79672810272512e-03 3.19790350174079e-05
2.16000000000000e+01 1.77304755459943e-03 3.16116406695991e-05
2.16738461538462e+01 1.74967911172216e-03 3.12482845473217e-05
2.17476923076923e+01 1.72661866070978e-03 3.08889256823320e-05
2.18215384615385e+01 1.70386214218068e-03 3.05335234570874e-05
2.18953846153846e+01 1.68140555046332e-03 3.01820375952238e-05
2.19692307692308e+01 1.65924493247554e-03 2.98344281681627e-05
2.20430769230769e+01 1.63737638743727e-03 2.94906555857674e-05
2.21169230769231e+01 1.61579606578221e-03 2.91506806343796e-05
2.21907692307692e+01 1.59450016878009e-03 2.88144643402489e-05
2.22646153846154e+01 1.57348494786108e-03 2.84819681654146e-05
2.23384615384615e+01 1.55274670367189e-03 2.81531538777817e-05
2.24123076923077e+01 1.53228178580179e-03 2.78279835762318e-05
2.24861538461538e+01 1.51208659176918e-03 2.75064196962107e-05
2.25600000000000e+01 1.49215756675204e-03 2.71884250009509e-05
2.26338461538462e+01 1.47249120260376e-03 2.68739625867895e-05
2.27076923076923e+01 1.45308403758801e-03 2.65629958745545e-05
2.27815384615385e+01 1.43393265542286e-03 2.62554886146222e-05
2.28553846153846e+01 1.41503368502015e-03 2.59514048784710e-05
2.29292307692308e+01 1.39638379955708e-03 2.56507090634875e-05
2.30030769230769e+01 1.37797971621997e-03 2.53533658846881e-05
2.30769230769231e+01 1.35981819530252e-03 2.50593404054399e-05
2.31507692307692e+01 1.34189603987738e-03 2.47685979243727e-05
2.32246153846154e+01 1.32421009522781e-03 2.44811041361889e-05
2.32984615384615e+01 1.30675724806330e-03 2.41968250240459e-05
