Energy (eV)          EEDF (eV^-(3/2))     First Anisotropy
2.32203389830508e-02 5.03800955079426e-02 2.46174084068220e-05
6.96610169491526e-02 5.00859159776592e-02 4.06683745967144e-05
1.16101694915254e-01 4.97934542214766e-02 5.37346655126335e-05
1.62542372881356e-01 4.95027002080928e-02 6.36903809403742e-05
2.08983050847458e-01 4.92136439660198e-02 7.20177389364356e-05
2.55423728813559e-01 4.89262755816118e-02 7.92763003450966e-05
3.01864406779661e-01 4.86405851991203e-02 8.57552235527569e-05
3.48305084745763e-01 4.83565630203505e-02 9.16288785955318e-05
3.94745762711864e-01 4.80741993043223e-02 9.70127507933537e-05
4.41186440677966e-01 4.77934843669362e-02 1.01988350450261e-04
4.87627118644068e-01 4.75144085806406e-02 1.06615932913088e-04
5.34067796610170e-01 4.72369623741013e-02 1.10941641694254e-04
5.80508474576271e-01 4.69611362318733e-02 1.15001812790313e-04
6.26949152542373e-01 4.66869206940743e-02 1.18825713914007e-04
6.73389830508475e-01 4.64143063560602e-02 1.22437365430519e-04
7.19830508474576e-01 4.61432838684906e-02 1.25856795100528e-04
7.66271186440678e-01 4.58738439358164e-02 1.29100928589666e-04
8.12711864406780e-01 4.56059773171833e-02 1.32184237817338e-04
8.59152542372881e-01 4.53396748256961e-02 1.35119223625775e-04
9.05593220338983e-01 4.50749273281030e-02 1.37916781683435e-04
9.52033898305085e-01 4.48117257444830e-02 1.40586484682861e-04
9.98474576271187e-01 4.45500610479343e-02 1.43136803368640e-04
1.04491525423729e+00 4.42899242629593e-02 1.45575280846312e-04
1.09135593220339e+00 4.40313064710859e-02 1.47908674364622e-04
1.13779661016949e+00 4.37741988001266e-02 1.50143068954534e-04
1.18423728813559e+00 4.35185924322129e-02 1.52283969644726e-04
1.23067796610170e+00 4.32644786009592e-02 1.54336379728178e-04
1.27711864406780e+00 4.30118485911810e-02 1.56304864329418e-04
1.32355932203390e+00 4.27606937405201e-02 1.58193605202547e-04
1.37000000000000e+00 4.25110054332547e-02 1.60006445647074e-04
1.41644067796610e+00 4.22627751059627e-02 1.61746928603782e-04
1.46288135593220e+00 4.20159942452248e-02 1.63418330414126e-04
1.50932203389831e+00 4.17706543889821e-02 1.65023689808537e-04
1.55576271186441e+00 4.15267471212561e-02 1.66565831969246e-04
1.60220338983051e+00 4.12842640768969e-02 1.68047389353643e-04
1.64864406779661e+00 4.10431969395913e-02 1.69470821180922e-04
1.69508474576271e+00 4.08035374415879e-02 1.70838429245828e-04
1.74152542372881e+00 4.05652773647967e-02 1.72152373039419e-04
1.78796610169492e+00 4.03284085363194e-02 1.73414681944432e-04
1.83440677966102e+00 4.00929228323941e-02 1.74627265981407e-04
1.88084745762712e+00 3.98588121766877e-02 1.75791926561416e-04
1.92728813559322e+00 3.96260685400292e-02 1.76910364925222e-04
1.97372881355932e+00 3.93946839413148e-02 1.77984190800464e-04
2.02016949152542e+00 3.91646504436546e-02 1.79014929104938e-04
2.06661016949153e+00 3.89359601577108e-02 1.80004025928511e-04
2.11305084745763e+00 3.87086052402065e-02 1.80952855026664e-04
2.15949152542373e+00 3.84825778936672e-02 1.81862722633123e-04
2.20593220338983e+00 3.82578703671752e-02 1.82734872841756e-04
2.25237288135593e+00 3.80344749530001e-02 1.83570491511673e-04
2.29881355932203e+00 3.78123839894644e-02 1.84370709782620e-04
2.34525423728814e+00 3.75915898596234e-02 1.85136608293983e-04
2.39169491525424e+00 3.73720849910127e-02 1.85869220062374e-04
2.43813559322034e+00 3.71538618562859e-02 1.86569534061275e-04
2.48457627118644e+00 3.69369129702321e-02 1.87238497591599e-04
2.53101694915254e+00 3.67212308922652e-02 1.87877018427408e-04
2.57745762711864e+00 3.65068082252416e-02 1.88485967729059e-04
2.62389830508475e+00 3.62936376152149e-02 1.89066181820596e-04
2.67033898305085e+00 3.60817117519774e-02 1.89618464709314e-04
2.71677966101695e+00 3.58710233663971e-02 1.90143589564624e-04
2.76322033898305e+00 3.56615652325999e-02 1.90642300060178e-04
2.80966101694915e+00 3.54533301669009e-02 1.91115312491105e-04
2.85610169491525e+00 3.52463110275657e-02 1.91563316893565e-04
2.90254237288136e+00 3.50405007152743e-02 1.91986978905159e-04
2.94898305084746e+00 3.48358921707235e-02 1.92386940701268e-04
2.99542372881356e+00 3.46324783765553e-02 1.92763821844199e-04
3.04186440677966e+00 3.44302523563843e-02 1.93118220890486e-04
3.08830508474576e+00 3.42292071745647e-02 1.93450716100891e-04
3.13474576271186e+00 3.40293359365890e-02 1.93761866870799e-04
3.18118644067797e+00 3.38306317869174e-02 1.94052214324194e-04
3.22762711864407e+00 3.36330879106906e-02 1.94322281849439e-04
3.27406779661017e+00 3.34366975328412e-02 1.94572576365215e-04
3.32050847457627e+00 3.32414539178645e-02 1.94803588767023e-04
3.36694915254237e+00 3.30473503701645e-02 1.95015795065499e-04
3.41338983050847e+00 3.28543802320754e-02 1.95209656757610e-04
3.45983050847458e+00 3.26625368853941e-02 1.95385621157471e-04
3.50627118644068e+00 3.24718137505612e-02 1.95544122424898e-04
3.55271186440678e+00 3.22822042864381e-02 1.95685581837828e-04
3.59915254237288e+00 3.20937019906068e-02 1.95810408724907e-04
3.64559322033898e+00 3.19063003975591e-02 1.95919000688231e-04
3.69203389830508e+00 3.17199930800729e-02 1.96011743796985e-04
3.73847457627119e+00 3.15347736484551e-02 1.96089013445176e-04
3.78491525423729e+00 3.13506357503247e-02 1.96151174506686e-04
3.83135593220339e+00 3.11675730708725e-02 1.96198582118215e-04
3.87779661016949e+00 3.09855793311972e-02 1.96231581801088e-04
3.92423728813559e+00 3.08046482895469e-02 1.96250509561552e-04
3.97067796610170e+00 3.06247737406159e-02 1.96255692621753e-04
4.01711864406780e+00 3.04459495153336e-02 1.96247449494319e-04
4.06355932203390e+00 3.02681694810904e-02 1.96226090653343e-04
4.11000000000000e+00 3.00914275402027e-02 1.96191918586587e-04
4.15644067796610e+00 2.99157176310364e-02 1.96145227831306e-04
4.20288135593220e+00 2.97410337273524e-02 1.96086305494416e-04
4.24932203389831e+00 2.95673698385095e-02 1.96015431728897e-04
4.29576271186441e+00 2.93947200080242e-02 1.95932879746901e-04
4.34220338983051e+00 2.92230783146082e-02 1.95838915819439e-04
4.38864406779661e+00 2.90524388715478e-02 1.95733799847919e-04
4.43508474576271e+00 2.88827958265033e-02 1.95617785350726e-04
4.48152542372881e+00 2.87141433616847e-02 1.95491119992105e-04
4.52796610169492e+00 2.85464756925158e-02 1.95354045558604e-04
4.57440677966102e+00 2.83797870685788e-02 1.95206797925043e-04
4.62084745762712e+00 2.82140717730329e-02 1.95049607563153e-04
4.66728813559322e+00 2.80493241224195e-02 1.94882699498885e-04
4.71372881355932e+00 2.78855384668143e-02 1.94706293784757e-04
4.76016949152542e+00 2.77227091885852e-02 1.94520605450543e-04
4.80661016949153e+00 2.75608307032541e-02 1.94325844445739e-04
4.85305084745763e+00 2.73998974589511e-02 1.94122216097150e-04
4.89949152542373e+00 2.72399039362252e-02 1.93909921045721e-04
4.94593220338983e+00 2.70808446481762e-02 1.93689155672816e-04
4.99237288135593e+00 2.69227141392961e-02 1.93460112032882e-04
5.03881355932203e+00 2.67655069862581e-02 1.93222977779580e-04
5.08525423728814e+00 2.66092177974027e-02 1.92977936581250e-04
5.13169491525424e+00 2.64538412125536e-02 1.92725168043529e-04
5.17813559322034e+00 2.62993719031323e-02 1.92464848097352e-04
5.22457627118644e+00 2.61458045710745e-02 1.92197148919236e-04
5.27101694915254e+00 2.59931339495546e-02 1.91922238846195e-04
5.31745762711864e+00 2.58413548025001e-02 1.91640282755831e-04
5.36389830508475e+00 2.56904619244134e-02 1.91351441979306e-04
5.41033898305085e+00 2.55404501404704e-02 1.91055874657066e-04
5.45677966101695e+00 2.53913143055058e-02 1.90753735650774e-04
5.50322033898305e+00 2.52430493046789e-02 1.90445176450761e-04
5.54966101694915e+00 2.50956500530143e-02 1.90130345525946e-04
5.59610169491525e+00 2.49491114952299e-02 1.89809388230519e-04
5.64254237288136e+00 2.48034286058202e-02 1.89482447132062e-04
5.68898305084746e+00 2.46585963881054e-02 1.89149661918044e-04
5.73542372881356e+00 2.45146098748437e-02 1.88811169298504e-04
5.78186440677966e+00 2.43714641277971e-02 1.88467103330069e-04
5.82830508474576e+00 2.42291542375636e-02 1.88117595318733e-04
5.87474576271187e+00 2.40876753236490e-02 1.87762774123960e-04
5.92118644067797e+00 2.39470225335729e-02 1.87402766062051e-04
5.96762711864407e+00 2.38071910434331e-02 1.87037694806047e-04
6.01406779661017e+00 2.36681760574946e-02 1.86667681687077e-04
6.06050847457627e+00 2.35299728080261e-02 1.86292845595069e-04
6.10694915254237e+00 2.33925765553607e-02 1.85913303261883e-04
6.15338983050848e+00 2.32559825870556e-02 1.85529169163041e-04
6.19983050847458e+00 2.31201862184116e-02 1.85140555416373e-04
6.24627118644068e+00 2.29851827920844e-02 1.84747572063424e-04
6.29271186440678e+00 2.28509676779254e-02 1.84350326969414e-04
6.33915254237288e+00 2.27175362730322e-02 1.83948926087769e-04
6.38559322033898e+00 2.25848840009571e-02 1.83543473361426e-04
6.43203389830509e+00 2.24530063121875e-02 1.83134070621398e-04
6.47847457627119e+00 2.23218986837761e-02 1.82720817850372e-04
6.52491525423729e+00 2.21915566191865e-02 1.82303813082860e-04
6.57135593220339e+00 2.20619756483353e-02 1.81883152653235e-04
6.61779661016949e+00 2.19331513268446e-02 1.81458931097475e-04
6.66423728813559e+00 2.18050792364872e-02 1.81031241052384e-04
6.71067796610170e+00 2.16777549848347e-02 1.80600173503278e-04
6.75711864406780e+00 2.15511742051072e-02 1.80165817685078e-04
6.80355932203390e+00 2.14253325562080e-02 1.79728261315450e-04
6.85000000000000e+00 2.13002257220176e-02 1.79287590497685e-04
6.89644067796610e+00 2.11758494118054e-02 1.78843889621185e-04
6.94288135593220e+00 2.10521993598955e-02 1.78397241531775e-04
6.98932203389831e+00 2.09292713256957e-02 1.77947727686586e-04
7.03576271186441e+00 2.08070610930226e-02 1.77495428058438e-04
7.08220338983051e+00 2.06855644704894e-02 1.77040421038064e-04
7.12864406779661e+00 2.05647772911834e-02 1.76582783656478e-04
7.17508474576271e+00 2.04446954125233e-02 1.76122591488980e-04
7.22152542372881e+00 2.03253147162821e-02 1.75659918864719e-04
7.26796610169492e+00 2.02066311079489e-02 1.75194838772923e-04
7.31440677966102e+00 2.00886405170874e-02 1.74727422767111e-04
7.36084745762712e+00 1.99713388970298e-02 1.74257741175278e-04
7.40728813559322e+00 1.98547222247373e-02 1.73785863006002e-04
7.45372881355932e+00 1.97387865008178e-02 1.73311856146658e-04
7.50016949152542e+00 1.96235277489205e-02 1.72835787271703e-04
7.54661016949153e+00 1.95089420160703e-02 1.72357721749182e-04
7.59305084745763e+00 1.93950253723737e-02 1.71877723839704e-04
7.63949152542373e+00 1.92817739108851e-02 1.71395856604824e-04
7.68593220338983e+00 1.91691837476182e-02 1.70912182094895e-04
7.73237288135593e+00 1.90572510209727e-02 1.70426761259575e-04
7.77881355932203e+00 1.89459718920444e-02 1.69939653856749e-04
7.82525423728814e+00 1.88353425443449e-02 1.69450918641233e-04
7.87169491525424e+00 1.87253591836713e-02 1.68960613275592e-04
7.91813559322034e+00 1.86160180381137e-02 1.68468794508353e-04
7.96457627118644e+00 1.85073153575101e-02 1.67975518086931e-04
8.01101694915254e+00 1.83992474137356e-02 1.67480838669056e-04
8.05745762711864e+00 1.82918105004344e-02 1.66984810001942e-04
8.10389830508475e+00 1.81850009328930e-02 1.66487484835651e-04
8.15033898305085e+00 1.80788150480436e-02 1.65988915092410e-04
8.19677966101695e+00 1.79732492039468e-02 1.65489151781964e-04
8.24322033898305e+00 1.78682997800602e-02 1.64988244915654e-04
8.28966101694915e+00 1.77639631769825e-02 1.64486243676707e-04
8.33610169491526e+00 1.76602358163298e-02 1.63983196336166e-04
8.38254237288136e+00 1.75571141407364e-02 1.63479150413957e-04
8.42898305084746e+00 1.74545946133617e-02 1.62974152596755e-04
8.47542372881356e+00 1.73526737181415e-02 1.62468248654664e-04
8.52186440677966e+00 1.72513479595423e-02 1.61961483603264e-04
8.56830508474576e+00 1.71506138624420e-02 1.61453901622164e-04
8.61474576271186e+00 1.70504679721266e-02 1.60945546208356e-04
8.66118644067797e+00 1.69509068538213e-02 1.60436460096608e-04
8.70762711864407e+00 1.68519270929252e-02 1.59926685178691e-04
8.75406779661017e+00 1.67535252947755e-02 1.59416262657863e-04
8.80050847457627e+00 1.66556980845318e-02 1.58905232969946e-04
8.84694915254237e+00 1.65584421071696e-02 1.58393635929444e-04
8.89338983050848e+00 1.64617540270350e-02 1.57881510652534e-04
8.93983050847458e+00 1.63656305280619e-02 1.57368895478823e-04
8.98627118644068e+00 1.62700683135476e-02 1.56855828118657e-04
9.03271186440678e+00 1.61750641060394e-02 1.56342345576805e-04
9.07915254237288e+00 1.60806146473263e-02 1.55828484291784e-04
9.12559322033898e+00 1.59867166980140e-02 1.55314280061344e-04
9.17203389830509e+00 1.58933670377283e-02 1.54799767966795e-04
9.21847457627119e+00 1.58005624648994e-02 1.54284982513613e-04
9.26491525423729e+00 1.57082997966524e-02 1.53769957557616e-04
9.31135593220339e+00 1.56165758687958e-02 1.53254726437938e-04
9.35779661016949e+00 1.55253875354173e-02 1.52739321905005e-04
9.40423728813559e+00 1.54347316690730e-02 1.52223776047381e-04
9.45067796610170e+00 1.53446051605811e-02 1.51708120426031e-04
9.49711864406780e+00 1.52550049189147e-02 1.51192386002956e-04
9.54355932203390e+00 1.51659278711894e-02 1.50676603268250e-04
9.59000000000000e+00 1.50773709622767e-02 1.50160802170455e-04
9.63644067796610e+00 1.49893311549815e-02 1.49645012045867e-04
9.68288135593220e+00 1.49018054298438e-02 1.49129261709107e-04
9.72932203389831e+00 1.48147907851237e-02 1.48613579535442e-04
9.77576271186441e+00 1.47282842364300e-02 1.48097993393186e-04
9.82220338983051e+00 1.46422828168882e-02 1.47582530575082e-04
9.86864406779661e+00 1.45567835769475e-02 1.47067217921949e-04
9.91508474576271e+00 1.44717835842805e-02 1.46552081755644e-04
9.96152542372881e+00 1.43872799237665e-02 1.46037147996106e-04
1.00079661016949e+01 1.43032696971372e-02 1.45522441953924e-04
1.00544067796610e+01 1.42197500234629e-02 1.45007988762876e-04
1.01008474576271e+01 1.41367180378099e-02 1.44493813069267e-04
1.01472881355932e+01 1.40541708924732e-02 1.43979938713769e-04
1.01937288135593e+01 1.39721057563752e-02 1.43466389317275e-04
1.02401694915254e+01 1.38905198149704e-02 1.42953187726582e-04
1.02866101694915e+01 1.38094102709346e-02 1.42440357054567e-04
1.03330508474576e+01 1.37287743416977e-02 1.41927919996745e-04
1.03794915254237e+01 1.36486092617301e-02 1.41415898139785e-04
1.04259322033898e+01 1.35689122816512e-02 1.40904312685169e-04
1.04723728813559e+01 1.34896806688890e-02 1.40393185103819e-04
1.05188135593220e+01 1.34109117053125e-02 1.39882536475017e-04
1.05652542372881e+01 1.33326026894233e-02 1.39372386817824e-04
1.06116949152542e+01 1.32547509354965e-02 1.38862756111066e-04
1.06581355932203e+01 1.31773537734907e-02 1.38353663641031e-04
1.07045762711864e+01 1.31004085496720e-02 1.37845128968109e-04
1.07510169491525e+01 1.30239126243624e-02 1.37337171290817e-04
1.07974576271186e+01 1.29478633740200e-02 1.36829808802486e-04
1.08438983050847e+01 1.28722581904224e-02 1.36323059363383e-04
1.08903389830508e+01 1.27970944812651e-02 1.35816941109172e-04
1.09367796610169e+01 1.27223696679992e-02 1.35311471835625e-04
1.09832203389831e+01 1.26480811878264e-02 1.34806668376367e-04
1.10296610169492e+01 1.25742264929117e-02 1.34302547551097e-04
1.10761016949153e+01 1.25008030502987e-02 1.33799125558224e-04
1.11225423728814e+01 1.24278083424753e-02 1.33296418873966e-04
1.11689830508475e+01 1.23552398653157e-02 1.32794443660099e-04
1.12154237288136e+01 1.22830951299756e-02 1.32293215165087e-04
1.12618644067797e+01 1.22113716621434e-02 1.31792748348901e-04
1.13083050847458e+01 1.21400670025843e-02 1.31293058449004e-04
1.13547457627119e+01 1.20691787051616e-02 1.30794160407369e-04
1.14011864406780e+01 1.19987043386555e-02 1.30296068290815e-04
1.14476271186441e+01 1.19286414860419e-02 1.29798796173376e-04
1.14940677966102e+01 1.18589877444110e-02 1.29302357570442e-04
1.15405084745763e+01 1.17897407254819e-02 1.28806766275511e-04
1.15869491525424e+01 1.17208980537182e-02 1.28312035808447e-04
1.16333898305085e+01 1.16524573680577e-02 1.27818178857534e-04
1.16798305084746e+01 1.15844163212244e-02 1.27325207860891e-04
1.17262711864407e+01 1.15167725802239e-02 1.26833135533283e-04
1.17727118644068e+01 1.14495238245303e-02 1.26341974332199e-04
1.18191525423729e+01 1.13826677477473e-02 1.25851735917595e-04
1.18655932203390e+01 1.13162020569455e-02 1.25362431973512e-04
1.19120338983051e+01 1.12501244725847e-02 1.24874073680612e-04
1.19584745762712e+01 1.11844327289830e-02 1.24386672495454e-04
1.20049152542373e+01 1.11191245725887e-02 1.23900239636200e-04
1.20513559322034e+01 1.10541977635610e-02 1.23414785562513e-04
1.20977966101695e+01 1.09896500751375e-02 1.22930320516850e-04
1.21442372881356e+01 1.09254792940851e-02 1.22446855015298e-04
1.21906779661017e+01 1.08616832190374e-02 1.21964399349721e-04
1.22371186440678e+01 1.07982596620126e-02 1.21482963083889e-04
1.22835593220339e+01 1.07352064478047e-02 1.21002555819144e-04
1.23300000000000e+01 1.06725214139094e-02 1.20523186702360e-04
1.23764406779661e+01 1.06102024109515e-02 1.20044865152211e-04
1.24228813559322e+01 1.05482473010988e-02 1.19567600379497e-04
1.24693220338983e+01 1.04866539595080e-02 1.19091400902025e-04
1.25157627118644e+01 1.04254202737430e-02 1.18616275281370e-04
1.25622033898305e+01 1.03645441437031e-02 1.18142231649440e-04
1.26086440677966e+01 1.03040234820287e-02 1.17669278407413e-04
1.26550847457627e+01 1.02438562125881e-02 1.17197423763825e-04
1.27015254237288e+01 1.01840402718542e-02 1.16726675267165e-04
1.27479661016949e+01 1.01245736083499e-02 1.16257040291490e-04
1.27944067796610e+01 1.00654541830372e-02 1.15788526477153e-04
1.28408474576271e+01 1.00066799678601e-02 1.15321141283161e-04
1.28872881355932e+01 9.94824894706894e-03 1.14854891534464e-04
1.29337288135593e+01 9.89015911668394e-03 1.14389784109048e-04
1.29801694915254e+01 9.83240848442744e-03 1.13925825495970e-04
1.30266101694915e+01 9.77499507009430e-03 1.13463022447452e-04
1.30730508474576e+01 9.71791690416003e-03 1.13001381547625e-04
1.31194915254237e+01 9.66117202904318e-03 1.12540908776253e-04
1.31659322033898e+01 9.60475849859309e-03 1.12081609961642e-04
1.32123728813559e+01 9.54867437844601e-03 1.11623491191842e-04
1.32588135593220e+01 9.49291774468430e-03 1.11166558396683e-04
1.33052542372881e+01 9.43748668505065e-03 1.10710816925091e-04
1.33516949152542e+01 9.38237929845339e-03 1.10256272186248e-04
1.33981355932203e+01 9.32759369490212e-03 1.09802929236771e-04
1.34445762711864e+01 9.27312799584615e-03 1.09350793389457e-04
1.34910169491525e+01 9.21898033289332e-03 1.08899869810492e-04
1.35374576271186e+01 9.16514884896814e-03 1.08450163111973e-04
1.35838983050847e+01 9.11163169783897e-03 1.08001677774562e-04
1.36303389830508e+01 9.05842704444356e-03 1.07554418531336e-04
1.36767796610169e+01 9.00553306365440e-03 1.07108389977398e-04
1.37232203389831e+01 8.95294794139311e-03 1.06663596175029e-04
1.37696610169492e+01 8.90066987417362e-03 1.06220041252242e-04
1.38161016949153e+01 8.84869706904122e-03 1.05777729017103e-04
1.38625423728814e+01 8.79702774388191e-03 1.05336663526247e-04
1.39089830508475e+01 8.74566012624214e-03 1.04896848708446e-04
1.39554237288136e+01 8.69459245439218e-03 1.04458287983946e-04
1.40018644067797e+01 8.64382297688940e-03 1.04020984659037e-04
1.40483050847458e+01 8.59334995287609e-03 1.03584942284615e-04
1.40947457627119e+01 8.54317165094143e-03 1.03150164291335e-04
1.41411864406780e+01 8.49328635014522e-03 1.02716653620538e-04
1.41876271186441e+01 8.44369233959586e-03 1.02284413283456e-04
1.42340677966102e+01 8.39438791839225e-03 1.01853446000650e-04
1.42805084745763e+01 8.34537139590715e-03 1.01423754733165e-04
1.43269491525424e+01 8.29664109069863e-03 1.00995342330687e-04
1.43733898305085e+01 8.24819533148755e-03 1.00568211175688e-04
1.44198305084746e+01 8.20003245675362e-03 1.00142363552007e-04
1.44662711864407e+01 8.15215081500822e-03 9.97178019799210e-05
1.45127118644068e+01 8.10454876374440e-03 9.92945288750426e-05
1.45591525423729e+01 8.05722467037833e-03 9.88725462031918e-05
1.46055932203390e+01 8.01017691185881e-03 9.84518560030541e-05
1.46520338983051e+01 7.96340387461223e-03 9.80324600490018e-05
