Energy (eV)          EEDF (eV^-(3/2))     First Anisotropy
1.04411764705882e-01 3.38358650371225e-02 3.05692115770579e-05
3.13235294117647e-01 3.31560869311477e-02 5.01399500172455e-05
5.22058823529412e-01 3.24899658790606e-02 6.52996694629546e-05
7.30882352941177e-01 3.18372275062501e-02 7.62885975243041e-05
9.39705882352941e-01 3.11976029473478e-02 8.50265619212547e-05
1.14852941176471e+00 3.05708287385917e-02 9.22545643881130e-05
1.35735294117647e+00 2.99566467123598e-02 9.83636018050347e-05
1.56617647058824e+00 2.93548038858854e-02 1.03594228999669e-04
1.77500000000000e+00 2.87650523589510e-02 1.08108878253061e-04
1.98382352941176e+00 2.81871492148486e-02 1.12024357174607e-04
2.19264705882353e+00 2.76208564106862e-02 1.15428580774182e-04
2.40147058823529e+00 2.70659406894450e-02 1.18390044625374e-04
2.61029411764706e+00 2.65221734803335e-02 1.20963580636257e-04
2.81911764705882e+00 2.59893308046433e-02 1.23194049586800e-04
3.02794117647059e+00 2.54671931834945e-02 1.25118816249701e-04
3.23676470588235e+00 2.49555455474339e-02 1.26769468919556e-04
3.44558823529412e+00 2.44541771478486e-02 1.28173050350174e-04
3.65441176470588e+00 2.39628814701594e-02 1.29352961654946e-04
3.86323529411765e+00 2.34814561487517e-02 1.30329640770264e-04
4.07205882352941e+00 2.30097028836347e-02 1.31121081525443e-04
4.28088235294118e+00 2.25474273587543e-02 1.31743237488910e-04
4.48970588235294e+00 2.20944391619534e-02 1.32210340876989e-04
4.69852941176471e+00 2.16505517065420e-02 1.32535157759657e-04
4.90735294117647e+00 2.12155821544414e-02 1.32729194741100e-04
5.11617647058824e+00 2.07893513408733e-02 1.32802868157692e-04
5.32500000000000e+00 2.03716837005616e-02 1.32765643895981e-04
5.53382352941177e+00 1.99624071961633e-02 1.32626154249195e-04
5.74264705882353e+00 1.95613532451116e-02 1.32392295917609e-04
5.95147058823529e+00 1.91683566525299e-02 1.32071313026621e-04
6.16029411764706e+00 1.87832555423821e-02 1.31669868260329e-04
6.36911764705882e+00 1.84058912907955e-02 1.31194103716724e-04
6.57794117647059e+00 1.80361084607238e-02 1.30649693534691e-04
6.78676470588235e+00 1.76737547379218e-02 1.30041889608915e-04
6.99558823529412e+00 1.73186808682077e-02 1.29375561505826e-04
7.20441176470588e+00 1.69707405959840e-02 1.28655231484456e-04
7.41323529411765e+00 1.66297906039946e-02 1.27885105360739e-04
7.62205882352941e+00 1.62956904542937e-02 1.27069099824063e-04
7.83088235294118e+00 1.59683025303986e-02 1.26210866709799e-04
8.03970588235294e+00 1.56474919806047e-02 1.25313814646835e-04
8.24852941176471e+00 1.53331266624399e-02 1.24381128432097e-04
8.45735294117647e+00 1.50250770882352e-02 1.23415786427910e-04
8.66617647058824e+00 1.47232163717884e-02 1.22420576232598e-04
8.87500000000000e+00 1.44274201760992e-02 1.21398108804712e-04
9.08382352941176e+00 1.41375666624740e-02 1.20350831386866e-04
9.29264705882353e+00 1.38535364393633e-02 1.19281039087213e-04
9.50147058823529e+00 1.35752125141813e-02 1.18190885416786e-04
9.71029411764706e+00 1.33024802447771e-02 1.17082392074951e-04
9.91911764705882e+00 1.30352272922133e-02 1.15957457741406e-04
1.01279411764706e+01 1.27733435747473e-02 1.14817866197087e-04
1.03367647058824e+01 1.25167212224429e-02 1.13665294148677e-04
1.05455882352941e+01 1.22652545296316e-02 1.12501317233958e-04
1.07544117647059e+01 1.20188399191651e-02 1.11327416805284e-04
1.09632352941176e+01 1.17773758923098e-02 1.10144986616903e-04
1.11720588235294e+01 1.15407629874064e-02 1.08955336656896e-04
1.13808823529412e+01 1.13089037453394e-02 1.07759698941465e-04
1.15897058823529e+01 1.10817026627768e-02 1.06559232662683e-04
1.17985294117647e+01 1.08590661550999e-02 1.05355027941187e-04
1.20073529411765e+01 1.06409025160603e-02 1.04148109464176e-04
1.22161764705882e+01 1.04271218855051e-02 1.02939440665431e-04
1.24250000000000e+01 1.02176362067270e-02 1.01729927854444e-04
1.26338235294118e+01 1.00123591905201e-02 1.00520422200063e-04
1.28426470588235e+01 9.81120628456444e-03 9.93117234159615e-05
1.30514705882353e+01 9.61409463354332e-03 9.81045832004608e-05
1.32602941176471e+01 9.42094304530211e-03 9.68997067334371e-05
1.34691176470588e+01 9.23167196183710e-03 9.56977557688939e-05
1.36779411764706e+01 9.04620342198661e-03 9.44993513659163e-05
1.38867647058824e+01 8.86446103086532e-03 9.33050756769804e-05
1.40955882352941e+01 8.68636992715245e-03 9.21154737378447e-05
1.43044117647059e+01 8.51185675608081e-03 9.09310557540864e-05
1.45132352941176e+01 8.34084963530347e-03 8.97522994248705e-05
1.47220588235294e+01 8.17327812550267e-03 8.85796507147721e-05
1.49308823529412e+01 8.00907320482540e-03 8.74135259720758e-05
1.51397058823529e+01 7.84816723691967e-03 8.62543137838626e-05
1.53485294117647e+01 7.69049394428202e-03 8.51023760899378e-05
1.55573529411765e+01 7.53598837997635e-03 8.39580493235863e-05
1.57661764705882e+01 7.38458690388278e-03 8.28216459866011e-05
1.59750000000000e+01 7.23622715341672e-03 8.16934562810604e-05
1.61838235294118e+01 7.09084801800204e-03 8.05737484816459e-05
1.63926470588235e+01 6.94838961661782e-03 7.94627704374313e-05
1.66014705882353e+01 6.80879327035181e-03 7.83607509877209e-05
1.68102941176471e+01 6.67200147837407e-03 7.72679002191500e-05
1.70191176470588e+01 6.53795789672130e-03 7.61844107735593e-05
1.72279411764706e+01 6.40660731256576e-03 7.51104589792953e-05
1.74367647058824e+01 6.27789562233111e-03 7.40462054355821e-05
1.76455882352941e+01 6.15176980870262e-03 7.29917956338448e-05
1.78544117647059e+01 6.02817792094942e-03 7.19473609309189e-05
1.80632352941176e+01 5.90706905131748e-03 7.09130195813571e-05
1.82720588235294e+01 5.78839331417331e-03 6.98888768173854e-05
1.84808823529412e+01 5.67210182742086e-03 6.88750258095450e-05
1.86897058823529e+01 5.55814669035838e-03 6.78715484882656e-05
1.88985294117647e+01 5.44648096463269e-03 6.68785159195097e-05
1.91073529411765e+01 5.33705865433940e-03 6.58959887168646e-05
1.93161764705882e+01 5.22983468880537e-03 6.49240177524213e-05
1.95250000000000e+01 5.12476490226011e-03 6.39626449239888e-05
1.97338235294118e+01 5.02180601572971e-03 6.30119031342118e-05
1.99426470588235e+01 4.92091562078685e-03 6.20718170079715e-05
2.01514705882353e+01 4.82205216047214e-03 6.11424035713603e-05
2.03602941176471e+01 4.72517491225457e-03 6.02236722011187e-05
2.05691176470588e+01 4.63024397269883e-03 5.93156252608663e-05
2.07779411764706e+01 4.53722023955865e-03 5.84182586369250e-05
2.09867647058824e+01 4.44606539616999e-03 5.75315619343260e-05
2.11955882352941e+01 4.35674189525293e-03 5.66555187053360e-05
2.14044117647059e+01 4.26921294471807e-03 5.57901069154143e-05
2.16132352941176e+01 4.18344249121307e-03 5.49352994572446e-05
2.18220588235294e+01 4.09939520533452e-03 5.40910640574812e-05
2.20308823529412e+01 4.01703646823949e-03 5.32573637605618e-05
2.22397058823529e+01 3.93633235619798e-03 5.24341573307271e-05
2.24485294117647e+01 3.85724962702408e-03 5.16213993725305e-05
2.26573529411765e+01 3.77975570604553e-03 5.08190404802779e-05
2.28661764705882e+01 3.70381867371755e-03 5.00270275882104e-05
2.30750000000000e+01 3.62940725142361e-03 4.92453043635537e-05
2.32838235294118e+01 3.55649078864031e-03 4.84738110920604e-05
2.34926470588235e+01 3.48503925125785e-03 4.77124850489055e-05
2.37014705882353e+01 3.41502320824428e-03 4.69612608500172e-05
2.39102941176471e+01 3.34641381956719e-03 4.62200703320808e-05
2.41191176470588e+01 3.27918282518234e-03 4.54888428845124e-05
2.43279411764706e+01 3.21330253250855e-03 4.47675057203090e-05
2.45367647058824e+01 3.14874580532147e-03 4.40559839289795e-05
2.47455882352941e+01 3.08548605232392e-03 4.33542005534916e-05
2.49544117647059e+01 3.02349721696414e-03 4.26620768262965e-05
2.51632352941176e+01 2.96275376591659e-03 4.19795324403808e-05
2.53720588235294e+01 2.90323067860073e-03 4.13064854250802e-05
2.55808823529412e+01 2.84490343758330e-03 4.06428524029668e-05
2.57897058823529e+01 2.78774801775728e-03 3.99885487961045e-05
2.59985294117647e+01 2.73174087669149e-03 3.93434888501814e-05
2.62073529411765e+01 2.67685894472655e-03 3.87075856794674e-05
2.64161764705882e+01 2.62307961610356e-03 3.80807514463721e-05
2.66250000000000e+01 2.57038073900984e-03 3.74628975716169e-05
2.68338235294118e+01 2.51874060648311e-03 3.68539346120946e-05
2.70426470588235e+01 2.46813794805089e-03 3.62537724603415e-05
2.72514705882353e+01 2.41855192037738e-03 3.56623205332961e-05
2.74602941176471e+01 2.36996209870421e-03 3.50794876518036e-05
2.76691176470588e+01 2.32234846897212e-03 3.45051822199345e-05
2.78779411764706e+01 2.27569141903250e-03 3.39393123657462e-05
2.80867647058824e+01 2.22997173075390e-03 3.33817859397528e-05
2.82955882352941e+01 2.18517057194985e-03 3.28325105303160e-05
2.85044117647059e+01 2.14126948909919e-03 3.22913935858202e-05
2.87132352941176e+01 2.09825039925865e-03 3.17583425615309e-05
2.89220588235294e+01 2.05609558263590e-03 3.12332648058432e-05
2.91308823529412e+01 2.01478767573052e-03 3.07160677001118e-05
2.93397058823529e+01 1.97430966373379e-03 3.02066587662404e-05
2.95485294117647e+01 1.93464487367256e-03 2.97049456546700e-05
2.97573529411765e+01 1.89577696741258e-03 2.92108361469280e-05
2.99661764705882e+01 1.85768993532228e-03 2.87242382486951e-05
3.01750000000000e+01 1.82036808927773e-03 2.82450603042805e-05
3.03838235294118e+01 1.78379605621799e-03 2.77732108910555e-05
3.05926470588235e+01 1.74795877217575e-03 2.73085989285405e-05
3.08014705882353e+01 1.71284147570285e-03 2.68511337813652e-05
3.10102941176471e+01 1.67842970180576e-03 2.64007251571594e-05
3.12191176470588e+01 1.64470927632259e-03 2.59572832047384e-05
3.14279411764706e+01 1.61166630974355e-03 2.55207185874511e-05
3.16367647058824e+01 1.57928719160554e-03 2.50909424624984e-05
3.18455882352941e+01 1.54755858478765e-03 2.46678664720049e-05
3.20544117647059e+01 1.51646742031788e-03 2.42514028060441e-05
3.22632352941176e+01 1.48600089168416e-03 2.38414642828509e-05
3.24720588235294e+01 1.45614644957253e-03 2.34379642556020e-05
3.26808823529412e+01 1.42689179697521e-03 2.30408166890549e-05
3.28897058823529e+01 1.39822488384316e-03 2.26499362152923e-05
3.30985294117647e+01 1.37013390221849e-03 2.22652381101150e-05
3.33073529411765e+01 1.34260728128912e-03 2.18866382795198e-05
3.35161764705882e+01 1.31563368287160e-03 2.15140533072948e-05
3.37250000000000e+01 1.28920199648763e-03 2.11474005174706e-05
3.39338235294118e+01 1.26330133479827e-03 2.07865978898754e-05
3.41426470588235e+01 1.23792102934946e-03 2.04315641198343e-05
3.43514705882353e+01 1.21305062594345e-03 2.00822186742714e-05
3.45602941176471e+01 1.18867988034247e-03 1.97384817107642e-05
3.47691176470588e+01 1.16479875426195e-03 1.94002741312065e-05
3.49779411764706e+01 1.14139741101917e-03 1.90675176192467e-05
3.51867647058824e+01 1.11846621155489e-03 1.87401346150616e-05
3.53955882352941e+01 1.09599571040042e-03 1.84180482982533e-05
3.56044117647059e+01 1.07397665197821e-03 1.81011826194286e-05
3.58132352941176e+01 1.05239996659483e-03 1.77894623436924e-05
3.60220588235294e+01 1.03125676671327e-03 1.74828129779220e-05
3.62308823529412e+01 1.01053834346908e-03 1.71811608124483e-05
3.64397058823529e+01 9.90236162903093e-04 1.68844329490286e-05
3.66485294117647e+01 9.70341862507363e-04 1.65925572757787e-05
3.68573529411765e+01 9.50847247728422e-04 1.63054624490738e-05
3.70661764705882e+01 9.31744288751146e-04 1.60230779168711e-05
3.72750000000000e+01 9.13025117029280e-04 1.57453339523191e-05
3.74838235294118e+01 8.94682022051026e-04 1.54721615886898e-05
3.76926470588235e+01 8.76707448310496e-04 1.52034926515955e-05
3.79014705882353e+01 8.59093992045542e-04 1.49392597890602e-05
3.81102941176471e+01 8.41834398194275e-04 1.46793964094493e-05
3.83191176470588e+01 8.24921557543303e-04 1.44238367103123e-05
3.85279411764706e+01 8.08348503660475e-04 1.41725156965264e-05
3.87367647058824e+01 7.92108410072479e-04 1.39253691564051e-05
3.89455882352941e+01 7.76194587412690e-04 1.36823336434182e-05
3.91544117647059e+01 7.60600480788864e-04 1.34433464909732e-05
3.93632352941177e+01 7.45319666957951e-04 1.32083458354474e-05
3.95720588235294e+01 7.30345851685494e-04 1.29772705609126e-05
3.97808823529412e+01 7.15672867267032e-04 1.27500603212694e-05
3.99897058823529e+01 7.01294669871602e-04 1.25266555533179e-05
4.01985294117647e+01 6.87205337091626e-04 1.23069974541629e-05
4.04073529411765e+01 6.73399065469722e-04 1.20910279634348e-05
4.06161764705882e+01 6.59870168211081e-04 1.18786897736875e-05
4.08250000000000e+01 6.46613072736488e-04 1.16699263479138e-05
4.10338235294118e+01 6.33622318391185e-04 1.14646818704430e-05
4.12426470588235e+01 6.20892554290969e-04 1.12629012637807e-05
4.14514705882353e+01 6.08418537021141e-04 1.10645302041543e-05
4.16602941176471e+01 5.96195128480641e-04 1.08695150748108e-05
4.18691176470588e+01 5.84217293854125e-04 1.06778029809731e-05
4.20779411764706e+01 5.72480099448144e-04 1.04893417576869e-05
4.22867647058824e+01 5.60978710689434e-04 1.03040799493294e-05
4.24955882352941e+01 5.49708390107371e-04 1.01219667929979e-05
4.27044117647059e+01 5.38664495462446e-04 9.94295222442552e-06
4.29132352941176e+01 5.27842477752902e-04 9.76698688961255e-06
4.31220588235294e+01 5.17237879344261e-04 9.59402210345865e-06
4.33308823529412e+01 5.06846332207301e-04 9.42400986098062e-06
4.35397058823529e+01 4.96663556043501e-04 9.25690284249399e-06
4.37485294117647e+01 4.86685356547533e-04 9.09265439470216e-06
4.39573529411765e+01 4.76907623657652e-04 8.93121851511922e-06
4.41661764705882e+01 4.67326329929689e-04 8.77254985571734e-06
4.43750000000000e+01 4.57937528810088e-04 8.61660373150515e-06
4.45838235294118e+01 4.48737353013017e-04 8.46333608394671e-06
4.47926470588235e+01 4.39722012989561e-04 8.31270348923960e-06
4.50014705882353e+01 4.30887795303602e-04 8.16466316580926e-06
4.52102941176471e+01 4.22231061104754e-04 8.01917293958180e-06
4.54191176470588e+01 4.13748244687227e-04 7.87619125122406e-06
4.56279411764706e+01 4.05435851962434e-04 7.73567715863515e-06
4.58367647058824e+01 3.97290459039640e-04 7.59759032025063e-06
4.60455882352941e+01 3.89308710798552e-04 7.46189098103510e-06
4.62544117647059e+01 3.81487319559515e-04 7.32853997387040e-06
4.64632352941177e+01 3.73823063676252e-04 7.19749872490440e-06
4.66720588235294e+01 3.66312786210969e-04 7.06872922290070e-06
4.68808823529412e+01 3.58953393682467e-04 6.94219402442615e-06
4.70897058823529e+01 3.51741854742652e-04 6.81785625499905e-06
4.72985294117647e+01 3.44675198944626e-04 6.69567959390093e-06
4.75073529411765e+01 3.37750515504754e-04 6.57562826129837e-06
4.77161764705882e+01 3.30964952147568e-04 6.45766701851978e-06
4.79250000000000e+01 3.24315713886331e-04 6.34176117175059e-06
4.81338235294118e+01 3.17800061873520e-04 6.22787654501042e-06
4.83426470588235e+01 3.11415312313449e-04 6.11597948374269e-06
4.85514705882353e+01 3.05158835315362e-04 6.00603685792859e-06
4.87602941176471e+01 2.99028053811805e-04 5.89801603646832e-06
4.89691176470588e+01 2.93020442535014e-04 5.79188489021293e-06
4.91779411764706e+01 2.87133526938236e-04 5.68761179180958e-06
4.93867647058824e+01 2.81364882189510e-04 5.58516560251266e-06
4.95955882352941e+01 2.75712132161617e-04 5.48451566085953e-06
4.98044117647059e+01 2.70172948487659e-04 5.38563178189515e-06
5.00132352941176e+01 2.64745049567118e-04 5.28848425914529e-06
5.02220588235294e+01 2.59426199627438e-04 5.19304384206071e-06
5.04308823529412e+01 2.54214207834985e-04 5.09928173795577e-06
5.06397058823529e+01 2.49106927360224e-04 5.00716961123277e-06
5.08485294117647e+01 2.44102254504424e-04 4.91667957149340e-06
5.10573529411765e+01 2.39198127823654e-04 4.82778416325409e-06
5.12661764705882e+01 2.34392527308565e-04 4.74045636468453e-06
5.14750000000000e+01 2.29683473522981e-04 4.65466958871854e-06
5.16838235294118e+01 2.25069026789701e-04 4.57039766321090e-06
5.18926470588235e+01 2.20547286418419e-04 4.48761483203977e-06
5.21014705882353e+01 2.16116389895504e-04 4.40629575592015e-06
5.23102941176471e+01 2.11774512117884e-04 4.32641549360998e-06
5.25191176470588e+01 2.07519864666290e-04 4.24794950272645e-06
5.27279411764706e+01 2.03350695043189e-04 4.17087363841616e-06
5.29367647058824e+01 1.99265285959535e-04 4.09516414314512e-06
5.31455882352941e+01 1.95261954619973e-04 4.02079763778454e-06
5.33544117647059e+01 1.91339052052371e-04 3.94775111994099e-06
5.35632352941176e+01 1.87494962405551e-04 3.87600196419631e-06
5.37720588235294e+01 1.83728102284624e-04 3.80552790558979e-06
5.39808823529412e+01 1.80036920119866e-04 3.73630703988286e-06
5.41897058823529e+01 1.76419895506192e-04 3.66831782199387e-06
5.43985294117647e+01 1.72875538584160e-04 3.60153905685299e-06
5.46073529411765e+01 1.69402389420016e-04 3.53594989137233e-06
5.48161764705882e+01 1.65999017423475e-04 3.47152981261839e-06
5.50250000000000e+01 1.62664020739019e-04 3.40825864763365e-06
5.52338235294118e+01 1.59396025669215e-04 3.34611654892812e-06
5.54426470588235e+01 1.56193686126695e-04 3.28508399433580e-06
5.56514705882353e+01 1.53055683061599e-04 3.22514178669712e-06
5.58602941176471e+01 1.49980723918949e-04 3.16627104012739e-06
5.60691176470588e+01 1.46967542122826e-04 3.10845317973907e-06
5.62779411764706e+01 1.44014896537817e-04 3.05166993991469e-06
5.64867647058824e+01 1.41121570963490e-04 2.99590335651376e-06
5.66955882352941e+01 1.38286373628509e-04 2.94113575998195e-06
5.69044117647059e+01 1.35508136714781e-04 2.88734977344560e-06
5.71132352941177e+01 1.32785715861144e-04 2.83452831213427e-06
5.73220588235294e+01 1.30117989692584e-04 2.78265457132859e-06
5.75308823529412e+01 1.27503859372352e-04 2.73171202583208e-06
5.77397058823529e+01 1.24942248135110e-04 2.68168442820567e-06
5.79485294117647e+01 1.22432100848238e-04 2.63255580181914e-06
5.81573529411765e+01 1.19972383573042e-04 2.58431043468020e-06
5.83661764705882e+01 1.17562083151594e-04 2.53693287753512e-06
5.85750000000000e+01 1.15200206776487e-04 2.49040794311646e-06
5.87838235294118e+01 1.12885781582391e-04 2.44472069556968e-06
5.89926470588235e+01 1.10617854257167e-04 2.39985644975236e-06
5.92014705882353e+01 1.08395490637164e-04 2.35580077042870e-06
5.94102941176471e+01 1.06217775322890e-04 2.31253946226816e-06
5.96191176470588e+01 1.04083811312990e-04 2.27005856909269e-06
5.98279411764706e+01 1.01992719623567e-04 2.22834437214233e-06
6.00367647058824e+01 9.99436389299107e-05 2.18738338418880e-06
6.02455882352941e+01 9.79357252084353e-05 2.14716234427775e-06
6.04544117647059e+01 9.59681513990470e-05 2.10766821590816e-06
6.06632352941176e+01 9.40401070542895e-05 2.06888818613638e-06
6.08720588235294e+01 9.21507980059068e-05 2.03080965680713e-06
6.10808823529412e+01 9.02994460470644e-05 1.99342024371250e-06
6.12897058823529e+01 8.84852886023131e-05 1.95670777491244e-06
6.14985294117647e+01 8.67075784166980e-05 1.92066028550443e-06
6.17073529411765e+01 8.49655832451752e-05 1.88526601293535e-06
6.19161764705882e+01 8.32585855594877e-05 1.85051339526037e-06
6.21250000000000e+01 8.15858822439909e-05 1.81639107020096e-06
6.23338235294118e+01 7.99467843063631e-05 1.78288786745916e-06
6.25426470588235e+01 7.83406166017191e-05 1.74999280782887e-06
6.27514705882353e+01 7.67667175464787e-05 1.71769510224528e-06
6.29602941176471e+01 7.52244388461614e-05 1.68598414451817e-06
6.31691176470588e+01 7.37131452357284e-05 1.65484951043436e-06
6.33779411764706e+01 7.22322142104237e-05 1.62428095619397e-06
6.35867647058824e+01 7.07810357718992e-05 1.59426841399889e-06
6.37955882352941e+01 6.93590121747551e-05 1.56480198808056e-06
6.40044117647059e+01 6.79655576870322e-05 1.53587195310088e-06
6.42132352941177e+01 6.66000983421362e-05 1.50746875319758e-06
6.44220588235294e+01 6.52620717026763e-05 1.47958299561833e-06
6.46308823529412e+01 6.39509266350466e-05 1.45220544981826e-06
6.48397058823529e+01 6.26661230760631e-05 1.42532704598799e-06
6.50485294117647e+01 6.14071318126612e-05 1.39893887114442e-06
6.52573529411765e+01 6.01734342620454e-05 1.37303216560034e-06
6.54661764705882e+01 5.89645222637684e-05 1.34759832147063e-06
6.56750000000000e+01 5.77798978646449e-05 1.32262888173519e-06
6.58838235294118e+01 5.66190731138605e-05 1.29811553466379e-06
