Energy (eV)          EEDF (eV^-(3/2))     First Anisotropy
7.25892857142857e-04 9.85409176261520e+00 4.66961829925519e-03
2.17767857142857e-03 9.79348460723368e+00 7.71308427403421e-03
3.62946428571429e-03 9.73325021331125e+00 1.01880207355027e-02
5.08125000000000e-03 9.67338628842781e+00 1.20718304070341e-02
6.53303571428572e-03 9.61389055390291e+00 1.36459184039298e-02
7.98482142857143e-03 9.55476074530096e+00 1.50165674460302e-02
9.43660714285714e-03 9.49599461193196e+00 1.62387235682546e-02
1.08883928571429e-02 9.43758991709560e+00 1.73455344375540e-02
1.23401785714286e-02 9.37954443780899e+00 1.83589627994000e-02
1.37919642857143e-02 9.32185596472036e+00 1.92945164469404e-02
1.52437500000000e-02 9.26452230206993e+00 2.01636640005010e-02
1.66955357142857e-02 9.20754126728996e+00 2.09751916564124e-02
1.81473214285714e-02 9.15091069190164e+00 2.17360209710356e-02
1.95991071428571e-02 9.09462842041007e+00 2.24517293887164e-02
2.10508928571429e-02 9.03869231057989e+00 2.31268962216062e-02
2.25026785714286e-02 8.98310023334982e+00 2.37653411389335e-02
2.39544642857143e-02 8.92785007275854e+00 2.43702934698550e-02
2.54062500000000e-02 8.87293972585955e+00 2.49445155100698e-02
2.68580357142857e-02 8.81836710245640e+00 2.54903942225725e-02
2.83098214285714e-02 8.76413012559059e+00 2.60100108772032e-02
2.97616071428571e-02 8.71022673087943e+00 2.65051947676155e-02
3.12133928571429e-02 8.65665486663763e+00 2.69775651699849e-02
3.26651785714286e-02 8.60341249379769e+00 2.74285646858594e-02
3.41169642857143e-02 8.55049758583537e+00 2.78594859852349e-02
3.55687500000000e-02 8.49790812869069e+00 2.82714935144714e-02
3.70205357142857e-02 8.44564212056390e+00 2.86656412170328e-02
3.84723214285714e-02 8.39369757222881e+00 2.90428872461928e-02
3.99241071428572e-02 8.34207250655941e+00 2.94041062251725e-02
4.13758928571429e-02 8.29076495859011e+00 2.97500994639857e-02
4.28276785714286e-02 8.23977297544014e+00 3.00816036483068e-02
4.42794642857143e-02 8.18909461624089e+00 3.03992982152293e-02
4.57312500000000e-02 8.13872795206107e+00 3.07038116758173e-02
4.71830357142857e-02 8.08867106573796e+00 3.09957270032228e-02
4.86348214285714e-02 8.03892205209510e+00 3.12755863513540e-02
5.00866071428571e-02 7.98947901757413e+00 3.15438951569016e-02
5.15383928571429e-02 7.94034008026301e+00 3.18011256567070e-02
5.29901785714286e-02 7.89150336982393e+00 3.20477200181099e-02
5.44419642857143e-02 7.84296702742313e+00 3.22840930814127e-02
5.58937500000000e-02 7.79472920565958e+00 3.25106347930462e-02
5.73455357142857e-02 7.74678806841971e+00 3.27277123181868e-02
5.87973214285714e-02 7.69914179103554e+00 3.29356719722783e-02
6.02491071428572e-02 7.65178855998388e+00 3.31348409461215e-02
6.17008928571429e-02 7.60472657289557e+00 3.33255287948988e-02
6.31526785714286e-02 7.55795403848655e+00 3.35080288165870e-02
6.46044642857143e-02 7.51146917649041e+00 3.36826192818565e-02
6.60562500000000e-02 7.46527021759018e+00 3.38495645534380e-02
6.75080357142857e-02 7.41935540329018e+00 3.40091160596831e-02
6.89598214285714e-02 7.37372298603401e+00 3.41615132241443e-02
7.04116071428572e-02 7.32837122895062e+00 3.43069843117043e-02
7.18633928571429e-02 7.28329840585157e+00 3.44457471506144e-02
7.33151785714286e-02 7.23850280116507e+00 3.45780098289819e-02
7.47669642857143e-02 7.19398270987112e+00 3.47039713222366e-02
7.62187500000000e-02 7.14973643743644e+00 3.48238220766544e-02
7.76705357142857e-02 7.10576229969927e+00 3.49377445101804e-02
7.91223214285714e-02 7.06205862295892e+00 3.50459135150809e-02
8.05741071428571e-02 7.01862374375662e+00 3.51484969220284e-02
8.20258928571429e-02 6.97545600886465e+00 3.52456558847627e-02
8.34776785714286e-02 6.93255377522325e+00 3.53375452693693e-02
8.49294642857143e-02 6.88991540987842e+00 3.54243140060477e-02
8.63812500000000e-02 6.84753928991959e+00 3.55061054229486e-02
8.78330357142857e-02 6.80542380237500e+00 3.55830575246849e-02
8.92848214285714e-02 6.76356734428021e+00 3.56553032893088e-02
9.07366071428572e-02 6.72196832248577e+00 3.57229709456342e-02
9.21883928571429e-02 6.68062515364081e+00 3.57861841923533e-02
9.36401785714286e-02 6.63953626413270e+00 3.58450624331566e-02
9.50919642857143e-02 6.59870009002740e+00 3.58997209886794e-02
9.65437500000000e-02 6.55811507700977e+00 3.59502713017980e-02
9.79955357142857e-02 6.51777968028769e+00 3.59968211014361e-02
9.94473214285714e-02 6.47769236464460e+00 3.60394745701418e-02
1.00899107142857e-01 6.43785160437341e+00 3.60783326042865e-02
1.02350892857143e-01 6.39825588283629e+00 3.61134928619582e-02
1.03802678571429e-01 6.35890369293528e+00 3.61450498047505e-02
1.05254464285714e-01 6.31979353717631e+00 3.61730951402824e-02
1.06706250000000e-01 6.28092392660563e+00 3.61977177726983e-02
1.08158035714286e-01 6.24229338176342e+00 3.62190037857011e-02
1.09609821428571e-01 6.20390043228918e+00 3.62370366968160e-02
1.11061607142857e-01 6.16574361717479e+00 3.62518976879367e-02
1.12513392857143e-01 6.12782148377720e+00 3.62636655781138e-02
1.13965178571429e-01 6.09013258869852e+00 3.62724167271111e-02
1.15416964285714e-01 6.05267549771022e+00 3.62782255055686e-02
1.16868750000000e-01 6.01544878482049e+00 3.62811641924410e-02
1.18320535714286e-01 5.97845103310127e+00 3.62813029308711e-02
1.19772321428571e-01 5.94168083433924e+00 3.62787099340071e-02
1.21224107142857e-01 5.90513678925306e+00 3.62734516713820e-02
1.22675892857143e-01 5.86881750662358e+00 3.62655928208604e-02
1.24127678571429e-01 5.83272160406063e+00 3.62551961586711e-02
1.25579464285714e-01 5.79684770793297e+00 3.62423229703399e-02
1.27031250000000e-01 5.76119445254385e+00 3.62270329377871e-02
1.28483035714286e-01 5.72576048085405e+00 3.62093840812212e-02
1.29934821428571e-01 5.69054444417075e+00 3.61894329315180e-02
1.31386607142857e-01 5.65554500233532e+00 3.61672346861528e-02
1.32838392857143e-01 5.62076082295145e+00 3.61428431505270e-02
1.34290178571429e-01 5.58619058205818e+00 3.61163106232117e-02
1.35741964285714e-01 5.55183296406459e+00 3.60876882612866e-02
1.37193750000000e-01 5.51768666101624e+00 3.60570259644174e-02
1.38645535714286e-01 5.48375037323154e+00 3.60243723100691e-02
1.40097321428571e-01 5.45002280902249e+00 3.59897747016075e-02
1.41549107142857e-01 5.41650268485793e+00 3.59532795021221e-02
1.43000892857143e-01 5.38318872467451e+00 3.59149319708934e-02
1.44452678571429e-01 5.35007966047082e+00 3.58747761486229e-02
1.45904464285714e-01 5.31717423224647e+00 3.58328551862113e-02
1.47356250000000e-01 5.28447118734547e+00 3.57892112298345e-02
1.48808035714286e-01 5.25196928101952e+00 3.57438853536215e-02
1.50259821428571e-01 5.21966727617611e+00 3.56969176893553e-02
1.51711607142857e-01 5.18756394352100e+00 3.56483475435415e-02
1.53163392857143e-01 5.15565806093988e+00 3.55982133323311e-02
1.54615178571429e-01 5.12394841402572e+00 3.55465524693798e-02
1.56066964285714e-01 5.09243379602158e+00 3.54934016643556e-02
1.57518750000000e-01 5.06111300723006e+00 3.54387968112017e-02
1.58970535714286e-01 5.02998485551439e+00 3.53827729207181e-02
1.60422321428571e-01 4.99904815606992e+00 3.53253642357628e-02
1.61874107142857e-01 4.96830173154925e+00 3.52666043351855e-02
1.63325892857143e-01 4.93774441150457e+00 3.52065260691518e-02
1.64777678571429e-01 4.90737503285799e+00 3.51451614510248e-02
1.66229464285714e-01 4.87719243984765e+00 3.50825419302242e-02
1.67681250000000e-01 4.84719548349432e+00 3.50186982848393e-02
1.69133035714286e-01 4.81738302204902e+00 3.49536605555093e-02
1.70584821428571e-01 4.78775392078501e+00 3.48874581488868e-02
1.72036607142857e-01 4.75830705210785e+00 3.48201199309435e-02
1.73488392857143e-01 4.72904129505072e+00 3.47516741638241e-02
1.74940178571429e-01 4.69995553569530e+00 3.46821484024704e-02
1.76391964285714e-01 4.67104866712108e+00 3.46115697453252e-02
1.77843750000000e-01 4.64231958892167e+00 3.45399647318689e-02
1.79295535714286e-01 4.61376720760617e+00 3.44673592786043e-02
1.80747321428571e-01 4.58539043640911e+00 3.43937787727710e-02
1.82199107142857e-01 4.55718819538764e+00 3.43192481568469e-02
1.83650892857143e-01 4.52915941096298e+00 3.42437918675677e-02
1.85102678571429e-01 4.50130301629864e+00 3.41674337375999e-02
1.86554464285714e-01 4.47361795125242e+00 3.40901972268536e-02
1.88006250000000e-01 4.44610316193639e+00 3.40121053251373e-02
1.89458035714286e-01 4.41875760107805e+00 3.39331804906907e-02
1.90909821428571e-01 4.39158022784604e+00 3.38534447356568e-02
1.92361607142857e-01 4.36457000793620e+00 3.37729197031187e-02
1.93813392857143e-01 4.33772591315367e+00 3.36916266086444e-02
1.95265178571429e-01 4.31104692175379e+00 3.36095861470711e-02
1.96716964285714e-01 4.28453201839659e+00 3.35268187066249e-02
1.98168750000000e-01 4.25818019374536e+00 3.34433442767236e-02
1.99620535714286e-01 4.23199044479246e+00 3.33591823892707e-02
2.01072321428571e-01 4.20596177469919e+00 3.32743521970248e-02
2.02524107142857e-01 4.18009319287205e+00 3.31888725442168e-02
2.03975892857143e-01 4.15438371458090e+00 3.31027619107799e-02
2.05427678571429e-01 4.12883236126700e+00 3.30160383241788e-02
2.06879464285714e-01 4.10343816049990e+00 3.29287195581467e-02
2.08331250000000e-01 4.07820014561012e+00 3.28408230455271e-02
2.09783035714286e-01 4.05311735598399e+00 3.27523658224121e-02
2.11234821428571e-01 4.02818883691603e+00 3.26633646003054e-02
2.12686607142857e-01 4.00341363967672e+00 3.25738358311462e-02
2.14138392857143e-01 3.97879082116271e+00 3.24837956542807e-02
2.15590178571429e-01 3.95431944417584e+00 3.23932598131667e-02
2.17041964285714e-01 3.92999857738229e+00 3.23022438402530e-02
2.18493750000000e-01 3.90582729497567e+00 3.22107629746869e-02
2.19945535714286e-01 3.88180467694439e+00 3.21188321092826e-02
2.21397321428571e-01 3.85792980893537e+00 3.20264658572109e-02
2.22849107142857e-01 3.83420178231431e+00 3.19336786120977e-02
2.24300892857143e-01 3.81061969384452e+00 3.18404844977004e-02
2.25752678571429e-01 3.78718264594025e+00 3.17468972892854e-02
2.27204464285714e-01 3.76388974662792e+00 3.16529305859618e-02
2.28656250000000e-01 3.74074010923643e+00 3.15585977330244e-02
2.30108035714286e-01 3.71773285264017e+00 3.14639117716973e-02
2.31559821428571e-01 3.69486710113289e+00 3.13688855009494e-02
2.33011607142857e-01 3.67214198448142e+00 3.12735315332116e-02
2.34463392857143e-01 3.64955663763005e+00 3.11778622466824e-02
2.35915178571429e-01 3.62711020093120e+00 3.10818897111630e-02
2.37366964285714e-01 3.60480182010843e+00 3.09856258489543e-02
2.38818750000000e-01 3.58263064597124e+00 3.08890823616051e-02
2.40270535714286e-01 3.56059583463645e+00 3.07922706823478e-02
2.41722321428571e-01 3.53869654741114e+00 3.06952020335313e-02
2.43174107142857e-01 3.51693195084065e+00 3.05978874784010e-02
2.44625892857143e-01 3.49530121643602e+00 3.05003378759592e-02
2.46077678571429e-01 3.47380352088428e+00 3.04025638110055e-02
2.47529464285714e-01 3.45243804601324e+00 3.03045757445824e-02
2.48981250000000e-01 3.43120397852839e+00 3.02063839448942e-02
2.50433035714286e-01 3.41010051021484e+00 3.01079984423082e-02
2.51884821428571e-01 3.38912683782857e+00 3.00094290828447e-02
2.53336607142857e-01 3.36828216313935e+00 2.99106855763950e-02
2.54788392857143e-01 3.34756569267898e+00 2.98117774540252e-02
2.56240178571429e-01 3.32697663793334e+00 2.97127140020002e-02
2.57691964285714e-01 3.30651421530890e+00 2.96135044026211e-02
2.59143750000000e-01 3.28617764588951e+00 2.95141576690810e-02
2.60595535714286e-01 3.26596615562099e+00 2.94146826029258e-02
2.62047321428571e-01 3.24587897520992e+00 2.93150878439497e-02
2.63499107142857e-01 3.22591534016202e+00 2.92153819151831e-02
2.64950892857143e-01 3.20607449054928e+00 2.91155731825273e-02
2.66402678571429e-01 3.18635567118561e+00 2.90156697925260e-02
2.67854464285714e-01 3.16675813159491e+00 2.89156798043656e-02
2.69306250000000e-01 3.14728112578602e+00 2.88156111284300e-02
2.70758035714286e-01 3.12792391242157e+00 2.87154714860969e-02
2.72209821428571e-01 3.10868575472379e+00 2.86152684563606e-02
2.73661607142857e-01 3.08956592050874e+00 2.85150095178752e-02
2.75113392857143e-01 3.07056368197065e+00 2.84147020107966e-02
2.76565178571429e-01 3.05167831584276e+00 2.83143530780765e-02
2.78016964285714e-01 3.03290910336699e+00 2.82139697893106e-02
2.79468750000000e-01 3.01425533008516e+00 2.81135590827772e-02
2.80920535714286e-01 2.99571628599395e+00 2.80131277274363e-02
2.82372321428571e-01 2.97729126545686e+00 2.79126823665621e-02
2.83824107142857e-01 2.95897956723493e+00 2.78122295570881e-02
2.85275892857143e-01 2.94078049428662e+00 2.77117757335316e-02
2.86727678571429e-01 2.92269335391542e+00 2.76113271526135e-02
2.88179464285714e-01 2.90471745774083e+00 2.75108900095550e-02
2.89631250000000e-01 2.88685212150468e+00 2.74104703833886e-02
2.91083035714286e-01 2.86909666521325e+00 2.73100742010538e-02
2.92534821428571e-01 2.85145041305509e+00 2.72097072782677e-02
2.93986607142857e-01 2.83391269342850e+00 2.71093753563858e-02
2.95438392857143e-01 2.81648283875565e+00 2.70090840683155e-02
2.96890178571429e-01 2.79916018561813e+00 2.69088388862479e-02
2.98341964285714e-01 2.78194407472933e+00 2.68086452309552e-02
2.99793750000000e-01 2.76483385075437e+00 2.67085084201825e-02
3.01245535714286e-01 2.74782886244073e+00 2.66084336347104e-02
3.02697321428571e-01 2.73092846254140e+00 2.65084259566860e-02
3.04149107142857e-01 2.71413200783946e+00 2.64084904042065e-02
3.05600892857143e-01 2.69743885897525e+00 2.63086318990920e-02
3.07052678571429e-01 2.68084838057099e+00 2.62088552175497e-02
3.08504464285714e-01 2.66435994120441e+00 2.61091650929703e-02
3.09956250000000e-01 2.64797291324125e+00 2.60095661672098e-02
3.11408035714286e-01 2.63168667295538e+00 2.59100629585169e-02
3.12859821428571e-01 2.61550060045691e+00 2.58106598975126e-02
3.14311607142857e-01 2.59941407971416e+00 2.57113613596627e-02
3.15763392857143e-01 2.58342649839275e+00 2.56121716348157e-02
3.17215178571429e-01 2.56753724797033e+00 2.55130948806194e-02
3.18666964285714e-01 2.55174572371142e+00 2.54141352192663e-02
3.20118750000000e-01 2.53605132451137e+00 2.53152966914897e-02
3.21570535714286e-01 2.52045345300702e+00 2.52165832262514e-02
3.23022321428571e-01 2.50495151550927e+00 2.51179986745468e-02
3.24474107142857e-01 2.48954492202280e+00 2.50195468399192e-02
3.25925892857143e-01 2.47423308609609e+00 2.49212314496608e-02
3.27377678571429e-01 2.45901542492714e+00 2.48230561108126e-02
3.28829464285714e-01 2.44389135933942e+00 2.47250244012782e-02
3.30281250000000e-01 2.42886031363644e+00 2.46271398263784e-02
3.31733035714286e-01 2.41392171570370e+00 2.45294057901801e-02
3.33184821428571e-01 2.39907499694549e+00 2.44318256272916e-02
3.34636607142857e-01 2.38431959230252e+00 2.43344026315647e-02
3.36088392857143e-01 2.36965494011199e+00 2.42371400288543e-02
3.37540178571429e-01 2.35508048220511e+00 2.41400409354534e-02
3.38991964285714e-01 2.34059566388417e+00 2.40431084439529e-02
3.40443750000000e-01 2.32619993378676e+00 2.39463455821907e-02
3.41895535714286e-01 2.31189274397988e+00 2.38497552861414e-02
3.43347321428571e-01 2.29767354990057e+00 2.37533404298355e-02
3.44799107142857e-01 2.28354181037173e+00 2.36571038523748e-02
3.46250892857143e-01 2.26949698747142e+00 2.35610483321709e-02
3.47702678571429e-01 2.25553854662289e+00 2.34651765476625e-02
3.49154464285714e-01 2.24166595657273e+00 2.33694911582628e-02
3.50606250000000e-01 2.22787868926396e+00 2.32739947655685e-02
3.52058035714286e-01 2.21417621992299e+00 2.31786898877196e-02
3.53509821428571e-01 2.20055802700387e+00 2.30835789875691e-02
3.54961607142857e-01 2.18702359220232e+00 2.29886644981247e-02
3.56413392857143e-01 2.17357240033371e+00 2.28939487981855e-02
3.57865178571429e-01 2.16020393941621e+00 2.27994341752067e-02
3.59316964285714e-01 2.14691770064984e+00 2.27051229016523e-02
3.60768750000000e-01 2.13371317829792e+00 2.26110171983287e-02
3.62220535714286e-01 2.12058986976742e+00 2.25171192101265e-02
3.63672321428571e-01 2.10754727555648e+00 2.24234310325644e-02
3.65124107142857e-01 2.09458489926704e+00 2.23299547357668e-02
3.66575892857143e-01 2.08170224749063e+00 2.22366923414062e-02
3.68027678571429e-01 2.06889882988529e+00 2.21436457875927e-02
3.69479464285714e-01 2.05617415915557e+00 2.20508170009368e-02
3.70931250000000e-01 2.04352775094158e+00 2.19582078618690e-02
3.72383035714286e-01 2.03095912389331e+00 2.18658201816883e-02
3.73834821428571e-01 2.01846779962131e+00 2.17736557275892e-02
3.75286607142857e-01 2.00605330270789e+00 2.16817162452690e-02
3.76738392857143e-01 1.99371516060024e+00 2.15900034371077e-02
3.78190178571429e-01 1.98145290368162e+00 2.14985189289573e-02
3.79641964285714e-01 1.96926606525227e+00 2.14072643381814e-02
3.81093750000000e-01 1.95715418142546e+00 2.13162412408559e-02
3.82545535714286e-01 1.94511679119637e+00 2.12254511500420e-02
3.83997321428571e-01 1.93315343639555e+00 2.11348955393946e-02
3.85449107142857e-01 1.92126366169900e+00 2.10445758644927e-02
3.86900892857143e-01 1.90944701452800e+00 2.09544935421804e-02
3.88352678571429e-01 1.89770304511506e+00 2.08646499191506e-02
3.89804464285714e-01 1.88603130648562e+00 2.07750463362110e-02
3.91256250000000e-01 1.87443135436074e+00 2.06856840972490e-02
3.92708035714286e-01 1.86290274722082e+00 2.05965644486684e-02
3.94159821428571e-01 1.85144504626183e+00 2.05076886016691e-02
3.95611607142857e-01 1.84005781540419e+00 2.04190577523742e-02
3.97063392857143e-01 1.82874062119898e+00 2.03306730622757e-02
3.98515178571429e-01 1.81749303288896e+00 2.02425356285036e-02
3.99966964285714e-01 1.80631462239115e+00 2.01546465445496e-02
4.01418750000000e-01 1.79520496420556e+00 2.00670068708984e-02
4.02870535714286e-01 1.78416363547425e+00 1.99796176155583e-02
4.04322321428571e-01 1.77319021594005e+00 1.98924797550942e-02
4.05774107142857e-01 1.76228428795450e+00 1.98055942536340e-02
4.07225892857143e-01 1.75144543638983e+00 1.97189620443504e-02
4.08677678571429e-01 1.74067324869557e+00 1.96325840013203e-02
4.10129464285714e-01 1.72996731488190e+00 1.95464609969234e-02
4.11581250000000e-01 1.71932722743396e+00 1.94605938740412e-02
4.13033035714286e-01 1.70875258136671e+00 1.93749834276188e-02
4.14484821428571e-01 1.69824297418594e+00 1.92896304245303e-02
4.15936607142857e-01 1.68779800589533e+00 1.92045356215368e-02
4.17388392857143e-01 1.67741727891383e+00 1.91196997477441e-02
4.18840178571429e-01 1.66710039812820e+00 1.90351234779578e-02
4.20291964285714e-01 1.65684697087705e+00 1.89508074869602e-02
4.21743750000000e-01 1.64665660687048e+00 1.88667524231879e-02
4.23195535714286e-01 1.63652891824089e+00 1.87829588912648e-02
4.24647321428571e-01 1.62646351950625e+00 1.86994274707758e-02
4.26099107142857e-01 1.61646002757632e+00 1.86161587332334e-02
4.27550892857143e-01 1.60651806167509e+00 1.85331532254595e-02
4.29002678571429e-01 1.59663724338952e+00 1.84504114443569e-02
4.30454464285714e-01 1.58681719665431e+00 1.83679338882440e-02
4.31906250000000e-01 1.57705754767638e+00 1.82857210319279e-02
4.33358035714286e-01 1.56735792498209e+00 1.82037733101559e-02
4.34809821428571e-01 1.55771795938254e+00 1.81220911353588e-02
4.36261607142857e-01 1.54813728397905e+00 1.80406749136938e-02
4.37713392857143e-01 1.53861553409030e+00 1.79595250292954e-02
4.39165178571429e-01 1.52915234729759e+00 1.78786418203810e-02
4.40616964285714e-01 1.51974736343028e+00 1.77980256278211e-02
4.42068750000000e-01 1.51040022449481e+00 1.77176767715241e-02
4.43520535714286e-01 1.50111057471859e+00 1.76375955347579e-02
4.44972321428572e-01 1.49187806051716e+00 1.75577821809267e-02
4.46424107142857e-01 1.48270233049909e+00 1.74782369687413e-02
4.47875892857143e-01 1.47358303539743e+00 1.73989601372986e-02
4.49327678571429e-01 1.46451982811180e+00 1.73199518834325e-02
4.50779464285714e-01 1.45551236369443e+00 1.72412124076899e-02
4.52231250000000e-01 1.44656029928346e+00 1.71627418919600e-02
4.53683035714286e-01 1.43766329414369e+00 1.70845404846049e-02
4.55134821428571e-01 1.42882100963557e+00 1.70066083163324e-02
4.56586607142857e-01 1.42003310921951e+00 1.69289455145494e-02
4.58038392857143e-01 1.41129925839139e+00 1.68515521892157e-02
