Energy (eV)          EEDF (eV^-(3/2))     First Anisotropy
4.62500000000000e-03 2.18051956159941e+00 1.63362983395400e-03
1.38750000000000e-02 2.14929958481751e+00 2.68730979937821e-03
2.31250000000000e-02 2.11852660561027e+00 3.52043073596614e-03
3.23750000000000e-02 2.08819422400851e+00 4.13709443259582e-03
4.16250000000000e-02 2.05829613167730e+00 4.63811383416206e-03
5.08750000000000e-02 2.02882611060259e+00 5.06204065899848e-03
6.01250000000000e-02 1.99977803179797e+00 5.42904162889860e-03
6.93750000000000e-02 1.97114585402988e+00 5.75142278163762e-03
7.86250000000000e-02 1.94292362256121e+00 6.03742952957747e-03
8.78750000000000e-02 1.91510546791289e+00 6.29294819534105e-03
9.71250000000000e-02 1.88768560464313e+00 6.52237904386950e-03
1.06375000000000e-01 1.86065833014425e+00 6.72912884937093e-03
1.15625000000000e-01 1.83401802345667e+00 6.91590909053029e-03
1.24875000000000e-01 1.80775914409991e+00 7.08492660125979e-03
1.34125000000000e-01 1.78187623092029e+00 7.23801090080684e-03
1.43375000000000e-01 1.75636390095518e+00 7.37670233099461e-03
1.52625000000000e-01 1.73121684831347e+00 7.50231491604872e-03
1.61875000000000e-01 1.70642984307208e+00 7.61598234752012e-03
1.71125000000000e-01 1.68199773018832e+00 7.71869236775447e-03
1.80375000000000e-01 1.65791542842769e+00 7.81131297257205e-03
1.89625000000000e-01 1.63417792930722e+00 7.89461271624109e-03
1.98875000000000e-01 1.61078029605375e+00 7.96927668106038e-03
2.08125000000000e-01 1.58771766257726e+00 8.03591920443783e-03
2.17375000000000e-01 1.56498523245884e+00 8.09509414308448e-03
2.26625000000000e-01 1.54257827795316e+00 8.14730324030302e-03
2.35875000000000e-01 1.52049213900524e+00 8.19300301379263e-03
2.45125000000000e-01 1.49872222228124e+00 8.23261047626248e-03
2.54375000000000e-01 1.47726400021321e+00 8.26650792555538e-03
2.63625000000000e-01 1.45611301005745e+00 8.29504698583867e-03
2.72875000000000e-01 1.43526485296641e+00 8.31855204065043e-03
2.82125000000000e-01 1.41471519307379e+00 8.33732316808113e-03
2.91375000000000e-01 1.39445975659285e+00 8.35163866528291e-03
3.00625000000000e-01 1.37449433092755e+00 8.36175723183941e-03
3.09875000000000e-01 1.35481476379643e+00 8.36791986789450e-03
3.19125000000000e-01 1.33541696236907e+00 8.37035153231763e-03
3.28375000000000e-01 1.31629689241488e+00 8.36926259783528e-03
3.37625000000000e-01 1.29745057746407e+00 8.36485013344752e-03
3.46875000000000e-01 1.27887409798068e+00 8.35729903917727e-03
3.56125000000000e-01 1.26056359054740e+00 8.34678305396477e-03
3.65375000000000e-01 1.24251524706207e+00 8.33346565409322e-03
3.74625000000000e-01 1.22472531394573e+00 8.31750085674637e-03
3.83875000000000e-01 1.20719009136194e+00 8.29903394102012e-03
3.93125000000000e-01 1.18990593244733e+00 8.27820209683501e-03
4.02375000000000e-01 1.17286924255316e+00 8.25513501064350e-03
4.11625000000000e-01 1.15607647849769e+00 8.22995539553758e-03
4.20875000000000e-01 1.13952414782933e+00 8.20277947228774e-03
4.30125000000000e-01 1.12320880810029e+00 8.17371740693837e-03
4.39375000000000e-01 1.10712706615061e+00 8.14287370982686e-03
4.48625000000000e-01 1.09127557740254e+00 8.11034760024891e-03
4.57875000000000e-01 1.07565104516490e+00 8.07623334044561e-03
4.67125000000000e-01 1.06025021994746e+00 8.04062054212559e-03
4.76375000000000e-01 1.04506989878516e+00 8.00359444833410e-03
4.85625000000000e-01 1.03010692457197e+00 7.96523619314200e-03
4.94875000000000e-01 1.01535818540427e+00 7.92562304133133e-03
5.04125000000000e-01 1.00082061393367e+00 7.88482861000114e-03
5.13375000000000e-01 9.86491186729111e-01 7.84292307379939e-03
5.22625000000000e-01 9.72366923648021e-01 7.79997335529056e-03
5.31875000000000e-01 9.58444887216564e-01 7.75604330180774e-03
5.41125000000000e-01 9.44722182018704e-01 7.71119384998979e-03
5.50375000000000e-01 9.31195954094038e-01 7.66548317907526e-03
5.59625000000000e-01 9.17863390344250e-01 7.61896685391590e-03
5.68875000000000e-01 9.04721717948061e-01 7.57169795857433e-03
5.78125000000000e-01 8.91768203784552e-01 7.52372722128124e-03
5.87375000000000e-01 8.79000153864749e-01 7.47510313145061e-03
5.96625000000000e-01 8.66414912771347e-01 7.42587204938756e-03
6.05875000000000e-01 8.54009863106447e-01 7.37607830925932e-03
6.15125000000000e-01 8.41782424947214e-01 7.32576431584616e-03
6.24375000000000e-01 8.29730055309313e-01 7.27497063554378e-03
6.33625000000000e-01 8.17850247618044e-01 7.22373608204358e-03
6.42875000000000e-01 8.06140531187032e-01 7.17209779708033e-03
6.52125000000000e-01 7.94598470704398e-01 7.12009132660266e-03
6.61375000000000e-01 7.83221665726271e-01 7.06775069268902e-03
6.70625000000000e-01 7.72007750177563e-01 7.01510846150662e-03
6.79875000000000e-01 7.60954391859888e-01 6.96219580758471e-03
6.89125000000000e-01 7.50059291966523e-01 6.90904257465060e-03
6.98375000000000e-01 7.39320184604322e-01 6.85567733325826e-03
7.07625000000000e-01 7.28734836322467e-01 6.80212743541858e-03
7.16875000000000e-01 7.18301045647967e-01 6.74841906642615e-03
7.26125000000000e-01 7.08016642627814e-01 6.69457729405966e-03
7.35375000000000e-01 6.97879488377689e-01 6.64062611532187e-03
7.44625000000000e-01 6.87887474637127e-01 6.58658850087072e-03
7.53875000000000e-01 6.78038523331061e-01 6.53248643728336e-03
7.63125000000000e-01 6.68330586137631e-01 6.47834096728246e-03
7.72375000000000e-01 6.58761644062190e-01 6.42417222804566e-03
7.81625000000000e-01 6.49329707017406e-01 6.36999948771211e-03
7.90875000000000e-01 6.40032813409378e-01 6.31584118018781e-03
8.00125000000000e-01 6.30869029729672e-01 6.26171493834935e-03
8.09375000000000e-01 6.21836450153208e-01 6.20763762573452e-03
8.18625000000000e-01 6.12933196141893e-01 6.15362536680414e-03
8.27875000000000e-01 6.04157416053940e-01 6.09969357585486e-03
8.37125000000000e-01 5.95507284758770e-01 6.04585698465428e-03
8.46375000000000e-01 5.86981003257437e-01 5.99212966886789e-03
8.55625000000000e-01 5.78576798308484e-01 5.93852507334178e-03
8.64875000000000e-01 5.70292922059151e-01 5.88505603630147e-03
8.74125000000000e-01 5.62127651681874e-01 5.83173481252176e-03
8.83375000000000e-01 5.54079289015976e-01 5.77857309551952e-03
8.92625000000000e-01 5.46146160214501e-01 5.72558203882228e-03
9.01875000000000e-01 5.38326615396091e-01 5.67277227635574e-03
9.11125000000000e-01 5.30619028301861e-01 5.62015394199388e-03
9.20375000000000e-01 5.23021795957175e-01 5.56773668831394e-03
9.29625000000000e-01 5.15533338338274e-01 5.51552970459436e-03
9.38875000000000e-01 5.08152098043666e-01 5.46354173409138e-03
9.48125000000000e-01 5.00876539970236e-01 5.41178109062869e-03
9.57375000000000e-01 4.93705150993980e-01 5.36025567453305e-03
9.66625000000000e-01 4.86636439655314e-01 5.30897298794468e-03
9.75875000000000e-01 4.79668935848894e-01 5.25794014953285e-03
9.85125000000000e-01 4.72801190517871e-01 5.20716390864348e-03
9.94375000000000e-01 4.66031775352525e-01 5.15665065890284e-03
1.00362500000000e+00 4.59359282493213e-01 5.10640645130297e-03
1.01287500000000e+00 4.52782324237575e-01 5.05643700679252e-03
1.02212500000000e+00 4.46299532751925e-01 5.00674772839244e-03
1.03137500000000e+00 4.39909559786779e-01 4.95734371285836e-03
1.04062500000000e+00 4.33611076396457e-01 4.90822976191034e-03
1.04987500000000e+00 4.27402772662692e-01 4.85941039304663e-03
1.05912500000000e+00 4.21283357422208e-01 4.81088984995962e-03
1.06837500000000e+00 4.15251557998188e-01 4.76267211257121e-03
1.07762500000000e+00 4.09306119935590e-01 4.71476090670239e-03
1.08687500000000e+00 4.03445806740256e-01 4.66715971339352e-03
1.09612500000000e+00 3.97669399621756e-01 4.61987177788830e-03
1.10537500000000e+00 3.91975697239904e-01 4.57290011829570e-03
1.11462500000000e+00 3.86363515454920e-01 4.52624753394341e-03
1.12387500000000e+00 3.80831687081154e-01 4.47991661343363e-03
1.13312500000000e+00 3.75379061644344e-01 4.43390974241420e-03
1.14237500000000e+00 3.70004505142349e-01 4.38822911107647e-03
1.15162500000000e+00 3.64706899809305e-01 4.34287672138944e-03
1.16087500000000e+00 3.59485143883158e-01 4.29785439408136e-03
1.17012500000000e+00 3.54338151376532e-01 4.25316377537832e-03
1.17937500000000e+00 3.49264851850865e-01 4.20880634350888e-03
1.18862500000000e+00 3.44264190193790e-01 4.16478341498419e-03
1.19787500000000e+00 3.39335126399702e-01 4.12109615066161e-03
1.20712500000000e+00 3.34476635353457e-01 4.07774556159983e-03
1.21637500000000e+00 3.29687706617183e-01 4.03473251471360e-03
1.22562500000000e+00 3.24967344220129e-01 3.99205773823567e-03
1.23487500000000e+00 3.20314566451536e-01 3.94972182699276e-03
1.24412500000000e+00 3.15728405656460e-01 3.90772524750201e-03
1.25337500000000e+00 3.11207908034531e-01 3.86606834289529e-03
1.26262500000000e+00 3.06752133441584e-01 3.82475133767715e-03
1.27187500000000e+00 3.02360155194136e-01 3.78377434232207e-03
1.28112500000000e+00 2.98031059876661e-01 3.74313735771741e-03
1.29037500000000e+00 2.93763947151620e-01 3.70284027945719e-03
1.29962500000000e+00 2.89557929572218e-01 3.66288290199176e-03
1.30887500000000e+00 2.85412132397839e-01 3.62326492263918e-03
1.31812500000000e+00 2.81325693412117e-01 3.58398594546229e-03
1.32737500000000e+00 2.77297762743627e-01 3.54504548501700e-03
1.33662500000000e+00 2.73327502689126e-01 3.50644296997516e-03
1.34587500000000e+00 2.69414087539339e-01 3.46817774662739e-03
1.35512500000000e+00 2.65556703407228e-01 3.43024908227009e-03
1.36437500000000e+00 2.61754548058728e-01 3.39265616847917e-03
1.37362500000000e+00 2.58006830745905e-01 3.35539812427596e-03
1.38287500000000e+00 2.54312772042497e-01 3.31847399918812e-03
1.39212500000000e+00 2.50671603681816e-01 3.28188277620905e-03
1.40137500000000e+00 2.47082568396971e-01 3.24562337465999e-03
1.41062500000000e+00 2.43544919763372e-01 3.20969465295694e-03
1.41987500000000e+00 2.40057922043498e-01 3.17409541128627e-03
1.42912500000000e+00 2.36620850033880e-01 3.13882439419248e-03
1.43837500000000e+00 2.33232988914279e-01 3.10388029307987e-03
1.44762500000000e+00 2.29893634099021e-01 3.06926174863174e-03
1.45687500000000e+00 2.26602091090464e-01 3.03496735314947e-03
1.46612500000000e+00 2.23357675334558e-01 3.00099565281472e-03
1.47537500000000e+00 2.20159712078480e-01 2.96734514987667e-03
1.48462500000000e+00 2.17007536230297e-01 2.93401430476665e-03
1.49387500000000e+00 2.13900492220651e-01 2.90100153814294e-03
1.50312500000000e+00 2.10837933866414e-01 2.86830523286789e-03
1.51237500000000e+00 2.07819224236300e-01 2.83592373591949e-03
1.52162500000000e+00 2.04843735518399e-01 2.80385536023927e-03
1.53087500000000e+00 2.01910848889612e-01 2.77209838651889e-03
1.54012500000000e+00 1.99019954386947e-01 2.74065106492724e-03
1.54937500000000e+00 1.96170450780668e-01 2.70951161678004e-03
1.55862500000000e+00 1.93361745449252e-01 2.67867823615379e-03
1.56787500000000e+00 1.90593254256138e-01 2.64814909144542e-03
1.57712500000000e+00 1.87864401428249e-01 2.61792232687995e-03
1.58637500000000e+00 1.85174619436236e-01 2.58799606396754e-03
1.59562500000000e+00 1.82523348876456e-01 2.55836840291119e-03
1.60487500000000e+00 1.79910038354626e-01 2.52903742396737e-03
1.61412500000000e+00 1.77334144371148e-01 2.50000118876062e-03
1.62337500000000e+00 1.74795131208079e-01 2.47125774155328e-03
1.63262500000000e+00 1.72292470817709e-01 2.44280511047225e-03
1.64187500000000e+00 1.69825642712748e-01 2.41464130869406e-03
1.65112500000000e+00 1.67394133858075e-01 2.38676433558915e-03
1.66037500000000e+00 1.64997438564039e-01 2.35917217782702e-03
1.66962500000000e+00 1.62635058381292e-01 2.33186281044352e-03
1.67887500000000e+00 1.60306501997122e-01 2.30483419787113e-03
1.68812500000000e+00 1.58011285133277e-01 2.27808429493320e-03
1.69737500000000e+00 1.55748930445241e-01 2.25161104780405e-03
1.70662500000000e+00 1.53518967422966e-01 2.22541239493565e-03
1.71587500000000e+00 1.51320932293014e-01 2.19948626795119e-03
1.72512500000000e+00 1.49154367922106e-01 2.17383059250736e-03
1.73437500000000e+00 1.47018823722051e-01 2.14844328912638e-03
1.74362500000000e+00 1.44913855556034e-01 2.12332227399813e-03
1.75287500000000e+00 1.42839025646246e-01 2.09846545975360e-03
1.76212500000000e+00 1.40793902482842e-01 2.07387075621069e-03
1.77137500000000e+00 1.38778060734196e-01 2.04953607109300e-03
1.78062500000000e+00 1.36791081158441e-01 2.02545931072233e-03
1.78987500000000e+00 1.34832550516283e-01 2.00163838068584e-03
1.79912500000000e+00 1.32902061485053e-01 1.97807118647900e-03
1.80837500000000e+00 1.30999212573997e-01 1.95475563412440e-03
1.81762500000000e+00 1.29123608040778e-01 1.93168963076743e-03
1.82687500000000e+00 1.27274857809168e-01 1.90887108525004e-03
1.83612500000000e+00 1.25452577387926e-01 1.88629790866224e-03
1.84537500000000e+00 1.23656387790832e-01 1.86396801487281e-03
1.85462500000000e+00 1.21885915457870e-01 1.84187932103990e-03
1.86387500000000e+00 1.20140792177536e-01 1.82002974810148e-03
1.87312500000000e+00 1.18420655010257e-01 1.79841722124680e-03
1.88237500000000e+00 1.16725146212916e-01 1.77703967036929e-03
1.89162500000000e+00 1.15053913164443e-01 1.75589503050142e-03
1.90087500000000e+00 1.13406608292485e-01 1.73498124223211e-03
1.91012500000000e+00 1.11782889001117e-01 1.71429625210738e-03
1.91937500000000e+00 1.10182417599593e-01 1.69383801301438e-03
1.92862500000000e+00 1.08604861232114e-01 1.67360448454974e-03
1.93787500000000e+00 1.07049891808603e-01 1.65359363337230e-03
1.94712500000000e+00 1.05517185936471e-01 1.63380343354113e-03
1.95637500000000e+00 1.04006424853360e-01 1.61423186683904e-03
1.96562500000000e+00 1.02517294360849e-01 1.59487692308184e-03
1.97487500000000e+00 1.01049484759108e-01 1.57573660041438e-03
1.98412500000000e+00 9.96026907824911e-02 1.55680890559325e-03
1.99337500000000e+00 9.81766115360456e-02 1.53809185425654e-03
2.00262500000000e+00 9.67709504329372e-02 1.51958347118161e-03
2.01187500000000e+00 9.53854151327657e-02 1.50128179053061e-03
2.02112500000000e+00 9.40197174807668e-02 1.48318485608438e-03
2.03037500000000e+00 9.26735734478834e-02 1.46529072146545e-03
2.03962500000000e+00 9.13467030716948e-02 1.44759745034966e-03
2.04887500000000e+00 9.00388303981922e-02 1.43010311666753e-03
2.05812500000000e+00 8.87496834243872e-02 1.41280580479536e-03
2.06737500000000e+00 8.74789940417429e-02 1.39570360973647e-03
2.07662500000000e+00 8.62264979804139e-02 1.37879463729277e-03
2.08587500000000e+00 8.49919347542853e-02 1.36207700422705e-03
2.09512500000000e+00 8.37750476067984e-02 1.34554883841638e-03
2.10437500000000e+00 8.25755834575526e-02 1.32920827899659e-03
2.11362500000000e+00 8.13932928496705e-02 1.31305347649861e-03
2.12287500000000e+00 8.02279298979182e-02 1.29708259297651e-03
2.13212500000000e+00 7.90792522375673e-02 1.28129380212757e-03
2.14137500000000e+00 7.79470209739895e-02 1.26568528940482e-03
2.15062500000000e+00 7.68310006329729e-02 1.25025525212212e-03
2.15987500000000e+00 7.57309591117496e-02 1.23500189955221e-03
2.16912500000000e+00 7.46466676307242e-02 1.21992345301763e-03
2.17837500000000e+00 7.35779006858939e-02 1.20501814597509e-03
2.18762500000000e+00 7.25244360019497e-02 1.19028422409332e-03
2.19687500000000e+00 7.14860544860488e-02 1.17571994532468e-03
2.20612500000000e+00 7.04625401822492e-02 1.16132357997063e-03
2.21537500000000e+00 6.94536802265964e-02 1.14709341074144e-03
2.22462500000000e+00 6.84592648028535e-02 1.13302773281024e-03
2.23387500000000e+00 6.74790870988650e-02 1.11912485386137e-03
2.24312500000000e+00 6.65129432635453e-02 1.10538309413385e-03
2.25237500000000e+00 6.55606323644826e-02 1.09180078645940e-03
2.26162500000000e+00 6.46219563461511e-02 1.07837627629557e-03
2.27087500000000e+00 6.36967199887199e-02 1.06510792175425e-03
2.28012500000000e+00 6.27847308674529e-02 1.05199409362545e-03
2.28937500000000e+00 6.18857993126894e-02 1.03903317539667e-03
2.29862500000000e+00 6.09997383703980e-02 1.02622356326799e-03
2.30787500000000e+00 6.01263637632944e-02 1.01356366616296e-03
2.31712500000000e+00 5.92654938525176e-02 1.00105190573555e-03
2.32637500000000e+00 5.84169495998530e-02 9.88686716373225e-04
2.33562500000000e+00 5.75805545304977e-02 9.76466545196330e-04
2.34487500000000e+00 5.67561346963581e-02 9.64389852053792e-04
2.35412500000000e+00 5.59435186398734e-02 9.52455109515530e-04
2.36337500000000e+00 5.51425373583569e-02 9.40660802861385e-04
2.37262500000000e+00 5.43530242688479e-02 9.29005430066824e-04
2.38187500000000e+00 5.35748151734671e-02 9.17487501785761e-04
2.39112500000000e+00 5.28077482252671e-02 9.06105541330183e-04
2.40037500000000e+00 5.20516638945735e-02 8.94858084646959e-04
2.40962500000000e+00 5.13064049358060e-02 8.83743680292009e-04
2.41887500000000e+00 5.05718163547760e-02 8.72760889401742e-04
2.42812500000000e+00 4.98477453764519e-02 8.61908285661859e-04
2.43737500000000e+00 4.91340414131856e-02 8.51184455273871e-04
2.44662500000000e+00 4.84305560333945e-02 8.40587996919186e-04
2.45587500000000e+00 4.77371429306917e-02 8.30117521720879e-04
2.46512500000000e+00 4.70536578934579e-02 8.19771653203421e-04
2.47437500000000e+00 4.63799587748493e-02 8.09549027250236e-04
2.48362500000000e+00 4.57159054632350e-02 7.99448292059270e-04
2.49287500000000e+00 4.50613598530572e-02 7.89468108096733e-04
2.50212500000000e+00 4.44161858161089e-02 7.79607148048866e-04
2.51137500000000e+00 4.37802491732230e-02 7.69864096772042e-04
2.52062500000000e+00 4.31534176663666e-02 7.60237651241270e-04
2.52987500000000e+00 4.25355609311346e-02 7.50726520496918e-04
2.53912500000000e+00 4.19265504696374e-02 7.41329425589994e-04
2.54837500000000e+00 4.13262596237770e-02 7.32045099526015e-04
2.55762500000000e+00 4.07345635489050e-02 7.22872287207417e-04
2.56687500000000e+00 4.01513391878588e-02 7.13809745374608e-04
2.57612500000000e+00 3.95764652453682e-02 7.04856242545830e-04
2.58537500000000e+00 3.90098221628300e-02 6.96010558955761e-04
2.59462500000000e+00 3.84512920934424e-02 6.87271486493010e-04
2.60387500000000e+00 3.79007588776961e-02 6.78637828636476e-04
2.61312500000000e+00 3.73581080192164e-02 6.70108400390738e-04
2.62237500000000e+00 3.68232266609505e-02 6.61682028220413e-04
2.63162500000000e+00 3.62960035616970e-02 6.53357549983533e-04
2.64087500000000e+00 3.57763290729698e-02 6.45133814864216e-04
2.65012500000000e+00 3.52640951161947e-02 6.37009683304359e-04
2.65937500000000e+00 3.47591951602317e-02 6.28984026934630e-04
2.66862500000000e+00 3.42615241992192e-02 6.21055728504734e-04
2.67787500000000e+00 3.37709787307359e-02 6.13223681812892e-04
2.68712500000000e+00 3.32874567342748e-02 6.05486791634791e-04
2.69637500000000e+00 3.28108576500256e-02 5.97843973651914e-04
2.70562500000000e+00 3.23410823579609e-02 5.90294154379261e-04
2.71487500000000e+00 3.18780331572221e-02 5.82836271092583e-04
2.72412500000000e+00 3.14216137457999e-02 5.75469271755128e-04
2.73337500000000e+00 3.09717292005062e-02 5.68192114943972e-04
2.74262500000000e+00 3.05282859572326e-02 5.61003769775857e-04
2.75187500000000e+00 3.00911917914914e-02 5.53903215832743e-04
2.76112500000000e+00 2.96603557992353e-02 5.46889443087020e-04
2.77037500000000e+00 2.92356883779521e-02 5.39961451826342e-04
2.77962500000000e+00 2.88171012080293e-02 5.33118252578209e-04
2.78887500000000e+00 2.84045072343863e-02 5.26358866034342e-04
2.79812500000000e+00 2.79978206483691e-02 5.19682322974836e-04
2.80737500000000e+00 2.75969568699042e-02 5.13087664192071e-04
2.81662500000000e+00 2.72018325299087e-02 5.06573940414493e-04
2.82587500000000e+00 2.68123654529509e-02 5.00140212230298e-04
2.83512500000000e+00 2.64284746401610e-02 4.93785550010991e-04
2.84437500000000e+00 2.60500802523844e-02 4.87509033834783e-04
2.85362500000000e+00 2.56771035935783e-02 4.81309753410021e-04
2.86287500000000e+00 2.53094670944440e-02 4.75186807998589e-04
2.87212500000000e+00 2.49470942962955e-02 4.69139306339246e-04
2.88137500000000e+00 2.45899098351573e-02 4.63166366570950e-04
2.89062500000000e+00 2.42378394260912e-02 4.57267116156273e-04
2.89987500000000e+00 2.38908098477467e-02 4.51440691804873e-04
2.90912500000000e+00 2.35487489271332e-02 4.45686239396950e-04
2.91837500000000e+00 2.32115855246096e-02 4.40002913906870e-04
