Energy (eV)          EEDF (eV^-(3/2))     First Anisotropy
2.00000000000000e-03 1.00573501332389e+00 -4.31275351255853e-04
6.00000000000000e-03 1.00629396132784e+00 -4.48577708782311e-04
1.00000000000000e-02 1.00640709786424e+00 -3.88487410725416e-05
1.40000000000000e-02 1.00633909277798e+00 2.58927809778475e-04
1.80000000000000e-02 1.00615261992850e+00 5.36731949496525e-04
2.20000000000000e-02 1.00587340152266e+00 8.11698256827978e-04
2.60000000000000e-02 1.00551495268204e+00 1.09122817526890e-03
3.00000000000000e-02 1.00508403425916e+00 1.37609738323456e-03
3.40000000000000e-02 1.00458730780918e+00 1.66217481680863e-03
3.80000000000000e-02 1.00403046205173e+00 1.95159111474909e-03
4.20000000000000e-02 1.00341603781629e+00 2.25023376763083e-03
4.60000000000000e-02 1.00274454607163e+00 2.55816945899462e-03
5.00000000000000e-02 1.00201765102024e+00 2.86758766846878e-03
5.40000000000000e-02 1.00123941526250e+00 3.17219723065404e-03
5.80000000000000e-02 1.00041383313231e+00 3.47545687873070e-03
6.20000000000000e-02 9.99542214840685e-01 3.78164196772131e-03
6.60000000000000e-02 9.98625823242162e-01 4.09033208082099e-03
7.00000000000000e-02 9.97665800696577e-01 4.39516898058532e-03
7.40000000000000e-02 9.96666002157269e-01 4.68915388274982e-03
7.80000000000000e-02 9.95630213471733e-01 4.97752037685205e-03
8.20000000000000e-02 9.94559384892311e-01 5.26610541346163e-03
8.60000000000000e-02 9.93454435101397e-01 5.55472498257120e-03
9.00000000000000e-02 9.92316221684051e-01 5.84322751614855e-03
9.40000000000000e-02 9.91145572756352e-01 6.13142511968333e-03
9.80000000000000e-02 9.89943283666947e-01 6.41917708353201e-03
1.02000000000000e-01 9.88710112142267e-01 6.69431006956001e-03
1.06000000000000e-01 9.87451462075811e-01 6.95625797125537e-03
1.10000000000000e-01 9.86167974494486e-01 7.21696539445994e-03
1.14000000000000e-01 9.84860262141975e-01 7.47638713063456e-03
1.18000000000000e-01 9.83528912396659e-01 7.73447801287247e-03
1.22000000000000e-01 9.82174489740123e-01 7.99119333809622e-03
1.26000000000000e-01 9.80797537859918e-01 8.24648919079026e-03
1.30000000000000e-01 9.79398581452399e-01 8.50032268989240e-03
1.34000000000000e-01 9.77978127777853e-01 8.75265217516989e-03
1.38000000000000e-01 9.76536668009723e-01 9.00343734551884e-03
1.42000000000000e-01 9.75074678411715e-01 9.25263935909587e-03
1.46000000000000e-01 9.73592621370113e-01 9.50022090307755e-03
1.50000000000000e-01 9.72090946303712e-01 9.74614623924070e-03
1.54000000000000e-01 9.70570090469707e-01 9.99038123019806e-03
1.58000000000000e-01 9.69030479680782e-01 1.02328933501455e-02
1.62000000000000e-01 9.67472528945998e-01 1.04736516833456e-02
1.66000000000000e-01 9.65896643046041e-01 1.07126269128037e-02
1.70000000000000e-01 9.64303217051687e-01 1.09497912876363e-02
1.74000000000000e-01 9.62692636797229e-01 1.11851185101758e-02
1.78000000000000e-01 9.61065279333905e-01 1.14185833523834e-02
1.82000000000000e-01 9.59421513431250e-01 1.16501606744885e-02
1.86000000000000e-01 9.57761700246397e-01 1.18798241970522e-02
1.90000000000000e-01 9.56086194111312e-01 1.21075472873204e-02
1.94000000000000e-01 9.54395342867819e-01 1.23333077973721e-02
1.98000000000000e-01 9.52689487117928e-01 1.25570924006838e-02
2.02000000000000e-01 9.50968959242273e-01 1.27665861670245e-02
2.06000000000000e-01 9.49237759353088e-01 1.29617625874259e-02
2.10000000000000e-01 9.47496137414579e-01 1.31550967863324e-02
2.14000000000000e-01 9.45744336885117e-01 1.33466000252113e-02
2.18000000000000e-01 9.43982595023831e-01 1.35362832512171e-02
2.22000000000000e-01 9.42211143175725e-01 1.37241571255189e-02
2.26000000000000e-01 9.40430207037141e-01 1.39102320495951e-02
2.30000000000000e-01 9.38640006903224e-01 1.40945181897444e-02
2.34000000000000e-01 9.36840757898844e-01 1.42770254995695e-02
2.38000000000000e-01 9.35032670194425e-01 1.44577637403099e-02
2.42000000000000e-01 9.33215949207920e-01 1.46367424992436e-02
2.46000000000000e-01 9.31390795794108e-01 1.48139712063207e-02
2.50000000000000e-01 9.29557406422228e-01 1.49894591491837e-02
2.54000000000000e-01 9.27715973342901e-01 1.51632154867283e-02
2.58000000000000e-01 9.25866684745177e-01 1.53352492614024e-02
2.62000000000000e-01 9.24009724904462e-01 1.55055694103336e-02
2.66000000000000e-01 9.22145274322042e-01 1.56741847753164e-02
2.70000000000000e-01 9.20273509856815e-01 1.58411041091103e-02
2.74000000000000e-01 9.18394604850577e-01 1.60063360646387e-02
2.78000000000000e-01 9.16508729250980e-01 1.61698891242479e-02
2.82000000000000e-01 9.14616049744808e-01 1.63317713904471e-02
2.86000000000000e-01 9.12716729926228e-01 1.64919903032494e-02
2.90000000000000e-01 9.10810930494064e-01 1.66505528168700e-02
2.94000000000000e-01 9.08898809360352e-01 1.68074665113855e-02
2.98000000000000e-01 9.06980521541871e-01 1.69627406603578e-02
3.02000000000000e-01 9.05056218983011e-01 1.71106121138575e-02
3.06000000000000e-01 9.03127580947551e-01 1.72511810974848e-02
3.10000000000000e-01 9.01194716337235e-01 1.73903716271636e-02
3.14000000000000e-01 8.99257732550216e-01 1.75281899668749e-02
3.18000000000000e-01 8.97316735501252e-01 1.76646424340336e-02
3.22000000000000e-01 8.95371829642287e-01 1.77997353927267e-02
3.26000000000000e-01 8.93423117983333e-01 1.79334752479187e-02
3.30000000000000e-01 8.91470702113465e-01 1.80658684405989e-02
3.34000000000000e-01 8.89514682221866e-01 1.81969214434903e-02
3.38000000000000e-01 8.87555157118819e-01 1.83266407571975e-02
3.42000000000000e-01 8.85592224256632e-01 1.84550329066475e-02
3.46000000000000e-01 8.83625979750431e-01 1.85821044378126e-02
3.50000000000000e-01 8.81656518398803e-01 1.87078619146414e-02
3.54000000000000e-01 8.79683933704262e-01 1.88323119162692e-02
3.58000000000000e-01 8.77708317893496e-01 1.89554610344409e-02
3.62000000000000e-01 8.75729761937392e-01 1.90773158711005e-02
3.66000000000000e-01 8.73748355570817e-01 1.91978830361976e-02
3.70000000000000e-01 8.71764187312129e-01 1.93171691446111e-02
3.74000000000000e-01 8.69777344482678e-01 1.94351808073878e-02
3.78000000000000e-01 8.67787913227478e-01 1.95519246005726e-02
3.82000000000000e-01 8.65795978541430e-01 1.96674069847650e-02
3.86000000000000e-01 8.63801624308825e-01 1.97816341998307e-02
3.90000000000000e-01 8.61804933354186e-01 1.98946123079608e-02
3.94000000000000e-01 8.59805987469168e-01 2.00063476237040e-02
3.98000000000000e-01 8.57804867355429e-01 2.01168471043596e-02
4.02000000000000e-01 8.55801652555651e-01 2.02201808779130e-02
4.06000000000000e-01 8.53797895858376e-01 2.03164862131047e-02
4.10000000000000e-01 8.51793637877084e-01 2.04118726663972e-02
4.14000000000000e-01 8.49788919359524e-01 2.05063409609156e-02
4.18000000000000e-01 8.47783781150507e-01 2.05998920530226e-02
4.22000000000000e-01 8.45778264157404e-01 2.06925271183295e-02
4.26000000000000e-01 8.43772409318129e-01 2.07842475389907e-02
4.30000000000000e-01 8.41766257571379e-01 2.08750548922945e-02
4.34000000000000e-01 8.39759849828930e-01 2.09649509400199e-02
4.38000000000000e-01 8.37753226949870e-01 2.10539376184224e-02
4.42000000000000e-01 8.35746429716618e-01 2.11420170288575e-02
4.46000000000000e-01 8.33739498812627e-01 2.12291914288247e-02
4.50000000000000e-01 8.31732474801649e-01 2.13154632235446e-02
4.54000000000000e-01 8.29725398108470e-01 2.14008349579091e-02
4.58000000000000e-01 8.27718309001027e-01 2.14853093089404e-02
4.62000000000000e-01 8.25711247573787e-01 2.15688890786096e-02
4.66000000000000e-01 8.23704253732359e-01 2.16515771869973e-02
4.70000000000000e-01 8.21697367179200e-01 2.17333766653834e-02
4.74000000000000e-01 8.19690627400517e-01 2.18142906468114e-02
4.78000000000000e-01 8.17684073654795e-01 2.18943223470187e-02
4.82000000000000e-01 8.15677744964721e-01 2.19734750206415e-02
4.86000000000000e-01 8.13671680116432e-01 2.20517518993203e-02
4.90000000000000e-01 8.11665917666180e-01 2.21291562198586e-02
4.94000000000000e-01 8.09660495932854e-01 2.22056914017389e-02
4.98000000000000e-01 8.07655452963164e-01 2.22813612494000e-02
5.02000000000000e-01 8.05650826477814e-01 2.23539708224474e-02
5.06000000000000e-01 8.03647169845940e-01 2.24234956763102e-02
5.10000000000000e-01 8.01644522193387e-01 2.24921228070946e-02
5.14000000000000e-01 7.99642922127328e-01 2.25598584351669e-02
5.18000000000000e-01 7.97642407740743e-01 2.26267087588118e-02
5.22000000000000e-01 7.95643016617031e-01 2.26926799529439e-02
5.26000000000000e-01 7.93644785834701e-01 2.27577781680841e-02
5.30000000000000e-01 7.91647751972135e-01 2.28220095296033e-02
5.34000000000000e-01 7.89651951112374e-01 2.28853801370768e-02
5.38000000000000e-01 7.87657418847946e-01 2.29478960636931e-02
5.42000000000000e-01 7.85664190285712e-01 2.30095633557817e-02
5.46000000000000e-01 7.83672300051721e-01 2.30703880323227e-02
5.50000000000000e-01 7.81681782296086e-01 2.31303760844724e-02
5.54000000000000e-01 7.79692670697860e-01 2.31895334752075e-02
5.58000000000000e-01 7.77704998469903e-01 2.32478661389983e-02
5.62000000000000e-01 7.75718798363759e-01 2.33053799814273e-02
5.66000000000000e-01 7.73734102674509e-01 2.33620808789214e-02
5.70000000000000e-01 7.71750943245626e-01 2.34179746782309e-02
5.74000000000000e-01 7.69769351473861e-01 2.34730671943143e-02
5.78000000000000e-01 7.67789358314480e-01 2.35273642021093e-02
5.82000000000000e-01 7.65810994287905e-01 2.35808714138418e-02
5.86000000000000e-01 7.63834289489915e-01 2.36335944548744e-02
5.90000000000000e-01 7.61859273603448e-01 2.36855388688985e-02
5.94000000000000e-01 7.59885975907317e-01 2.37367102251717e-02
5.98000000000000e-01 7.57914425263763e-01 2.37871142581608e-02
6.02000000000000e-01 7.55944650096109e-01 2.38369379936561e-02
6.06000000000000e-01 7.53976648498787e-01 2.38865422172215e-02
6.10000000000000e-01 7.52010389838544e-01 2.39360936821653e-02
6.14000000000000e-01 7.50045845673520e-01 2.39855729179979e-02
6.18000000000000e-01 7.48082989661426e-01 2.40349611698897e-02
6.22000000000000e-01 7.46121797471430e-01 2.40842403747400e-02
6.26000000000000e-01 7.44162246699588e-01 2.41333931383753e-02
6.30000000000000e-01 7.42204316787625e-01 2.41824027135082e-02
6.34000000000000e-01 7.40247988944978e-01 2.42312529784696e-02
6.38000000000000e-01 7.38293246073914e-01 2.42799284167406e-02
6.42000000000000e-01 7.36340072697629e-01 2.43284140971658e-02
6.46000000000000e-01 7.34388454891173e-01 2.43766956549876e-02
6.50000000000000e-01 7.32438380215090e-01 2.44247592733961e-02
6.54000000000000e-01 7.30489837651684e-01 2.44725916658043e-02
6.58000000000000e-01 7.28542817543761e-01 2.45201800587798e-02
6.62000000000000e-01 7.26597311535770e-01 2.45675121754716e-02
6.66000000000000e-01 7.24653312517247e-01 2.46145762196773e-02
6.70000000000000e-01 7.22710814568446e-01 2.46613608602994e-02
6.74000000000000e-01 7.20769812908120e-01 2.47078552153382e-02
6.78000000000000e-01 7.18830303843539e-01 2.47540488331417e-02
6.82000000000000e-01 7.16892284723175e-01 2.47999316666065e-02
6.86000000000000e-01 7.14955753893077e-01 2.48454940374559e-02
6.90000000000000e-01 7.13020710657973e-01 2.48907266368661e-02
6.94000000000000e-01 7.11087155238023e-01 2.49356205893919e-02
6.98000000000000e-01 7.09155088716699e-01 2.49801674734831e-02
7.02000000000000e-01 7.07224512994051e-01 2.50236242373144e-02
7.06000000000000e-01 7.05295584176539e-01 2.50660097159578e-02
7.10000000000000e-01 7.03368300952277e-01 2.51082917588547e-02
7.14000000000000e-01 7.01442630419058e-01 2.51506664356279e-02
7.18000000000000e-01 6.99518541882097e-01 2.51931108587012e-02
7.22000000000000e-01 6.97596006774742e-01 2.52356028285484e-02
7.26000000000000e-01 6.95674998581844e-01 2.52781208154650e-02
7.30000000000000e-01 6.93755492765656e-01 2.53206439419627e-02
7.34000000000000e-01 6.91837466694199e-01 2.53631519657185e-02
7.38000000000000e-01 6.89920899571966e-01 2.54056252630368e-02
7.42000000000000e-01 6.88005772372920e-01 2.54480448128223e-02
7.46000000000000e-01 6.86092067775670e-01 2.54903921809861e-02
7.50000000000000e-01 6.84179770100776e-01 2.55326495053038e-02
7.54000000000000e-01 6.82268865250087e-01 2.55747994806889e-02
7.58000000000000e-01 6.80359340648065e-01 2.56168253449280e-02
7.62000000000000e-01 6.78451185184999e-01 2.56587108648061e-02
7.66000000000000e-01 6.76544389162064e-01 2.57004403225830e-02
7.70000000000000e-01 6.74638944238150e-01 2.57419985027887e-02
7.74000000000000e-01 6.72734843378436e-01 2.57833706786986e-02
7.78000000000000e-01 6.70832080804747e-01 2.58245425966092e-02
7.82000000000000e-01 6.68930651948074e-01 2.58655004535149e-02
7.86000000000000e-01 6.67030553404212e-01 2.59062308728094e-02
7.90000000000000e-01 6.65131782891881e-01 2.59467208942924e-02
7.94000000000000e-01 6.63234339210908e-01 2.59869580120686e-02
7.98000000000000e-01 6.61338222192877e-01 2.60269302351401e-02
8.02000000000000e-01 6.59443432647247e-01 2.60665355697148e-02
8.06000000000000e-01 6.57549985486776e-01 2.61055091479635e-02
8.10000000000000e-01 6.55657920072536e-01 2.61436087486593e-02
8.14000000000000e-01 6.53767286237785e-01 2.61807657734212e-02
8.18000000000000e-01 6.51878132906164e-01 2.62169899307069e-02
8.22000000000000e-01 6.49990508110101e-01 2.62522907926488e-02
8.26000000000000e-01 6.48104459008598e-01 2.62866777997839e-02
8.30000000000000e-01 6.46220031904447e-01 2.63201602655437e-02
8.34000000000000e-01 6.44337272260894e-01 2.63527473805277e-02
8.38000000000000e-01 6.42456224717772e-01 2.63844482166578e-02
8.42000000000000e-01 6.40576933107120e-01 2.64152717312210e-02
8.46000000000000e-01 6.38699440468309e-01 2.64452267707369e-02
8.50000000000000e-01 6.36823789062688e-01 2.64743220746903e-02
8.54000000000000e-01 6.34950020387781e-01 2.65025662791344e-02
8.58000000000000e-01 6.33078175191034e-01 2.65299679201776e-02
8.62000000000000e-01 6.31208293483138e-01 2.65565354373591e-02
8.66000000000000e-01 6.29340414550944e-01 2.65822771769341e-02
8.70000000000000e-01 6.27474576969971e-01 2.66072013948899e-02
8.74000000000000e-01 6.25610818616564e-01 2.66313162594659e-02
8.78000000000000e-01 6.23749176679761e-01 2.66546298519848e-02
8.82000000000000e-01 6.21889687673149e-01 2.66771501632535e-02
8.86000000000000e-01 6.20032387447330e-01 2.66988850903992e-02
8.90000000000000e-01 6.18177311202258e-01 2.67198424461222e-02
8.94000000000000e-01 6.16324493497654e-01 2.67400299853339e-02
8.98000000000000e-01 6.14473968259802e-01 2.67594554291750e-02
9.02000000000000e-01 6.12625768787081e-01 2.67782009938868e-02
9.06000000000000e-01 6.10779917487408e-01 2.67964054393380e-02
9.10000000000000e-01 6.08936428435929e-01 2.68141141199448e-02
9.14000000000000e-01 6.07095317791849e-01 2.68313133138427e-02
9.18000000000000e-01 6.05256601542342e-01 2.68480056464428e-02
9.22000000000000e-01 6.03420295505083e-01 2.68641937182488e-02
9.26000000000000e-01 6.01586415330666e-01 2.68798801062906e-02
9.30000000000000e-01 5.99754976504890e-01 2.68950673655117e-02
9.34000000000000e-01 5.97925994350939e-01 2.69097580301250e-02
9.38000000000000e-01 5.96099484031455e-01 2.69239546148494e-02
9.42000000000000e-01 5.94275460550509e-01 2.69376596161450e-02
9.46000000000000e-01 5.92453938755466e-01 2.69508755134603e-02
9.50000000000000e-01 5.90634933338758e-01 2.69636047703403e-02
9.54000000000000e-01 5.88818458839569e-01 2.69758498355295e-02
9.58000000000000e-01 5.87004529645429e-01 2.69876131440152e-02
9.62000000000000e-01 5.85193159993727e-01 2.69988971180379e-02
9.66000000000000e-01 5.83384363973149e-01 2.70097041681121e-02
9.70000000000000e-01 5.81578155525029e-01 2.70200366937941e-02
9.74000000000000e-01 5.79774548444668e-01 2.70298970833674e-02
9.78000000000000e-01 5.77973556382786e-01 2.70392877098863e-02
9.82000000000000e-01 5.76175192847657e-01 2.70482109187846e-02
9.86000000000000e-01 5.74379471209015e-01 2.70566690076135e-02
9.90000000000000e-01 5.72586404704164e-01 2.70646642331376e-02
9.94000000000000e-01 5.70796006440347e-01 2.70721988879728e-02
9.98000000000000e-01 5.69008289385597e-01 2.70792753757583e-02
1.00200000000000e+00 5.67223266356434e-01 2.70877739652374e-02
1.00600000000000e+00 5.65440616016612e-01 2.70988111463021e-02
1.01000000000000e+00 5.63660205612520e-01 2.71115556799676e-02
1.01400000000000e+00 5.61881911608647e-01 2.71259167817077e-02
1.01800000000000e+00 5.60105614601742e-01 2.71418424268233e-02
1.02200000000000e+00 5.58331199238050e-01 2.71592813701527e-02
1.02600000000000e+00 5.56558554131630e-01 2.71781831432895e-02
1.03000000000000e+00 5.54787571783771e-01 2.71984980517234e-02
1.03400000000000e+00 5.53018148503455e-01 2.72201771720322e-02
1.03800000000000e+00 5.51250184328884e-01 2.72431723489035e-02
1.04200000000000e+00 5.49483582950037e-01 2.72674361922188e-02
1.04600000000000e+00 5.47718251632245e-01 2.72929220740989e-02
1.05000000000000e+00 5.45954101140767e-01 2.73195841258174e-02
1.05400000000000e+00 5.44191045666366e-01 2.73473772348156e-02
1.05800000000000e+00 5.42429002751844e-01 2.73762570415798e-02
1.06200000000000e+00 5.40667893219556e-01 2.74061799364571e-02
1.06600000000000e+00 5.38907641099860e-01 2.74371030565470e-02
1.07000000000000e+00 5.37148173560512e-01 2.74689842824404e-02
1.07400000000000e+00 5.35389420836977e-01 2.75017822348952e-02
1.07800000000000e+00 5.33631316163665e-01 2.75354562716358e-02
1.08200000000000e+00 5.31873795706042e-01 2.75699664838434e-02
1.08600000000000e+00 5.30116798493670e-01 2.76052736926938e-02
1.09000000000000e+00 5.28360266354097e-01 2.76413394456047e-02
1.09400000000000e+00 5.26604143847674e-01 2.76781260119686e-02
1.09800000000000e+00 5.24848378203266e-01 2.77155963786618e-02
1.10200000000000e+00 5.23092919254894e-01 2.77563067199128e-02
1.10600000000000e+00 5.21337213821475e-01 2.78002034417768e-02
1.11000000000000e+00 5.19581219695003e-01 2.78445671814303e-02
1.11400000000000e+00 5.17824905936409e-01 2.78892968472880e-02
1.11800000000000e+00 5.16068243449636e-01 2.79343659728746e-02
1.12200000000000e+00 5.14311204944551e-01 2.79797485002324e-02
1.12600000000000e+00 5.12553764900110e-01 2.80254187814018e-02
1.13000000000000e+00 5.10795899527772e-01 2.80713515795294e-02
1.13400000000000e+00 5.09037586735211e-01 2.81175220695862e-02
1.13800000000000e+00 5.07278806090320e-01 2.81639058389180e-02
1.14200000000000e+00 5.05519538785504e-01 2.82104788877263e-02
1.14600000000000e+00 5.03759767602284e-01 2.82572176293157e-02
1.15000000000000e+00 5.01999476876192e-01 2.83040988902304e-02
1.15400000000000e+00 5.00238652461991e-01 2.83510999103350e-02
1.15800000000000e+00 4.98477281699175e-01 2.83981983426669e-02
1.16200000000000e+00 4.96715353377812e-01 2.84453722531245e-02
1.16600000000000e+00 4.94952857704684e-01 2.84926001202395e-02
1.17000000000000e+00 4.93189786269737e-01 2.85398608346627e-02
1.17400000000000e+00 4.91426132012867e-01 2.85871336985796e-02
1.17800000000000e+00 4.89661889191000e-01 2.86343984250829e-02
1.18200000000000e+00 4.87897053345515e-01 2.86816351372946e-02
1.18600000000000e+00 4.86131621269973e-01 2.87288243674280e-02
1.19000000000000e+00 4.84365590978193e-01 2.87759470553609e-02
1.19400000000000e+00 4.82598961672683e-01 2.88229845465300e-02
1.19800000000000e+00 4.80831733713482e-01 2.88699185894320e-02
1.20200000000000e+00 4.79063908587407e-01 2.89202573948066e-02
1.20600000000000e+00 4.77294780049489e-01 2.89736492390720e-02
1.21000000000000e+00 4.75524392689419e-01 2.90262690501685e-02
1.21400000000000e+00 4.73752785490193e-01 2.90781622416569e-02
1.21800000000000e+00 4.71979997262041e-01 2.91293297163138e-02
1.22200000000000e+00 4.70206066655525e-01 2.91797721938173e-02
1.22600000000000e+00 4.68431032174015e-01 2.92294902189360e-02
1.23000000000000e+00 4.66654932185620e-01 2.92784841691305e-02
1.23400000000000e+00 4.64877804934591e-01 2.93267542618675e-02
1.23800000000000e+00 4.63099688552214e-01 2.93743005616356e-02
1.24200000000000e+00 4.61320621067216e-01 2.94211229868051e-02
1.24600000000000e+00 4.59540640415702e-01 2.94672213164432e-02
1.25000000000000e+00 4.57759784450603e-01 2.95125951968764e-02
1.25400000000000e+00 4.55978090950699e-01 2.95572441481422e-02
1.25800000000000e+00 4.54195597629180e-01 2.96011675702923e-02
1.26200000000000e+00 4.52412342141794e-01 2.96443647495475e-02
