Energy (eV)          EEDF (eV^-(3/2))     First Anisotropy
1.65517241379310e-02 8.56704932168018e-02 4.21545529447972e-05
4.96551724137931e-02 8.51624883134834e-02 6.96368713905490e-05
8.27586206896552e-02 8.46574957548953e-02 9.20020334246394e-05
1.15862068965517e-01 8.41554976786081e-02 1.09037820857926e-04
1.48965517241379e-01 8.36564763274476e-02 1.23283013023333e-04
1.82068965517241e-01 8.31604140505637e-02 1.35696164842902e-04
2.15172413793103e-01 8.26672932987433e-02 1.46772679804207e-04
2.48275862068966e-01 8.21770966322245e-02 1.56811335121791e-04
2.81379310344828e-01 8.16898067115940e-02 1.66010034956563e-04
3.14482758620690e-01 8.12054063004273e-02 1.74508477946195e-04
3.47586206896552e-01 8.07238782631732e-02 1.82409946359158e-04
3.80689655172414e-01 8.02452055688763e-02 1.89793543050383e-04
4.13793103448276e-01 7.97693712859418e-02 1.96721565772949e-04
4.46896551724138e-01 7.92963585821576e-02 2.03244199354249e-04
4.80000000000000e-01 7.88261507274134e-02 2.09402635997494e-04
5.13103448275862e-01 7.83587310895824e-02 2.15231225137621e-04
5.46206896551724e-01 7.78940831351775e-02 2.20758999187395e-04
5.79310344827586e-01 7.74321904279687e-02 2.26010784500962e-04
6.12413793103448e-01 7.69730366308651e-02 2.31008028458456e-04
6.45517241379310e-01 7.65166055027627e-02 2.35769426873969e-04
6.78620689655172e-01 7.60628808982021e-02 2.40311407047501e-04
7.11724137931035e-01 7.56118467688774e-02 2.44648506563073e-04
7.44827586206897e-01 7.51634871609096e-02 2.48793673623711e-04
7.77931034482759e-01 7.47177862150208e-02 2.52758507705960e-04
8.11034482758621e-01 7.42747281654363e-02 2.56553454764433e-04
8.44137931034483e-01 7.38342973410036e-02 2.60187967376344e-04
8.77241379310345e-01 7.33964781629059e-02 2.63670637074383e-04
9.10344827586207e-01 7.29612551447096e-02 2.67009304264361e-04
9.43448275862069e-01 7.25286128913582e-02 2.70211150480334e-04
9.76551724137931e-01 7.20985361000259e-02 2.73282776589526e-04
1.00965517241379e+00 7.16710095581392e-02 2.76230269576551e-04
1.04275862068966e+00 7.12460181416651e-02 2.79059257757150e-04
1.07586206896552e+00 7.08235468228220e-02 2.81774961928453e-04
1.10896551724138e+00 7.04035806540234e-02 2.84382236811907e-04
1.14206896551724e+00 6.99861047803956e-02 2.86885605828992e-04
1.17517241379310e+00 6.95711044351411e-02 2.89289295234134e-04
1.20827586206897e+00 6.91585649390084e-02 2.91597261464923e-04
1.24137931034483e+00 6.87484716998091e-02 2.93813215224428e-04
1.27448275862069e+00 6.83408102151037e-02 2.95940645001176e-04
1.30758620689655e+00 6.79355660619164e-02 2.97982835189781e-04
1.34068965517241e+00 6.75327249061015e-02 2.99942882071276e-04
1.37379310344828e+00 6.71322724985014e-02 3.01823710884871e-04
1.40689655172414e+00 6.67341946744478e-02 3.03628088916575e-04
1.44000000000000e+00 6.63384773532747e-02 3.05358637264348e-04
1.47310344827586e+00 6.59451065404982e-02 3.07017843450601e-04
1.50620689655172e+00 6.55540683191776e-02 3.08608070336555e-04
1.53931034482759e+00 6.51653488576461e-02 3.10131564079454e-04
1.57241379310345e+00 6.47789344062454e-02 3.11590463886265e-04
1.60551724137931e+00 6.43948112968516e-02 3.12986808896037e-04
1.63862068965517e+00 6.40129659423935e-02 3.14322544467012e-04
1.67172413793103e+00 6.36333848386514e-02 3.15599529751836e-04
1.70482758620690e+00 6.32560545568643e-02 3.16819542378577e-04
1.73793103448276e+00 6.28809617502326e-02 3.17984282654028e-04
1.77103448275862e+00 6.25080931510904e-02 3.19095379731066e-04
1.80413793103448e+00 6.21374355704518e-02 3.20154395473150e-04
1.83724137931034e+00 6.17689758975394e-02 3.21162828032928e-04
1.87034482758621e+00 6.14027011012879e-02 3.22122116832795e-04
1.90344827586207e+00 6.10385982239258e-02 3.23033645108897e-04
1.93655172413793e+00 6.06766543865252e-02 3.23898742195246e-04
1.96965517241379e+00 6.03168567865180e-02 3.24718687753888e-04
2.00275862068966e+00 5.99591926972600e-02 3.25494713648165e-04
2.03586206896552e+00 5.96036494693209e-02 3.26228007658798e-04
2.06896551724138e+00 5.92502145247492e-02 3.26919715022215e-04
2.10206896551724e+00 5.88988753619575e-02 3.27570939804031e-04
2.13517241379310e+00 5.85496195534878e-02 3.28182748148610e-04
2.16827586206897e+00 5.82024347455695e-02 3.28756169766878e-04
2.20137931034483e+00 5.78573086576919e-02 3.29292199345516e-04
2.23448275862069e+00 5.75142290837008e-02 3.29791799310094e-04
2.26758620689655e+00 5.71731838867214e-02 3.30255900640843e-04
2.30068965517241e+00 5.68341610034104e-02 3.30685403587269e-04
2.33379310344828e+00 5.64971484419544e-02 3.31081180156333e-04
2.36689655172414e+00 5.61621342816475e-02 3.31444075021034e-04
2.40000000000000e+00 5.58291066724732e-02 3.31774906392704e-04
2.43310344827586e+00 5.54980538360446e-02 3.32074468178670e-04
2.46620689655172e+00 5.51689640610714e-02 3.32343530371779e-04
2.49931034482759e+00 5.48418257070919e-02 3.32582839374487e-04
2.53241379310345e+00 5.45166272026669e-02 3.32793119988279e-04
2.56551724137931e+00 5.41933570449736e-02 3.32975075967340e-04
2.59862068965517e+00 5.38720037993994e-02 3.33129390558788e-04
2.63172413793103e+00 5.35525561003511e-02 3.33256728254520e-04
2.66482758620690e+00 5.32350026471815e-02 3.33357734921572e-04
2.69793103448276e+00 5.29193322074873e-02 3.33433037888191e-04
2.73103448275862e+00 5.26055336154671e-02 3.33483247590079e-04
2.76413793103448e+00 5.22935957715323e-02 3.33508957899005e-04
2.79724137931034e+00 5.19835076419124e-02 3.33510746451016e-04
2.83034482758621e+00 5.16752582593545e-02 3.33489176113309e-04
2.86344827586207e+00 5.13688367194423e-02 3.33444794954061e-04
2.89655172413793e+00 5.10642321835259e-02 3.33378136180845e-04
2.92965517241379e+00 5.07614338772229e-02 3.33289719539773e-04
2.96275862068966e+00 5.04604310900432e-02 3.33180051223684e-04
2.99586206896552e+00 5.01612131760042e-02 3.33049625161265e-04
3.02896551724138e+00 4.98637695502427e-02 3.32898922900824e-04
3.06206896551724e+00 4.95680896916726e-02 3.32728413470058e-04
3.09517241379310e+00 4.92741631415944e-02 3.32538554617736e-04
3.12827586206897e+00 4.89819795033243e-02 3.32329792912501e-04
3.16137931034483e+00 4.86915284418304e-02 3.32102563851699e-04
3.19448275862069e+00 4.84027996842673e-02 3.31857292985312e-04
3.22758620689655e+00 4.81157830168874e-02 3.31594395731884e-04
3.26068965517241e+00 4.78304682874232e-02 3.31314277176237e-04
3.29379310344828e+00 4.75468454038064e-02 3.31017333162597e-04
3.32689655172414e+00 4.72649043338117e-02 3.30703950324189e-04
3.36000000000000e+00 4.69846351047037e-02 3.30374506125121e-04
3.39310344827586e+00 4.67060278037024e-02 3.30029369855690e-04
3.42620689655172e+00 4.64290725751578e-02 3.29668902406649e-04
3.45931034482759e+00 4.61537596226917e-02 3.29293456029202e-04
3.49241379310345e+00 4.58800792080150e-02 3.28903375310556e-04
3.52551724137931e+00 4.56080216505847e-02 3.28498997156641e-04
3.55862068965517e+00 4.53375773272613e-02 3.28080650788403e-04
3.59172413793103e+00 4.50687366727160e-02 3.27648658634250e-04
3.62482758620690e+00 4.48014901768350e-02 3.27203336079678e-04
3.65793103448276e+00 4.45358283866543e-02 3.26744991205468e-04
3.69103448275862e+00 4.42717419052623e-02 3.26273925667752e-04
3.72413793103448e+00 4.40092213914695e-02 3.25790434649087e-04
3.75724137931034e+00 4.37482575594780e-02 3.25294806823474e-04
3.79034482758621e+00 4.34888411792353e-02 3.24787325164435e-04
3.82344827586207e+00 4.32309630740456e-02 3.24268266681435e-04
3.85655172413793e+00 4.29746141223205e-02 3.23737902146911e-04
3.88965517241379e+00 4.27197852565588e-02 3.23196496897055e-04
3.92275862068966e+00 4.24664674630287e-02 3.22644310560577e-04
3.95586206896552e+00 4.22146517820823e-02 3.22081597807261e-04
3.98896551724138e+00 4.19643293059232e-02 3.21508608079807e-04
4.02206896551724e+00 4.17154911802182e-02 3.20925585317458e-04
4.05517241379310e+00 4.14681286031380e-02 3.20332768699991e-04
4.08827586206897e+00 4.12222328250449e-02 3.19730392564929e-04
4.12137931034483e+00 4.09777951481855e-02 3.19118686338487e-04
4.15448275862069e+00 4.07348069269649e-02 3.18497875222478e-04
4.18758620689655e+00 4.04932595658814e-02 3.17868179924816e-04
4.22068965517241e+00 4.02531445209924e-02 3.17229816383110e-04
4.25379310344828e+00 4.00144532990181e-02 3.16582996449757e-04
4.28689655172414e+00 3.97771774570418e-02 3.15927927799349e-04
4.32000000000000e+00 3.95413086022117e-02 3.15264813849315e-04
4.35310344827586e+00 3.93068383919805e-02 3.14593854393861e-04
4.38620689655172e+00 3.90737585321899e-02 3.13915245336955e-04
4.41931034482759e+00 3.88420607784069e-02 3.13229178419139e-04
4.45241379310345e+00 3.86117369350855e-02 3.12535841851454e-04
4.48551724137931e+00 3.83827788552775e-02 3.11835420216865e-04
4.51862068965517e+00 3.81551784403443e-02 3.11128094384411e-04
4.55172413793103e+00 3.79289276401659e-02 3.10414042096762e-04
4.58482758620690e+00 3.77040184513606e-02 3.09693437708131e-04
4.61793103448276e+00 3.74804429185057e-02 3.08966451916818e-04
4.65103448275862e+00 3.72581931333520e-02 3.08233252353979e-04
4.68413793103448e+00 3.70372612345443e-02 3.07494003481769e-04
4.71724137931035e+00 3.68176394073438e-02 3.06748866503774e-04
4.75034482758621e+00 3.65993198838092e-02 3.05997999911546e-04
4.78344827586207e+00 3.63822949411394e-02 3.05241559229084e-04
4.81655172413793e+00 3.61665569027910e-02 3.04479696752597e-04
4.84965517241379e+00 3.59520981377400e-02 3.03712562099176e-04
4.88275862068966e+00 3.57389110602131e-02 3.02940301952027e-04
4.91586206896552e+00 3.55269881298480e-02 3.02163060576382e-04
4.94896551724138e+00 3.53163218501316e-02 3.01380979570505e-04
4.98206896551724e+00 3.51069047694372e-02 3.00594197612456e-04
5.01517241379310e+00 3.48987294803244e-02 2.99802850978603e-04
5.04827586206897e+00 3.46917886192764e-02 2.99007073440145e-04
5.08137931034483e+00 3.44860748664410e-02 2.98206996170872e-04
5.11448275862069e+00 3.42815809457691e-02 2.97402748229738e-04
5.14758620689655e+00 3.40782996235557e-02 2.96594456320095e-04
5.18068965517241e+00 3.38762237093928e-02 2.95782244545004e-04
5.21379310344828e+00 3.36753460555092e-02 2.94966234892744e-04
5.24689655172414e+00 3.34756595565181e-02 2.94146547134363e-04
5.28000000000000e+00 3.32771571491663e-02 2.93323298731881e-04
5.31310344827586e+00 3.30798318124540e-02 2.92496605290612e-04
5.34620689655172e+00 3.28836765662701e-02 2.91666580326994e-04
5.37931034482759e+00 3.26886844722678e-02 2.90833335032773e-04
5.41241379310345e+00 3.24948486332425e-02 2.89996978730696e-04
5.44551724137931e+00 3.23021621928888e-02 2.89157618773778e-04
5.47862068965517e+00 3.21106183355572e-02 2.88315360454632e-04
5.51172413793103e+00 3.19202102863578e-02 2.87470307430329e-04
5.54482758620690e+00 3.17309313098821e-02 2.86622561499008e-04
5.57793103448276e+00 3.15427747110087e-02 2.85772222373115e-04
5.61103448275862e+00 3.13557338343159e-02 2.84919388107840e-04
5.64413793103448e+00 3.11698020638476e-02 2.84064155002567e-04
5.67724137931035e+00 3.09849728228789e-02 2.83206617511977e-04
5.71034482758621e+00 3.08012395740034e-02 2.82346868645838e-04
5.74344827586207e+00 3.06185958179357e-02 2.81484999754329e-04
5.77655172413793e+00 3.04370350942533e-02 2.80621100310295e-04
5.80965517241379e+00 3.02565509808421e-02 2.79755258312766e-04
5.84275862068966e+00 3.00771370936698e-02 2.78887560074314e-04
5.87586206896552e+00 2.98987870868620e-02 2.78018090601591e-04
5.90896551724138e+00 2.97214946515665e-02 2.77146933388084e-04
5.94206896551724e+00 2.95452535166462e-02 2.76274170203918e-04
5.97517241379310e+00 2.93700574481502e-02 2.75399881480102e-04
6.00827586206897e+00 2.91959002490931e-02 2.74524146214776e-04
6.04137931034483e+00 2.90227757592364e-02 2.73647041888107e-04
6.07448275862069e+00 2.88506778551524e-02 2.72768644821335e-04
6.10758620689655e+00 2.86796004491567e-02 2.71889029978040e-04
6.14068965517241e+00 2.85095374899484e-02 2.71008270762731e-04
6.17379310344828e+00 2.83404829621091e-02 2.70126439383519e-04
6.20689655172414e+00 2.81724308858904e-02 2.69243606761356e-04
6.24000000000000e+00 2.80053753170023e-02 2.68359842447497e-04
6.27310344827586e+00 2.78393103466666e-02 2.67475214962626e-04
6.30620689655172e+00 2.76742301006130e-02 2.66589791606469e-04
6.33931034482759e+00 2.75101287396703e-02 2.65703638264879e-04
6.37241379310345e+00 2.73470004592920e-02 2.64816819752569e-04
6.40551724137931e+00 2.71848394893511e-02 2.63929399725451e-04
6.43862068965517e+00 2.70236400939361e-02 2.63041440600770e-04
6.47172413793103e+00 2.68633965713947e-02 2.62153003877733e-04
6.50482758620690e+00 2.67041032533885e-02 2.61264149955241e-04
6.53793103448276e+00 2.65457545054397e-02 2.60374937947169e-04
6.57103448275862e+00 2.63883447264815e-02 2.59485426006669e-04
6.60413793103448e+00 2.62318683486602e-02 2.58595671241601e-04
6.63724137931035e+00 2.60763198371379e-02 2.57705729637343e-04
6.67034482758621e+00 2.59216936901281e-02 2.56815656360295e-04
6.70344827586207e+00 2.57679844380045e-02 2.55925505583412e-04
6.73655172413793e+00 2.56151866438072e-02 2.55035330309470e-04
6.76965517241379e+00 2.54632949028160e-02 2.54145182678122e-04
6.80275862068966e+00 2.53123038423598e-02 2.53255113793445e-04
6.83586206896552e+00 2.51622081218442e-02 2.52365174014050e-04
6.86896551724138e+00 2.50130024319044e-02 2.51475412785045e-04
6.90206896551724e+00 2.48646814948795e-02 2.50585878467819e-04
6.93517241379310e+00 2.47172400644035e-02 2.49696618633586e-04
6.96827586206897e+00 2.45706729252199e-02 2.48807679984417e-04
7.00137931034483e+00 2.44249748929978e-02 2.47919108280969e-04
7.03448275862069e+00 2.42801408143528e-02 2.47030948617473e-04
7.06758620689655e+00 2.41361655660472e-02 2.46143245260995e-04
7.10068965517241e+00 2.39930440554296e-02 2.45256041488630e-04
7.13379310344828e+00 2.38507712200465e-02 2.44369379865859e-04
7.16689655172414e+00 2.37093420274637e-02 2.43483302170622e-04
7.20000000000000e+00 2.35687514750882e-02 2.42597849323750e-04
7.23310344827586e+00 2.34289945901833e-02 2.41713061649876e-04
7.26620689655172e+00 2.32900664291129e-02 2.40828978723622e-04
7.29931034482759e+00 2.31519620777499e-02 2.39945639213913e-04
7.33241379310345e+00 2.30146766511063e-02 2.39063081148164e-04
7.36551724137931e+00 2.28782052931611e-02 2.38181341839315e-04
7.39862068965517e+00 2.27425431766882e-02 2.37300457818887e-04
7.43172413793103e+00 2.26076855032665e-02 2.36420465084687e-04
7.46482758620690e+00 2.24736275025654e-02 2.35541398953729e-04
7.49793103448276e+00 2.23403644327235e-02 2.34663293913304e-04
7.53103448275862e+00 2.22078915799974e-02 2.33786183871866e-04
7.56413793103448e+00 2.20762042585948e-02 2.32910102089002e-04
7.59724137931035e+00 2.19452978105093e-02 2.32035081111056e-04
7.63034482758621e+00 2.18151676055252e-02 2.31161153006380e-04
7.66344827586207e+00 2.16858090405415e-02 2.30288349224737e-04
7.69655172413793e+00 2.15572175399238e-02 2.29416700454888e-04
7.72965517241379e+00 2.14293885551699e-02 2.28546236862938e-04
7.76275862068966e+00 2.13023175647495e-02 2.27676987953414e-04
7.79586206896552e+00 2.11760000741046e-02 2.26808982794680e-04
7.82896551724138e+00 2.10504316150055e-02 2.25942249883589e-04
7.86206896551724e+00 2.09256077458802e-02 2.25076817008404e-04
7.89517241379310e+00 2.08015240514943e-02 2.24212711477209e-04
7.92827586206897e+00 2.06781761427945e-02 2.23349960052930e-04
7.96137931034483e+00 2.05555596567537e-02 2.22488588893484e-04
7.99448275862069e+00 2.04336702563681e-02 2.21628623766185e-04
8.02758620689655e+00 2.03125036300464e-02 2.20770089918261e-04
8.06068965517241e+00 2.01920554919172e-02 2.19913011945786e-04
8.09379310344828e+00 2.00723215815232e-02 2.19057414010896e-04
8.12689655172414e+00 1.99532976636704e-02 2.18203319779433e-04
8.16000000000000e+00 1.98349795282785e-02 2.17350752363576e-04
8.19310344827586e+00 1.97173629903750e-02 2.16499734525755e-04
8.22620689655172e+00 1.96004438895162e-02 2.15650288554814e-04
8.25931034482759e+00 1.94842180900726e-02 2.14802436140659e-04
8.29241379310345e+00 1.93686814809384e-02 2.13956198580962e-04
8.32551724137931e+00 1.92538299753853e-02 2.13111596721420e-04
8.35862068965517e+00 1.91396595109186e-02 2.12268650900600e-04
8.39172413793104e+00 1.90261660492674e-02 2.11427381144032e-04
8.42482758620690e+00 1.89133455758367e-02 2.10587807045815e-04
8.45793103448276e+00 1.88011940999729e-02 2.09749947648758e-04
8.49103448275862e+00 1.86897076546855e-02 2.08913821641090e-04
8.52413793103448e+00 1.85788822965076e-02 2.08079447299159e-04
8.55724137931034e+00 1.84687141053563e-02 2.07246842434599e-04
8.59034482758621e+00 1.83591991845202e-02 2.06416024579064e-04
8.62344827586207e+00 1.82503336601399e-02 2.05587010871010e-04
8.65655172413793e+00 1.81421136814551e-02 2.04759817941091e-04
8.68965517241379e+00 1.80345354205392e-02 2.03934462099430e-04
8.72275862068966e+00 1.79275950721645e-02 2.03110959223825e-04
8.75586206896552e+00 1.78212888537879e-02 2.02289324937093e-04
8.78896551724138e+00 1.77156130050537e-02 2.01469574498045e-04
8.82206896551724e+00 1.76105637880257e-02 2.00651722691114e-04
8.85517241379310e+00 1.75061374869327e-02 1.99835784006186e-04
8.88827586206897e+00 1.74023304080371e-02 1.99021772585617e-04
8.92137931034483e+00 1.72991388795044e-02 1.98209702175159e-04
8.95448275862069e+00 1.71965592513869e-02 1.97399586292975e-04
8.98758620689655e+00 1.70945878951516e-02 1.96591438125362e-04
9.02068965517241e+00 1.69932212038966e-02 1.95785270421199e-04
9.05379310344828e+00 1.68924555921079e-02 1.94981095663286e-04
9.08689655172414e+00 1.67922874955328e-02 1.94178926017510e-04
9.12000000000000e+00 1.66927133710538e-02 1.93378773285887e-04
9.15310344827586e+00 1.65937296966708e-02 1.92580649067605e-04
9.18620689655172e+00 1.64953329710520e-02 1.91784564659256e-04
9.21931034482759e+00 1.63975197137365e-02 1.90990530953882e-04
9.25241379310345e+00 1.63002864649013e-02 1.90198558604315e-04
9.28551724137931e+00 1.62036297852394e-02 1.89408657974429e-04
9.31862068965517e+00 1.61075462558382e-02 1.88620839094115e-04
9.35172413793103e+00 1.60120324781598e-02 1.87835111812877e-04
9.38482758620690e+00 1.59170850736150e-02 1.87051485704317e-04
9.41793103448276e+00 1.58227006837509e-02 1.86269969969587e-04
9.45103448275862e+00 1.57288759700296e-02 1.85490573593108e-04
9.48413793103448e+00 1.56356076137099e-02 1.84713305295909e-04
9.51724137931035e+00 1.55428923157298e-02 1.83938173492444e-04
9.55034482758621e+00 1.54507267966862e-02 1.83165186437004e-04
9.58344827586207e+00 1.53591077964289e-02 1.82394352132423e-04
9.61655172413793e+00 1.52680320742367e-02 1.81625678237661e-04
9.64965517241379e+00 1.51774964086047e-02 1.80859172216348e-04
9.68275862068966e+00 1.50874975971310e-02 1.80094841246585e-04
9.71586206896552e+00 1.49980324564947e-02 1.79332692361730e-04
9.74896551724138e+00 1.49090978220673e-02 1.78572732362379e-04
9.78206896551724e+00 1.48206905480780e-02 1.77814967727388e-04
9.81517241379310e+00 1.47328075074097e-02 1.77059404756689e-04
9.84827586206897e+00 1.46454455914885e-02 1.76306049528071e-04
9.88137931034483e+00 1.45586017101731e-02 1.75554907857159e-04
9.91448275862069e+00 1.44722727917331e-02 1.74805985431779e-04
9.94758620689655e+00 1.43864557824786e-02 1.74059287727758e-04
9.98068965517241e+00 1.43011476469144e-02 1.73314819923738e-04
1.00137931034483e+01 1.42163453675455e-02 1.72572586911295e-04
1.00468965517241e+01 1.41320459450192e-02 1.71832593842793e-04
1.00800000000000e+01 1.40482463968535e-02 1.71094845042776e-04
1.01131034482759e+01 1.39649437597435e-02 1.70359345006878e-04
1.01462068965517e+01 1.38821350863103e-02 1.69626097973630e-04
1.01793103448276e+01 1.37998174482831e-02 1.68895107969243e-04
1.02124137931034e+01 1.37179879331389e-02 1.68166378855108e-04
1.02455172413793e+01 1.36366436472265e-02 1.67439914286467e-04
1.02786206896552e+01 1.35557817124669e-02 1.66715717759225e-04
1.03117241379310e+01 1.34753992694194e-02 1.65993792569233e-04
1.03448275862069e+01 1.33954934740411e-02 1.65274141858280e-04
1.03779310344828e+01 1.33160615006977e-02 1.64556768573957e-04
1.04110344827586e+01 1.32371005389798e-02 1.63841675514979e-04
1.04441379310345e+01 1.31586077966598e-02 1.63128865291593e-04
