Energy (eV)          EEDF (eV^-(3/2))     First Anisotropy
2.38709677419355e-04 1.26051421212294e+02 5.34877699033805e-02
7.16129032258065e-04 1.24658059715067e+02 8.81316319890223e-02
1.19354838709677e-03 1.23280100315166e+02 1.15836527288929e-01
1.67096774193548e-03 1.21917372760838e+02 1.36578018580714e-01
2.14838709677419e-03 1.20569708677320e+02 1.53625187383924e-01
2.62580645161290e-03 1.19236941556934e+02 1.68221809392152e-01
3.10322580645161e-03 1.17918906727899e+02 1.81015386139589e-01
3.58064516129032e-03 1.16615441342495e+02 1.92399199694522e-01
4.05806451612903e-03 1.15326384349881e+02 2.02635574016450e-01
4.53548387096774e-03 1.14051576482235e+02 2.11910961264177e-01
5.01290322580645e-03 1.12790860229823e+02 2.20364152445723e-01
5.49032258064516e-03 1.11544079826182e+02 2.28102164446919e-01
5.96774193548387e-03 1.10311081224720e+02 2.35209839965333e-01
6.44516129032258e-03 1.09091712083440e+02 2.41755973902692e-01
6.92258064516129e-03 1.07885821742695e+02 2.47797397291059e-01
7.40000000000000e-03 1.06693261209706e+02 2.53381798899091e-01
7.87741935483871e-03 1.05513883137274e+02 2.58549733721436e-01
8.35483870967742e-03 1.04347541808236e+02 2.63336089494394e-01
8.83225806451613e-03 1.03194093114987e+02 2.67771181035895e-01
9.30967741935484e-03 1.02053394543986e+02 2.71881582592474e-01
9.78709677419355e-03 1.00925305155981e+02 2.75690771433133e-01
1.02645161290323e-02 9.98096855683501e+01 2.79219633365876e-01
1.07419354838710e-02 9.87063979455250e+01 2.82486864095557e-01
1.12193548387097e-02 9.76153059667298e+01 2.85509292814686e-01
1.16967741935484e-02 9.65362748263627e+01 2.88302145272620e-01
1.21741935483871e-02 9.54691712011594e+01 2.90879259703307e-01
1.26516129032258e-02 9.44138632489468e+01 2.93253265979729e-01
1.31290322580645e-02 9.33702205779905e+01 2.95435735097998e-01
1.36064516129032e-02 9.23381142444584e+01 2.97437305180515e-01
1.40838709677419e-02 9.13174167236343e+01 2.99267788110407e-01
1.45612903225806e-02 9.03080019063564e+01 3.00936260637853e-01
1.50387096774194e-02 8.93097450718475e+01 3.02451142319185e-01
1.55161290322581e-02 8.83225228807783e+01 3.03820263371776e-01
1.59935483870968e-02 8.73462133597541e+01 3.05050922498508e-01
1.64709677419355e-02 8.63806958785630e+01 3.06149938206444e-01
1.69483870967742e-02 8.54258511453010e+01 3.07123693345939e-01
1.74258064516129e-02 8.44815611820511e+01 3.07978174266401e-01
1.79032258064516e-02 8.35477093194705e+01 3.08719005466721e-01
1.83806451612903e-02 8.26241801736018e+01 3.09351480215240e-01
1.88580645161290e-02 8.17108596400247e+01 3.09880587852206e-01
1.93354838709677e-02 8.08076348716929e+01 3.10311038079580e-01
1.98129032258064e-02 7.99143942727336e+01 3.10647282766336e-01
2.02903225806452e-02 7.90310274772182e+01 3.10893535387755e-01
2.07677419354839e-02 7.81574253410072e+01 3.11053788960598e-01
2.12451612903226e-02 7.72934799281020e+01 3.11131831459509e-01
2.17225806451613e-02 7.64390844922704e+01 3.11131260500312e-01
2.22000000000000e-02 7.55941334704708e+01 3.11055496337470e-01
2.26774193548387e-02 7.47585224634363e+01 3.10907793716653e-01
2.31548387096774e-02 7.39321482289210e+01 3.10691252721118e-01
2.36322580645161e-02 7.31149086630147e+01 3.10408828644987e-01
2.41096774193548e-02 7.23067027932510e+01 3.10063341067934e-01
2.45870967741935e-02 7.15074307606036e+01 3.09657482084007e-01
2.50645161290323e-02 7.07169938112304e+01 3.09193824210938e-01
2.55419354838710e-02 6.99352942841589e+01 3.08674827034009e-01
2.60193548387097e-02 6.91622355954389e+01 3.08102843945901e-01
2.64967741935484e-02 6.83977222311847e+01 3.07480128090486e-01
2.69741935483871e-02 6.76416597309570e+01 3.06808837901903e-01
2.74516129032258e-02 6.68939546807560e+01 3.06091042260914e-01
2.79290322580645e-02 6.61545146969618e+01 3.05328725262667e-01
2.84064516129032e-02 6.54232484192977e+01 3.04523790668049e-01
2.88838709677419e-02 6.47000654952982e+01 3.03678066031615e-01
2.93612903225806e-02 6.39848765732616e+01 3.02793306565935e-01
2.98387096774194e-02 6.32775932872168e+01 3.01871198682800e-01
3.03161290322581e-02 6.25781282489608e+01 3.00913363572716e-01
3.07935483870968e-02 6.18863950371870e+01 2.99921360042461e-01
3.12709677419355e-02 6.12023081840491e+01 2.98896687670325e-01
3.17483870967742e-02 6.05257831682357e+01 2.97840789528549e-01
3.22258064516129e-02 5.98567364009972e+01 2.96755054778993e-01
3.27032258064516e-02 5.91950852192477e+01 2.95640821122201e-01
3.31806451612903e-02 5.85407478720178e+01 2.94499377094184e-01
3.36580645161290e-02 5.78936435135957e+01 2.93331964237310e-01
3.41354838709677e-02 5.72536921903851e+01 2.92139779140855e-01
3.46129032258065e-02 5.66208148340942e+01 2.90923975372713e-01
3.50903225806452e-02 5.59949332489811e+01 2.89685665256388e-01
3.55677419354839e-02 5.53759701044064e+01 2.88425921765948e-01
3.60451612903226e-02 5.47638489252245e+01 2.87145779901972e-01
3.65225806451613e-02 5.41584940802601e+01 2.85846238403277e-01
3.70000000000000e-02 5.35598307757018e+01 2.84528261170146e-01
3.74774193548387e-02 5.29677850431941e+01 2.83192778651487e-01
3.79548387096774e-02 5.23822837332961e+01 2.81840689163987e-01
3.84322580645161e-02 5.18032545039124e+01 2.80472860143450e-01
3.89096774193548e-02 5.12306258138217e+01 2.79090129335906e-01
3.93870967741935e-02 5.06643269114327e+01 2.77693305892990e-01
3.98645161290323e-02 5.01042878278280e+01 2.76283171596281e-01
4.03419354838710e-02 4.95504393680752e+01 2.74860481666701e-01
4.08193548387097e-02 4.90027131010026e+01 2.73425965887756e-01
4.12967741935484e-02 4.84610413529581e+01 2.71980329503335e-01
4.17741935483871e-02 4.79253571972873e+01 2.70524254109134e-01
4.22516129032258e-02 4.73955944481729e+01 2.69058398503262e-01
4.27290322580645e-02 4.68716876503990e+01 2.67583399499911e-01
4.32064516129032e-02 4.63535720732729e+01 2.66099872705989e-01
4.36838709677419e-02 4.58411837006661e+01 2.64608413265430e-01
4.41612903225806e-02 4.53344592250194e+01 2.63109596569878e-01
4.46387096774194e-02 4.48333360376514e+01 2.61603978910379e-01
4.51161290322581e-02 4.43377522224120e+01 2.60092098250603e-01
4.55935483870968e-02 4.38476465480003e+01 2.58574474671772e-01
4.60709677419355e-02 4.33629584590911e+01 2.57051611092815e-01
4.65483870967742e-02 4.28836280705824e+01 2.55523993814856e-01
4.70258064516129e-02 4.24095961585065e+01 2.53992093074829e-01
4.75032258064516e-02 4.19408041543641e+01 2.52456363574273e-01
4.79806451612903e-02 4.14771941362733e+01 2.50917244990121e-01
4.84580645161290e-02 4.10187088233919e+01 2.49375162462577e-01
4.89354838709677e-02 4.05652915672963e+01 2.47830527067224e-01
4.94129032258065e-02 4.01168863464917e+01 2.46283736265847e-01
4.98903225806452e-02 3.96734377580143e+01 2.44735174317851e-01
5.03677419354839e-02 3.92348910116841e+01 2.43185212799473e-01
5.08451612903226e-02 3.88011919233097e+01 2.41634210856121e-01
5.13225806451613e-02 3.83722869069585e+01 2.40082515691992e-01
5.18000000000000e-02 3.79481229697058e+01 2.38530462917789e-01
5.22774193548387e-02 3.75286477037473e+01 2.36978376913312e-01
5.27548387096774e-02 3.71138092812347e+01 2.35426571173318e-01
5.32322580645161e-02 3.67035564465893e+01 2.33875348644805e-01
5.37096774193548e-02 3.62978385114246e+01 2.32325002048566e-01
5.41870967741935e-02 3.58966053470548e+01 2.30775814171064e-01
5.46645161290323e-02 3.54998073792155e+01 2.29228058252623e-01
5.51419354838710e-02 3.51073955819180e+01 2.27681998147071e-01
5.56193548387097e-02 3.47193214705279e+01 2.26137888690960e-01
5.60967741935484e-02 3.43355370969186e+01 2.24595975951495e-01
5.65741935483871e-02 3.39559950424269e+01 2.23056497490890e-01
5.70516129032258e-02 3.35806484130911e+01 2.21519682617835e-01
5.75290322580645e-02 3.32094508327826e+01 2.19985752634699e-01
5.80064516129032e-02 3.28423564385286e+01 2.18454921072468e-01
5.84838709677419e-02 3.24793198738140e+01 2.16927393922130e-01
5.89612903225806e-02 3.21202962839880e+01 2.15403369854373e-01
5.94387096774194e-02 3.17652413097323e+01 2.13883040417541e-01
5.99161290322581e-02 3.14141110823166e+01 2.12366590318447e-01
6.03935483870968e-02 3.10668622181630e+01 2.10854197512733e-01
6.08709677419355e-02 3.07234518127880e+01 2.09346033474342e-01
6.13483870967742e-02 3.03838374364251e+01 2.07842263363972e-01
6.18258064516129e-02 3.00479771278774e+01 2.06343046214000e-01
6.23032258064516e-02 2.97158293902200e+01 2.04848535103417e-01
6.27806451612903e-02 2.93873531848036e+01 2.03358877331577e-01
6.32580645161290e-02 2.90625079270357e+01 2.01874214582436e-01
6.37354838709677e-02 2.87412534805317e+01 2.00394683087927e-01
6.42129032258064e-02 2.84235501529737e+01 1.98920413782220e-01
6.46903225806452e-02 2.81093586904046e+01 1.97451532439506e-01
6.51677419354839e-02 2.77986402729749e+01 1.95988159882793e-01
6.56451612903226e-02 2.74913565101342e+01 1.94530412032723e-01
6.61225806451613e-02 2.71874694353213e+01 1.93078400109512e-01
6.66000000000000e-02 2.68869415020234e+01 1.91632230749932e-01
6.70774193548387e-02 2.65897355784012e+01 1.90192006139817e-01
6.75548387096774e-02 2.62958149434231e+01 1.88757824138570e-01
6.80322580645161e-02 2.60051432816199e+01 1.87329778404171e-01
6.85096774193548e-02 2.57176846792924e+01 1.85907958510467e-01
6.89870967741935e-02 2.54334036193931e+01 1.84492450051061e-01
6.94645161290323e-02 2.51522649776448e+01 1.83083334805932e-01
6.99419354838710e-02 2.48742340181907e+01 1.81680690768405e-01
7.04193548387097e-02 2.45992763888209e+01 1.80284592307191e-01
7.08967741935484e-02 2.43273581173661e+01 1.78895110254191e-01
7.13741935483871e-02 2.40584456068741e+01 1.77512312006815e-01
7.18516129032258e-02 2.37925056320729e+01 1.76136261623473e-01
7.23290322580645e-02 2.35295053346631e+01 1.74767019920308e-01
7.28064516129032e-02 2.32694122198494e+01 1.73404644561351e-01
7.32838709677419e-02 2.30121941517452e+01 1.72049190150016e-01
7.37612903225806e-02 2.27578193499719e+01 1.70700708314253e-01
7.42387096774194e-02 2.25062563851729e+01 1.69359247781119e-01
7.47161290322581e-02 2.22574741755473e+01 1.68024854505073e-01
7.51935483870968e-02 2.20114419830008e+01 1.66697571677852e-01
7.56709677419355e-02 2.17681294089519e+01 1.65377439853989e-01
7.61483870967742e-02 2.15275063911011e+01 1.64064497013295e-01
7.66258064516129e-02 2.12895431992011e+01 1.62758778636439e-01
7.71032258064516e-02 2.10542104318894e+01 1.61460317774805e-01
7.75806451612903e-02 2.08214790125588e+01 1.60169145122096e-01
7.80580645161290e-02 2.05913201862529e+01 1.58885289080427e-01
7.85354838709677e-02 2.03637055156340e+01 1.57608775828200e-01
7.90129032258065e-02 2.01386068779399e+01 1.56339629382612e-01
7.94903225806452e-02 1.99159964610477e+01 1.55077871653775e-01
7.99677419354839e-02 1.96958467603814e+01 1.53823522544821e-01
8.04451612903226e-02 1.94781305755062e+01 1.52576599951196e-01
8.09225806451613e-02 1.92628210064415e+01 1.51337119859206e-01
8.14000000000000e-02 1.90498914507700e+01 1.50105096390740e-01
8.18774193548387e-02 1.88393155999257e+01 1.48880541859691e-01
8.23548387096774e-02 1.86310674363611e+01 1.47663466823566e-01
8.28322580645161e-02 1.84251212299221e+01 1.46453880137021e-01
8.33096774193548e-02 1.82214515350722e+01 1.45251789000739e-01
8.37870967741935e-02 1.80200331873525e+01 1.44057199003216e-01
8.42645161290323e-02 1.78208413005679e+01 1.42870114203187e-01
8.47419354838710e-02 1.76238512637060e+01 1.41690537123375e-01
8.52193548387097e-02 1.74290387376156e+01 1.40518468831961e-01
8.56967741935484e-02 1.72363796523720e+01 1.39353908976677e-01
8.61741935483871e-02 1.70458502039370e+01 1.38196855829486e-01
8.66516129032258e-02 1.68574268515773e+01 1.37047306327031e-01
8.71290322580645e-02 1.66710863146029e+01 1.35905256113095e-01
8.76064516129032e-02 1.64868055698375e+01 1.34770699576927e-01
8.80838709677419e-02 1.63045618484328e+01 1.33643629893585e-01
8.85612903225806e-02 1.61243326333908e+01 1.32524039060263e-01
8.90387096774194e-02 1.59460956564519e+01 1.31411917926857e-01
8.95161290322581e-02 1.57698288955895e+01 1.30307256261449e-01
8.99935483870968e-02 1.55955105722839e+01 1.29210042739868e-01
9.04709677419355e-02 1.54231191485979e+01 1.28120265010741e-01
9.09483870967742e-02 1.52526333248255e+01 1.27037909719890e-01
9.14258064516129e-02 1.50840320365557e+01 1.25962962544107e-01
9.19032258064516e-02 1.49172944523693e+01 1.24895408221294e-01
9.23806451612903e-02 1.47523999709706e+01 1.23835230582557e-01
9.28580645161290e-02 1.45893282189316e+01 1.22782412580769e-01
9.33354838709677e-02 1.44280590478902e+01 1.21736936321105e-01
9.38129032258064e-02 1.42685725323402e+01 1.20698783088108e-01
9.42903225806452e-02 1.41108489668950e+01 1.19667933368050e-01
9.47677419354839e-02 1.39548688640574e+01 1.18644366901286e-01
9.52451612903226e-02 1.38006129518080e+01 1.17628062669535e-01
9.57225806451613e-02 1.36480621710290e+01 1.16618998948140e-01
9.62000000000000e-02 1.34971976734078e+01 1.15617153323417e-01
9.66774193548387e-02 1.33480008188542e+01 1.14622502718272e-01
9.71548387096774e-02 1.32004531734470e+01 1.13635023414653e-01
9.76322580645161e-02 1.30545365069110e+01 1.12654691077884e-01
9.81096774193548e-02 1.29102327906060e+01 1.11681480777961e-01
9.85870967741935e-02 1.27675241950614e+01 1.10715367006785e-01
9.90645161290322e-02 1.26263930879511e+01 1.09756323721984e-01
9.95419354838710e-02 1.24868220319112e+01 1.08804324333190e-01
1.00019354838710e-01 1.23487937822163e+01 1.07859341717419e-01
1.00496774193548e-01 1.22122912846030e+01 1.06921348340453e-01
1.00974193548387e-01 1.20772976739735e+01 1.05990316166203e-01
1.01451612903226e-01 1.19437962712148e+01 1.05066216588477e-01
1.01929032258065e-01 1.18117705810703e+01 1.04149020719462e-01
1.02406451612903e-01 1.16812042916578e+01 1.03238699249835e-01
1.02883870967742e-01 1.15520812708814e+01 1.02335222317610e-01
1.03361290322581e-01 1.14243855644789e+01 1.01438559835312e-01
1.03838709677419e-01 1.12981013955341e+01 1.00548681344826e-01
1.04316129032258e-01 1.11732131610276e+01 9.96655558910206e-02
1.04793548387097e-01 1.10497054299486e+01 9.87891523351664e-02
1.05270967741935e-01 1.09275629428020e+01 9.79194392149838e-02
1.05748387096774e-01 1.08067706082934e+01 9.70563846227721e-02
1.06225806451613e-01 1.06873135015021e+01 9.61999565057070e-02
1.06703225806452e-01 1.05691768633848e+01 9.53501225309930e-02
1.07180645161290e-01 1.04523460975893e+01 9.45068499682621e-02
1.07658064516129e-01 1.03368067686867e+01 9.36701059773576e-02
1.08135483870968e-01 1.02225446016726e+01 9.28398574331378e-02
1.08612903225806e-01 1.01095454784922e+01 9.20160709930454e-02
1.09090322580645e-01 9.99779543798401e+00 9.11987131431537e-02
1.09567741935484e-01 9.88728067289104e+00 9.03877500437631e-02
1.10045161290323e-01 9.77798752818743e+00 8.95831477984286e-02
1.10522580645161e-01 9.66990250058362e+00 8.87848723311686e-02
1.11000000000000e-01 9.56301223565271e+00 8.79928892794401e-02
1.11477419354839e-01 9.45730352621155e+00 8.72071642520292e-02
1.11954838709677e-01 9.35276331182630e+00 8.64276627106273e-02
1.12432258064516e-01 9.24937867604899e+00 8.56543498666841e-02
1.12909677419355e-01 9.14713684485108e+00 8.48871909286473e-02
1.13387096774194e-01 9.04602518613063e+00 8.41261509878318e-02
1.13864516129032e-01 8.94603120705448e+00 8.33711949189336e-02
1.14341935483871e-01 8.84714255254242e+00 8.26222876170946e-02
1.14819354838710e-01 8.74934700477684e+00 8.18793938503144e-02
1.15296774193548e-01 8.65263248031359e+00 8.11424783139701e-02
1.15774193548387e-01 8.55698702994964e+00 8.04115056670441e-02
1.16251612903226e-01 8.46239883622844e+00 7.96864404021544e-02
1.16729032258065e-01 8.36885621200511e+00 7.89672470673650e-02
1.17206451612903e-01 8.27634759996480e+00 7.82538901623561e-02
1.17683870967742e-01 8.18486157022244e+00 7.75463340478490e-02
1.18161290322581e-01 8.09438681893491e+00 7.68445431583509e-02
1.18638709677419e-01 8.00491216782323e+00 7.61484819020165e-02
1.19116129032258e-01 7.91642656186278e+00 7.54581145733729e-02
1.19593548387097e-01 7.82891906794104e+00 7.47734055573896e-02
1.20070967741935e-01 7.74237887438394e+00 7.40943192329383e-02
1.20548387096774e-01 7.65679528873341e+00 7.34208198886407e-02
1.21025806451613e-01 7.57215773644854e+00 7.27528719186418e-02
1.21503225806452e-01 7.48845576043698e+00 7.20904397295907e-02
1.21980645161290e-01 7.40567901891633e+00 7.14334876594582e-02
1.22458064516129e-01 7.32381728415715e+00 7.07819801653787e-02
1.22935483870968e-01 7.24286044201998e+00 7.01358817039064e-02
1.23412903225806e-01 7.16279848963987e+00 6.94951567731554e-02
1.23890322580645e-01 7.08362153524182e+00 6.88597699399986e-02
1.24367741935484e-01 7.00531979613169e+00 6.82296857346883e-02
1.24845161290323e-01 6.92788359750680e+00 6.76048688267495e-02
1.25322580645161e-01 6.85130337200501e+00 6.69852839403178e-02
1.25800000000000e-01 6.77556965777052e+00 6.63708957802993e-02
1.26277419354839e-01 6.70067309730349e+00 6.57616692011667e-02
1.26754838709677e-01 6.62660443701513e+00 6.51575691253223e-02
1.27232258064516e-01 6.55335452536567e+00 6.45585604719193e-02
1.27709677419355e-01 6.48091431175149e+00 6.39646083188646e-02
1.28187096774194e-01 6.40927484606658e+00 6.33756778241372e-02
1.28664516129032e-01 6.33842727691002e+00 6.27917341571272e-02
1.29141935483871e-01 6.26836285050904e+00 6.22127426541475e-02
1.29619354838710e-01 6.19907291028743e+00 6.16386687174978e-02
1.30096774193548e-01 6.13054889493066e+00 6.10694778496927e-02
1.30574193548387e-01 6.06278233818180e+00 6.05051356750434e-02
1.31051612903226e-01 5.99576486715654e+00 5.99456078508649e-02
1.31529032258065e-01 5.92948820132414e+00 5.93908602131732e-02
1.32006451612903e-01 5.86394415208914e+00 5.88408587051182e-02
1.32483870967742e-01 5.79912462116872e+00 5.82955693144894e-02
1.32961290322581e-01 5.73502159960702e+00 5.77549582136021e-02
1.33438709677419e-01 5.67162716736387e+00 5.72189916902627e-02
1.33916129032258e-01 5.60893349175197e+00 5.66876360875402e-02
1.34393548387097e-01 5.54693282648350e+00 5.61608579380817e-02
1.34870967741935e-01 5.48561751126596e+00 5.56386238975493e-02
1.35348387096774e-01 5.42497997029708e+00 5.51209006865369e-02
1.35825806451613e-01 5.36501271134232e+00 5.46076552195423e-02
1.36303225806452e-01 5.30570832533813e+00 5.40988545408188e-02
1.36780645161290e-01 5.24705948494231e+00 5.35944657683362e-02
1.37258064516129e-01 5.18905894364145e+00 5.30944562176423e-02
1.37735483870968e-01 5.13169953536161e+00 5.25987933198644e-02
1.38212903225806e-01 5.07497417290932e+00 5.21074446483545e-02
1.38690322580645e-01 5.01887584776063e+00 5.16203779350101e-02
1.39167741935484e-01 4.96339762869759e+00 5.11375609981689e-02
1.39645161290323e-01 4.90853266096378e+00 5.06589618587175e-02
1.40122580645161e-01 4.85427416588879e+00 5.01845486817121e-02
1.40600000000000e-01 4.80061543957450e+00 4.97142897253999e-02
1.41077419354839e-01 4.74754985207835e+00 4.92481534527431e-02
1.41554838709677e-01 4.69507084704512e+00 4.87861084751087e-02
1.42032258064516e-01 4.64317194044130e+00 4.83281235031197e-02
1.42509677419355e-01 4.59184671976493e+00 4.78741674537807e-02
1.42987096774194e-01 4.54108884368490e+00 4.74242093961923e-02
1.43464516129032e-01 4.49089204082153e+00 4.69782185041338e-02
1.43941935483871e-01 4.44125010898210e+00 4.65361641589774e-02
1.44419354838710e-01 4.39215691480761e+00 4.60980158804923e-02
1.44896774193548e-01 4.34360639246506e+00 4.56637433485959e-02
1.45374193548387e-01 4.29559254344066e+00 4.52333164163568e-02
1.45851612903226e-01 4.24810943539252e+00 4.48067050491595e-02
1.46329032258065e-01 4.20115120142723e+00 4.43838794212260e-02
1.46806451612903e-01 4.15471203976010e+00 4.39648098662268e-02
1.47283870967742e-01 4.10878621260941e+00 4.35494668341139e-02
1.47761290322581e-01 4.06336804549677e+00 4.31378209838573e-02
1.48238709677419e-01 4.01845192691460e+00 4.27298431357975e-02
1.48716129032258e-01 3.97403230726048e+00 4.23255042300371e-02
1.49193548387097e-01 3.93010369816041e+00 4.19247754155429e-02
1.49670967741935e-01 3.88666067214352e+00 4.15276280041927e-02
1.50148387096774e-01 3.84369786161514e+00 4.11340334306439e-02
1.50625806451613e-01 3.80120995820197e+00 4.07439633379511e-02
