################################
# DATA CONSIDERED FOR THE TESTS#
################################

# elastic momentum transfer constant rate coefficient = 1.000000e-12 (m3s-1)
#                                     gas temperature = 300.000000 (K)
#                           mass of the heavy species = 40.000000 (uam)
#               decades of decay ensured for the eedf = 15 
#                 number of cells for the energy grid = 8300 

E/N(Td)              Te_th(eV)            Te_sim(eV)           RelError(Te)         RelError(EEDF)
0.00000000000000e+00 2.58519910116516e-02 2.58514777287087e-02 1.98546774484680e-05 2.28577013890896e-05 
1.00000000000000e+00 3.01268347033801e-02 3.01262371312984e-02 1.98352096245190e-05 2.28126486877518e-05 
2.00000000000000e+00 4.29513657785653e-02 4.29505162193910e-02 1.97795613467290e-05 2.26841013475045e-05 
3.00000000000000e+00 6.43255842372075e-02 6.43243088241557e-02 1.98274616065518e-05 2.27947760028890e-05 
4.00000000000000e+00 9.42494900793065e-02 9.42476149383258e-02 1.98955026609921e-05 2.29523145718992e-05 
5.00000000000000e+00 1.32723083304862e-01 1.32720452209910e-01 1.98239438595274e-05 2.27865961838998e-05 
6.00000000000000e+00 1.79746363913875e-01 1.79742794174639e-01 1.98598689747348e-05 2.28697144958102e-05 
7.00000000000000e+00 2.35319331906345e-01 2.35314658469556e-01 1.98599781441686e-05 2.28699718295508e-05 
8.00000000000000e+00 2.99441987282271e-01 2.99436080337369e-01 1.97265084819977e-05 2.25618821540719e-05 
9.00000000000000e+00 3.72114330041654e-01 3.72106901102683e-01 1.99641302993586e-05 2.31118305175349e-05 
1.00000000000000e+01 4.53336360184494e-01 4.53327323595412e-01 1.99335192936380e-05 2.30406118673919e-05 
1.10000000000000e+01 5.43108077710791e-01 5.43097259581267e-01 1.99189258419434e-05 2.30067040658437e-05 
1.20000000000000e+01 6.41429482620545e-01 6.41416709089837e-01 1.99141621242285e-05 2.29957192281265e-05 
1.30000000000000e+01 7.48300574913756e-01 7.48285760313444e-01 1.97976599355497e-05 2.27258674594289e-05 
1.40000000000000e+01 8.63721354590423e-01 8.63704236848514e-01 1.98185929040430e-05 2.27742151056631e-05 
1.50000000000000e+01 9.87691821650547e-01 9.87672226904708e-01 1.98389268898798e-05 2.28212566547239e-05 
1.60000000000000e+01 1.12021197609413e+00 1.12018973046845e+00 1.98584072959658e-05 2.28663620047564e-05 
1.70000000000000e+01 1.26128181792117e+00 1.26125674751792e+00 1.98769243248861e-05 2.29092553258558e-05 
1.80000000000000e+01 1.41090134713166e+00 1.41087336625788e+00 1.98319137187436e-05 2.28050109646543e-05 
1.90000000000000e+01 1.56907056372561e+00 1.56903941039226e+00 1.98546413870089e-05 2.28576027468712e-05 
2.00000000000000e+01 1.73578946770302e+00 1.73575496800134e+00 1.98755104372053e-05 2.29059660981002e-05 
2.10000000000000e+01 1.91105805906389e+00 1.91102012733930e+00 1.98485464155884e-05 2.28434981579803e-05 
2.20000000000000e+01 2.09487633780821e+00 2.09483471197312e+00 1.98703065847976e-05 2.28939098412579e-05 
2.30000000000000e+01 2.28724430393599e+00 2.28719889833199e+00 1.98516633840858e-05 2.28507269871100e-05 
2.40000000000000e+01 2.48816195744723e+00 2.48811259818117e+00 1.98376419621818e-05 2.28182800112146e-05 
2.50000000000000e+01 2.69762929834192e+00 2.69757572335718e+00 1.98600247894818e-05 2.28700932368601e-05 
2.60000000000000e+01 2.91564632662007e+00 2.91558818545629e+00 1.99410893040355e-05 2.30582078176772e-05 
2.70000000000000e+01 3.14221304228167e+00 3.14215024919051e+00 1.99837154005871e-05 2.31574733913311e-05 
2.80000000000000e+01 3.37732944532674e+00 3.37726209154080e+00 1.99429125966851e-05 2.30624540628280e-05 
2.90000000000000e+01 3.62099553575526e+00 3.62092371197790e+00 1.98353675528476e-05 2.28130026436884e-05 
3.00000000000000e+01 3.87321131356724e+00 3.87313422823280e+00 1.99021763065601e-05 2.29678209634964e-05 
3.10000000000000e+01 4.13397677876267e+00 4.13389452272613e+00 1.98975565034646e-05 2.29570714404362e-05 
3.20000000000000e+01 4.40329193134156e+00 4.40320459530652e+00 1.98342595501470e-05 2.28104637942555e-05 
3.30000000000000e+01 4.68115677130391e+00 4.68106356387549e+00 1.99111956665028e-05 2.29887624448828e-05 
3.40000000000000e+01 4.96757129864971e+00 4.96747231060345e+00 1.99268496236515e-05 2.30251169990998e-05 
3.50000000000000e+01 5.26253551337897e+00 5.26243083562307e+00 1.98911257963100e-05 2.29421802687537e-05 
3.60000000000000e+01 5.56604941549169e+00 5.56593913863010e+00 1.98124115259480e-05 2.27599153776667e-05 
3.70000000000000e+01 5.87811300498787e+00 5.87799633790099e+00 1.98477107836535e-05 2.28415760725659e-05 
3.80000000000000e+01 6.19872628186750e+00 6.19860331518169e+00 1.98374117872412e-05 2.28177380452263e-05 
3.90000000000000e+01 6.52788924613059e+00 6.52776007016930e+00 1.97883199940997e-05 2.27042870894880e-05 
4.00000000000000e+01 6.86560189777713e+00 6.86546572198680e+00 1.98345013825880e-05 2.28110194444072e-05 
4.10000000000000e+01 7.21186423680714e+00 7.21172115157827e+00 1.98402554692730e-05 2.28243183771400e-05 
4.20000000000000e+01 7.56667626322060e+00 7.56652635920304e+00 1.98110785161844e-05 2.27568608249004e-05 
4.30000000000000e+01 7.93003797701751e+00 7.92988046314389e+00 1.98629406416329e-05 2.28768350952345e-05 
4.40000000000000e+01 8.30194937819788e+00 8.30178434501881e+00 1.98788467087253e-05 2.29137089865541e-05 
4.50000000000000e+01 8.68241046676172e+00 8.68223800505175e+00 1.98633444743494e-05 2.28777765952624e-05 
4.60000000000000e+01 9.07142124270900e+00 9.07124144314917e+00 1.98204399311134e-05 2.27784915496645e-05 
4.70000000000000e+01 9.46898170603975e+00 9.46879377753863e+00 1.98467487791986e-05 2.28393643507438e-05 
4.80000000000000e+01 9.87509185675395e+00 9.87489588990566e+00 1.98445595371814e-05 2.28342917090250e-05 
4.90000000000000e+01 1.02897516948516e+01 1.02895477803433e+01 1.98172428595208e-05 2.27711146007060e-05 
5.00000000000000e+01 1.07129612203327e+01 1.07127485670015e+01 1.98500981047622e-05 2.28471206134960e-05 
