Energy (eV)          EEDF (eV^-(3/2))     First Anisotropy
1.12916666666667e-02 5.69935699401146e-01 4.31844649314148e-04
3.38750000000000e-02 5.61791333748589e-01 7.10391379137460e-04
5.64583333333333e-02 5.53763350843677e-01 9.30653376929419e-04
7.90416666666667e-02 5.45850087605993e-01 1.09370398438111e-03
1.01625000000000e-01 5.38049904687365e-01 1.22619056665283e-03
1.24208333333333e-01 5.30361186142188e-01 1.33830285113367e-03
1.46791666666667e-01 5.22782339202285e-01 1.43537094856414e-03
1.69375000000000e-01 5.15311793793147e-01 1.52064724898509e-03
1.91958333333333e-01 5.07948002246367e-01 1.59631086205253e-03
2.14541666666667e-01 5.00689439095372e-01 1.66391737663225e-03
2.37125000000000e-01 4.93534600624187e-01 1.72462962313611e-03
2.59708333333333e-01 4.86482004580836e-01 1.77934785331044e-03
2.82291666666667e-01 4.79530189953248e-01 1.82878856204097e-03
3.04875000000000e-01 4.72677716574991e-01 1.87353488163941e-03
3.27458333333333e-01 4.65923164840590e-01 1.91407022538453e-03
3.50041666666667e-01 4.59265135474301e-01 1.95080158691184e-03
3.72625000000000e-01 4.52702249172405e-01 1.98407615743962e-03
3.95208333333333e-01 4.46233146326060e-01 2.01419347061529e-03
4.17791666666667e-01 4.39856486789360e-01 2.04141449377490e-03
4.40375000000000e-01 4.33570949548773e-01 2.06596855620007e-03
4.62958333333333e-01 4.27375232455346e-01 2.08805870788114e-03
4.85541666666667e-01 4.21268051995484e-01 2.10786594351625e-03
5.08125000000000e-01 4.15248142982274e-01 2.12555256891809e-03
5.30708333333333e-01 4.09314258297641e-01 2.14126490695741e-03
5.53291666666667e-01 4.03465168667771e-01 2.15513551195097e-03
5.75875000000000e-01 3.97699662373018e-01 2.16728499255187e-03
5.98458333333333e-01 3.92016545000094e-01 2.17782351760480e-03
6.21041666666667e-01 3.86414639223262e-01 2.18685208482533e-03
6.43625000000000e-01 3.80892784530543e-01 2.19446359115364e-03
6.66208333333333e-01 3.75449836985808e-01 2.20074373464591e-03
6.88791666666667e-01 3.70084669016377e-01 2.20577179266572e-03
7.11375000000000e-01 3.64796169153856e-01 2.20962129121591e-03
7.33958333333333e-01 3.59583241805876e-01 2.21236057707477e-03
7.56541666666667e-01 3.54444807050465e-01 2.21405332169540e-03
7.79125000000000e-01 3.49379800390197e-01 2.21475896141244e-03
8.01708333333333e-01 3.44387172533285e-01 2.21453307755853e-03
8.24291666666667e-01 3.39465889194898e-01 2.21342773745419e-03
8.46875000000000e-01 3.34614930863556e-01 2.21149179613746e-03
8.69458333333333e-01 3.29833292591264e-01 2.20877115866606e-03
8.92041666666667e-01 3.25119983801815e-01 2.20530901946054e-03
9.14625000000000e-01 3.20474028068548e-01 2.20114607637323e-03
9.37208333333333e-01 3.15894462913194e-01 2.19632071750765e-03
9.59791666666667e-01 3.11380339621122e-01 2.19086919447351e-03
9.82375000000000e-01 3.06930723029710e-01 2.18482577876133e-03
1.00495833333333e+00 3.02544691335564e-01 2.17822289840565e-03
1.02754166666667e+00 2.98221335916618e-01 2.17109126528656e-03
1.05012500000000e+00 2.93959761142282e-01 2.16345999956729e-03
1.07270833333333e+00 2.89759084129452e-01 2.15535671878054e-03
1.09529166666667e+00 2.85618434690093e-01 2.14680764158927e-03
1.11787500000000e+00 2.81536955030544e-01 2.13783769193652e-03
1.14045833333333e+00 2.77513799580836e-01 2.12847055116304e-03
1.16304166666667e+00 2.73548134924969e-01 2.11872874698089e-03
1.18562500000000e+00 2.69639139519966e-01 2.10863373534093e-03
1.20820833333333e+00 2.65786003531782e-01 2.09820593694076e-03
1.23079166666667e+00 2.61987928762807e-01 2.08746480923711e-03
1.25337500000000e+00 2.58244128388765e-01 2.07642891301886e-03
1.27595833333333e+00 2.54553826801041e-01 2.06511593774532e-03
1.29854166666667e+00 2.50916259532367e-01 2.05354276079242e-03
1.32112500000000e+00 2.47330673009924e-01 2.04172550244648e-03
1.34370833333333e+00 2.43796324403924e-01 2.02967954314264e-03
1.36629166666667e+00 2.40312481552219e-01 2.01741957291384e-03
1.38887500000000e+00 2.36878422728223e-01 2.00495963745256e-03
1.41145833333333e+00 2.33493436495537e-01 1.99231314941211e-03
1.43404166666667e+00 2.30156821632110e-01 1.97949293020459e-03
1.45662500000000e+00 2.26867886911746e-01 1.96651124905470e-03
1.47920833333333e+00 2.23625950964581e-01 1.95337982991317e-03
1.50179166666667e+00 2.20430342201288e-01 1.94010988718428e-03
1.52437500000000e+00 2.17280398607099e-01 1.92671215919690e-03
1.54695833333333e+00 2.14175467607930e-01 1.91319691185611e-03
1.56954166666667e+00 2.11114905995032e-01 1.89957396948457e-03
1.59212500000000e+00 2.08098079730571e-01 1.88585274378340e-03
1.61470833333333e+00 2.05124363819214e-01 1.87204223505094e-03
1.63729166666667e+00 2.02193142233535e-01 1.85815105903959e-03
1.65987500000000e+00 1.99303807730319e-01 1.84418747222668e-03
1.68245833333333e+00 1.96455761727400e-01 1.83015937121760e-03
1.70504166666667e+00 1.93648414230084e-01 1.81607431631413e-03
1.72762500000000e+00 1.90881183657424e-01 1.80193955373116e-03
1.75020833333333e+00 1.88153496724109e-01 1.78776201364762e-03
1.77279166666667e+00 1.85464788368115e-01 1.77354833103178e-03
1.79537500000000e+00 1.82814501586264e-01 1.75930486530322e-03
1.81795833333333e+00 1.80202087320976e-01 1.74503769738293e-03
1.84054166666667e+00 1.77627004389310e-01 1.73075264820726e-03
1.86312500000000e+00 1.75088719327193e-01 1.71645529623222e-03
1.88570833333333e+00 1.72586706280842e-01 1.70215097375107e-03
1.90829166666667e+00 1.70120446937327e-01 1.68784478344298e-03
1.93087500000000e+00 1.67689430376908e-01 1.67354161403879e-03
1.95345833333333e+00 1.65293152968948e-01 1.65924613611205e-03
1.97604166666667e+00 1.62931118304092e-01 1.64496281694278e-03
1.99862500000000e+00 1.60602837054200e-01 1.63069593460400e-03
2.02120833333333e+00 1.58307826872580e-01 1.61644957338492e-03
2.04379166666667e+00 1.56045612327847e-01 1.60222763719926e-03
2.06637500000000e+00 1.53815724770996e-01 1.58803386230524e-03
2.08895833333333e+00 1.51617702239772e-01 1.57387181248358e-03
2.11154166666667e+00 1.49451089394269e-01 1.55974489117995e-03
2.13412500000000e+00 1.47315437390709e-01 1.54565635303454e-03
2.15670833333333e+00 1.45210303789786e-01 1.53160929890987e-03
2.17929166666667e+00 1.43135252494042e-01 1.51760668692531e-03
2.20187500000000e+00 1.41089853627951e-01 1.50365134294323e-03
2.22445833333333e+00 1.39073683450078e-01 1.48974595552017e-03
2.24704166666667e+00 1.37086324292255e-01 1.47589308596630e-03
2.26962500000000e+00 1.35127364445602e-01 1.46209517791149e-03
2.29220833333333e+00 1.33196398076354e-01 1.44835455223727e-03
2.31479166666667e+00 1.31293025166834e-01 1.43467341627302e-03
2.33737500000000e+00 1.29416851407081e-01 1.42105387254702e-03
2.35995833333333e+00 1.27567488114192e-01 1.40749791374332e-03
2.38254166666667e+00 1.25744552175091e-01 1.39400743113031e-03
2.40512500000000e+00 1.23947665943457e-01 1.38058422258588e-03
2.42770833333333e+00 1.22176457162421e-01 1.36722998761336e-03
2.45029166666667e+00 1.20430558909146e-01 1.35394633508426e-03
2.47287500000000e+00 1.18709609496733e-01 1.34073479061456e-03
2.49545833333333e+00 1.17013252400166e-01 1.32759679166541e-03
2.51804166666667e+00 1.15341136202657e-01 1.31453369467078e-03
2.54062500000000e+00 1.13692914502286e-01 1.30154678183131e-03
2.56320833333333e+00 1.12068245841036e-01 1.28863725631908e-03
2.58579166666667e+00 1.10466793652900e-01 1.27580624885177e-03
2.60837500000000e+00 1.08888226174985e-01 1.26305482396169e-03
2.63095833333333e+00 1.07332216379528e-01 1.25038397531906e-03
2.65354166666667e+00 1.05798441923717e-01 1.23779463180615e-03
2.67612500000000e+00 1.04286585065041e-01 1.22528766331169e-03
2.69870833333333e+00 1.02796332596147e-01 1.21286387618334e-03
2.72129166666667e+00 1.01327375796359e-01 1.20052401884850e-03
2.74387500000000e+00 9.98794103510416e-02 1.18826878717873e-03
2.76645833333333e+00 9.84521362891856e-02 1.17609882007813e-03
2.78904166666667e+00 9.70452579365907e-02 1.16401470469261e-03
2.81162500000000e+00 9.56584838390312e-02 1.15201698138285e-03
2.83420833333333e+00 9.42915267024588e-02 1.14010613945366e-03
2.85679166666667e+00 9.29441033478130e-02 1.12828262198796e-03
2.87937500000000e+00 9.16159346377936e-02 1.11654683046310e-03
2.90195833333333e+00 9.03067454195723e-02 1.10489912062362e-03
2.92454166666667e+00 8.90162644811911e-02 1.09333980697253e-03
2.94712500000000e+00 8.77442244817588e-02 1.08186916706165e-03
2.96970833333333e+00 8.64903618965669e-02 1.07048743750884e-03
2.99229166666667e+00 8.52544169750370e-02 1.05919481817552e-03
3.01487500000000e+00 8.40361336741676e-02 1.04799147615846e-03
3.03745833333333e+00 8.28352596059547e-02 1.03687754195119e-03
3.06004166666667e+00 8.16515459968473e-02 1.02585311333368e-03
3.08262500000000e+00 8.04847476242820e-02 1.01491825909019e-03
3.10520833333333e+00 7.93346227663118e-02 1.00407301531352e-03
3.12779166666667e+00 7.82009331625294e-02 9.93317389030213e-04
3.15037500000000e+00 7.70834439535349e-02 9.82651361666514e-04
3.17295833333333e+00 7.59819236326817e-02 9.72074885493343e-04
3.19554166666667e+00 7.48961440084249e-02 9.61587887008064e-04
3.21812500000000e+00 7.38258801465783e-02 9.51190270168355e-04
3.24070833333333e+00 7.27709103240886e-02 9.40881912975369e-04
3.26329166666667e+00 7.17310159927673e-02 9.30662670630920e-04
3.28587500000000e+00 7.07059817242000e-02 9.20532378557226e-04
3.30845833333333e+00 6.96955951654636e-02 9.10490849115150e-04
3.33104166666667e+00 6.86996470042017e-02 9.00537874554013e-04
3.35362500000000e+00 6.77179309160552e-02 8.90673229833523e-04
3.37620833333333e+00 6.67502435222428e-02 8.80896669473597e-04
3.39879166666667e+00 6.57963843559363e-02 8.71207930312309e-04
3.42137500000000e+00 6.48561558120927e-02 8.61606734144736e-04
3.44395833333333e+00 6.39293631068182e-02 8.52092784700831e-04
3.46654166666667e+00 6.30158142450039e-02 8.42665770225685e-04
3.48912500000000e+00 6.21153199724422e-02 8.33325365948739e-04
3.51170833333333e+00 6.12276937369005e-02 8.24071231185661e-04
3.53429166666667e+00 6.03527516569770e-02 8.14903011753965e-04
3.55687500000000e+00 5.94903124763912e-02 8.05820342284930e-04
3.57945833333333e+00 5.86401975266959e-02 7.96822843445455e-04
3.60204166666667e+00 5.78022306973131e-02 7.87910124200827e-04
3.62462500000000e+00 5.69762383918949e-02 7.79081783980593e-04
3.64720833333333e+00 5.61620494926058e-02 7.70337410016408e-04
3.66979166666667e+00 5.53594953312980e-02 7.61676579462650e-04
3.69237500000000e+00 5.45684096478460e-02 7.53098861426583e-04
3.71495833333333e+00 5.37886285559317e-02 7.44603814418136e-04
3.73754166666667e+00 5.30199905153224e-02 7.36190988338361e-04
3.76012500000000e+00 5.22623362920841e-02 7.27859926383274e-04
3.78270833333333e+00 5.15155089258079e-02 7.19610162601522e-04
3.80529166666667e+00 5.07793537029516e-02 7.11441223759710e-04
3.82787500000000e+00 5.00537181188446e-02 7.03352631128690e-04
3.85045833333333e+00 4.93384518462934e-02 6.95343898145129e-04
3.87304166666667e+00 4.86334067099520e-02 6.87414532162091e-04
3.89562500000000e+00 4.79384366500325e-02 6.79564036125672e-04
3.91820833333333e+00 4.72533976922336e-02 6.71791906336562e-04
3.94079166666667e+00 4.65781479231022e-02 6.64097634093686e-04
3.96337500000000e+00 4.59125474553707e-02 6.56480707268474e-04
3.98595833333333e+00 4.52564583991531e-02 6.48940608162532e-04
4.00854166666667e+00 4.46097448382622e-02 6.41476815051459e-04
4.03112500000000e+00 4.39722727970991e-02 6.34088803663670e-04
4.05370833333333e+00 4.33439102130617e-02 6.26776045130274e-04
4.07629166666667e+00 4.27245269137856e-02 6.19538007435705e-04
4.09887500000000e+00 4.21139945855114e-02 6.12374156807361e-04
4.12145833333333e+00 4.15121867466572e-02 6.05283955754002e-04
4.14404166666667e+00 4.09189787259474e-02 5.98266864429323e-04
4.16662500000000e+00 4.03342476321921e-02 5.91322341938140e-04
4.18920833333333e+00 3.97578723289721e-02 5.84449844459818e-04
4.21179166666667e+00 3.91897334136257e-02 5.77648826530365e-04
4.23437500000000e+00 3.86297131883730e-02 5.70918742270644e-04
4.25695833333333e+00 3.80776956360684e-02 5.64259043591282e-04
4.27954166666667e+00 3.75335664000127e-02 5.57669181398501e-04
4.30212500000000e+00 3.69972127563613e-02 5.51148606749355e-04
4.32470833333333e+00 3.64685235908989e-02 5.44696769134778e-04
4.34729166666667e+00 3.59473893796469e-02 5.38313117613995e-04
4.36987500000000e+00 3.54337021624964e-02 5.31997101901472e-04
4.39245833333333e+00 3.49273555209622e-02 5.25748170724796e-04
4.41504166666667e+00 3.44282445595555e-02 5.19565772892239e-04
4.43762500000000e+00 3.39362658805867e-02 5.13449358315658e-04
4.46020833333333e+00 3.34513175628566e-02 5.07398376440090e-04
4.48279166666667e+00 3.29732991437668e-02 5.01412277248655e-04
4.50537500000000e+00 3.25021115952379e-02 4.95490512225431e-04
4.52795833333333e+00 3.20376573032993e-02 4.89632532853751e-04
4.55054166666667e+00 3.15798400509090e-02 4.83837791562316e-04
4.57312500000000e+00 3.11285649949371e-02 4.78105742631811e-04
4.59570833333333e+00 3.06837386466159e-02 4.72435840758949e-04
4.61829166666667e+00 3.02452688550432e-02 4.66827541947478e-04
4.64087500000000e+00 2.98130647851815e-02 4.61280304362002e-04
4.66345833333333e+00 2.93870368991330e-02 4.55793586954929e-04
4.68604166666667e+00 2.89670969403000e-02 4.50366850305780e-04
4.70862500000000e+00 2.85531579123546e-02 4.44999557425476e-04
4.73120833333333e+00 2.81451340613035e-02 4.39691172443494e-04
4.75379166666667e+00 2.77429408602801e-02 4.34441161398602e-04
4.77637500000000e+00 2.73464949894416e-02 4.29248992996661e-04
4.79895833333333e+00 2.69557143187893e-02 4.24114137355395e-04
4.82154166666667e+00 2.65705178935696e-02 4.19036066749521e-04
4.84412500000000e+00 2.61908259150551e-02 4.14014256324850e-04
4.86670833333333e+00 2.58165597240907e-02 4.09048182898193e-04
4.88929166666667e+00 2.54476417870780e-02 4.04137325659670e-04
4.91187500000000e+00 2.50839956776023e-02 3.99281166845771e-04
4.93445833333333e+00 2.47255460606721e-02 3.94479190591950e-04
4.95704166666667e+00 2.43722186792665e-02 3.89730883594695e-04
4.97962500000000e+00 2.40239403367685e-02 3.85035735745990e-04
5.00220833333333e+00 2.36806388818699e-02 3.80393239036391e-04
5.02479166666667e+00 2.33422431956588e-02 3.75802888179239e-04
5.04737500000000e+00 2.30086831748243e-02 3.71264181208816e-04
5.06995833333333e+00 2.26798897171974e-02 3.66776618431662e-04
5.09254166666667e+00 2.23557947093589e-02 3.62339703015212e-04
5.11512500000000e+00 2.20363310105796e-02 3.57952941551849e-04
5.13770833333333e+00 2.17214324389724e-02 3.53615843056330e-04
5.16029166666667e+00 2.14110337595980e-02 3.49327919520945e-04
5.18287500000000e+00 2.11050706691103e-02 3.45088686447497e-04
5.20545833333333e+00 2.08034797824910e-02 3.40897661888823e-04
5.22804166666667e+00 2.05061986216367e-02 3.36754366972437e-04
5.25062500000000e+00 2.02131656006752e-02 3.32658326402338e-04
5.27320833333333e+00 1.99243200132608e-02 3.28609067542705e-04
5.29579166666667e+00 1.96396020216218e-02 3.24606120911881e-04
5.31837500000000e+00 1.93589526425189e-02 3.20649020655754e-04
5.34095833333333e+00 1.90823137350771e-02 3.16737303671789e-04
5.36354166666667e+00 1.88096279902757e-02 3.12870510075088e-04
5.38612500000000e+00 1.85408389175208e-02 3.09048183645029e-04
5.40870833333333e+00 1.82758908329900e-02 3.05269870987845e-04
5.43129166666667e+00 1.80147288495486e-02 3.01535121976404e-04
5.45387500000000e+00 1.77572988639083e-02 2.97843490171645e-04
5.47645833333333e+00 1.75035475454632e-02 2.94194532021986e-04
5.49904166666667e+00 1.72534223266158e-02 2.90587807278401e-04
5.52162500000000e+00 1.70068713904949e-02 2.87022879392110e-04
5.54420833333333e+00 1.67638436602638e-02 2.83499314749204e-04
5.56679166666667e+00 1.65242887898379e-02 2.80016683062401e-04
5.58937500000000e+00 1.62881571521389e-02 2.76574557746403e-04
5.61195833333333e+00 1.60553998288539e-02 2.73172515186186e-04
5.63454166666667e+00 1.58259686015302e-02 2.69810135106777e-04
5.65712500000000e+00 1.55998159403412e-02 2.66487000927567e-04
5.67970833333333e+00 1.53768949942776e-02 2.63202699062780e-04
5.70229166666667e+00 1.51571595826048e-02 2.59956819270557e-04
5.72487500000000e+00 1.49405641841175e-02 2.56748954987397e-04
5.74745833333333e+00 1.47270639277451e-02 2.53578702659404e-04
5.77004166666667e+00 1.45166145843569e-02 2.50445662071869e-04
5.79262500000000e+00 1.43091725564842e-02 2.47349436665007e-04
5.81520833333333e+00 1.41046948693221e-02 2.44289632894582e-04
5.83779166666667e+00 1.39031391628688e-02 2.41265860543106e-04
5.86037500000000e+00 1.37044636820946e-02 2.38277733017957e-04
5.88295833333333e+00 1.35086272683234e-02 2.35324866740107e-04
5.90554166666667e+00 1.33155893516930e-02 2.32406881437963e-04
5.92812500000000e+00 1.31253099417507e-02 2.29523400428854e-04
5.95070833333333e+00 1.29377496191991e-02 2.26674050034638e-04
5.97329166666667e+00 1.27528695286637e-02 2.23858459859182e-04
5.99587500000000e+00 1.25706313696977e-02 2.21076263054160e-04
6.01845833333333e+00 1.23909973888754e-02 2.18327095760350e-04
6.04104166666667e+00 1.22139303728559e-02 2.15610597369689e-04
6.06362500000000e+00 1.20393936397780e-02 2.12926410776282e-04
6.08620833333333e+00 1.18673510316875e-02 2.10274181842214e-04
6.10879166666667e+00 1.16977669078847e-02 2.07653559645075e-04
6.13137500000000e+00 1.15306061366919e-02 2.05064196715022e-04
6.15395833333333e+00 1.13658340882015e-02 2.02505748524036e-04
6.17654166666667e+00 1.12034166278946e-02 1.99977873719729e-04
6.19912500000000e+00 1.10433201087666e-02 1.97480234349245e-04
6.22170833333333e+00 1.08855113643801e-02 1.95012495370932e-04
6.24429166666667e+00 1.07299577027461e-02 1.92574324875191e-04
6.26687500000000e+00 1.05766268987900e-02 1.90165394295959e-04
6.28945833333333e+00 1.04254871876982e-02 1.87785377943825e-04
6.31204166666667e+00 1.02765072590500e-02 1.85433953214637e-04
6.33462500000000e+00 1.01296562496098e-02 1.83110800789268e-04
6.35720833333333e+00 9.98490373695456e-03 1.80815604187222e-04
6.37979166666667e+00 9.84221973384667e-03 1.78548049963697e-04
6.40237500000000e+00 9.70157468133785e-03 1.76307827898309e-04
6.42495833333333e+00 9.56293944266603e-03 1.74094630568246e-04
6.44754166666667e+00 9.42628529785861e-03 1.71908153534467e-04
6.47012500000000e+00 9.29158393713526e-03 1.69748095519972e-04
6.49270833333333e+00 9.15880745506220e-03 1.67614158001664e-04
6.51529166666667e+00 9.02792834537723e-03 1.65506045386275e-04
6.53787500000000e+00 8.89891949467781e-03 1.63423465178787e-04
6.56045833333333e+00 8.77175417682213e-03 1.61366127592175e-04
6.58304166666667e+00 8.64640604796685e-03 1.59333745713629e-04
6.60562500000000e+00 8.52284914052800e-03 1.57326035663667e-04
6.62820833333333e+00 8.40105785781847e-03 1.55342716222972e-04
6.65079166666667e+00 8.28100696928981e-03 1.53383508989454e-04
6.67337500000000e+00 8.16267160475407e-03 1.51448138528579e-04
6.69595833333333e+00 8.04602724924773e-03 1.49536332016548e-04
6.71854166666667e+00 7.93104973846925e-03 1.47647819388706e-04
6.74112500000000e+00 7.81771525325049e-03 1.45782333481576e-04
6.76370833333333e+00 7.70600031463751e-03 1.43939609691651e-04
6.78629166666667e+00 7.59588177951596e-03 1.42119386115640e-04
6.80887500000000e+00 7.48733683532119e-03 1.40321403684672e-04
6.83145833333333e+00 7.38034299532672e-03 1.38545405838005e-04
6.85404166666667e+00 7.27487809444990e-03 1.36791138655562e-04
6.87662500000000e+00 7.17092028419026e-03 1.35058350984735e-04
6.89920833333333e+00 7.06844802811695e-03 1.33346794128370e-04
6.92179166666667e+00 6.96744009784727e-03 1.31656221970016e-04
6.94437500000000e+00 6.86787556820335e-03 1.29986391093737e-04
6.96695833333333e+00 6.76973381289017e-03 1.28337060485737e-04
6.98954166666667e+00 6.67299450063991e-03 1.26707991652719e-04
7.01212500000000e+00 6.57763759057749e-03 1.25098948735114e-04
7.03470833333333e+00 6.48364332808109e-03 1.23509698221735e-04
7.05729166666667e+00 6.39099224108557e-03 1.21940009061638e-04
7.07987500000000e+00 6.29966513564782e-03 1.20389652771109e-04
7.10245833333333e+00 6.20964309198200e-03 1.18858403160788e-04
7.12504166666667e+00 6.12090746091566e-03 1.17346036441381e-04
