Energy (eV)          EEDF (eV^-(3/2))     First Anisotropy
2.08333333333333e-01 1.54450850451746e-01 3.16643601275223e-04
6.25000000000000e-01 1.37645158566379e-01 4.96089854451588e-04
1.04166666666667e+00 1.22668082596276e-01 5.87586869532044e-04
1.45833333333333e+00 1.09320652059722e-01 6.24317317188519e-04
1.87500000000000e+00 9.74255463232843e-02 6.32827027751539e-04
2.29166666666667e+00 8.68247389835811e-02 6.24457539722872e-04
2.70833333333333e+00 7.73773982580240e-02 6.05527854137593e-04
3.12500000000000e+00 6.89580162335213e-02 5.79989212116348e-04
3.54166666666667e+00 6.14547414505116e-02 5.50465830196911e-04
3.95833333333333e+00 5.47678928808455e-02 5.18759564026005e-04
4.37500000000000e+00 4.88086357457975e-02 4.86129148941503e-04
4.79166666666667e+00 4.34978013299006e-02 4.53459120892149e-04
5.20833333333333e+00 3.87648351869921e-02 4.21368670865488e-04
5.62500000000000e+00 3.45468598645962e-02 3.90285117212902e-04
6.04166666666667e+00 3.07878395693046e-02 3.60495241779782e-04
6.45833333333333e+00 2.74378357107268e-02 3.32182104191068e-04
6.87500000000000e+00 2.44523434893472e-02 3.05451970909102e-04
7.29166666666667e+00 2.17917006462039e-02 2.80354311353657e-04
7.70833333333333e+00 1.94205605379340e-02 2.56896810060090e-04
8.12500000000000e+00 1.73074225693490e-02 2.35056728265738e-04
8.54166666666667e+00 1.54242137057374e-02 2.14789549279495e-04
8.95833333333333e+00 1.37459155155238e-02 1.96035575009641e-04
9.37500000000000e+00 1.22502318080226e-02 1.78724963120289e-04
9.79166666666667e+00 1.09172924272002e-02 1.62781567852261e-04
1.02083333333333e+01 9.72938927231933e-03 1.48125856101280e-04
1.06250000000000e+01 8.67074104754000e-03 1.34677106038580e-04
1.10416666666667e+01 7.72728362114156e-03 1.22355049419948e-04
1.14583333333333e+01 6.88648315221361e-03 1.11081077889252e-04
1.18750000000000e+01 6.13716960770176e-03 1.00779109792510e-04
1.22916666666667e+01 5.46938836347517e-03 9.13761958741422e-05
1.27083333333333e+01 4.87426794002168e-03 8.28029178730860e-05
1.31250000000000e+01 4.34390216328039e-03 7.49936290327580e-05
1.35416666666667e+01 3.87124512795508e-03 6.78865747703063e-05
1.39583333333333e+01 3.45001758170400e-03 6.14239193291325e-05
1.43750000000000e+01 3.07462351707787e-03 5.55517030818318e-05
1.47916666666667e+01 2.74007582655029e-03 5.02197496661669e-05
1.52083333333333e+01 2.44193004171611e-03 4.53815351109183e-05
1.56250000000000e+01 2.17622529615702e-03 4.09940313639037e-05
1.60416666666667e+01 1.93943170404028e-03 3.70175337439738e-05
1.64583333333333e+01 1.72840346097835e-03 3.34154777245874e-05
1.68750000000000e+01 1.54033705698455e-03 3.01542511365482e-05
1.72916666666667e+01 1.37273403100705e-03 2.72030063258135e-05
1.77083333333333e+01 1.22336777585547e-03 2.45334743362191e-05
1.81250000000000e+01 1.09025396097944e-03 2.21197839148583e-05
1.85416666666667e+01 9.71624170092069e-04 1.99382873004639e-05
1.89583333333333e+01 8.65902405771164e-04 1.79673932535903e-05
1.93750000000000e+01 7.71684154478461e-04 1.61874084308021e-05
1.97916666666667e+01 6.87717727239533e-04 1.45803877565644e-05
2.02083333333333e+01 6.12887629639514e-04 1.31299935226781e-05
2.06250000000000e+01 5.46199743900039e-04 1.18213634700991e-05
2.10416666666667e+01 4.86768121788575e-04 1.06409878732109e-05
2.14583333333333e+01 4.33803213921178e-04 9.57659507445490e-06
2.18750000000000e+01 3.86601381543239e-04 8.61704532798572e-06
2.22916666666667e+01 3.44535548532246e-04 7.75223269370809e-06
2.27083333333333e+01 3.07046870107698e-04 6.97299436739799e-06
2.31250000000000e+01 2.73637309208379e-04 6.27102714609599e-06
2.35416666666667e+01 2.43863019965959e-04 5.63881067450653e-06
2.39583333333333e+01 2.17328450821819e-04 5.06953689678930e-06
2.43750000000000e+01 1.93681090046532e-04 4.55704537357738e-06
2.47916666666667e+01 1.72606782552066e-04 4.09576410448829e-06
2.52083333333333e+01 1.53825556079046e-04 3.68065535875476e-06
2.56250000000000e+01 1.37087902048626e-04 3.30716619152641e-06
2.60416666666667e+01 1.22171460794482e-04 2.97118332100892e-06
2.64583333333333e+01 1.08878067338007e-04 2.66899195626987e-06
2.68750000000000e+01 9.70311189573353e-05 2.39723829449727e-06
2.72916666666667e+01 8.64732289889222e-05 2.15289541210452e-06
2.77083333333333e+01 7.70641358265234e-05 1.93323222143485e-06
2.81250000000000e+01 6.86788396745032e-05 1.73578525934542e-06
2.85416666666667e+01 6.12059419044933e-05 1.55833308261686e-06
2.89583333333333e+01 5.45461650440094e-05 1.39887301290577e-06
2.93750000000000e+01 4.86110339623072e-05 1.25560004294905e-06
2.97916666666667e+01 4.33217004640556e-05 1.12688772491389e-06
3.02083333333333e+01 3.86078957364439e-05 1.01127084226381e-06
3.06250000000000e+01 3.44069968870145e-05 9.07429716696139e-07
3.10416666666667e+01 3.06631949889211e-05 8.14176010206246e-07
3.14583333333333e+01 2.73267536222582e-05 7.30439870678685e-07
3.18750000000000e+01 2.43533481657865e-05 6.55258305812835e-07
3.22916666666667e+01 2.17034769378228e-05 5.87764677525632e-07
3.27083333333333e+01 1.93419363911860e-05 5.27179202156372e-07
3.31250000000000e+01 1.72373534613193e-05 4.72800368153820e-07
3.35416666666667e+01 1.53617687707017e-05 4.23997188992811e-07
3.39583333333333e+01 1.36902651713475e-05 3.80202205194532e-07
3.43750000000000e+01 1.22006367390528e-05 3.40905168369307e-07
3.47916666666667e+01 1.08730937646823e-05 3.05647345078823e-07
3.52083333333333e+01 9.68999983617292e-06 2.74016376209788e-07
3.56250000000000e+01 8.63563755145773e-06 2.45641641292598e-07
3.60416666666667e+01 7.69599971072861e-06 2.20190081042544e-07
3.64583333333333e+01 6.85860322278995e-06 1.97362430338126e-07
3.68750000000000e+01 6.11232327583691e-06 1.76889823753785e-07
3.72916666666667e+01 5.44724554293201e-06 1.58530738748324e-07
3.77083333333333e+01 4.85453446470369e-06 1.42068241145304e-07
3.81250000000000e+01 4.32631587485160e-06 1.27307504670320e-07
3.85416666666667e+01 3.85557239089202e-06 1.14073578599870e-07
3.89583333333333e+01 3.43605018448844e-06 1.02209377441415e-07
3.93750000000000e+01 3.06217590338913e-06 9.15738716910950e-08
3.97916666666667e+01 2.72898262878930e-06 8.20404604567114e-08
4.02083333333333e+01 2.43204388724958e-06 7.34955067692515e-08
4.06250000000000e+01 2.16741484777007e-06 6.58370200905184e-08
4.10416666666667e+01 1.93157991426324e-06 5.89734718385411e-08
4.14583333333333e+01 1.72140601910027e-06 5.28227298668286e-08
4.18750000000000e+01 1.53410100221047e-06 4.73111004792464e-08
4.22916666666667e+01 1.36717651692819e-06 4.23724675480659e-08
4.27083333333333e+01 1.21841497109915e-06 3.79475184443441e-08
4.31250000000000e+01 1.08584006767530e-06 3.39830483884840e-08
4.35416666666667e+01 9.67690549398317e-07 3.04313355645348e-08
4.39583333333333e+01 8.62396799666501e-07 2.72495794833468e-08
4.43750000000000e+01 7.68559991076334e-07 2.43993964415221e-08
4.47916666666667e+01 6.84933501856009e-07 2.18463664698025e-08
4.52083333333333e+01 6.10406353924054e-07 1.95596262929474e-08
4.56250000000000e+01 5.43988454163282e-07 1.75115037994201e-08
4.60416666666667e+01 4.84797440934482e-07 1.56771899239403e-08
4.64583333333333e+01 4.32046961508885e-07 1.40344439561503e-08
4.68750000000000e+01 3.85036225797447e-07 1.25633289881862e-08
4.72916666666667e+01 3.43140696286243e-07 1.12459745126208e-08
4.77083333333333e+01 3.05803790784759e-07 1.00663632734575e-08
4.81250000000000e+01 2.72529488524476e-07 9.01013997390635e-09
4.85416666666667e+01 2.42875740475973e-07 8.06443966445263e-09
4.89583333333333e+01 2.16448596540851e-07 7.21773370836819e-09
4.93750000000000e+01 1.92896972126678e-07 6.45969158054553e-09
4.97916666666667e+01 1.71907983955799e-07 5.78105691687193e-09
5.02083333333333e+01 1.53202793282193e-07 5.17353628970762e-09
5.06250000000000e+01 1.36532901658082e-07 4.62969944178591e-09
5.10416666666667e+01 1.21676849609742e-07 4.14288982901996e-09
5.14583333333333e+01 1.08437274459473e-07 3.70714436828528e-09
5.18750000000000e+01 9.66382884586353e-08 3.31712146994985e-09
5.22916666666667e+01 8.61231421035079e-08 2.96803652130434e-09
5.27083333333333e+01 7.67521416567197e-08 2.65560402225983e-09
5.31250000000000e+01 6.84007933824019e-08 2.37598570607729e-09
5.35416666666667e+01 6.09581496362777e-08 2.12574404092623e-09
5.39583333333333e+01 5.43253348837645e-08 1.90180053502896e-09
5.43750000000000e+01 4.84142321844266e-08 1.70139836210437e-09
5.47916666666667e+01 4.31463125510804e-08 1.52206886974832e-09
5.52083333333333e+01 3.84515916628493e-08 1.36160155387267e-09
5.56250000000000e+01 3.42677001552234e-08 1.21801714949299e-09
5.60416666666667e+01 3.05390550379788e-08 1.08954352156484e-09
5.64583333333333e+01 2.72161212548448e-08 9.74594055036549e-10
5.68750000000000e+01 2.42547536322597e-08 8.71748291291628e-10
5.72916666666667e+01 2.16156104072304e-08 7.79734582428233e-10
5.77083333333333e+01 1.92636305579547e-08 6.97414546441149e-10
5.81250000000000e+01 1.71675680333609e-08 6.23769140673168e-10
5.85416666666667e+01 1.52995766468914e-08 5.57886188518494e-10
5.89583333333333e+01 1.36348401301793e-08 4.98949203047287e-10
5.93750000000000e+01 1.21512424594606e-08 4.46227375724763e-10
5.97916666666667e+01 1.08290740425178e-08 3.99066611167915e-10
6.02083333333333e+01 9.65076987000193e-09 3.56881495351908e-10
6.06250000000000e+01 8.60067617158537e-09 3.19148102179988e-10
6.10416666666667e+01 7.66484245445867e-09 2.85397552578174e-10
6.14583333333333e+01 6.83083616635822e-09 2.55210245076914e-10
6.18750000000000e+01 6.08757753417087e-09 2.28210689339773e-10
6.22916666666667e+01 5.42519236834170e-09 2.04062880789774e-10
6.27083333333333e+01 4.83488088102346e-09 1.82466158036092e-10
6.31250000000000e+01 4.30880078440514e-09 1.63151493726785e-10
6.35416666666667e+01 3.83996310535948e-09 1.45878174289759e-10
6.39583333333333e+01 3.42213933468555e-09 1.30430826645097e-10
6.43750000000000e+01 3.04977868379936e-09 1.16616756341458e-10
6.47916666666667e+01 2.71793434211987e-09 1.04263565062684e-10
6.52083333333333e+01 2.42219775712933e-09 9.32170173799808e-11
6.56250000000000e+01 2.15864006844330e-09 8.33391311711146e-11
6.60416666666667e+01 1.92375991263158e-09 7.45064686495207e-11
6.64583333333333e+01 1.71443690652113e-09 6.66086063632115e-11
6.68750000000000e+01 1.52789019407922e-09 5.95467657674623e-11
6.72916666666667e+01 1.36164150255443e-09 5.32325877939156e-11
6.77083333333333e+01 1.21348221787033e-09 4.75870358774529e-11
6.81250000000000e+01 1.08144404400262e-09 4.25394142168283e-11
6.85416666666667e+01 9.63772854036921e-10 3.80264893559657e-11
6.89583333333333e+01 8.58905386069626e-10 3.39917039328817e-11
6.93750000000000e+01 7.65448475839946e-10 3.03844730944435e-11
6.97916666666667e+01 6.82160548452706e-10 2.71595550195138e-11
7.02083333333333e+01 6.07935123692325e-10 2.42764875483017e-11
7.06250000000000e+01 5.41786116826839e-10 2.16990840935544e-11
7.10416666666667e+01 4.82834738409726e-10 1.93949826891220e-11
7.14583333333333e+01 4.30297819309347e-10 1.73352424364772e-11
7.18750000000000e+01 3.83477406580767e-10 1.54939824497863e-11
7.22916666666667e+01 3.41751491117427e-10 1.38480588893709e-11
7.27083333333333e+01 3.04565744084383e-10 1.23767759684683e-11
7.31250000000000e+01 2.71426152850112e-10 1.10616274172184e-11
7.35416666666667e+01 2.41892457998493e-10 9.88606523967895e-12
7.39583333333333e+01 2.15572304360180e-10 8.83529281435462e-12
7.43750000000000e+01 1.92116028706623e-10 7.89607981583635e-12
7.47916666666667e+01 1.71212014453067e-10 7.05659668810233e-12
7.52083333333333e+01 1.52582551747133e-10 6.30626655605140e-12
7.56250000000000e+01 1.35980148185593e-10 5.63563276633900e-12
7.60416666666667e+01 1.21184240863188e-10 5.03624043035084e-12
7.64583333333333e+01 1.07998266135190e-10 4.50053045541227e-12
7.68750000000000e+01 9.62470483335491e-11 4.02174476739334e-12
7.72916666666667e+01 8.57744725479717e-11 3.59384155842472e-12
7.77083333333333e+01 7.64414105980951e-11 3.21141947558166e-12
7.81250000000000e+01 6.81238727602883e-11 2.86964982110897e-12
7.85416666666667e+01 6.07113605570954e-11 2.56421592849499e-12
7.89583333333333e+01 5.41053987562371e-11 2.29125893822023e-12
7.93750000000000e+01 4.82182271582687e-11 2.04732930727125e-12
7.97916666666667e+01 4.29716346974012e-11 1.82934345378480e-12
8.02083333333333e+01 3.82959203874822e-11 1.63454498127400e-12
8.06250000000000e+01 3.41289673660730e-11 1.46047000546651e-12
8.10416666666667e+01 3.04154176684997e-11 1.30491615504939e-12
8.14583333333333e+01 2.71059367833480e-11 1.16591484878344e-12
8.18750000000000e+01 2.41565582585864e-11 1.04170650744062e-12
8.22916666666667e+01 2.15280996048597e-11 9.30718393633487e-13
8.27083333333333e+01 1.91856417463996e-11 8.31544795134639e-13
8.31250000000000e+01 1.70980651316325e-11 7.42929307176782e-13
8.35416666666667e+01 1.52376363082713e-11 6.63748994041706e-13
8.39583333333333e+01 1.35796394776263e-11 5.93000226519942e-13
8.43750000000000e+01 1.21020481525605e-11 5.29786020242619e-13
8.47916666666667e+01 1.07852325344472e-11 4.73304717675228e-13
8.52083333333333e+01 9.61169872657067e-12 4.22839868309606e-13
8.56250000000000e+01 8.56585633282758e-12 3.77751181835421e-13
8.60416666666667e+01 7.63381133850519e-12 3.37466441818187e-13
8.64583333333333e+01 6.80318152500103e-12 3.01474275884677e-13
8.68750000000000e+01 6.06293197561919e-12 2.69317692836902e-13
8.72916666666667e+01 5.40322847613766e-12 2.40588306245962e-13
8.77083333333333e+01 4.81530686497384e-12 2.14921170186394e-13
8.81250000000000e+01 4.29135660378877e-12 1.91990163042225e-13
8.85416666666667e+01 3.82441701409169e-12 1.71503861854310e-13
8.89583333333333e+01 3.40828480302252e-12 1.53201854080733e-13
8.93750000000000e+01 3.03743165434422e-12 1.36851440956424e-13
8.97916666666667e+01 2.70693078448708e-12 1.22244691319321e-13
9.02083333333333e+01 2.41239148910970e-12 1.09195807940770e-13
9.06250000000000e+01 2.14990081380483e-12 9.75387736065729e-14
9.10416666666667e+01 1.91597157030853e-12 8.71252475456998e-14
9.14583333333333e+01 1.70749600842279e-12 7.78226850858430e-14
9.18750000000000e+01 1.52170453040089e-12 6.95126571238809e-14
9.22916666666667e+01 1.35612889670771e-12 6.20893483970240e-14
9.27083333333333e+01 1.20856943491198e-12 5.54582151824170e-14
9.31250000000000e+01 1.07706581762930e-12 4.95347856937145e-14
9.35416666666667e+01 9.59871019479447e-13 4.42435881585548e-14
9.39583333333333e+01 8.55428107473400e-13 3.95171927417461e-14
9.43750000000000e+01 7.62349557571366e-13 3.52953553590539e-14
9.47916666666667e+01 6.79398821360789e-13 3.15242526534826e-14
9.52083333333333e+01 6.05473898244683e-13 2.81557982548460e-14
9.56250000000000e+01 5.39592695652035e-13 2.51470317818486e-14
9.60416666666667e+01 4.80879981892524e-13 2.24595729233700e-14
9.64583333333333e+01 4.28555758517692e-13 2.00591335456439e-14
9.68750000000000e+01 3.81924898242986e-13 1.79150817247871e-14
9.72916666666667e+01 3.40367910150017e-13 1.60000522315129e-14
9.77083333333333e+01 3.03332709619888e-13 1.42895984330258e-14
9.81250000000000e+01 2.70327284029766e-13 1.27618812552769e-14
9.85416666666667e+01 2.40913156342997e-13 1.13973912972371e-14
9.89583333333333e+01 2.14699559850963e-13 1.01787005034652e-14
9.93750000000000e+01 1.91338246935702e-13 9.09024028394824e-15
9.97916666666667e+01 1.70518862584798e-13 8.11810329072231e-15
1.00208333333333e+02 1.51964821261649e-13 7.24986629080272e-15
1.00625000000000e+02 1.35429632488817e-13 6.47443188502947e-15
1.01041666666667e+02 1.20693626444017e-13 5.78188716318930e-15
1.01458333333333e+02 1.07561035136886e-13 5.16337735936674e-15
1.01875000000000e+02 9.58573921111170e-14 4.61099293611439e-15
1.02291666666667e+02 8.54272145814090e-14 4.11766883118920e-15
1.02708333333333e+02 7.61319375344090e-14 3.67709433085793e-15
1.03125000000000e+02 6.78480732280143e-14 3.28363255466957e-15
1.03541666666667e+02 6.04655706034636e-14 2.93224860952556e-15
1.03958333333333e+02 5.38863530400895e-14 2.61844532485320e-15
1.04375000000000e+02 4.80230156420042e-14 2.33820584326847e-15
1.04791666666667e+02 4.27976640268266e-14 2.08794239368070e-15
1.05208333333333e+02 3.81408793471076e-14 1.86445047217648e-15
1.05625000000000e+02 3.39907962249975e-14 1.66486791209426e-15
1.06041666666667e+02 3.02922808446691e-14 1.48663836256909e-15
1.06458333333333e+02 2.69961983934685e-14 1.32747862411875e-15
1.06875000000000e+02 2.40587604206745e-14 1.18534947070603e-15
1.07291666666667e+02 2.14409430897255e-14 1.05842961497860e-15
1.07708333333333e+02 1.91079686723280e-14 9.45092424188016e-16
1.08125000000000e+02 1.70288436066033e-14 8.43885122039928e-16
1.08541666666667e+02 1.51759467348853e-14 7.53510231350866e-16
1.08958333333333e+02 1.35246623047130e-14 6.72808978155676e-16
1.09375000000000e+02 1.20530530047159e-14 6.00746468148542e-16
1.09791666666667e+02 1.07415685185256e-14 5.36398460457618e-16
1.10208333333333e+02 9.57278576248856e-15 4.78939539937381e-16
1.10625000000000e+02 8.53117745929352e-15 4.27632552908315e-16
1.11041666666667e+02 7.60290585186092e-15 3.81819181425070e-16
1.11458333333333e+02 6.77563884331345e-15 3.40911514585679e-16
1.11875000000000e+02 6.03838619256717e-15 3.04384520427171e-16
1.12291666666667e+02 5.38135350461826e-15 2.71769329249826e-16
1.12708333333333e+02 4.79581209420972e-15 2.42647227686569e-16
1.13125000000000e+02 4.27398304449345e-15 2.16644294648693e-16
1.13541666666667e+02 3.80893386106855e-15 1.93426615522184e-16
1.13958333333333e+02 3.39448636133658e-15 1.72696002971698e-16
1.14375000000000e+02 3.02513461081747e-15 1.54186175186742e-16
1.14791666666667e+02 2.69597177467432e-15 1.37659346170597e-16
1.15208333333333e+02 2.40262492169213e-15 1.22903177096209e-16
1.15625000000000e+02 2.14119693931782e-15 1.09728053634680e-16
1.16041666666667e+02 1.90821475902499e-15 9.79646568660769e-17
1.16458333333333e+02 1.70058321049301e-15 8.74617915040334e-17
1.16875000000000e+02 1.51554390887255e-15 7.80844463870961e-17
1.17291666666667e+02 1.35063860859631e-15 6.97120641307116e-17
1.17708333333333e+02 1.20367654131138e-15 6.22369941367481e-17
1.18125000000000e+02 1.07270531614548e-15 5.55631110866435e-17
1.18541666666667e+02 9.55984981461512e-16 4.96045824370263e-17
1.18958333333333e+02 8.51964906606002e-16 4.42847665612575e-17
1.19375000000000e+02 7.59263185019033e-16 3.95352287834490e-17
1.19791666666667e+02 6.76648275092495e-16 3.52948635505872e-17
1.20208333333333e+02 6.03022637042858e-16 3.15091096844428e-17
1.20625000000000e+02 5.37408154363108e-16 2.81292496144982e-17
1.21041666666667e+02 4.78933139185626e-16 2.51117842095943e-17
1.21458333333333e+02 4.26820750440030e-16 2.24178739194625e-17
1.21875000000000e+02 3.80378675108182e-16 2.00128397355214e-17
1.22291666666667e+02 3.38989930594083e-16 1.78657179939813e-17
1.22708333333333e+02 3.02104667081101e-16 1.59488624141164e-17
1.23125000000000e+02 2.69232863890067e-16 1.42375887421474e-17
1.23541666666667e+02 2.39937819378268e-16 1.27098577393357e-17
1.23958333333333e+02 2.13830348637212e-16 1.13459918148717e-17
1.24375000000000e+02 1.90563613950837e-16 1.01284220018028e-17
1.24791666666667e+02 1.69828516932964e-16 9.56166114518029e-18
