Energy (eV)          EEDF (eV^-(3/2))     First Anisotropy
1.24500000000000e+00 4.90589109599731e-02 1.57399292352519e-04
3.73500000000000e+00 3.46142320731270e-02 2.22395126171229e-04
6.22500000000000e+00 2.44225776432308e-02 2.08546624018522e-04
8.71500000000000e+00 1.72317068158420e-02 1.75429499403403e-04
1.12050000000000e+01 1.21580827431389e-02 1.40782419109724e-04
1.36950000000000e+01 8.57831308115771e-03 1.09984751899169e-04
1.61850000000000e+01 6.05255424502590e-03 8.44364279311019e-05
1.86750000000000e+01 4.27046816109411e-03 6.40297496884013e-05
2.11650000000000e+01 3.01309126306566e-03 4.81125544349759e-05
2.36550000000000e+01 2.12593060458191e-03 3.58971795775390e-05
2.61450000000000e+01 1.49998142801011e-03 2.66325061013285e-05
2.86350000000000e+01 1.05833383249954e-03 1.96682027093132e-05
3.11250000000000e+01 7.46722912762371e-04 1.44695470877408e-05
3.36150000000000e+01 5.26861271294151e-04 1.06106220967433e-05
3.61050000000000e+01 3.71734674864629e-04 7.75933593605584e-06
3.85950000000000e+01 2.62282836157757e-04 5.66066444083231e-06
4.10850000000000e+01 1.85057490717024e-04 4.12097777582734e-06
4.35750000000000e+01 1.30570018885578e-04 2.99454429338082e-06
4.60650000000000e+01 9.21255863014459e-05 2.17244292290425e-06
4.85550000000000e+01 6.50005546742140e-05 1.57372379587109e-06
5.10450000000000e+01 4.58620919288431e-05 1.13850549967938e-06
5.35350000000000e+01 3.23586696549230e-05 8.22665033292527e-07
5.60250000000000e+01 2.28311325933634e-05 5.93799086294361e-07
5.85150000000000e+01 1.61088394873624e-05 4.28179329165095e-07
6.10050000000000e+01 1.13658272785397e-05 3.08473246876456e-07
6.34950000000000e+01 8.01932565203980e-06 2.22047848031786e-07
6.59850000000000e+01 5.65815248969068e-06 1.59713214807546e-07
6.84750000000000e+01 3.99219223482333e-06 1.14795589026330e-07
7.09650000000000e+01 2.81674961373389e-06 8.24559111118239e-08
7.34550000000000e+01 1.98739888256437e-06 5.91902961063603e-08
7.59450000000000e+01 1.40223834563069e-06 4.24648154158996e-08
7.84350000000000e+01 9.89369771316360e-07 3.04490769211754e-08
8.09250000000000e+01 6.98064310853176e-07 2.18222647160210e-08
8.34150000000000e+01 4.92529483125983e-07 1.56321821933595e-08
8.59050000000000e+01 3.47511379649047e-07 1.11929773050584e-08
8.83950000000000e+01 2.45191735973081e-07 8.01104092709256e-09
9.08850000000000e+01 1.72998615038758e-07 5.73138721295296e-09
9.33750000000000e+01 1.22061702799861e-07 4.09890033388571e-09
9.58650000000000e+01 8.61224194602007e-08 2.93035591438891e-09
9.83550000000000e+01 6.07649325181066e-08 2.09424133086515e-09
1.00845000000000e+02 4.28735867741893e-08 1.49621416148065e-09
1.03335000000000e+02 3.02500861386823e-08 1.06863225273226e-09
1.05825000000000e+02 2.13433906572190e-08 7.63021177257422e-10
1.08315000000000e+02 1.50591414073410e-08 5.44658866209618e-10
1.10805000000000e+02 1.06251974472289e-08 3.88684935610936e-10
1.13295000000000e+02 7.49676344347001e-09 2.77307166654440e-10
1.15785000000000e+02 5.28945108140139e-09 1.97796911667764e-10
1.18275000000000e+02 3.73204956425677e-09 1.41051405238350e-10
1.20765000000000e+02 2.63320214814786e-09 1.00563184169924e-10
1.23255000000000e+02 1.85789428399281e-09 7.16816901030418e-11
1.25745000000000e+02 1.31086448221268e-09 5.10844563171091e-11
1.28235000000000e+02 9.24899605715867e-10 3.63985525046820e-11
1.30725000000000e+02 6.52576442691791e-10 2.59297021025696e-11
1.33215000000000e+02 4.60434852522898e-10 1.84685207470844e-11
1.35705000000000e+02 3.24866543670057e-10 1.31519693133887e-11
1.38195000000000e+02 2.29214340786421e-10 9.36432147988203e-12
1.40685000000000e+02 1.61725530208841e-10 6.66639907790805e-12
1.43175000000000e+02 1.14107812938727e-10 4.74502215850068e-12
1.45665000000000e+02 8.05104361497271e-11 3.37690988109242e-12
1.48155000000000e+02 5.68053156228653e-11 2.40290839731577e-12
1.50645000000000e+02 4.00798211676845e-11 1.70959639954979e-12
1.53135000000000e+02 2.82789039585402e-11 1.21615973841601e-12
1.55625000000000e+02 1.99525942431379e-11 8.65028093298177e-13
1.58115000000000e+02 1.40778446581581e-11 6.15196972744743e-13
1.60605000000000e+02 9.93282917520313e-12 4.37465987701866e-13
1.63095000000000e+02 7.00825288383848e-12 3.11044251953923e-13
1.65585000000000e+02 4.94477531199724e-12 2.21130900191552e-13
1.68075000000000e+02 3.48885853456040e-12 1.57190960000878e-13
1.70565000000000e+02 2.46161516068128e-12 1.11726970388140e-13
1.73055000000000e+02 1.73682857567037e-12 7.94039641911140e-14
1.75545000000000e+02 1.22544480122160e-12 5.64262743800700e-14
1.78035000000000e+02 8.64630500601610e-13 4.00937671814414e-14
1.80525000000000e+02 6.10052694193447e-13 2.84858945724186e-14
1.83015000000000e+02 4.30431599895829e-13 2.02367858580984e-14
1.85505000000000e+02 3.03697310006689e-13 1.43751704112931e-14
1.87995000000000e+02 2.14278078392991e-13 1.02104605600037e-14
1.90485000000000e+02 1.51187031846879e-13 7.25169545926895e-15
1.92975000000000e+02 1.06672221302769e-13 5.14987475582632e-15
1.95465000000000e+02 7.52641457317018e-14 3.65693813854436e-15
1.97955000000000e+02 5.31037186958419e-14 2.59658959694968e-15
2.00445000000000e+02 3.74681053230808e-14 1.84354883144684e-15
2.02935000000000e+02 2.64361696502321e-14 1.30879751238013e-15
2.05425000000000e+02 1.86524261034715e-14 9.29089552130082e-16
2.07915000000000e+02 1.31604920133508e-14 6.59493895771602e-16
2.10405000000000e+02 9.28557760114832e-15 4.68093738841467e-16
2.12895000000000e+02 6.55157507025412e-15 3.32218999098144e-16
2.15385000000000e+02 4.62255960209381e-15 2.35768829683596e-16
2.17875000000000e+02 3.26151452830423e-15 1.67308991753178e-16
2.20365000000000e+02 2.30120927235233e-15 1.18719978218383e-16
2.22855000000000e+02 1.62365185535865e-15 8.42365562866214e-17
2.25345000000000e+02 1.14559131109131e-15 5.97654626088889e-17
2.27835000000000e+02 8.08288702850037e-16 4.24007412338635e-17
2.30325000000000e+02 5.70299914838412e-16 3.00795039995941e-17
2.32815000000000e+02 4.02383445070915e-16 2.13374496241192e-17
2.35305000000000e+02 2.83907524189293e-16 1.51352466756821e-17
2.37795000000000e+02 2.00315105600552e-16 1.07352503774495e-17
2.40285000000000e+02 1.41335252196438e-16 7.61396785046658e-18
2.42775000000000e+02 9.97211540964080e-17 5.39991068943081e-18
2.45265000000000e+02 7.03597186107411e-17 3.82947526539625e-18
2.47755000000000e+02 4.96433284175257e-17 3.18442769103586e-18
