Energy (eV)          EEDF (eV^-(3/2))     First Anisotropy
1.73076923076923e-02 6.74736877358352e-02 3.13705127266403e-05
5.19230769230769e-02 6.71168416889723e-02 5.18389243925396e-05
8.65384615384615e-02 6.67618828831626e-02 6.85321169473855e-05
1.21153846153846e-01 6.64088013364522e-02 8.12744191169170e-05
1.55769230769231e-01 6.60575871231131e-02 9.19517375862912e-05
1.90384615384615e-01 6.57082303648973e-02 1.01275469163826e-04
2.25000000000000e-01 6.53607212384622e-02 1.09612959433993e-04
2.59615384615385e-01 6.50150499739921e-02 1.17185566002606e-04
2.94230769230769e-01 6.46712068501619e-02 1.24139788370283e-04
3.28846153846154e-01 6.43291821985934e-02 1.30578952297724e-04
3.63461538461539e-01 6.39889664031210e-02 1.36579385415345e-04
3.98076923076923e-01 6.36505498962543e-02 1.42199497443451e-04
4.32692307692308e-01 6.33139231630186e-02 1.47485250511454e-04
4.67307692307692e-01 6.29790767370905e-02 1.52473639557017e-04
5.01923076923077e-01 6.26460012030266e-02 1.57195004911841e-04
5.36538461538462e-01 6.23146871958592e-02 1.61674625924278e-04
5.71153846153846e-01 6.19851253988024e-02 1.65933851234987e-04
6.05769230769231e-01 6.16573065455708e-02 1.69990921764320e-04
6.40384615384615e-01 6.13312214177637e-02 1.73861583028336e-04
6.75000000000000e-01 6.10068608462909e-02 1.77559549022481e-04
7.09615384615385e-01 6.06842157110331e-02 1.81096860470798e-04
7.44230769230769e-01 6.03632769391484e-02 1.84484164596348e-04
7.78846153846154e-01 6.00440355062527e-02 1.87730936869800e-04
8.13461538461538e-01 5.97264824361028e-02 1.90845659425718e-04
8.48076923076923e-01 5.94106087990987e-02 1.93835965170151e-04
8.82692307692308e-01 5.90964057136470e-02 1.96708755998874e-04
9.17307692307692e-01 5.87838643443929e-02 1.99470300474809e-04
9.51923076923077e-01 5.84729759030723e-02 2.02126314867821e-04
9.86538461538462e-01 5.81637316482282e-02 2.04682031459231e-04
1.02115384615385e+00 5.78561228851694e-02 2.07142256803915e-04
1.05576923076923e+00 5.75501409616467e-02 2.09511419185045e-04
1.09038461538462e+00 5.72457772767549e-02 2.11793611684857e-04
1.12500000000000e+00 5.69430232693678e-02 2.13992627780105e-04
1.15961538461538e+00 5.66418704291535e-02 2.16111992399042e-04
1.19423076923077e+00 5.63423102854486e-02 2.18154989004447e-04
1.22884615384615e+00 5.60443344175576e-02 2.20124683057220e-04
1.26346153846154e+00 5.57479344443090e-02 2.22023942722362e-04
1.29807692307692e+00 5.54531020337136e-02 2.23855456926736e-04
1.33269230769231e+00 5.51598288931343e-02 2.25621751444894e-04
1.36730769230769e+00 5.48681067783652e-02 2.27325202598558e-04
1.40192307692308e+00 5.45779274864435e-02 2.28968051561217e-04
1.43653846153846e+00 5.42892828558441e-02 2.30552413092532e-04
1.47115384615385e+00 5.40021647722512e-02 2.32080287226793e-04
1.50576923076923e+00 5.37165651603226e-02 2.33553567920662e-04
1.54038461538462e+00 5.34324759912621e-02 2.34974051096630e-04
1.57500000000000e+00 5.31498892749937e-02 2.36343442009552e-04
1.60961538461538e+00 5.28687970673455e-02 2.37663361792550e-04
1.64423076923077e+00 5.25891914626018e-02 2.38935353497587e-04
1.67884615384615e+00 5.23110646003289e-02 2.40160887472224e-04
1.71346153846154e+00 5.20344086582756e-02 2.41341366358512e-04
1.74807692307692e+00 5.17592158588682e-02 2.42478129547152e-04
1.78269230769231e+00 5.14854784624347e-02 2.43572457349253e-04
1.81730769230769e+00 5.12131887733923e-02 2.44625574385758e-04
1.85192307692308e+00 5.09423391352407e-02 2.45638654415457e-04
1.88653846153846e+00 5.06729219305798e-02 2.46612821490557e-04
1.92115384615385e+00 5.04049295851635e-02 2.47549154206819e-04
1.95576923076923e+00 5.01383545619960e-02 2.48448688099428e-04
1.99038461538462e+00 4.98731893666901e-02 2.49312418085968e-04
2.02500000000000e+00 4.96094265418030e-02 2.50141300810215e-04
2.05961538461538e+00 4.93470586719673e-02 2.50936256728457e-04
2.09423076923077e+00 4.90860783784506e-02 2.51698172126533e-04
2.12884615384615e+00 4.88264783240747e-02 2.52427900911416e-04
2.16346153846154e+00 4.85682512079850e-02 2.53126266356721e-04
2.19807692307692e+00 4.83113897703698e-02 2.53794062648914e-04
2.23269230769231e+00 4.80558867874282e-02 2.54432056405900e-04
2.26730769230769e+00 4.78017350759015e-02 2.55040987742504e-04
2.30192307692308e+00 4.75489274893280e-02 2.55621572701189e-04
2.33653846153846e+00 4.72974569179877e-02 2.56174502771144e-04
2.37115384615385e+00 4.70473162919195e-02 2.56700447125569e-04
2.40576923076923e+00 4.67984985764343e-02 2.57200053428234e-04
2.44038461538462e+00 4.65509967761273e-02 2.57673948791345e-04
2.47500000000000e+00 4.63048039305471e-02 2.58122740741946e-04
2.50961538461538e+00 4.60599131180603e-02 2.58547018064382e-04
2.54423076923077e+00 4.58163174516685e-02 2.58947351658065e-04
2.57884615384615e+00 4.55740100827332e-02 2.59324295281068e-04
2.61346153846154e+00 4.53329841969325e-02 2.59678386314419e-04
2.64807692307692e+00 4.50932330178541e-02 2.60010146420533e-04
2.68269230769231e+00 4.48547498030846e-02 2.60320082226634e-04
2.71730769230769e+00 4.46175278476771e-02 2.60608685674926e-04
2.75192307692308e+00 4.43815604812252e-02 2.60876435576659e-04
2.78653846153846e+00 4.41468410677731e-02 2.61123796726743e-04
2.82115384615385e+00 4.39133630081475e-02 2.61351221371021e-04
2.85576923076923e+00 4.36811197364159e-02 2.61559149485823e-04
2.89038461538462e+00 4.34501047230043e-02 2.61748009219344e-04
2.92500000000000e+00 4.32203114712641e-02 2.61918217365093e-04
2.95961538461538e+00 4.29917335204869e-02 2.62070179757708e-04
2.99423076923077e+00 4.27643644425761e-02 2.62204291702360e-04
3.02884615384615e+00 4.25381978449638e-02 2.62320938330649e-04
3.06346153846154e+00 4.23132273673811e-02 2.62420494991150e-04
3.09807692307692e+00 4.20894466846823e-02 2.62503327570059e-04
3.13269230769231e+00 4.18668495037102e-02 2.62569792847433e-04
3.16730769230769e+00 4.16454295660310e-02 2.62620238583581e-04
3.20192307692308e+00 4.14251806455778e-02 2.62655004658408e-04
3.23653846153846e+00 4.12060965485459e-02 2.62674422116908e-04
3.27115384615385e+00 4.09881711152423e-02 2.62678814260058e-04
3.30576923076923e+00 4.07713982172154e-02 2.62668496719597e-04
3.34038461538462e+00 4.05557717597408e-02 2.62643777684980e-04
3.37500000000000e+00 4.03412856790302e-02 2.62604958165805e-04
3.40961538461538e+00 4.01279339446426e-02 2.62552332198070e-04
3.44423076923077e+00 3.99157105567707e-02 2.62486187086114e-04
3.47884615384615e+00 3.97046095485793e-02 2.62406803590395e-04
3.51346153846154e+00 3.94946249835663e-02 2.62314456151036e-04
3.54807692307692e+00 3.92857509578322e-02 2.62209413059040e-04
3.58269230769231e+00 3.90779815975115e-02 2.62091936663160e-04
3.61730769230769e+00 3.88713110609768e-02 2.61962283348936e-04
3.65192307692308e+00 3.86657335369006e-02 2.61820704441322e-04
3.68653846153846e+00 3.84612432441429e-02 2.61667445284916e-04
3.72115384615385e+00 3.82578344332483e-02 2.61502746115082e-04
3.75576923076923e+00 3.80555013840733e-02 2.61326842045763e-04
3.79038461538462e+00 3.78542384078065e-02 2.61139963195429e-04
3.82500000000000e+00 3.76540398446573e-02 2.60942334846734e-04
3.85961538461538e+00 3.74549000658188e-02 2.60734177562165e-04
3.89423076923077e+00 3.72568134712161e-02 2.60515707333217e-04
3.92884615384615e+00 3.70597744914145e-02 2.60287135686482e-04
3.96346153846154e+00 3.68637775854242e-02 2.60048669823055e-04
3.99807692307692e+00 3.66688172425567e-02 2.59800512716290e-04
4.03269230769231e+00 3.64748879802838e-02 2.59542863242267e-04
4.06730769230769e+00 3.62819843460438e-02 2.59275916113521e-04
4.10192307692308e+00 3.60901009156198e-02 2.58999862627224e-04
4.13653846153846e+00 3.58992322930273e-02 2.58714889812304e-04
4.17115384615385e+00 3.57093731117416e-02 2.58421181154832e-04
4.20576923076923e+00 3.55205180327091e-02 2.58118916547516e-04
4.24038461538462e+00 3.53326617460120e-02 2.57808272363574e-04
4.27500000000000e+00 3.51457989689267e-02 2.57489421561264e-04
4.30961538461538e+00 3.49599244475452e-02 2.57162533752102e-04
4.34423076923077e+00 3.47750329548797e-02 2.56827775299474e-04
4.37884615384615e+00 3.45911192924415e-02 2.56485309381657e-04
4.41346153846154e+00 3.44081782883900e-02 2.56135296084883e-04
4.44807692307692e+00 3.42262047990715e-02 2.55777892461635e-04
4.48269230769231e+00 3.40451937072109e-02 2.55413252618605e-04
4.51730769230769e+00 3.38651399234110e-02 2.55041527632381e-04
4.55192307692308e+00 3.36860383847788e-02 2.54662866186824e-04
4.58653846153846e+00 3.35078840548140e-02 2.54277413794221e-04
4.62115384615385e+00 3.33306719244291e-02 2.53885313415051e-04
4.65576923076923e+00 3.31543970102610e-02 2.53486705391405e-04
4.69038461538462e+00 3.29790543560597e-02 2.53081727491923e-04
4.72500000000000e+00 3.28046390310383e-02 2.52670514984330e-04
4.75961538461539e+00 3.26311461312274e-02 2.52253200677166e-04
4.79423076923077e+00 3.24585707778614e-02 2.51829914988649e-04
4.82884615384615e+00 3.22869081187000e-02 2.51400785985461e-04
4.86346153846154e+00 3.21161533264501e-02 2.50965939448248e-04
4.89807692307692e+00 3.19463016000551e-02 2.50525498907632e-04
4.93269230769231e+00 3.17773481631511e-02 2.50079585706507e-04
4.96730769230769e+00 3.16092882653250e-02 2.49628318910377e-04
5.00192307692308e+00 3.14421171809385e-02 2.49171815860128e-04
5.03653846153846e+00 3.12758302090193e-02 2.48710191465191e-04
5.07115384615385e+00 3.11104226741170e-02 2.48243558742030e-04
5.10576923076923e+00 3.09458899248558e-02 2.47772028741971e-04
5.14038461538462e+00 3.07822273351042e-02 2.47295710579359e-04
5.17500000000000e+00 3.06194303025593e-02 2.46814711484187e-04
5.20961538461539e+00 3.04574942498887e-02 2.46329136828221e-04
5.24423076923077e+00 3.02964146233446e-02 2.45839090175363e-04
5.27884615384615e+00 3.01361868938789e-02 2.45344673305991e-04
5.31346153846154e+00 2.99768065557865e-02 2.44845986265125e-04
5.34807692307692e+00 2.98182691277943e-02 2.44343127385030e-04
5.38269230769231e+00 2.96605701517331e-02 2.43836193331344e-04
5.41730769230769e+00 2.95037051936009e-02 2.43325279014095e-04
5.45192307692308e+00 2.93476698425481e-02 2.42810478072894e-04
5.48653846153846e+00 2.91924597107730e-02 2.42291882236920e-04
5.52115384615385e+00 2.90380704342448e-02 2.41769581798117e-04
5.55576923076923e+00 2.88844976714534e-02 2.41243665538844e-04
5.59038461538462e+00 2.87317371044026e-02 2.40714220749660e-04
5.62500000000000e+00 2.85797844373858e-02 2.40181333269047e-04
5.65961538461538e+00 2.84286353979557e-02 2.39645087499963e-04
5.69423076923077e+00 2.82782857357255e-02 2.39105566447962e-04
5.72884615384615e+00 2.81287312233170e-02 2.38562851736660e-04
5.76346153846154e+00 2.79799676551850e-02 2.38017023644340e-04
5.79807692307692e+00 2.78319908485444e-02 2.37468161118414e-04
5.83269230769231e+00 2.76847966422189e-02 2.36916341810610e-04
5.86730769230769e+00 2.75383808975463e-02 2.36361641991593e-04
5.90192307692308e+00 2.73927394974967e-02 2.35804136980582e-04
5.93653846153846e+00 2.72478683465723e-02 2.35243900566014e-04
5.97115384615385e+00 2.71037633714226e-02 2.34681005424836e-04
6.00576923076923e+00 2.69604205197572e-02 2.34115523052572e-04
6.04038461538462e+00 2.68178357611944e-02 2.33547523774589e-04
6.07500000000000e+00 2.66760050861956e-02 2.32977076776937e-04
6.10961538461538e+00 2.65349245068944e-02 2.32404250116882e-04
6.14423076923077e+00 2.63945900560526e-02 2.31829110752620e-04
6.17884615384615e+00 2.62549977878712e-02 2.31251724553040e-04
6.21346153846154e+00 2.61161437769661e-02 2.30672156326428e-04
6.24807692307692e+00 2.59780241191616e-02 2.30090469829606e-04
6.28269230769231e+00 2.58406349304860e-02 2.29506727795579e-04
6.31730769230769e+00 2.57039723479484e-02 2.28920991853153e-04
6.35192307692308e+00 2.55680325287657e-02 2.28333322909620e-04
6.38653846153846e+00 2.54328116502691e-02 2.27743780626206e-04
6.42115384615385e+00 2.52983059104293e-02 2.27152423791871e-04
6.45576923076923e+00 2.51645115269062e-02 2.26559310257027e-04
6.49038461538462e+00 2.50314247377774e-02 2.25964496940582e-04
6.52500000000000e+00 2.48990418006059e-02 2.25368039854486e-04
6.55961538461538e+00 2.47673589931536e-02 2.24769994110323e-04
6.59423076923077e+00 2.46363726124657e-02 2.24170413943040e-04
6.62884615384615e+00 2.45060789755694e-02 2.23569352717039e-04
6.66346153846154e+00 2.43764744185755e-02 2.22966862949161e-04
6.69807692307692e+00 2.42475552973624e-02 2.22362996314319e-04
6.73269230769231e+00 2.41193179866946e-02 2.21757803667777e-04
6.76730769230769e+00 2.39917588808918e-02 2.21151334970195e-04
6.80192307692308e+00 2.38648743931500e-02 2.20543639630210e-04
6.83653846153846e+00 2.37386609554522e-02 2.19934766029083e-04
6.87115384615385e+00 2.36131150190197e-02 2.19324761855502e-04
6.90576923076923e+00 2.34882330534775e-02 2.18713674043420e-04
6.94038461538462e+00 2.33640115474829e-02 2.18101548776388e-04
6.97500000000000e+00 2.32404470079054e-02 2.17488431507508e-04
7.00961538461539e+00 2.31175359604433e-02 2.16874366963324e-04
7.04423076923077e+00 2.29952749488180e-02 2.16259399163210e-04
7.07884615384615e+00 2.28736605353778e-02 2.15643571422989e-04
7.11346153846154e+00 2.27526893003074e-02 2.15026926373705e-04
7.14807692307692e+00 2.26323578422186e-02 2.14409505964933e-04
7.18269230769231e+00 2.25126627773743e-02 2.13791351483057e-04
7.21730769230769e+00 2.23936007402676e-02 2.13172503481823e-04
7.25192307692308e+00 2.22751683830216e-02 2.12553002090153e-04
7.28653846153846e+00 2.21573623753056e-02 2.11932886580972e-04
7.32115384615385e+00 2.20401794047246e-02 2.11312195672124e-04
7.35576923076923e+00 2.19236161760819e-02 2.10690967468620e-04
7.39038461538462e+00 2.18076694119250e-02 2.10069239465102e-04
7.42500000000000e+00 2.16923358518207e-02 2.09447048562270e-04
7.45961538461539e+00 2.15776122528902e-02 2.08824431069090e-04
7.49423076923077e+00 2.14634953890972e-02 2.08201422718777e-04
7.52884615384615e+00 2.13499820517718e-02 2.07578058670761e-04
7.56346153846154e+00 2.12370690489118e-02 2.06954373526318e-04
7.59807692307692e+00 2.11247532056954e-02 2.06330401330289e-04
7.63269230769231e+00 2.10130313637952e-02 2.05706175586242e-04
7.66730769230769e+00 2.09019003818805e-02 2.05081729192414e-04
7.70192307692308e+00 2.07913571350865e-02 2.04457094719258e-04
7.73653846153846e+00 2.06813985149338e-02 2.03832304017756e-04
7.77115384615385e+00 2.05720214296665e-02 2.03207388490790e-04
7.80576923076923e+00 2.04632228035988e-02 2.02582379039704e-04
7.84038461538462e+00 2.03549995775900e-02 2.01957306065408e-04
7.87500000000000e+00 2.02473487084018e-02 2.01332199482229e-04
7.90961538461539e+00 2.01402671691643e-02 2.00707088718867e-04
7.94423076923077e+00 2.00337519487448e-02 2.00082002731810e-04
7.97884615384615e+00 1.99278000522037e-02 1.99456970006200e-04
8.01346153846154e+00 1.98224085001749e-02 1.98832018568949e-04
8.04807692307692e+00 1.97175743293126e-02 1.98207175989376e-04
8.08269230769231e+00 1.96132945916820e-02 1.97582469392014e-04
8.11730769230769e+00 1.95095663551978e-02 1.96957925397658e-04
8.15192307692308e+00 1.94063867031511e-02 1.96333570374152e-04
8.18653846153846e+00 1.93037527341344e-02 1.95709430080268e-04
8.22115384615385e+00 1.92016615623351e-02 1.95085529911042e-04
8.25576923076923e+00 1.91001103169547e-02 1.94461894848415e-04
8.29038461538462e+00 1.89990961426231e-02 1.93838549461514e-04
8.32500000000000e+00 1.88986161988278e-02 1.93215517918362e-04
8.35961538461538e+00 1.87986676603201e-02 1.92592823986022e-04
8.39423076923077e+00 1.86992477165541e-02 1.91970491042001e-04
8.42884615384615e+00 1.86003535720848e-02 1.91348542074302e-04
8.46346153846154e+00 1.85019824460166e-02 1.90726999692574e-04
8.49807692307692e+00 1.84041315723939e-02 1.90105886128087e-04
8.53269230769231e+00 1.83067981996587e-02 1.89485223244583e-04
8.56730769230769e+00 1.82099795910335e-02 1.88865032484100e-04
8.60192307692308e+00 1.81136730240997e-02 1.88245335094143e-04
8.63653846153846e+00 1.80178757907269e-02 1.87626151803461e-04
8.67115384615385e+00 1.79225851973284e-02 1.87007503044362e-04
8.70576923076923e+00 1.78277985643436e-02 1.86389408907250e-04
8.74038461538462e+00 1.77335132266006e-02 1.85771889140269e-04
8.77500000000000e+00 1.76397265328073e-02 1.85154963159310e-04
8.80961538461539e+00 1.75464358459070e-02 1.84538650047647e-04
8.84423076923077e+00 1.74536385425777e-02 1.83922968565688e-04
8.87884615384615e+00 1.73613320135813e-02 1.83307937150508e-04
8.91346153846154e+00 1.72695136632708e-02 1.82693573925413e-04
8.94807692307692e+00 1.71781809099333e-02 1.82079896699385e-04
8.98269230769231e+00 1.70873311853050e-02 1.81466922976467e-04
9.01730769230769e+00 1.69969619349076e-02 1.80854669905962e-04
9.05192307692308e+00 1.69070706176705e-02 1.80243154488558e-04
9.08653846153846e+00 1.68176547058646e-02 1.79632393280930e-04
9.12115384615385e+00 1.67287116853254e-02 1.79022402597543e-04
9.15576923076923e+00 1.66402390549903e-02 1.78413198468734e-04
9.19038461538462e+00 1.65522343272171e-02 1.77804796640001e-04
9.22500000000000e+00 1.64646950273286e-02 1.77197212580665e-04
9.25961538461539e+00 1.63776186939247e-02 1.76590461483059e-04
9.29423076923077e+00 1.62910028784353e-02 1.75984558270984e-04
9.32884615384615e+00 1.62048451454260e-02 1.75379517598911e-04
9.36346153846154e+00 1.61191430721580e-02 1.74775353860229e-04
9.39807692307692e+00 1.60338942488887e-02 1.74172081186375e-04
9.43269230769231e+00 1.59490962784381e-02 1.73569713454913e-04
9.46730769230769e+00 1.58647467764845e-02 1.72968264243838e-04
9.50192307692308e+00 1.57808433712250e-02 1.72367747018962e-04
9.53653846153846e+00 1.56973837033140e-02 1.71768174864440e-04
9.57115384615385e+00 1.56143654260582e-02 1.71169560666207e-04
9.60576923076923e+00 1.55317862050022e-02 1.70571917073484e-04
9.64038461538462e+00 1.54496437182082e-02 1.69975256497768e-04
9.67500000000000e+00 1.53679356558483e-02 1.69379591120326e-04
9.70961538461538e+00 1.52866597204792e-02 1.68784932891194e-04
9.74423076923077e+00 1.52058136266408e-02 1.68191293536522e-04
9.77884615384616e+00 1.51253951011259e-02 1.67598684557500e-04
9.81346153846154e+00 1.50454018825849e-02 1.67007117237563e-04
9.84807692307692e+00 1.49658317217911e-02 1.66416602641313e-04
9.88269230769231e+00 1.48866823812513e-02 1.65827151621552e-04
9.91730769230769e+00 1.48079516354661e-02 1.65238774777320e-04
9.95192307692308e+00 1.47296372706253e-02 1.64651482624483e-04
9.98653846153846e+00 1.46517370845495e-02 1.64065285551549e-04
1.00211538461538e+01 1.45742488864760e-02 1.63480193018591e-04
1.00557692307692e+01 1.44971704985350e-02 1.62896215092169e-04
1.00903846153846e+01 1.44204997526090e-02 1.62313361929803e-04
1.01250000000000e+01 1.43442344928160e-02 1.61731642557358e-04
1.01596153846154e+01 1.42683725746755e-02 1.61151066218394e-04
1.01942307692308e+01 1.41929118650484e-02 1.60571641967299e-04
1.02288461538462e+01 1.41178502420774e-02 1.59993378288578e-04
1.02634615384615e+01 1.40431855958510e-02 1.59416284254716e-04
1.02980769230769e+01 1.39689158261624e-02 1.58840368756620e-04
1.03326923076923e+01 1.38950388446421e-02 1.58265639726596e-04
1.03673076923077e+01 1.38215525739650e-02 1.57692105313064e-04
1.04019230769231e+01 1.37484549477918e-02 1.57119773490236e-04
1.04365384615385e+01 1.36757439107121e-02 1.56548652060499e-04
1.04711538461538e+01 1.36034174181856e-02 1.55978748291870e-04
1.05057692307692e+01 1.35314734371668e-02 1.55410070020524e-04
1.05403846153846e+01 1.34599099439934e-02 1.54842624917710e-04
1.05750000000000e+01 1.33887249263926e-02 1.54276419749468e-04
1.06096153846154e+01 1.33179163827336e-02 1.53711461495286e-04
1.06442307692308e+01 1.32474823219717e-02 1.53147756976404e-04
1.06788461538462e+01 1.31774207635921e-02 1.52585312507803e-04
1.07134615384615e+01 1.31077297382020e-02 1.52024134955743e-04
1.07480769230769e+01 1.30384072855239e-02 1.51464231034586e-04
1.07826923076923e+01 1.29694514563004e-02 1.50905606596741e-04
1.08173076923077e+01 1.29008603115826e-02 1.50348267705616e-04
1.08519230769231e+01 1.28326319226760e-02 1.49792220278869e-04
1.08865384615385e+01 1.27647643710864e-02 1.49237470090401e-04
1.09211538461538e+01 1.26972557484661e-02 1.48684022438830e-04
