Energy (eV)          EEDF (eV^-(3/2))     First Anisotropy
1.31578947368421e-03 6.15314516695224e-01 3.64505966747573e-08
3.94736842105263e-03 6.15314489419373e-01 1.09601916947137e-07
6.57894736842105e-03 6.15314421885394e-01 2.67153188106112e-07
9.21052631578947e-03 6.15314310235052e-01 4.66118113467568e-07
1.18421052631579e-02 6.15314157417478e-01 6.95366714565236e-07
1.44736842105263e-02 6.15313961968220e-01 9.52086945634976e-07
1.71052631578947e-02 6.15313725689133e-01 1.21732553564479e-06
1.97368421052632e-02 6.15313453724754e-01 1.48184108082215e-06
2.23684210526316e-02 6.15313149198510e-01 1.74936083808010e-06
2.50000000000000e-02 6.15312813855146e-01 2.02492633840548e-06
2.76315789473684e-02 6.15312447948207e-01 2.31090716322409e-06
3.02631578947368e-02 6.15312051906212e-01 2.60077645893725e-06
3.28947368421053e-02 6.15311627782877e-01 2.89167882250319e-06
3.55263157894737e-02 6.15311176440404e-01 3.19104969801878e-06
3.81578947368421e-02 6.15310697306095e-01 3.50287009017046e-06
4.07894736842105e-02 6.15310189980746e-01 3.83002368950844e-06
4.34210526315789e-02 6.15309653100034e-01 4.17518318576769e-06
4.60526315789474e-02 6.15309085627265e-01 4.53669930797847e-06
4.86842105263158e-02 6.15308486754398e-01 4.91359746675863e-06
5.13157894736842e-02 6.15307855759949e-01 5.29087908499428e-06
5.39473684210526e-02 6.15307195605769e-01 5.66787850627109e-06
5.65789473684210e-02 6.15306505518059e-01 6.05925346304693e-06
5.92105263157895e-02 6.15305784777357e-01 6.46481446768480e-06
6.18421052631579e-02 6.15305032698732e-01 6.88475530284255e-06
6.44736842105263e-02 6.15304248557292e-01 7.31978648007405e-06
6.71052631578947e-02 6.15303431547841e-01 7.77031771114798e-06
6.97368421052632e-02 6.15302580896816e-01 8.22773773306293e-06
7.23684210526316e-02 6.15301697700202e-01 8.67818944296524e-06
7.50000000000000e-02 6.15300784075942e-01 9.12910751679060e-06
7.76315789473684e-02 6.15299839377925e-01 9.59332959560956e-06
8.02631578947368e-02 6.15298862982008e-01 1.00708706268549e-05
8.28947368421053e-02 6.15297854268878e-01 1.05619739511758e-05
8.55263157894737e-02 6.15296812594201e-01 1.10669056657926e-05
8.81578947368421e-02 6.15295737313948e-01 1.15856295178042e-05
9.07894736842105e-02 6.15294627816675e-01 1.21180183078113e-05
9.34210526315789e-02 6.15293483506026e-01 1.26642040074035e-05
9.60526315789474e-02 6.15292303767207e-01 1.32243543840226e-05
9.86842105263158e-02 6.15291087993126e-01 1.37985083793789e-05
1.01315789473684e-01 6.15289835581411e-01 1.43583660313527e-05
1.03947368421053e-01 6.15288551119824e-01 1.49010846640114e-05
1.06578947368421e-01 6.15287234361572e-01 1.54527616334914e-05
1.09210526315789e-01 6.15285885055905e-01 1.60134377287586e-05
1.11842105263158e-01 6.15284502948409e-01 1.65831528489935e-05
1.14473684210526e-01 6.15283087781261e-01 1.71619461424138e-05
1.17105263157895e-01 6.15281639293446e-01 1.77498561190037e-05
1.19736842105263e-01 6.15280157220956e-01 1.83469207491196e-05
1.22368421052632e-01 6.15278641296964e-01 1.89531775461574e-05
1.25000000000000e-01 6.15277091251968e-01 1.95686636390110e-05
1.27631578947368e-01 6.15275506813935e-01 2.01934158523471e-05
1.30263157894737e-01 6.15273887708408e-01 2.08274707446555e-05
1.32894736842105e-01 6.15272233658622e-01 2.14708646632652e-05
1.35526315789474e-01 6.15270544385587e-01 2.21236338034586e-05
1.38157894736842e-01 6.15268819608176e-01 2.27858142296991e-05
1.40789473684211e-01 6.15267059043196e-01 2.34574419152785e-05
1.43421052631579e-01 6.15265262405454e-01 2.41385527834454e-05
1.46052631578947e-01 6.15263429407811e-01 2.48291827207836e-05
1.48684210526316e-01 6.15261559761238e-01 2.55293675881135e-05
1.51315789473684e-01 6.15259653174858e-01 2.62391432689523e-05
1.53947368421053e-01 6.15257709355987e-01 2.69585456731266e-05
1.56578947368421e-01 6.15255728010173e-01 2.76876107446777e-05
1.59210526315789e-01 6.15253708841223e-01 2.84263744885681e-05
1.61842105263158e-01 6.15251651551235e-01 2.91748729676271e-05
1.64473684210526e-01 6.15249555840623e-01 2.99331423243519e-05
1.67105263157895e-01 6.15247421408136e-01 3.07012187850134e-05
1.69736842105263e-01 6.15245247950884e-01 3.14791386270892e-05
1.72368421052632e-01 6.15243035164354e-01 3.22669369090618e-05
1.75000000000000e-01 6.15240782742610e-01 3.30646437635959e-05
1.77631578947368e-01 6.15238490378811e-01 3.38722798614634e-05
1.80263157894737e-01 6.15236157766009e-01 3.46898377154305e-05
1.82894736842105e-01 6.15233784600168e-01 3.55172497258079e-05
1.85526315789474e-01 6.15231370585160e-01 3.63543847348625e-05
1.88157894736842e-01 6.15228915436004e-01 3.72010229548747e-05
1.90789473684211e-01 6.15226418886938e-01 3.80568618718820e-05
1.93421052631579e-01 6.15223880693518e-01 3.89216135444581e-05
1.96052631578947e-01 6.15221300627541e-01 3.97950465390204e-05
1.98684210526316e-01 6.15218678473744e-01 4.06770147371543e-05
2.01315789473684e-01 6.15216014021272e-01 4.15100039509947e-05
2.03947368421053e-01 6.15213314974524e-01 4.22918321142739e-05
2.06578947368421e-01 6.15210581303246e-01 4.30782830239384e-05
2.09210526315789e-01 6.15207812976953e-01 4.38693258209501e-05
2.11842105263158e-01 6.15205009964896e-01 4.46649307254454e-05
2.14473684210526e-01 6.15202172236044e-01 4.54650689969119e-05
2.17105263157895e-01 6.15199299759051e-01 4.62697129106102e-05
2.19736842105263e-01 6.15196392502237e-01 4.70788357062023e-05
2.22368421052632e-01 6.15193450433565e-01 4.78924115551542e-05
2.25000000000000e-01 6.15190473520621e-01 4.87104155368155e-05
2.27631578947368e-01 6.15187461730601e-01 4.95328235953610e-05
2.30263157894737e-01 6.15184415030285e-01 5.03596125279933e-05
2.32894736842105e-01 6.15181333386030e-01 5.11907599514394e-05
2.35526315789474e-01 6.15178216763748e-01 5.20262442643861e-05
2.38157894736842e-01 6.15175065128899e-01 5.28660446372115e-05
2.40789473684211e-01 6.15171878446474e-01 5.37101409880840e-05
2.43421052631579e-01 6.15168656680983e-01 5.45585139552299e-05
2.46052631578947e-01 6.15165399796446e-01 5.54111448793269e-05
2.48684210526316e-01 6.15162107756383e-01 5.62680157859788e-05
2.51315789473684e-01 6.15158780523801e-01 5.71291093597268e-05
2.53947368421053e-01 6.15155418061188e-01 5.79944089188405e-05
2.56578947368421e-01 6.15152020330505e-01 5.88638984043092e-05
2.59210526315789e-01 6.15148587293177e-01 5.97375623632985e-05
2.61842105263158e-01 6.15145118910085e-01 6.06153859278446e-05
2.64473684210526e-01 6.15141615141564e-01 6.14973548109308e-05
2.67105263157895e-01 6.15138075947390e-01 6.23834552708128e-05
2.69736842105263e-01 6.15134501286780e-01 6.32736740868043e-05
2.72368421052632e-01 6.15130891118387e-01 6.41679981484801e-05
2.75000000000000e-01 6.15127245400340e-01 6.50664132284089e-05
2.77631578947368e-01 6.15123564090378e-01 6.59689024972235e-05
2.80263157894737e-01 6.15119847146056e-01 6.68754404551476e-05
2.82894736842105e-01 6.15116094525551e-01 6.77859825111842e-05
2.85526315789474e-01 6.15112306189009e-01 6.87004636420024e-05
2.88157894736842e-01 6.15108482099466e-01 6.96187899579213e-05
2.90789473684211e-01 6.15104622225075e-01 7.05408413372687e-05
2.93421052631579e-01 6.15100726539656e-01 7.14665042444615e-05
2.96052631578947e-01 6.15096795021257e-01 7.23956854893902e-05
2.98684210526316e-01 6.15092827651209e-01 7.33283216895065e-05
3.01315789473684e-01 6.15088824411710e-01 7.42496521626653e-05
3.03947368421053e-01 6.15084787312160e-01 7.52154216894468e-05
3.06578947368421e-01 6.15080710316746e-01 7.62941277381828e-05
3.09210526315789e-01 6.15076587693756e-01 7.74814078630175e-05
3.11842105263158e-01 6.15072414002706e-01 7.87730389986340e-05
3.14473684210526e-01 6.15068184082063e-01 8.01649324181709e-05
3.17105263157895e-01 6.15063893037530e-01 8.16531289283690e-05
3.19736842105263e-01 6.15059536230858e-01 8.32337942553672e-05
3.22368421052632e-01 6.15055109269167e-01 8.49032146078582e-05
3.25000000000000e-01 6.15050607994742e-01 8.66577924324634e-05
3.27631578947368e-01 6.15046028475286e-01 8.84940423755477e-05
3.30263157894737e-01 6.15041366994600e-01 9.04085873626587e-05
3.32894736842105e-01 6.15036620043684e-01 9.23981548500358e-05
3.35526315789474e-01 6.15031784312215e-01 9.44595732227483e-05
3.38157894736842e-01 6.15026856680407e-01 9.65897683243743e-05
3.40789473684211e-01 6.15021834211222e-01 9.87857601484837e-05
3.43421052631579e-01 6.15016714142918e-01 1.01044659625750e-04
3.46052631578947e-01 6.15011493881914e-01 1.03363665553482e-04
3.48684210526316e-01 6.15006170995963e-01 1.05740061628757e-04
3.51315789473684e-01 6.15000743207623e-01 1.08171213602794e-04
3.53947368421053e-01 6.14995208387991e-01 1.10654566533513e-04
3.56578947368421e-01 6.14989564550717e-01 1.13187642144094e-04
3.59210526315789e-01 6.14983809846261e-01 1.15768036284047e-04
3.61842105263158e-01 6.14977942556392e-01 1.18393416463261e-04
3.64473684210526e-01 6.14971961088923e-01 1.21061519508508e-04
3.67105263157895e-01 6.14965863972657e-01 1.23770149267701e-04
3.69736842105263e-01 6.14959649852550e-01 1.26517174410301e-04
3.72368421052632e-01 6.14953317485072e-01 1.29300526116358e-04
3.75000000000000e-01 6.14946865733777e-01 1.32118195445685e-04
3.77631578947368e-01 6.14940293565098e-01 1.34968230601046e-04
3.80263157894737e-01 6.14933600044352e-01 1.37848731926400e-04
3.82894736842105e-01 6.14926784332179e-01 1.40757844940208e-04
3.85526315789474e-01 6.14919845681375e-01 1.43693758153022e-04
3.88157894736842e-01 6.14912783433675e-01 1.46654697477563e-04
3.90789473684211e-01 6.14905597017243e-01 1.49638925915467e-04
3.93421052631579e-01 6.14898285943580e-01 1.52644758448796e-04
3.96052631578947e-01 6.14890849803655e-01 1.55670567715079e-04
3.98684210526316e-01 6.14883288264382e-01 1.58714787190284e-04
4.01315789473684e-01 6.14875601064572e-01 1.61715229073095e-04
4.03947368421053e-01 6.14867794856385e-01 1.64734055488433e-04
4.06578947368421e-01 6.14859863444284e-01 1.67892196251003e-04
4.09210526315789e-01 6.14851800946313e-01 1.71184176789760e-04
4.11842105263158e-01 6.14843601781806e-01 1.74604696293932e-04
4.14473684210526e-01 6.14835260659568e-01 1.78148622485059e-04
4.17105263157895e-01 6.14826772566502e-01 1.81810986584645e-04
4.19736842105263e-01 6.14818132756654e-01 1.85586978484458e-04
4.22368421052632e-01 6.14809336740680e-01 1.89471942049171e-04
4.25000000000000e-01 6.14800380275692e-01 1.93461370578859e-04
4.27631578947368e-01 6.14791259355495e-01 1.97550902436371e-04
4.30263157894737e-01 6.14781970201172e-01 2.01736316803749e-04
4.32894736842105e-01 6.14772509252028e-01 2.06013529570183e-04
4.35526315789474e-01 6.14762873156856e-01 2.10378589372954e-04
4.38157894736842e-01 6.14753058765538e-01 2.14827673752710e-04
4.40789473684211e-01 6.14743063120938e-01 2.19357085408633e-04
4.43421052631579e-01 6.14732883451102e-01 2.23963248603836e-04
4.46052631578947e-01 6.14722517161740e-01 2.28642705679864e-04
4.48684210526316e-01 6.14711961828979e-01 2.33392113666021e-04
4.51315789473684e-01 6.14701215192380e-01 2.38208241002861e-04
4.53947368421053e-01 6.14690275148209e-01 2.43087964360216e-04
4.56578947368421e-01 6.14679139742950e-01 2.48028265551554e-04
4.59210526315789e-01 6.14667807167051e-01 2.53026228567197e-04
4.61842105263158e-01 6.14656275748898e-01 2.58079036677706e-04
4.64473684210526e-01 6.14644543949004e-01 2.63183969619338e-04
4.67105263157895e-01 6.14632610354401e-01 2.68338400901992e-04
4.69736842105263e-01 6.14620473673244e-01 2.73539795155310e-04
4.72368421052632e-01 6.14608132729594e-01 2.78785705443311e-04
4.75000000000000e-01 6.14595586458413e-01 2.84073770456061e-04
4.77631578947368e-01 6.14582833900743e-01 2.89401711623204e-04
4.80263157894737e-01 6.14569874199094e-01 2.94767329043138e-04
4.82894736842105e-01 6.14556706593118e-01 3.00168496263164e-04
4.85526315789474e-01 6.14543330415588e-01 3.05603157452385e-04
4.88157894736842e-01 6.14529745088439e-01 3.11069323268063e-04
4.90789473684210e-01 6.14515950119212e-01 3.16565070342906e-04
4.93421052631579e-01 6.14501945097230e-01 3.22088548933661e-04
4.96052631578947e-01 6.14487729689451e-01 3.27637985648015e-04
4.98684210526316e-01 6.14473303636496e-01 3.33211684026679e-04
5.01315789473684e-01 6.14458666748554e-01 3.38744493480736e-04
5.03947368421053e-01 6.14443825228311e-01 3.44244875129409e-04
5.06578947368421e-01 6.14428778146703e-01 3.49784218807782e-04
5.09210526315789e-01 6.14413524698964e-01 3.55359753705873e-04
5.11842105263158e-01 6.14398064199794e-01 3.60968793757539e-04
5.14473684210526e-01 6.14382396078684e-01 3.66608735525208e-04
5.17105263157895e-01 6.14366519875394e-01 3.72277056138223e-04
5.19736842105263e-01 6.14350435235578e-01 3.77971311283567e-04
5.22368421052632e-01 6.14334141906540e-01 3.83689133270954e-04
5.25000000000000e-01 6.14317639733136e-01 3.89428229128228e-04
5.27631578947368e-01 6.14300928653802e-01 3.95186378753881e-04
5.30263157894737e-01 6.14284008696712e-01 4.00961433122533e-04
5.32894736842105e-01 6.14266879976055e-01 4.06751312528574e-04
5.35526315789474e-01 6.14249542688434e-01 4.12554004888305e-04
5.38157894736842e-01 6.14231997109376e-01 4.18367564079082e-04
5.40789473684210e-01 6.14214243589961e-01 4.24190108308047e-04
5.43421052631579e-01 6.14196282553547e-01 4.30019818546441e-04
5.46052631578947e-01 6.14178114492609e-01 4.35854936982629e-04
5.48684210526316e-01 6.14159739965673e-01 4.41693765524419e-04
5.51315789473684e-01 6.14141159594354e-01 4.47534664349772e-04
5.53947368421053e-01 6.14122374060478e-01 4.53376050461013e-04
5.56578947368421e-01 6.14103384103306e-01 4.59216396296937e-04
5.59210526315789e-01 6.14084190516842e-01 4.65054228385879e-04
5.61842105263158e-01 6.14064794147224e-01 4.70888126013045e-04
5.64473684210526e-01 6.14045195890206e-01 4.76716719931390e-04
5.67105263157895e-01 6.14025396688712e-01 4.82538691121502e-04
5.69736842105263e-01 6.14005397530474e-01 4.88352769543877e-04
5.72368421052632e-01 6.13985199445741e-01 4.94157732850925e-04
5.75000000000000e-01 6.13964803505074e-01 4.99952404994908e-04
5.77631578947368e-01 6.13944210817218e-01 5.05735654707007e-04
5.80263157894737e-01 6.13923422527070e-01 5.11506393220151e-04
5.82894736842105e-01 6.13902439813785e-01 5.17263571099409e-04
5.85526315789474e-01 6.13881263889042e-01 5.23006176854723e-04
5.88157894736842e-01 6.13859895995308e-01 5.28733235343063e-04
5.90789473684211e-01 6.13838337404266e-01 5.34443807317765e-04
5.93421052631579e-01 6.13816589415142e-01 5.40136994840473e-04
5.96052631578947e-01 6.13794653352700e-01 5.45811944670686e-04
5.98684210526316e-01 6.13772530565306e-01 5.51467846976945e-04
6.01315789473684e-01 6.13750222423094e-01 5.57280181043252e-04
6.03947368421053e-01 6.13727716143446e-01 5.63592210409293e-04
6.06578947368421e-01 6.13704985604327e-01 5.70559101612845e-04
6.09210526315789e-01 6.13682005805389e-01 5.78156768087628e-04
6.11842105263158e-01 6.13658752831158e-01 5.86361806259996e-04
6.14473684210526e-01 6.13635203815405e-01 5.95151476548228e-04
6.17105263157895e-01 6.13611336906651e-01 6.04503684948560e-04
6.19736842105263e-01 6.13587131234769e-01 6.14396965142859e-04
6.22368421052632e-01 6.13562566878653e-01 6.24810461156685e-04
6.25000000000000e-01 6.13537624834905e-01 6.35723910496774e-04
6.27631578947368e-01 6.13512286987523e-01 6.47117627747585e-04
6.30263157894737e-01 6.13486536078548e-01 6.58972488645244e-04
6.32894736842105e-01 6.13460355679638e-01 6.71269914572347e-04
6.35526315789474e-01 6.13433730164549e-01 6.83991857496462e-04
6.38157894736842e-01 6.13406644682483e-01 6.97120785308565e-04
6.40789473684210e-01 6.13379085132281e-01 7.10639667552184e-04
6.43421052631579e-01 6.13351038137439e-01 7.24531961571908e-04
6.46052631578947e-01 6.13322491021908e-01 7.38781599016080e-04
6.48684210526316e-01 6.13293431786665e-01 7.53372972715657e-04
6.51315789473684e-01 6.13263849087026e-01 7.68290923898427e-04
6.53947368421053e-01 6.13233732210680e-01 7.83520729771313e-04
6.56578947368421e-01 6.13203071056414e-01 7.99048091446370e-04
6.59210526315789e-01 6.13171856113518e-01 8.14859122189766e-04
6.61842105263158e-01 6.13140078441840e-01 8.30940335953836e-04
6.64473684210526e-01 6.13107729652479e-01 8.47278636256690e-04
6.67105263157895e-01 6.13074801889082e-01 8.63861305357623e-04
6.69736842105263e-01 6.13041287809744e-01 8.80675993695967e-04
6.72368421052632e-01 6.13007180569480e-01 8.97710709586524e-04
6.75000000000000e-01 6.12972473803258e-01 9.14953809048817e-04
6.77631578947368e-01 6.12937161609584e-01 9.32393985794778e-04
6.80263157894737e-01 6.12901238534627e-01 9.50020260976680e-04
6.82894736842105e-01 6.12864699556892e-01 9.67821972595961e-04
6.85526315789474e-01 6.12827540072454e-01 9.85788765848069e-04
6.88157894736842e-01 6.12789755880664e-01 1.00391058307017e-03
6.90789473684211e-01 6.12751343170414e-01 1.02217765849904e-03
6.93421052631579e-01 6.12712298506459e-01 1.04058051506734e-03
6.96052631578947e-01 6.12672618816174e-01 1.05910995496292e-03
6.98684210526316e-01 6.12632301376869e-01 1.07775705479714e-03
7.01315789473684e-01 6.12591343803107e-01 1.09675084530608e-03
7.03947368421053e-01 6.12549726899160e-01 1.11667025199065e-03
7.06578947368421e-01 6.12507404895724e-01 1.13783817140746e-03
7.09210526315789e-01 6.12464333920213e-01 1.16021022411547e-03
7.11842105263158e-01 6.12420471944186e-01 1.18374307375470e-03
7.14473684210526e-01 6.12375778732157e-01 1.20839440373068e-03
7.17105263157895e-01 6.12330215791745e-01 1.23412289449882e-03
7.19736842105263e-01 6.12283746325130e-01 1.26088820134832e-03
7.22368421052632e-01 6.12236335181777e-01 1.28865093271929e-03
7.25000000000000e-01 6.12187948812394e-01 1.31737262898681e-03
7.27631578947368e-01 6.12138555224092e-01 1.34701574170581e-03
7.30263157894737e-01 6.12088123936722e-01 1.37754361330273e-03
7.32894736842105e-01 6.12036625940349e-01 1.40892045717107e-03
7.35526315789474e-01 6.11984033653841e-01 1.44111133818550e-03
7.38157894736842e-01 6.11930320884544e-01 1.47408215362836e-03
7.40789473684211e-01 6.11875462789012e-01 1.50779961451717e-03
7.43421052631579e-01 6.11819435834768e-01 1.54223122727930e-03
7.46052631578947e-01 6.11762217763077e-01 1.57734527582029e-03
7.48684210526316e-01 6.11703787552687e-01 1.61311080397977e-03
7.51315789473684e-01 6.11644125384534e-01 1.64949759833032e-03
7.53947368421053e-01 6.11583212607378e-01 1.68647617130318e-03
7.56578947368421e-01 6.11521031704341e-01 1.72401774468943e-03
7.59210526315789e-01 6.11457566260338e-01 1.76209423350167e-03
7.61842105263158e-01 6.11392800930364e-01 1.80067823010771e-03
7.64473684210526e-01 6.11326721408628e-01 1.83974298872065e-03
7.67105263157895e-01 6.11259314398503e-01 1.87926241018811e-03
7.69736842105263e-01 6.11190567583284e-01 1.91921102708649e-03
7.72368421052632e-01 6.11120469597719e-01 1.95956398908369e-03
7.75000000000000e-01 6.11049010000309e-01 2.00029704846103e-03
7.77631578947368e-01 6.10976179246360e-01 2.04138654576028e-03
7.80263157894737e-01 6.10901968661775e-01 2.08280939505948e-03
7.82894736842105e-01 6.10826370417617e-01 2.12454306903554e-03
7.85526315789474e-01 6.10749377505405e-01 2.16656558524703e-03
7.88157894736842e-01 6.10670983713083e-01 2.20885549338850e-03
7.90789473684210e-01 6.10591183601621e-01 2.25139186284302e-03
7.93421052631579e-01 6.10509972482257e-01 2.29415427754659e-03
7.96052631578947e-01 6.10427346393779e-01 2.33712282949262e-03
7.98684210526316e-01 6.10343302080545e-01 2.38027810485496e-03
8.01315789473684e-01 6.10257836971148e-01 2.42345155998688e-03
8.03947368421053e-01 6.10170959797894e-01 2.46633272447524e-03
8.06578947368421e-01 6.10082689988909e-01 2.50877105339542e-03
8.09210526315789e-01 6.09993046811972e-01 2.55076848757969e-03
8.11842105263158e-01 6.09902049374765e-01 2.59232699830414e-03
8.14473684210526e-01 6.09809716625058e-01 2.63344858837507e-03
8.17105263157895e-01 6.09716067350867e-01 2.67413529310196e-03
8.19736842105263e-01 6.09621120180553e-01 2.71438918114933e-03
8.22368421052632e-01 6.09524893582898e-01 2.75421235529456e-03
8.25000000000000e-01 6.09427405867140e-01 2.79360695309518e-03
8.27631578947368e-01 6.09328675182981e-01 2.83257514748686e-03
8.30263157894737e-01 6.09228719520565e-01 2.87111914730807e-03
