Energy (eV)          EEDF (eV^-(3/2))     First Anisotropy
1.50000000000000e+00 3.71342284484717e-02 1.19208616186573e-04
4.50000000000000e+00 2.61935297102835e-02 1.68415347626481e-04
7.50000000000000e+00 1.84762421989069e-02 1.57885551163809e-04
1.05000000000000e+01 1.30326660655684e-02 1.32777556120256e-04
1.35000000000000e+01 9.19290746181419e-03 1.06525429356259e-04
1.65000000000000e+01 6.48444049562113e-03 8.31993957709626e-05
1.95000000000000e+01 4.57395755542102e-03 6.38558026300382e-05
2.25000000000000e+01 3.22635202419095e-03 4.84100067161732e-05
2.55000000000000e+01 2.27578574087640e-03 3.63659198611977e-05
2.85000000000000e+01 1.60528073178100e-03 2.71255974564191e-05
3.15000000000000e+01 1.13232374275926e-03 2.01193452448777e-05
3.45000000000000e+01 7.98712046455479e-04 1.48542013541642e-05
3.75000000000000e+01 5.63390935880718e-04 1.09250237924050e-05
4.05000000000000e+01 3.97401476591156e-04 8.00923661644192e-06
4.35000000000000e+01 2.80316781010953e-04 5.85541464847059e-06
4.65000000000000e+01 1.97728247993358e-04 4.27054531091124e-06
4.95000000000000e+01 1.39472420857298e-04 3.10812887850933e-06
5.25000000000000e+01 9.83802586489755e-05 2.25793954834217e-06
5.55000000000000e+01 6.93949042566781e-05 1.63761861785273e-06
5.85000000000000e+01 4.89493807286679e-05 1.18597552592410e-06
6.15000000000000e+01 3.45276342605445e-05 8.57758777837028e-07
6.45000000000000e+01 2.43549052078553e-05 6.19634941170944e-07
6.75000000000000e+01 1.71793237615887e-05 4.47131440983974e-07
7.05000000000000e+01 1.21178531547024e-05 3.22332580264607e-07
7.35000000000000e+01 8.54762196212028e-06 2.32155424116334e-07
7.65000000000000e+01 6.02927269992284e-06 1.67067018400132e-07
7.95000000000000e+01 4.25289389857592e-06 1.20134522882456e-07
8.25000000000000e+01 2.99988197793338e-06 8.63246845892871e-08
8.55000000000000e+01 2.11603959471994e-06 6.19889695824692e-08
8.85000000000000e+01 1.49259990871613e-06 4.44862663821750e-08
9.15000000000000e+01 1.05284158815292e-06 3.19071129084163e-08
9.45000000000000e+01 7.42647378759273e-07 2.28725835587524e-08
9.75000000000000e+01 5.23844361187898e-07 1.63879161904386e-08
1.00500000000000e+02 3.69506339882076e-07 1.17361687570668e-08
1.03500000000000e+02 2.60640268997903e-07 8.40108122764785e-09
1.06500000000000e+02 1.83848942470052e-07 6.01120216484357e-09
1.09500000000000e+02 1.29682315696307e-07 4.29947033785501e-09
1.12500000000000e+02 9.14745702553938e-08 3.07401079395497e-09
1.15500000000000e+02 6.45238092679068e-08 2.19705649610257e-09
1.18500000000000e+02 4.55134356009256e-08 1.56974967605679e-09
1.21500000000000e+02 3.21040069348467e-08 1.12119269564781e-09
1.24500000000000e+02 2.26453408244076e-08 8.00566843789824e-10
1.27500000000000e+02 1.59734410129646e-08 5.71463815575770e-10
1.30500000000000e+02 1.12672544773383e-08 4.07811572421706e-10
1.33500000000000e+02 7.94763153124384e-09 2.90948082801050e-10
1.36500000000000e+02 5.60605488084642e-09 2.07520835587859e-10
1.39500000000000e+02 3.95436693353390e-09 1.47979972863034e-10
1.42500000000000e+02 2.78930873446343e-09 1.05497866567545e-10
1.45500000000000e+02 1.96750664440768e-09 7.51948503121259e-11
1.48500000000000e+02 1.38782858561300e-09 5.35846184376440e-11
1.51500000000000e+02 9.78938591398980e-10 3.81771500320144e-11
1.54500000000000e+02 6.90518105524486e-10 2.71945367462617e-11
1.57500000000000e+02 4.87073712535655e-10 1.93676934474672e-11
1.60500000000000e+02 3.43569270009320e-10 1.37909857516503e-11
1.63500000000000e+02 2.42344926972621e-10 9.81831153318309e-12
1.66500000000000e+02 1.70943878734474e-10 6.98884098062941e-12
1.69500000000000e+02 1.20579415636326e-10 4.97396787481111e-12
1.72500000000000e+02 8.50536186661687e-11 3.53942517117630e-12
1.75500000000000e+02 5.99946351542170e-11 2.51823806401750e-12
1.78500000000000e+02 4.23186726647682e-11 1.79141972334990e-12
1.81500000000000e+02 2.98505033242446e-11 1.27419692851693e-12
1.84500000000000e+02 2.10557773342587e-11 9.06184029927140e-13
1.87500000000000e+02 1.48522038082285e-11 6.44375200216723e-13
1.90500000000000e+02 1.04763625896751e-11 4.58147813408046e-13
1.93500000000000e+02 7.38975673425227e-12 3.25700589348328e-13
1.96500000000000e+02 5.21254434676076e-12 2.31515064011284e-13
1.99500000000000e+02 3.67679472329705e-12 1.64546758533130e-13
2.02500000000000e+02 2.59351643610784e-12 1.16936552750297e-13
2.05500000000000e+02 1.82939979263511e-12 8.30928329710862e-14
2.08500000000000e+02 1.29041156427598e-12 5.90378524705651e-14
2.11500000000000e+02 9.10223129969121e-13 4.19423312596957e-14
2.14500000000000e+02 6.42047986291596e-13 2.97941415555955e-14
2.17500000000000e+02 4.52884137008337e-13 2.11624867059189e-14
2.20500000000000e+02 3.19452822737513e-13 1.50300766293375e-14
2.23500000000000e+02 2.25333805306336e-13 1.06737120759079e-14
2.26500000000000e+02 1.58944671011891e-13 7.57932686654677e-15
2.29500000000000e+02 1.12115483110638e-13 5.38155378435404e-15
2.32500000000000e+02 7.90833783423371e-14 3.82074116929725e-15
2.35500000000000e+02 5.57833811755107e-14 2.71238533517033e-15
2.38500000000000e+02 3.93481624153939e-14 1.92539531034077e-15
2.41500000000000e+02 2.77551817914530e-14 1.36663980366147e-15
2.44500000000000e+02 1.95777914135890e-14 9.69961963087450e-16
2.47500000000000e+02 1.38096705513934e-14 6.88371121127427e-16
2.50500000000000e+02 9.74098644271241e-15 4.88493364822462e-16
2.53500000000000e+02 6.87104131296840e-15 3.46627922410017e-16
2.56500000000000e+02 4.84665582917826e-15 2.45945001488964e-16
2.59500000000000e+02 3.41870637310424e-15 1.74494903034275e-16
2.62500000000000e+02 2.41146755153133e-15 1.23793677094726e-16
2.65500000000000e+02 1.70098719148209e-15 8.78184590739782e-17
2.68500000000000e+02 1.19983261800425e-15 6.22938870549477e-17
2.71500000000000e+02 8.46331070825169e-16 4.41853129862454e-17
2.74500000000000e+02 5.96980170980432e-16 3.13389125164817e-17
2.77500000000000e+02 4.21094459165196e-16 2.22261359708727e-17
2.80500000000000e+02 2.97029201570316e-16 1.57622651214811e-17
2.83500000000000e+02 2.09516759637268e-16 1.11775969596613e-17
2.86500000000000e+02 1.47787733787881e-16 7.92599772316411e-18
2.89500000000000e+02 1.04245666532696e-16 5.61999109034852e-18
2.92500000000000e+02 7.35322121282646e-17 3.98468493953716e-18
2.95500000000000e+02 5.18677312958641e-17 2.82507188562785e-18
2.98500000000000e+02 3.65861636949973e-17 2.34883721699389e-18
