Energy (eV)          EEDF (eV^-(3/2))     First Anisotropy
2.88461538461538e-02 4.39580038209911e-02 2.28738529838196e-05
8.65384615384615e-02 4.36668817938941e-02 3.77731442229693e-05
1.44230769230769e-01 4.33776877906385e-02 4.98698951688786e-05
2.01923076923077e-01 4.30904090408830e-02 5.90629773851595e-05
2.59615384615385e-01 4.28050328605306e-02 6.67326783189251e-05
3.17307692307692e-01 4.25215466505605e-02 7.34006712566653e-05
3.75000000000000e-01 4.22399378931762e-02 7.93368265451486e-05
4.32692307692308e-01 4.19601941545643e-02 8.47040540904732e-05
4.90384615384615e-01 4.16823030832491e-02 8.96103613299286e-05
5.48076923076923e-01 4.14062524101166e-02 9.41320595301153e-05
6.05769230769231e-01 4.11320299461349e-02 9.83256188936280e-05
6.63461538461539e-01 4.08596235835813e-02 1.02234328628736e-04
7.21153846153846e-01 4.05890212953303e-02 1.05892312166253e-04
7.78846153846154e-01 4.03202111330820e-02 1.09327083155024e-04
8.36538461538462e-01 4.00531812280736e-02 1.12561245278680e-04
8.94230769230769e-01 3.97879197904658e-02 1.15613664150977e-04
9.51923076923077e-01 3.95244151078658e-02 1.18500299277133e-04
1.00961538461538e+00 3.92626555457639e-02 1.21234810075339e-04
1.06730769230769e+00 3.90026295464459e-02 1.23829007121896e-04
1.12500000000000e+00 3.87443256287895e-02 1.26293194095111e-04
1.18269230769231e+00 3.84877323902067e-02 1.28636432745821e-04
1.24038461538462e+00 3.82328384990645e-02 1.30866749118210e-04
1.29807692307692e+00 3.79796327010825e-02 1.32991296970723e-04
1.35576923076923e+00 3.77281038165013e-02 1.35016490034698e-04
1.41346153846154e+00 3.74782407414178e-02 1.36948109287250e-04
1.47115384615385e+00 3.72300324418030e-02 1.38791389976707e-04
1.52884615384615e+00 3.69834679585605e-02 1.40551093459502e-04
1.58653846153846e+00 3.67385364051492e-02 1.42231568211181e-04
1.64423076923077e+00 3.64952269671464e-02 1.43836799955619e-04
1.70192307692308e+00 3.62535289031978e-02 1.45370455085269e-04
1.75961538461538e+00 3.60134315401392e-02 1.46835916601428e-04
1.81730769230769e+00 3.57749242769741e-02 1.48236314800335e-04
1.87500000000000e+00 3.55379965829180e-02 1.49574554519788e-04
1.93269230769231e+00 3.53026379981676e-02 1.50853338670551e-04
1.99038461538462e+00 3.50688381296864e-02 1.52075187967259e-04
2.04807692307692e+00 3.48365866545314e-02 1.53242458096274e-04
2.10576923076923e+00 3.46058733181218e-02 1.54357355534233e-04
2.16346153846154e+00 3.43766879348651e-02 1.55421951439960e-04
2.22115384615385e+00 3.41490203844604e-02 1.56438193265844e-04
2.27884615384615e+00 3.39228606147246e-02 1.57407915005671e-04
2.33653846153846e+00 3.36981986400385e-02 1.58332847181705e-04
2.39423076923077e+00 3.34750245409227e-02 1.59214624920238e-04
2.45192307692308e+00 3.32533284645068e-02 1.60054795986183e-04
2.50961538461538e+00 3.30331006213204e-02 1.60854827218781e-04
2.56730769230769e+00 3.28143312876577e-02 1.61616110287252e-04
2.62500000000000e+00 3.25970108042119e-02 1.62339967536160e-04
2.68269230769231e+00 3.23811295764608e-02 1.63027657246924e-04
2.74038461538462e+00 3.21666780717830e-02 1.63680377839702e-04
2.79807692307692e+00 3.19536468215157e-02 1.64299271660356e-04
2.85576923076923e+00 3.17420264197023e-02 1.64885429034466e-04
2.91346153846154e+00 3.15318075234076e-02 1.65439891942715e-04
2.97115384615385e+00 3.13229808501073e-02 1.65963656850748e-04
3.02884615384615e+00 3.11155371794916e-02 1.66457677274337e-04
3.08653846153846e+00 3.09094673523098e-02 1.66922866829888e-04
3.14423076923077e+00 3.07047622699745e-02 1.67360101366431e-04
3.20192307692308e+00 3.05014128947957e-02 1.67770221579343e-04
3.25961538461538e+00 3.02994102476447e-02 1.68154034792216e-04
3.31730769230769e+00 3.00987454095089e-02 1.68512316580171e-04
3.37500000000000e+00 2.98994095204447e-02 1.68845812797984e-04
3.43269230769231e+00 2.97013937797666e-02 1.69155241437798e-04
3.49038461538462e+00 2.95046894439032e-02 1.69441293886852e-04
3.54807692307692e+00 2.93092878277783e-02 1.69704636075763e-04
3.60576923076923e+00 2.91151803038336e-02 1.69945910040473e-04
3.66346153846154e+00 2.89223583021784e-02 1.70165735356815e-04
3.72115384615385e+00 2.87308133086133e-02 1.70364710039907e-04
3.77884615384615e+00 2.85405368658626e-02 1.70543411365838e-04
3.83653846153846e+00 2.83515205726584e-02 1.70702397212647e-04
3.89423076923077e+00 2.81637560833742e-02 1.70842206759073e-04
3.95192307692308e+00 2.79772351081291e-02 1.70963361677342e-04
4.00961538461539e+00 2.77919494109865e-02 1.71066366728896e-04
4.06730769230769e+00 2.76078908110351e-02 1.71151710307953e-04
4.12500000000000e+00 2.74250511815440e-02 1.71219865388200e-04
4.18269230769231e+00 2.72434224500400e-02 1.71271290394909e-04
4.24038461538462e+00 2.70629965966331e-02 1.71306429636142e-04
4.29807692307692e+00 2.68837656549888e-02 1.71325713694898e-04
4.35576923076923e+00 2.67057217115308e-02 1.71329560210567e-04
4.41346153846154e+00 2.65288569054946e-02 1.71318374599170e-04
4.47115384615385e+00 2.63531634273667e-02 1.71292550364771e-04
4.52884615384615e+00 2.61786335197612e-02 1.71252469381017e-04
4.58653846153846e+00 2.60052594766657e-02 1.71198502638114e-04
4.64423076923077e+00 2.58330336431038e-02 1.71131010481881e-04
4.70192307692308e+00 2.56619484151613e-02 1.71050343293455e-04
4.75961538461539e+00 2.54919962385469e-02 1.70956841692101e-04
4.81730769230769e+00 2.53231696093688e-02 1.70850836716340e-04
4.87500000000000e+00 2.51554610734316e-02 1.70732650363272e-04
4.93269230769231e+00 2.49888632262462e-02 1.70602596085358e-04
4.99038461538462e+00 2.48233687116796e-02 1.70460978931957e-04
5.04807692307692e+00 2.46589702226591e-02 1.70308095673507e-04
5.10576923076923e+00 2.44956605005045e-02 1.70144235268345e-04
5.16346153846154e+00 2.43334323349227e-02 1.69969679292408e-04
5.22115384615385e+00 2.41722785627397e-02 1.69784702034404e-04
5.27884615384615e+00 2.40121920685398e-02 1.69589570577018e-04
5.33653846153846e+00 2.38531657840294e-02 1.69384545283035e-04
5.39423076923077e+00 2.36951926877276e-02 1.69169879860311e-04
5.45192307692308e+00 2.35382658049431e-02 1.68945821810242e-04
5.50961538461539e+00 2.33823782065954e-02 1.68712612478926e-04
5.56730769230769e+00 2.32275230097849e-02 1.68470487097455e-04
5.62500000000000e+00 2.30736933771959e-02 1.68219675133914e-04
5.68269230769231e+00 2.29208825170640e-02 1.67960400616771e-04
5.74038461538462e+00 2.27690836820627e-02 1.67692882160882e-04
5.79807692307692e+00 2.26182901698238e-02 1.67417332984420e-04
5.85576923076923e+00 2.24684953223667e-02 1.67133961223482e-04
5.91346153846154e+00 2.23196925260566e-02 1.66842970220857e-04
5.97115384615385e+00 2.21718752105531e-02 1.66544558532676e-04
6.02884615384615e+00 2.20250368492839e-02 1.66238919927398e-04
6.08653846153846e+00 2.18791709588997e-02 1.65926243735797e-04
6.14423076923077e+00 2.17342710989893e-02 1.65606714843717e-04
6.20192307692308e+00 2.15903308720271e-02 1.65280514017629e-04
6.25961538461539e+00 2.14473439223886e-02 1.64947817892180e-04
6.31730769230769e+00 2.13053039367760e-02 1.64608798951559e-04
6.37500000000000e+00 2.11642046437029e-02 1.64263625781411e-04
6.43269230769231e+00 2.10240398134352e-02 1.63912463299549e-04
6.49038461538462e+00 2.08848032570583e-02 1.63555472732839e-04
6.54807692307692e+00 2.07464888268653e-02 1.63192811588716e-04
6.60576923076923e+00 2.06090904158639e-02 1.62824633885289e-04
6.66346153846154e+00 2.04726019577116e-02 1.62451090361888e-04
6.72115384615385e+00 2.03370174258299e-02 1.62072328447819e-04
6.77884615384615e+00 2.02023308337599e-02 1.61688492226336e-04
6.83653846153846e+00 2.00685362346887e-02 1.61299722703638e-04
6.89423076923077e+00 1.99356277211882e-02 1.60906157770817e-04
6.95192307692308e+00 1.98035994251435e-02 1.60507932455344e-04
7.00961538461539e+00 1.96724455169203e-02 1.60105178881483e-04
7.06730769230769e+00 1.95421602056843e-02 1.59698026226716e-04
7.12500000000000e+00 1.94127377389527e-02 1.59286600913638e-04
7.18269230769231e+00 1.92841724025185e-02 1.58871026785173e-04
7.24038461538462e+00 1.91564585196588e-02 1.58451425060714e-04
7.29807692307692e+00 1.90295904514268e-02 1.58027914288643e-04
7.35576923076923e+00 1.89035625962207e-02 1.57600610524236e-04
7.41346153846154e+00 1.87783693897055e-02 1.57169627492037e-04
7.47115384615385e+00 1.86540053040583e-02 1.56735076538764e-04
7.52884615384615e+00 1.85304648482357e-02 1.56297066583075e-04
7.58653846153846e+00 1.84077425675598e-02 1.55855704331362e-04
7.64423076923077e+00 1.82858330434779e-02 1.55411094227276e-04
7.70192307692308e+00 1.81647308934801e-02 1.54963338654106e-04
7.75961538461539e+00 1.80444307703871e-02 1.54512537884458e-04
7.81730769230769e+00 1.79249273625915e-02 1.54058790027098e-04
7.87500000000000e+00 1.78062153936631e-02 1.53602191179441e-04
7.93269230769231e+00 1.76882896222647e-02 1.53142835566527e-04
7.99038461538462e+00 1.75711448414726e-02 1.52680815489315e-04
8.04807692307692e+00 1.74547758789970e-02 1.52216221270458e-04
8.10576923076923e+00 1.73391775968027e-02 1.51749141397168e-04
8.16346153846154e+00 1.72243448910229e-02 1.51279662651265e-04
8.22115384615385e+00 1.71102726913100e-02 1.50807870056693e-04
8.27884615384616e+00 1.69969559610380e-02 1.50333846824704e-04
8.33653846153846e+00 1.68843896969366e-02 1.49857674531985e-04
8.39423076923077e+00 1.67725689288713e-02 1.49379433066474e-04
8.45192307692308e+00 1.66614887197545e-02 1.48899200794781e-04
8.50961538461539e+00 1.65511441649319e-02 1.48417054508828e-04
8.56730769230769e+00 1.64415303923635e-02 1.47933069370374e-04
8.62500000000000e+00 1.63326425622759e-02 1.47447319035919e-04
8.68269230769231e+00 1.62244758670727e-02 1.46959875770211e-04
8.74038461538462e+00 1.61170255307466e-02 1.46470810392944e-04
8.79807692307692e+00 1.60102868090463e-02 1.45980192223593e-04
8.85576923076923e+00 1.59042549891401e-02 1.45488089199178e-04
8.91346153846154e+00 1.57989253895265e-02 1.44994567981347e-04
8.97115384615385e+00 1.56942933594710e-02 1.44499693903421e-04
9.02884615384616e+00 1.55903542791588e-02 1.44003530915692e-04
9.08653846153846e+00 1.54871035593709e-02 1.43506141735383e-04
9.14423076923077e+00 1.53845366412814e-02 1.43007587792916e-04
9.20192307692308e+00 1.52826489963669e-02 1.42507929373103e-04
9.25961538461539e+00 1.51814361258731e-02 1.42007225562502e-04
9.31730769230769e+00 1.50808935609509e-02 1.41505534195201e-04
9.37500000000000e+00 1.49810168623477e-02 1.41002911957168e-04
9.43269230769231e+00 1.48818016203156e-02 1.40499414481042e-04
9.49038461538462e+00 1.47832434541003e-02 1.39995096294264e-04
9.54807692307692e+00 1.46853380120661e-02 1.39490010765718e-04
9.60576923076923e+00 1.45880809713968e-02 1.38984210204700e-04
9.66346153846154e+00 1.44914680380052e-02 1.38477745950764e-04
9.72115384615385e+00 1.43954949460418e-02 1.37970668322761e-04
9.77884615384616e+00 1.43001574580098e-02 1.37463026566423e-04
9.83653846153846e+00 1.42054513644757e-02 1.36954868982457e-04
9.89423076923077e+00 1.41113724838843e-02 1.36446242875267e-04
9.95192307692308e+00 1.40179166624674e-02 1.35937194673611e-04
1.00096153846154e+01 1.39250797737776e-02 1.35427769748557e-04
1.00673076923077e+01 1.38328577191542e-02 1.34918012727481e-04
1.01250000000000e+01 1.37412464264389e-02 1.34407967739956e-04
1.01826923076923e+01 1.36502418498280e-02 1.33897677149967e-04
1.02403846153846e+01 1.35598399721044e-02 1.33387182567403e-04
1.02980769230769e+01 1.34700368017537e-02 1.32876525425334e-04
1.03557692307692e+01 1.33808283736964e-02 1.32365745996782e-04
1.04134615384615e+01 1.32922107491130e-02 1.31854883745122e-04
1.04711538461538e+01 1.32041800152692e-02 1.31343977339256e-04
1.05288461538462e+01 1.31167322853442e-02 1.30833064668596e-04
1.05865384615385e+01 1.30298636982578e-02 1.30322182857171e-04
1.06442307692308e+01 1.29435704185015e-02 1.29811368277863e-04
1.07019230769231e+01 1.28578486359681e-02 1.29300656566680e-04
1.07596153846154e+01 1.27726945657839e-02 1.28790082636140e-04
1.08173076923077e+01 1.26881044481416e-02 1.28279680688584e-04
1.08750000000000e+01 1.26040745481337e-02 1.27769484516859e-04
1.09326923076923e+01 1.25206011548280e-02 1.27259526649394e-04
1.09903846153846e+01 1.24376805833988e-02 1.26749838943660e-04
1.10480769230769e+01 1.23553091726544e-02 1.26240453185282e-04
1.11057692307692e+01 1.22734832856499e-02 1.25731400215822e-04
1.11634615384615e+01 1.21921993095271e-02 1.25222710240901e-04
1.12211538461538e+01 1.21114536553548e-02 1.24714412841685e-04
1.12788461538462e+01 1.20312427579701e-02 1.24206536986300e-04
1.13365384615385e+01 1.19515630758213e-02 1.23699111040550e-04
1.13942307692308e+01 1.18724110908114e-02 1.23192162778716e-04
1.14519230769231e+01 1.17937833081432e-02 1.22685719394493e-04
1.15096153846154e+01 1.17156762561646e-02 1.22179807511194e-04
1.15673076923077e+01 1.16380864862150e-02 1.21674453191935e-04
1.16250000000000e+01 1.15610105724738e-02 1.21169682204815e-04
1.16826923076923e+01 1.14844451111557e-02 1.20665519262894e-04
1.17403846153846e+01 1.14083867223313e-02 1.20161988549145e-04
1.17980769230769e+01 1.13328320477947e-02 1.19659114246566e-04
1.18557692307692e+01 1.12577777515807e-02 1.19156919762984e-04
1.19134615384615e+01 1.11832205198170e-02 1.18655428003016e-04
1.19711538461538e+01 1.11091570605786e-02 1.18154661376920e-04
1.20288461538462e+01 1.10355841037419e-02 1.17654641809404e-04
1.20865384615385e+01 1.09624984008400e-02 1.17155390747900e-04
1.21442307692308e+01 1.08898967249202e-02 1.16656929170923e-04
1.22019230769231e+01 1.08177758704011e-02 1.16159277596536e-04
1.22596153846154e+01 1.07461326529311e-02 1.15662456090260e-04
1.23173076923077e+01 1.06749639092474e-02 1.15166484272982e-04
1.23750000000000e+01 1.06042664970370e-02 1.14671381555593e-04
1.24326923076923e+01 1.05340372942350e-02 1.14177166462216e-04
1.24903846153846e+01 1.04642732005846e-02 1.13683857095785e-04
1.25480769230769e+01 1.03949711357922e-02 1.13191471608324e-04
1.26057692307692e+01 1.03261280399639e-02 1.12700027510836e-04
1.26634615384615e+01 1.02577408734710e-02 1.12209541914028e-04
1.27211538461538e+01 1.01898066168152e-02 1.11720031535240e-04
1.27788461538462e+01 1.01223222704957e-02 1.11231512705374e-04
1.28365384615385e+01 1.00552848548763e-02 1.10744001375307e-04
1.28942307692308e+01 9.98869141005421e-03 1.10257513122461e-04
1.29519230769231e+01 9.92253899572965e-03 1.09772063157451e-04
1.30096153846154e+01 9.85682469107547e-03 1.09287666330299e-04
1.30673076923077e+01 9.79154559460840e-03 1.08804337136616e-04
1.31250000000000e+01 9.72669882406096e-03 1.08322089925797e-04
1.31826923076923e+01 9.66228151576763e-03 1.07840938297466e-04
1.32403846153846e+01 9.59829082600683e-03 1.07360895515320e-04
1.32980769230769e+01 9.53472392939800e-03 1.06881974925281e-04
1.33557692307692e+01 9.47157801927234e-03 1.06404189340107e-04
1.34134615384615e+01 9.40885030754889e-03 1.05927551253079e-04
1.34711538461538e+01 9.34653802461140e-03 1.05452072843476e-04
1.35288461538462e+01 9.28463841918607e-03 1.04977765982042e-04
1.35865384615385e+01 9.22314875821983e-03 1.04504642236067e-04
1.36442307692308e+01 9.16206632676012e-03 1.04032712874573e-04
1.37019230769231e+01 9.10138842783480e-03 1.03561988873589e-04
1.37596153846154e+01 9.04111238233308e-03 1.03092480921071e-04
1.38173076923077e+01 8.98123552888720e-03 1.02624199421821e-04
1.38750000000000e+01 8.92175522375492e-03 1.02157154682617e-04
1.39326923076923e+01 8.86266884028063e-03 1.01691356373184e-04
1.39903846153846e+01 8.80397377005349e-03 1.01226813894788e-04
1.40480769230769e+01 8.74566742151048e-03 1.00763536752738e-04
1.41057692307692e+01 8.68774722025182e-03 1.00301534006870e-04
1.41634615384615e+01 8.63021060892728e-03 9.98408144616231e-05
1.42211538461538e+01 8.57305504712333e-03 9.93813866704082e-05
1.42788461538462e+01 8.51627801125089e-03 9.89232589399688e-05
1.43365384615385e+01 8.45987699443378e-03 9.84664393344278e-05
1.43942307692308e+01 8.40384950639836e-03 9.80109356794233e-05
1.44519230769231e+01 8.34819307336343e-03 9.75567555663346e-05
1.45096153846154e+01 8.29290523793100e-03 9.71039063562095e-05
1.45673076923077e+01 8.23798355897776e-03 9.66523951836870e-05
1.46250000000000e+01 8.18342561154733e-03 9.62022291219828e-05
1.46826923076923e+01 8.12922898637569e-03 9.57534147008316e-05
1.47403846153846e+01 8.07539129089371e-03 9.53059582353550e-05
1.47980769230769e+01 8.02191014800605e-03 9.48598661584563e-05
1.48557692307692e+01 7.96878319636025e-03 9.44151445294665e-05
1.49134615384615e+01 7.91600809024247e-03 9.39717992035713e-05
1.49711538461538e+01 7.86358249947392e-03 9.35298358352999e-05
1.50288461538462e+01 7.81150410930796e-03 9.30892598820248e-05
1.50865384615385e+01 7.75977062032772e-03 9.26500766072042e-05
1.51442307692308e+01 7.70837974834497e-03 9.22122910837284e-05
1.52019230769231e+01 7.65732922429902e-03 9.17759081973145e-05
1.52596153846154e+01 7.60661679415656e-03 9.13409326496462e-05
1.53173076923077e+01 7.55624021881217e-03 9.09073689615554e-05
1.53750000000000e+01 7.50619727398943e-03 9.04752216202594e-05
1.54326923076923e+01 7.45648574982206e-03 9.00444946477911e-05
1.54903846153846e+01 7.40710345172386e-03 8.96151918948445e-05
1.55480769230769e+01 7.35804819931867e-03 8.91873173378088e-05
1.56057692307692e+01 7.30931782667040e-03 8.87608746389155e-05
1.56634615384615e+01 7.26091018218735e-03 8.83358672974875e-05
1.57211538461538e+01 7.21282312852727e-03 8.79122986527481e-05
1.57788461538462e+01 7.16505454250295e-03 8.74901718866486e-05
1.58365384615385e+01 7.11760231498834e-03 8.70694900264906e-05
1.58942307692308e+01 7.07046435082574e-03 8.66502559476267e-05
1.59519230769231e+01 7.02363856873309e-03 8.62324723762071e-05
1.60096153846154e+01 6.97712290121212e-03 8.58161418917200e-05
1.60673076923077e+01 6.93091529445706e-03 8.54012669295648e-05
1.61250000000000e+01 6.88501370826395e-03 8.49878499126717e-05
1.61826923076923e+01 6.83941611566011e-03 8.45758928646885e-05
1.62403846153846e+01 6.79412050366081e-03 8.41653976728858e-05
1.62980769230769e+01 6.74912487232934e-03 8.37563663539746e-05
1.63557692307692e+01 6.70442723497404e-03 8.33488006599008e-05
1.64134615384615e+01 6.66002561806059e-03 8.29427022130502e-05
1.64711538461538e+01 6.61591806112486e-03 8.25380725085330e-05
1.65288461538462e+01 6.57210261668636e-03 8.21349129164915e-05
1.65865384615385e+01 6.52857735016212e-03 8.17332246842163e-05
1.66442307692308e+01 6.48534033978153e-03 8.13330089383296e-05
1.67019230769231e+01 6.44238967650134e-03 8.09342666870314e-05
1.67596153846154e+01 6.39972346392140e-03 8.05369988221645e-05
1.68173076923077e+01 6.35733981820090e-03 8.01412061212940e-05
1.68750000000000e+01 6.31523686797523e-03 7.97468893655138e-05
1.69326923076923e+01 6.27341275402748e-03 7.93540489924115e-05
1.69903846153846e+01 6.23186562994806e-03 7.89626853315857e-05
1.70480769230769e+01 6.19059366130723e-03 7.85727988427941e-05
1.71057692307692e+01 6.14959502582422e-03 7.81843897623029e-05
1.71634615384615e+01 6.10886791328672e-03 7.77974582239196e-05
1.72211538461538e+01 6.06841052547099e-03 7.74120042608501e-05
1.72788461538462e+01 6.02822107606242e-03 7.70280278075858e-05
1.73365384615385e+01 5.98829779057663e-03 7.66455287016189e-05
1.73942307692308e+01 5.94863890628126e-03 7.62645066852112e-05
1.74519230769231e+01 5.90924267211805e-03 7.58849614072433e-05
1.75096153846154e+01 5.87010734862554e-03 7.55068924248881e-05
1.75673076923077e+01 5.83123120786226e-03 7.51302992053030e-05
1.76250000000000e+01 5.79261253333043e-03 7.47551812312098e-05
1.76826923076923e+01 5.75424961968429e-03 7.43815376892395e-05
1.77403846153846e+01 5.71614077330612e-03 7.40093676811476e-05
1.77980769230769e+01 5.67828431157647e-03 7.36386704374027e-05
1.78557692307692e+01 5.64067856301942e-03 7.32694449996342e-05
1.79134615384615e+01 5.60332186722878e-03 7.29016903290940e-05
1.79711538461538e+01 5.56621257479481e-03 7.25354053081775e-05
1.80288461538462e+01 5.52934904723136e-03 7.21705887419632e-05
1.80865384615385e+01 5.49272965690345e-03 7.18072393595987e-05
1.81442307692308e+01 5.45635278695561e-03 7.14453558157603e-05
1.82019230769231e+01 5.42021683124032e-03 7.10849366921647e-05
