Energy (eV)          EEDF (eV^-(3/2))     First Anisotropy
5.26315789473684e-03 6.14347527947851e-01 1.55748993044586e-07
1.57894736842105e-02 6.14347291408327e-01 5.03813668703229e-07
2.63157894736842e-02 6.14346641016375e-01 1.21474284130934e-06
3.68421052631579e-02 6.14345628809297e-01 2.04306135336329e-06
4.73684210526316e-02 6.14344268971797e-01 3.02503342666054e-06
5.78947368421053e-02 6.14342519696737e-01 4.18460856243141e-06
6.84210526315790e-02 6.14340363792779e-01 5.50963995269052e-06
7.89473684210526e-02 6.14337772410225e-01 6.98880403454421e-06
8.94736842105263e-02 6.14334737815291e-01 8.63545830224121e-06
1.00000000000000e-01 6.14331219929222e-01 1.04537942808812e-05
1.10526315789474e-01 6.14327209141522e-01 1.23825933131168e-05
1.21052631578947e-01 6.14322710460119e-01 1.44253358778086e-05
1.31578947368421e-01 6.14317707609838e-01 1.66109467615693e-05
1.42105263157895e-01 6.14312183586773e-01 1.89415145310262e-05
1.52631578947368e-01 6.14306120787513e-01 2.14191448568825e-05
1.63157894736842e-01 6.14299501089390e-01 2.40459795885280e-05
1.73684210526316e-01 6.14292305900917e-01 2.68242033501955e-05
1.84210526315789e-01 6.14284516195152e-01 2.97554132427823e-05
1.94736842105263e-01 6.14276112876746e-01 3.28364009982661e-05
2.05263157894737e-01 6.14267078998036e-01 3.58584462923827e-05
2.15789473684211e-01 6.14257510735725e-01 3.87861671971505e-05
2.26315789473684e-01 6.14247403950633e-01 4.17909010556471e-05
2.36842105263158e-01 6.14236756553567e-01 4.48667483627611e-05
2.47368421052632e-01 6.14225566377407e-01 4.80121092133989e-05
2.57894736842105e-01 6.14213831156963e-01 5.12256016431589e-05
2.68421052631579e-01 6.14201548513579e-01 5.45060356382393e-05
2.78947368421053e-01 6.14188715943452e-01 5.78522951110500e-05
2.89473684210526e-01 6.14175330852495e-01 6.12625095387748e-05
3.00000000000000e-01 6.14161390909709e-01 6.48834089655804e-05
3.10526315789474e-01 6.14146831458800e-01 6.92507769488438e-05
3.21052631578947e-01 6.14131424294892e-01 7.49384581294370e-05
3.31578947368421e-01 6.14114869774810e-01 8.20178435880307e-05
3.42105263157895e-01 6.14096927706962e-01 9.02732982226991e-05
3.52631578947368e-01 6.14077408142638e-01 9.95145391432740e-05
3.63157894736842e-01 6.14056163670800e-01 1.09573353548232e-04
3.73684210526316e-01 6.14033082949450e-01 1.20300785469623e-04
3.84210526315789e-01 6.14008085259556e-01 1.31564605194423e-04
3.94736842105263e-01 6.13981115951983e-01 1.43246542537564e-04
4.05263157894737e-01 6.13952142821404e-01 1.55386302664557e-04
4.15789473684211e-01 6.13921112349180e-01 1.68797999011450e-04
4.26315789473684e-01 6.13887686373250e-01 1.84055487417122e-04
4.36842105263158e-01 6.13851591385247e-01 2.00878584569057e-04
4.47368421052632e-01 6.13812611344714e-01 2.19015023393515e-04
4.57894736842105e-01 6.13770578992239e-01 2.38244052518368e-04
4.68421052631579e-01 6.13725368363457e-01 2.58372973224528e-04
4.78947368421053e-01 6.13676888329004e-01 2.79234058870300e-04
4.89473684210526e-01 6.13625077023501e-01 3.00681613077477e-04
5.00000000000000e-01 6.13569897107822e-01 3.22370182848556e-04
5.10526315789474e-01 6.13511415031102e-01 3.44054796007861e-04
5.21052631578947e-01 6.13449683958515e-01 3.66006007654287e-04
5.31578947368421e-01 6.13384667358728e-01 3.88385301488965e-04
5.42105263157895e-01 6.13316354799139e-01 4.11049423485665e-04
5.52631578947368e-01 6.13244757981034e-01 4.33872535829903e-04
5.63157894736842e-01 6.13169907252063e-01 4.56744585450816e-04
5.73684210526316e-01 6.13091848538008e-01 4.79569828487292e-04
5.84210526315790e-01 6.13010640643720e-01 5.02265443941284e-04
5.94736842105263e-01 6.12926352896726e-01 5.24760074229792e-04
6.05263157894737e-01 6.12839063142510e-01 5.48417178010988e-04
6.15789473684211e-01 6.12748393695330e-01 5.77051736352371e-04
6.26315789473684e-01 6.12653199120608e-01 6.13757041564622e-04
6.36842105263158e-01 6.12552144679942e-01 6.58567767101517e-04
6.47368421052632e-01 6.12444125555085e-01 7.10273158228918e-04
6.57894736842105e-01 6.12328238002960e-01 7.67794434275388e-04
6.68421052631579e-01 6.12203753981066e-01 8.30170837665924e-04
6.78947368421053e-01 6.12070098826216e-01 8.96547117656099e-04
6.89473684210526e-01 6.11926831626653e-01 9.66162186903943e-04
7.00000000000000e-01 6.11773628001869e-01 1.04092830117367e-03
7.10526315789474e-01 6.11609481298471e-01 1.12699589869636e-03
7.21052631578947e-01 6.11432233642062e-01 1.22910127728753e-03
7.31578947368421e-01 6.11239505304630e-01 1.34687259618931e-03
7.42105263157895e-01 6.11029324744590e-01 1.47796542946520e-03
7.52631578947368e-01 6.10800084679832e-01 1.62025024572859e-03
7.63157894736842e-01 6.10550502583101e-01 1.77179374924631e-03
7.73684210526316e-01 6.10279585171891e-01 1.93084169820858e-03
7.84210526315789e-01 6.09986596508911e-01 2.09580302387149e-03
7.94736842105263e-01 6.09671029384384e-01 2.26523505757621e-03
8.05263157894737e-01 6.09332579692172e-01 2.43587328694366e-03
8.15789473684211e-01 6.08971685234618e-01 2.60263856720365e-03
8.26315789473684e-01 6.08589484056714e-01 2.76272225863698e-03
8.36842105263158e-01 6.08187180133180e-01 2.91589326440463e-03
8.47368421052632e-01 6.07765933798947e-01 3.06231089254420e-03
8.57894736842105e-01 6.07326861908543e-01 3.20214271969525e-03
8.68421052631579e-01 6.06871037908308e-01 3.33556487369211e-03
8.78947368421053e-01 6.06399491851808e-01 3.46276213184142e-03
8.89473684210526e-01 6.05913210386526e-01 3.58392778830815e-03
9.00000000000000e-01 6.05413136755561e-01 3.69915502278040e-03
9.10526315789474e-01 6.04900200482543e-01 3.81060191273794e-03
9.21052631578947e-01 6.04374726604875e-01 3.92247350755261e-03
9.31578947368421e-01 6.03836483773076e-01 4.03661184057976e-03
9.42105263157895e-01 6.03285296448022e-01 4.15263067620500e-03
9.52631578947368e-01 6.02721040779423e-01 4.27016651212485e-03
9.63157894736842e-01 6.02143640599756e-01 4.38887850875091e-03
9.73684210526316e-01 6.01553063546291e-01 4.50844828232484e-03
9.84210526315789e-01 6.00949317322949e-01 4.62857944138762e-03
9.94736842105263e-01 6.00332446151526e-01 4.74899680258694e-03
1.00526315789474e+00 5.99702527437030e-01 4.88041823037232e-03
1.01578947368421e+00 5.99056692370972e-01 5.04799280630325e-03
1.02631578947368e+00 5.98388495682349e-01 5.27209339552859e-03
1.03684210526316e+00 5.97690004645723e-01 5.55572441252523e-03
1.04736842105263e+00 5.96954171680031e-01 5.89288333895562e-03
1.05789473684211e+00 5.96174784766142e-01 6.27783537820237e-03
1.06842105263158e+00 5.95346418288207e-01 6.70512008695680e-03
1.07894736842105e+00 5.94464384292582e-01 7.16955763709880e-03
1.08947368421053e+00 5.93524684183706e-01 7.66625453678800e-03
1.10000000000000e+00 5.92523960896355e-01 8.19521505554900e-03
1.11052631578947e+00 5.91458108518685e-01 8.75891891269916e-03
1.12105263157895e+00 5.90322988683708e-01 9.35282638389573e-03
1.13157894736842e+00 5.89115835854601e-01 9.97062487448636e-03
1.14210526315789e+00 5.87834324014352e-01 1.06090506121231e-02
1.15263157894737e+00 5.86476537348314e-01 1.12650257669515e-02
1.16315789473684e+00 5.85040941659231e-01 1.19356571070631e-02
1.17368421052632e+00 5.83526356585744e-01 1.26182338819719e-02
1.18421052631579e+00 5.81931928681414e-01 1.33102250392667e-02
1.19473684210526e+00 5.80257105398585e-01 1.40092758619859e-02
1.20526315789474e+00 5.78501610012430e-01 1.47341011869401e-02
1.21578947368421e+00 5.76659336740952e-01 1.54858208651146e-02
1.22631578947368e+00 5.74729622641923e-01 1.62430366151659e-02
1.23684210526316e+00 5.72712519539078e-01 1.70025381000687e-02
1.24736842105263e+00 5.70608131043624e-01 1.77637674280831e-02
1.25789473684211e+00 5.68416627000000e-01 1.85260489498097e-02
1.26842105263158e+00 5.66138256636032e-01 1.92885985733086e-02
1.27894736842105e+00 5.63773360484541e-01 2.00505327124722e-02
1.28947368421053e+00 5.61322381143725e-01 2.08108768477384e-02
1.30000000000000e+00 5.58785872944308e-01 2.15690528516256e-02
1.31052631578947e+00 5.56164635021898e-01 2.23301383968325e-02
1.32105263157895e+00 5.53458261742813e-01 2.31043124211458e-02
1.33157894736842e+00 5.50664911407312e-01 2.38958146198640e-02
1.34210526315789e+00 5.47782936637716e-01 2.47029964307776e-02
1.35263157894737e+00 5.44810897055811e-01 2.55241030092397e-02
1.36315789473684e+00 5.41747567838875e-01 2.63573069614970e-02
1.37368421052632e+00 5.38591944323381e-01 2.72007410127700e-02
1.38421052631579e+00 5.35343242847001e-01 2.80525294075263e-02
1.39473684210526e+00 5.32000898035686e-01 2.89108178842961e-02
1.40526315789474e+00 5.28564556753462e-01 2.97747175138262e-02
1.41578947368421e+00 5.25033854795205e-01 3.06443694448411e-02
1.42631578947368e+00 5.21408398022558e-01 3.15191157739576e-02
1.43684210526316e+00 5.17687967789874e-01 3.23973531915773e-02
1.44736842105263e+00 5.13872534403259e-01 3.32774215313363e-02
1.45789473684211e+00 5.09962254141644e-01 3.41576804173301e-02
1.46842105263158e+00 5.05957464941564e-01 3.50365206153896e-02
1.47894736842105e+00 5.01858680947073e-01 3.59123738181963e-02
1.48947368421053e+00 4.97666586107852e-01 3.67837209883096e-02
1.50000000000000e+00 4.93382026992406e-01 3.76535774382130e-02
1.51052631578947e+00 4.89004140498074e-01 3.85234055388296e-02
1.52105263157895e+00 4.84532511016867e-01 3.93842868478472e-02
1.53157894736842e+00 4.79969065868202e-01 4.02304915579502e-02
1.54210526315789e+00 4.75315515901289e-01 4.10636205941629e-02
1.55263157894737e+00 4.70573397012107e-01 4.18849362146382e-02
1.56315789473684e+00 4.65744108692967e-01 4.26953850800036e-02
1.57368421052632e+00 4.60828949681505e-01 4.34956210248909e-02
1.58421052631579e+00 4.55829150783214e-01 4.42860274451582e-02
1.59473684210526e+00 4.50745904949278e-01 4.50667391630258e-02
1.60526315789474e+00 4.45580394710458e-01 4.59097476558964e-02
1.61578947368421e+00 4.40313373907037e-01 4.68543808489799e-02
1.62631578947368e+00 4.34936889388534e-01 4.78780183030083e-02
1.63684210526316e+00 4.29440838752995e-01 4.89863090047007e-02
1.64736842105263e+00 4.23815991180473e-01 5.01715381600714e-02
1.65789473684211e+00 4.18053998737704e-01 5.14259162473311e-02
1.66842105263158e+00 4.12147397858465e-01 5.27416668134048e-02
1.67894736842105e+00 4.06089601173703e-01 5.41111124802031e-02
1.68947368421053e+00 3.99874879939186e-01 5.55267584991232e-02
1.70000000000000e+00 3.93498337375387e-01 5.70147052144272e-02
1.71052631578947e+00 3.86945788719967e-01 5.85598326712223e-02
1.72105263157895e+00 3.80212953811051e-01 6.00433090342781e-02
1.73157894736842e+00 3.73314845595791e-01 6.13937270399299e-02
1.74210526315789e+00 3.66265944127791e-01 6.26160382341908e-02
1.75263157894737e+00 3.59080183857747e-01 6.37152957541655e-02
1.76315789473684e+00 3.51770943952445e-01 6.46966268400904e-02
1.77368421052632e+00 3.44351041436264e-01 6.55652072988958e-02
1.78421052631579e+00 3.36832726947883e-01 6.63262379065137e-02
1.79473684210526e+00 3.29227682909210e-01 6.69849222791045e-02
1.80526315789474e+00 3.21547024006112e-01 6.79928542857804e-02
1.81578947368421e+00 3.13657158742949e-01 6.93086029826740e-02
1.82631578947368e+00 3.05576019388921e-01 7.04530245130340e-02
1.83684210526316e+00 2.97321343248522e-01 7.14301321605205e-02
1.84736842105263e+00 2.88910853907196e-01 7.22435158189762e-02
1.85789473684211e+00 2.80362160543144e-01 7.28975300862596e-02
1.86842105263158e+00 2.71692661350986e-01 7.33972352616324e-02
1.87894736842105e+00 2.62919451091344e-01 7.37483402744644e-02
1.88947368421053e+00 2.54059232768338e-01 7.39571476644233e-02
1.90000000000000e+00 2.45128233406284e-01 7.39738168990974e-02
1.91052631578947e+00 2.36159121467719e-01 7.37119747221970e-02
1.92105263157895e+00 2.27193233701988e-01 7.31599449338370e-02
1.93157894736842e+00 2.18263901996297e-01 7.23457204392055e-02
1.94210526315789e+00 2.09403435362982e-01 7.12824119438848e-02
1.95263157894737e+00 2.00642956125864e-01 6.99840976511748e-02
1.96315789473684e+00 1.92012260285354e-01 6.84655976643128e-02
1.97368421052632e+00 1.83539703174485e-01 6.67422475555856e-02
1.98421052631579e+00 1.75252111243336e-01 6.48296730874761e-02
1.99473684210526e+00 1.67174720648172e-01 6.27435682788055e-02
2.00526315789474e+00 1.59331142897554e-01 6.05145783372102e-02
2.01578947368421e+00 1.51744869862105e-01 5.82422451688819e-02
2.02631578947368e+00 1.44413977023376e-01 5.60008301564280e-02
2.03684210526316e+00 1.37337462595179e-01 5.37887390919683e-02
2.04736842105263e+00 1.30513731007236e-01 5.16100629623080e-02
2.05789473684211e+00 1.23940640052450e-01 4.94684595966060e-02
2.06842105263158e+00 1.17615546800934e-01 4.73671726217350e-02
2.07894736842105e+00 1.11535352194186e-01 4.53090506078953e-02
2.08947368421053e+00 1.05696544245488e-01 4.32965663831332e-02
2.10000000000000e+00 1.00095239762192e-01 4.12929384986180e-02
2.11052631578947e+00 9.47466988193209e-02 3.92775566874010e-02
2.12105263157895e+00 8.96598844281803e-02 3.73191502737231e-02
2.13157894736842e+00 8.48208783286698e-02 3.54667883849695e-02
2.14210526315789e+00 8.02163957869139e-02 3.37155460569503e-02
2.15263157894737e+00 7.58337552040273e-02 3.20607359522002e-02
2.16315789473684e+00 7.16608489303150e-02 3.04978988502328e-02
2.17368421052632e+00 6.76861152320474e-02 2.90227944981581e-02
2.18421052631579e+00 6.38985113708177e-02 2.76313927691411e-02
2.19473684210526e+00 6.02874877568330e-02 2.63198651758043e-02
2.20526315789474e+00 5.68429631237269e-02 2.50542749917641e-02
2.21578947368421e+00 5.35673195884607e-02 2.38094142321097e-02
2.22631578947368e+00 5.04566374450953e-02 2.25953353754304e-02
2.23684210526316e+00 4.75065295265056e-02 2.14141958480166e-02
2.24736842105263e+00 4.47125066943908e-02 2.02666728531137e-02
2.25789473684211e+00 4.20700087252319e-02 1.91532161323352e-02
2.26842105263158e+00 3.95744337836267e-02 1.80740585331076e-02
2.27894736842105e+00 3.72211664861115e-02 1.70292265081996e-02
2.28947368421053e+00 3.50056045776159e-02 1.60185504061032e-02
2.30000000000000e+00 3.29231842608296e-02 1.50446963401509e-02
2.31052631578947e+00 3.09690934585467e-02 1.41175999808511e-02
2.32105263157895e+00 2.91364835916043e-02 1.32476490939027e-02
2.33157894736842e+00 2.74171497935720e-02 1.24360273283474e-02
2.34210526315789e+00 2.58034506325634e-02 1.16787690124542e-02
2.35263157894737e+00 2.42882676935001e-02 1.09721902186273e-02
2.36315789473684e+00 2.28649681000825e-02 1.03128685153970e-02
2.37368421052632e+00 2.15273697570370e-02 9.69762420860551e-03
2.38421052631579e+00 2.02697091106272e-02 9.12350295815532e-03
2.39473684210526e+00 1.90866112405648e-02 8.58775967731675e-03
2.40526315789474e+00 1.79730621081514e-02 8.08329581357222e-03
2.41578947368421e+00 1.69261360174874e-02 7.60378660713843e-03
2.42631578947368e+00 1.59424253153533e-02 7.14854188639984e-03
2.43684210526316e+00 1.50186371367798e-02 6.71653733640004e-03
2.44736842105263e+00 1.41516557362377e-02 6.30653718636675e-03
2.45789473684211e+00 1.33385352798000e-02 5.91735351402233e-03
2.46842105263158e+00 1.25764929522735e-02 5.54784418778345e-03
2.47894736842105e+00 1.18629023765448e-02 5.19691081269230e-03
2.48947368421053e+00 1.11952873423244e-02 4.86349668042942e-03
2.50000000000000e+00 1.05713158415775e-02 4.54731627097544e-03
2.51052631578947e+00 9.98870106690557e-03 4.25000063679477e-03
2.52105263157895e+00 9.44476540245880e-03 3.97344005303259e-03
2.53157894736842e+00 8.93661095859679e-03 3.71729830865055e-03
2.54210526315789e+00 8.46156790523631e-03 3.47999341445947e-03
2.55263157894737e+00 8.01717543307633e-03 3.26007364724417e-03
2.56315789473684e+00 7.60116437252935e-03 3.05620636245884e-03
2.57368421052632e+00 7.21144132045904e-03 2.86716780429121e-03
2.58421052631579e+00 6.84607413903866e-03 2.69183382036606e-03
2.59473684210526e+00 6.50327870367718e-03 2.52917139989635e-03
2.60526315789474e+00 6.18140678787510e-03 2.37733663523822e-03
2.61578947368421e+00 5.87932781958983e-03 2.23508993841791e-03
2.62631578947368e+00 5.59570005416869e-03 2.10237701459818e-03
2.63684210526316e+00 5.32925144007240e-03 1.97863456192464e-03
2.64736842105263e+00 5.07879968253026e-03 1.86324502255311e-03
2.65789473684211e+00 4.84324532286353e-03 1.75563770887854e-03
2.66842105263158e+00 4.62156536704886e-03 1.65528515644891e-03
2.67894736842105e+00 4.41280741835366e-03 1.56169977112568e-03
2.68947368421053e+00 4.21608427278180e-03 1.47443074777623e-03
2.70000000000000e+00 4.03056893901608e-03 1.39212602972818e-03
2.71052631578947e+00 3.85594807940947e-03 1.31338763155463e-03
2.72105263157895e+00 3.69192939341110e-03 1.23864991027482e-03
2.73157894736842e+00 3.53783218998479e-03 1.16845266343956e-03
2.74210526315789e+00 3.39302263036977e-03 1.10249714620717e-03
2.75263157894737e+00 3.25691024079834e-03 1.04050610672323e-03
2.76315789473684e+00 3.12894469642095e-03 9.82222175961831e-04
2.77368421052632e+00 3.00861285423234e-03 9.27406384852475e-04
2.78421052631579e+00 2.89543601488941e-03 8.75836797360980e-04
2.79473684210526e+00 2.78896739501075e-03 8.27307251897371e-04
2.80526315789474e+00 2.68878979262219e-03 7.80984643076243e-04
2.81578947368421e+00 2.59489803326350e-03 7.37272198442769e-04
2.82631578947368e+00 2.50674405059058e-03 6.97249146791671e-04
2.83684210526316e+00 2.42383207319088e-03 6.60612521197634e-04
2.84736842105263e+00 2.34570548252252e-03 6.27119662992259e-04
2.85789473684211e+00 2.27194341209349e-03 5.96548261410146e-04
2.86842105263158e+00 2.20215769899215e-03 5.68694242264075e-04
2.87894736842105e+00 2.13599015104210e-03 5.43369864177628e-04
2.88947368421053e+00 2.07311009669393e-03 5.20402002021334e-04
2.90000000000000e+00 2.01321218807181e-03 4.99332079038160e-04
2.91052631578947e+00 1.95610098977724e-03 4.79335489146889e-04
2.92105263157895e+00 1.90168605668081e-03 4.59849137477664e-04
2.93157894736842e+00 1.84988815922151e-03 4.40752518842736e-04
2.94210526315789e+00 1.80063055856073e-03 4.22033083403026e-04
2.95263157894737e+00 1.75383893816119e-03 4.03678506436866e-04
2.96315789473684e+00 1.70944133264571e-03 3.85676720795005e-04
2.97368421052632e+00 1.66736805421208e-03 3.68015948423972e-04
2.98421052631579e+00 1.62755161685824e-03 3.50684730782288e-04
2.99473684210526e+00 1.58992665877543e-03 3.33671956797587e-04
3.00526315789474e+00 1.55442986340609e-03 3.17961614799363e-04
3.01578947368421e+00 1.52064264434837e-03 3.03758718234522e-04
3.02631578947368e+00 1.48848297657365e-03 2.90194670056365e-04
3.03684210526316e+00 1.45787170389802e-03 2.77244966924003e-04
3.04736842105263e+00 1.42873365849666e-03 2.64880595877992e-04
3.05789473684211e+00 1.40099742687225e-03 2.53074211562798e-04
3.06842105263158e+00 1.37459513038027e-03 2.41800036817356e-04
3.07894736842105e+00 1.34946221938077e-03 2.31033769344048e-04
3.08947368421053e+00 1.32553728014998e-03 2.20752494184356e-04
3.10000000000000e+00 1.30276185371563e-03 2.10849797827737e-04
3.11052631578947e+00 1.28111215708076e-03 2.01244678635420e-04
3.12105263157895e+00 1.26055913304389e-03 1.92050009857164e-04
3.13157894736842e+00 1.24103976913457e-03 1.83352952733883e-04
3.14210526315789e+00 1.22249422246761e-03 1.75131479079991e-04
3.15263157894737e+00 1.20486562946920e-03 1.67364878849185e-04
3.16315789473684e+00 1.18809992934498e-03 1.60033665567982e-04
3.17368421052632e+00 1.17214570032630e-03 1.53119487801705e-04
3.18421052631579e+00 1.15695400781222e-03 1.46605046177587e-04
3.19473684210526e+00 1.14247826358635e-03 1.40474015411793e-04
3.20526315789474e+00 1.12867409538052e-03 1.34838432994603e-04
3.21578947368421e+00 1.11545577012125e-03 1.29659883836677e-04
3.22631578947368e+00 1.10279020478465e-03 1.24766352296153e-04
3.23684210526316e+00 1.09064563234789e-03 1.20148085905683e-04
3.24736842105263e+00 1.07899158077120e-03 1.15795601319019e-04
3.25789473684211e+00 1.06779880887439e-03 1.11699887710053e-04
3.26842105263158e+00 1.05703924650419e-03 1.07852374168818e-04
3.27894736842105e+00 1.04668593873243e-03 1.04244898866995e-04
3.28947368421053e+00 1.03671299384051e-03 1.00869679853069e-04
3.30000000000000e+00 1.02709553486769e-03 9.77498839738346e-05
3.31052631578947e+00 1.01779940332786e-03 9.49008686499774e-05
3.32105263157895e+00 1.00879353510997e-03 9.22691321399836e-05
