Energy (eV)          EEDF (eV^-(3/2))     First Anisotropy
2.96428571428571e-02 5.80203224237059e-02 3.35444567957946e-05
8.89285714285714e-02 5.75453140840776e-02 5.53507681246487e-05
1.48214285714286e-01 5.70741946021926e-02 7.29616386802138e-05
2.07500000000000e-01 5.66069321450342e-02 8.62754172035363e-05
2.66785714285714e-01 5.61434951338254e-02 9.73253325540700e-05
3.26071428571429e-01 5.56838522495032e-02 1.06881608610861e-04
3.85357142857143e-01 5.52279724284804e-02 1.15343568490632e-04
4.44642857142857e-01 5.47758248642247e-02 1.22952783227417e-04
5.03928571428572e-01 5.43273790008382e-02 1.29869750054542e-04
5.63214285714286e-01 5.38826045318751e-02 1.36208103481025e-04
6.22500000000000e-01 5.34414714007900e-02 1.42052107873204e-04
6.81785714285714e-01 5.30039497961332e-02 1.47466492937654e-04
7.41071428571429e-01 5.25700101505411e-02 1.52502387501946e-04
8.00357142857143e-01 5.21396231381965e-02 1.57201100367918e-04
8.59642857142857e-01 5.17127596745189e-02 1.61596636958085e-04
9.18928571428571e-01 5.12893909124210e-02 1.65717435395248e-04
9.78214285714286e-01 5.08694882405696e-02 1.69587599876973e-04
1.03750000000000e+00 5.04530232839712e-02 1.73227800836430e-04
1.09678571428571e+00 5.00399678947028e-02 1.76655943991964e-04
1.15607142857143e+00 4.96302941627833e-02 1.79887680006828e-04
1.21535714285714e+00 4.92239743991673e-02 1.82936797102471e-04
1.27464285714286e+00 4.88209811486749e-02 1.85815528490435e-04
1.33392857142857e+00 4.84212871771208e-02 1.88534798315388e-04
1.39321428571429e+00 4.80248654705911e-02 1.91104415805464e-04
1.45250000000000e+00 4.76316892421523e-02 1.93533236182550e-04
1.51178571428571e+00 4.72417319185865e-02 1.95829291110461e-04
1.57107142857143e+00 4.68549671495874e-02 1.97999896786954e-04
1.63035714285714e+00 4.64713687954241e-02 2.00051744227157e-04
1.68964285714286e+00 4.60909109353213e-02 2.01990974697235e-04
1.74892857142857e+00 4.57135678581344e-02 2.03823245077060e-04
1.80821428571429e+00 4.53393140612268e-02 2.05553780646597e-04
1.86750000000000e+00 4.49681242549569e-02 2.07187423029211e-04
1.92678571428571e+00 4.45999733526591e-02 2.08728670208025e-04
1.98607142857143e+00 4.42348364769828e-02 2.10181711328169e-04
2.04535714285714e+00 4.38726889504399e-02 2.11550457072690e-04
2.10464285714286e+00 4.35135063012586e-02 2.12838565853208e-04
2.16392857142857e+00 4.31572642561084e-02 2.14049468095596e-04
2.22321428571429e+00 4.28039387388450e-02 2.15186385189220e-04
2.28250000000000e+00 4.24535058736517e-02 2.16252348591834e-04
2.34178571428571e+00 4.21059419770549e-02 2.17250215681083e-04
2.40107142857143e+00 4.17612235625124e-02 2.18182684015689e-04
2.46035714285714e+00 4.14193273328122e-02 2.19052304158858e-04
2.51964285714286e+00 4.10802301843446e-02 2.19861490871104e-04
2.57892857142857e+00 4.07439092011686e-02 2.20612534292794e-04
2.63821428571429e+00 4.04103416537248e-02 2.21307607896948e-04
2.69750000000000e+00 4.00795050010929e-02 2.21948777722009e-04
2.75678571428571e+00 3.97513768844043e-02 2.22538009765898e-04
2.81607142857143e+00 3.94259351302663e-02 2.23077176830638e-04
2.87535714285714e+00 3.91031577444529e-02 2.23568064820353e-04
2.93464285714286e+00 3.87830229151093e-02 2.24012378227739e-04
2.99392857142857e+00 3.84655090077685e-02 2.24411746131465e-04
3.05321428571429e+00 3.81505945640770e-02 2.24767725821807e-04
3.11250000000000e+00 3.78382583034388e-02 2.25081807932703e-04
3.17178571428571e+00 3.75284791174488e-02 2.25355420301703e-04
3.23107142857143e+00 3.72212360724995e-02 2.25589931643230e-04
3.29035714285714e+00 3.69165084044260e-02 2.25786654996192e-04
3.34964285714286e+00 3.66142755209529e-02 2.25946850684309e-04
3.40892857142857e+00 3.63145169974220e-02 2.26071729924735e-04
3.46821428571429e+00 3.60172125755518e-02 2.26162456517876e-04
3.52750000000000e+00 3.57223421646396e-02 2.26220150021125e-04
3.58678571428571e+00 3.54298858367750e-02 2.26245887934428e-04
3.64607142857143e+00 3.51398238288486e-02 2.26240707842398e-04
3.70535714285714e+00 3.48521365379321e-02 2.26205609462288e-04
3.76464285714286e+00 3.45668045231690e-02 2.26141556356498e-04
3.82392857142857e+00 3.42838085020541e-02 2.26049478306797e-04
3.88321428571429e+00 3.40031293492384e-02 2.25930272058051e-04
3.94250000000000e+00 3.37247480974045e-02 2.25784803451344e-04
4.00178571428571e+00 3.34486459330944e-02 2.25613908738488e-04
4.06107142857143e+00 3.31748041982706e-02 2.25418395913917e-04
4.12035714285714e+00 3.29032043862789e-02 2.25199046011492e-04
4.17964285714286e+00 3.26338281433195e-02 2.24956614147334e-04
4.23892857142857e+00 3.23666572651692e-02 2.24691831195525e-04
4.29821428571429e+00 3.21016736960367e-02 2.24405404040938e-04
4.35750000000000e+00 3.18388595291909e-02 2.24098017109903e-04
4.41678571428571e+00 3.15781970032862e-02 2.23770333197781e-04
4.47607142857143e+00 3.13196685035806e-02 2.23422994340302e-04
4.53535714285714e+00 3.10632565583723e-02 2.23056622677770e-04
4.59464285714286e+00 3.08089438401476e-02 2.22671821114764e-04
4.65392857142857e+00 3.05567131626667e-02 2.22269174569922e-04
4.71321428571429e+00 3.03065474798710e-02 2.21849249964552e-04
4.77250000000000e+00 3.00584298863223e-02 2.21412597379039e-04
4.83178571428571e+00 2.98123436139398e-02 2.20959750592201e-04
4.89107142857143e+00 2.95682720329492e-02 2.20491227675304e-04
4.95035714285714e+00 2.93261986487136e-02 2.20007531592634e-04
5.00964285714286e+00 2.90861071026281e-02 2.19509150630428e-04
5.06892857142857e+00 2.88479811695098e-02 2.18996559370296e-04
5.12821428571429e+00 2.86118047565577e-02 2.18470218533546e-04
5.18750000000000e+00 2.83775619036451e-02 2.17930575890918e-04
5.24678571428571e+00 2.81452367804019e-02 2.17378066623355e-04
5.30607142857143e+00 2.79148136869525e-02 2.16813113740899e-04
5.36535714285714e+00 2.76862770510776e-02 2.16236128514822e-04
5.42464285714286e+00 2.74596114289092e-02 2.15647510761778e-04
5.48392857142857e+00 2.72348015025786e-02 2.15047649628151e-04
5.54321428571429e+00 2.70118320792276e-02 2.14436923356664e-04
5.60250000000000e+00 2.67906880911876e-02 2.13815700025049e-04
5.66178571428571e+00 2.65713545933545e-02 2.13184337791917e-04
5.72107142857143e+00 2.63538167637590e-02 2.12543185200692e-04
5.78035714285714e+00 2.61380599010106e-02 2.11892581499751e-04
5.83964285714286e+00 2.59240694248333e-02 2.11232856832649e-04
5.89892857142857e+00 2.57118308739350e-02 2.10564332887166e-04
5.95821428571429e+00 2.55013299050694e-02 2.09887322622351e-04
6.01750000000000e+00 2.52925522931257e-02 2.09202130883421e-04
6.07678571428571e+00 2.50854839287559e-02 2.08509054571440e-04
6.13607142857143e+00 2.48801108188103e-02 2.07808382869107e-04
6.19535714285714e+00 2.46764190840249e-02 2.07100397483903e-04
6.25464285714286e+00 2.44743949594288e-02 2.06385372775719e-04
6.31392857142857e+00 2.42740247924067e-02 2.05663576305298e-04
6.37321428571429e+00 2.40752950418090e-02 2.04935268544158e-04
6.43250000000000e+00 2.38781922779715e-02 2.04200703396573e-04
6.49178571428571e+00 2.36827031805624e-02 2.03460128317438e-04
6.55107142857143e+00 2.34888145389083e-02 2.02713784483401e-04
6.61035714285714e+00 2.32965132498943e-02 2.01961906981505e-04
6.66964285714286e+00 2.31057863182668e-02 2.01204724894170e-04
6.72892857142857e+00 2.29166208548658e-02 2.00442461770308e-04
6.78821428571429e+00 2.27290040757814e-02 1.99675335331577e-04
6.84750000000000e+00 2.25429233023184e-02 1.98903557922357e-04
6.90678571428571e+00 2.23583659590358e-02 1.98127336591639e-04
6.96607142857143e+00 2.21753195739840e-02 1.97346873224986e-04
7.02535714285714e+00 2.19937717767912e-02 1.96562364693579e-04
7.08464285714286e+00 2.18137102988822e-02 1.95774002909603e-04
7.14392857142857e+00 2.16351229718596e-02 1.94981975236304e-04
7.20321428571429e+00 2.14579977267054e-02 1.94186464198614e-04
7.26250000000000e+00 2.12823225937021e-02 1.93387647875830e-04
7.32178571428571e+00 2.11080857006422e-02 1.92585699958055e-04
7.38107142857143e+00 2.09352752729934e-02 1.91780789849500e-04
7.44035714285714e+00 2.07638796321492e-02 1.90973082788096e-04
7.49964285714286e+00 2.05938871955798e-02 1.90162739880133e-04
7.55892857142857e+00 2.04252864753451e-02 1.89349918460883e-04
7.61821428571429e+00 2.02580660773396e-02 1.88534771814291e-04
7.67750000000000e+00 2.00922147011801e-02 1.87717449519124e-04
7.73678571428571e+00 1.99277211385655e-02 1.86898097487166e-04
7.79607142857143e+00 1.97645742733832e-02 1.86076858045099e-04
7.85535714285714e+00 1.96027630801068e-02 1.85253870031824e-04
7.91464285714286e+00 1.94422766238898e-02 1.84429268818380e-04
7.97392857142857e+00 1.92831040591984e-02 1.83603186627800e-04
8.03321428571429e+00 1.91252346290966e-02 1.82775752266544e-04
8.09250000000000e+00 1.89686576651081e-02 1.81947091432079e-04
8.15178571428572e+00 1.88133625857106e-02 1.81117326737870e-04
8.21107142857143e+00 1.86593388963945e-02 1.80286577779015e-04
8.27035714285714e+00 1.85065761881910e-02 1.79454961212356e-04
8.32964285714286e+00 1.83550641377206e-02 1.78622590765866e-04
8.38892857142857e+00 1.82047925059323e-02 1.77789577524332e-04
8.44821428571429e+00 1.80557511374273e-02 1.76956029673965e-04
8.50750000000000e+00 1.79079299603016e-02 1.76122052777504e-04
8.56678571428571e+00 1.77613189847607e-02 1.75287749789532e-04
8.62607142857143e+00 1.76159083031395e-02 1.74453221109600e-04
8.68535714285714e+00 1.74716880885474e-02 1.73618564648877e-04
8.74464285714286e+00 1.73286485948800e-02 1.72783875831986e-04
8.80392857142857e+00 1.71867801556546e-02 1.71949247853621e-04
8.86321428571429e+00 1.70460731833703e-02 1.71114771436913e-04
8.92250000000000e+00 1.69065181693364e-02 1.70280535080841e-04
8.98178571428572e+00 1.67681056823956e-02 1.69446625068449e-04
9.04107142857143e+00 1.66308263689120e-02 1.68613125510193e-04
9.10035714285714e+00 1.64946709515223e-02 1.67780118399893e-04
9.15964285714286e+00 1.63596302291171e-02 1.66947683611162e-04
9.21892857142857e+00 1.62256950757638e-02 1.66115899129017e-04
9.27821428571429e+00 1.60928564401017e-02 1.65284840822105e-04
9.33750000000000e+00 1.59611053451594e-02 1.64454582666174e-04
9.39678571428571e+00 1.58304328871768e-02 1.63625196747090e-04
9.45607142857143e+00 1.57008302355668e-02 1.62796753296456e-04
9.51535714285714e+00 1.55722886317629e-02 1.61969320738951e-04
9.57464285714286e+00 1.54447993891756e-02 1.61142965684928e-04
9.63392857142857e+00 1.53183538921950e-02 1.60317753140284e-04
9.69321428571429e+00 1.51929435956183e-02 1.59493746292288e-04
9.75250000000000e+00 1.50685600244608e-02 1.58671006712214e-04
9.81178571428572e+00 1.49451947728664e-02 1.57849594354541e-04
9.87107142857143e+00 1.48228395040492e-02 1.57029567586362e-04
9.93035714285714e+00 1.47014859492272e-02 1.56210983227755e-04
9.98964285714286e+00 1.45811259075600e-02 1.55393896503954e-04
1.00489285714286e+01 1.44617512453402e-02 1.54578361275372e-04
1.01082142857143e+01 1.43433538953303e-02 1.53764429949007e-04
1.01675000000000e+01 1.42259258563388e-02 1.52952153839002e-04
1.02267857142857e+01 1.41094591915465e-02 1.52141582129629e-04
1.02860714285714e+01 1.39939460313954e-02 1.51332762647256e-04
1.03453571428571e+01 1.38793785696048e-02 1.50525742640913e-04
1.04046428571429e+01 1.37657490638036e-02 1.49720567677976e-04
1.04639285714286e+01 1.36530498350058e-02 1.48917282051547e-04
1.05232142857143e+01 1.35412732670942e-02 1.48115928807746e-04
1.05825000000000e+01 1.34304118063042e-02 1.47316550112371e-04
1.06417857142857e+01 1.33204579596860e-02 1.46519186251992e-04
1.07010714285714e+01 1.32114042977046e-02 1.45723876346044e-04
1.07603571428571e+01 1.31032434506068e-02 1.44930659067005e-04
1.08196428571429e+01 1.29959681089755e-02 1.44139571616431e-04
1.08789285714286e+01 1.28895710232340e-02 1.43350650099903e-04
1.09382142857143e+01 1.27840450031588e-02 1.42563929550265e-04
1.09975000000000e+01 1.26793829173922e-02 1.41779444265273e-04
1.10567857142857e+01 1.25755776920270e-02 1.40997226880635e-04
1.11160714285714e+01 1.24726223129507e-02 1.40217309027587e-04
1.11753571428571e+01 1.23705098225270e-02 1.39439721998154e-04
1.12346428571429e+01 1.22692333200819e-02 1.38664495795146e-04
1.12939285714286e+01 1.21687859614353e-02 1.37891659477710e-04
1.13532142857143e+01 1.20691609584415e-02 1.37121241181266e-04
1.14125000000000e+01 1.19703515785286e-02 1.36353268428839e-04
1.14717857142857e+01 1.18723511433947e-02 1.35587767270432e-04
1.15310714285714e+01 1.17751530311237e-02 1.34824762890905e-04
1.15903571428571e+01 1.16787506731510e-02 1.34064280225088e-04
1.16496428571429e+01 1.15831375546882e-02 1.33306343075982e-04
1.17089285714286e+01 1.14883072142826e-02 1.32550974433643e-04
1.17682142857143e+01 1.13942532433816e-02 1.31798196492294e-04
1.18275000000000e+01 1.13009692858992e-02 1.31048030937736e-04
1.18867857142857e+01 1.12084490370124e-02 1.30300498147962e-04
1.19460714285714e+01 1.11166862450742e-02 1.29555617755622e-04
1.20053571428571e+01 1.10256747088343e-02 1.28813409217294e-04
1.20646428571429e+01 1.09354082778118e-02 1.28073890994546e-04
1.21239285714286e+01 1.08458808518785e-02 1.27337080848539e-04
1.21832142857143e+01 1.07570863808485e-02 1.26602995854791e-04
1.22425000000000e+01 1.06690188640685e-02 1.25871652668774e-04
1.23017857142857e+01 1.05816723493060e-02 1.25143066783100e-04
1.23610714285714e+01 1.04950409344811e-02 1.24417253048357e-04
1.24203571428571e+01 1.04091187651176e-02 1.23694226200396e-04
1.24796428571429e+01 1.03239000346698e-02 1.22974000099448e-04
1.25389285714286e+01 1.02393789841291e-02 1.22256588002532e-04
1.25982142857143e+01 1.01555499016362e-02 1.21542002576244e-04
1.26575000000000e+01 1.00724071220944e-02 1.20830256142440e-04
1.27167857142857e+01 9.98994502614237e-03 1.20121359987638e-04
1.27760714285714e+01 9.90815804172212e-03 1.19415324845731e-04
1.28353571428571e+01 9.82704064174019e-03 1.18712161386735e-04
1.28946428571429e+01 9.74658734435307e-03 1.18011879509519e-04
1.29539285714286e+01 9.66679271259619e-03 1.17314488593935e-04
1.30132142857143e+01 9.58765135401768e-03 1.16619997511889e-04
1.30725000000000e+01 9.50915792031335e-03 1.15928414854814e-04
1.31317857142857e+01 9.43130710637591e-03 1.15239748291368e-04
1.31910714285714e+01 9.35409365171738e-03 1.14554005015115e-04
1.32503571428571e+01 9.27751233831956e-03 1.13871192197865e-04
1.33096428571429e+01 9.20155799088387e-03 1.13191316331943e-04
1.33689285714286e+01 9.12622547648103e-03 1.12514383463734e-04
1.34282142857143e+01 9.05150970420530e-03 1.11840399203306e-04
1.34875000000000e+01 8.97740562482987e-03 1.11169368935176e-04
1.35467857142857e+01 8.90390822992634e-03 1.10501297220693e-04
1.36060714285714e+01 8.83101255315586e-03 1.09836188213489e-04
1.36653571428571e+01 8.75871366829202e-03 1.09174046080235e-04
1.37246428571429e+01 8.68700668943914e-03 1.08514874388734e-04
1.37839285714286e+01 8.61588677070158e-03 1.07858676324417e-04
1.38432142857143e+01 8.54534910585725e-03 1.07205454698718e-04
1.39025000000000e+01 8.47538892803227e-03 1.06555212144496e-04
1.39617857142857e+01 8.40600150888491e-03 1.05907950559775e-04
1.40210714285714e+01 8.33718215977861e-03 1.05263671493512e-04
1.40803571428571e+01 8.26892622996174e-03 1.04622376536367e-04
1.41396428571429e+01 8.20122910675808e-03 1.03984066751183e-04
1.41989285714286e+01 8.13408621525469e-03 1.03348742873799e-04
1.42582142857143e+01 8.06749301799359e-03 1.02716405320359e-04
1.43175000000000e+01 8.00144501466467e-03 1.02087054368646e-04
1.43767857142857e+01 7.93593774134871e-03 1.01460689640098e-04
1.44360714285714e+01 7.87096677158404e-03 1.00837310458223e-04
1.44953571428571e+01 7.80652771468923e-03 1.00216916211711e-04
1.45546428571429e+01 7.74261621592908e-03 9.95995058241618e-05
1.46139285714286e+01 7.67922795621996e-03 9.89850779404832e-05
1.46732142857143e+01 7.61635865183871e-03 9.83736309332635e-05
1.47325000000000e+01 7.55400405413272e-03 9.77651630711216e-05
1.47917857142857e+01 7.49215994881731e-03 9.71596720362347e-05
1.48510714285714e+01 7.43082215694635e-03 9.65571552574792e-05
1.49103571428571e+01 7.36998653336550e-03 9.59576102480125e-05
1.49696428571429e+01 7.30964896685649e-03 9.53610341113839e-05
1.50289285714286e+01 7.24980537985902e-03 9.47674237146228e-05
1.50882142857143e+01 7.19045172819588e-03 9.41767756938346e-05
1.51475000000000e+01 7.13158400079926e-03 9.35890866105598e-05
1.52067857142857e+01 7.07319821905813e-03 9.30043525022221e-05
1.52660714285714e+01 7.01529043770219e-03 9.24225691919467e-05
1.53253571428571e+01 6.95785674337425e-03 9.18437326025311e-05
1.53846428571429e+01 6.90089325475553e-03 9.12678382962918e-05
1.54439285714286e+01 6.84439612230304e-03 9.06948816358984e-05
1.55032142857143e+01 6.78836152799010e-03 9.01248577892593e-05
1.55625000000000e+01 6.73278568504795e-03 8.95577618748366e-05
1.56217857142857e+01 6.67766483735920e-03 8.89935885426313e-05
1.56810714285714e+01 6.62299526026337e-03 8.84323322624503e-05
1.57403571428571e+01 6.56877325923833e-03 8.78739876160363e-05
1.57996428571429e+01 6.51499517000878e-03 8.73185488681937e-05
1.58589285714286e+01 6.46165735829832e-03 8.67660101163219e-05
1.59182142857143e+01 6.40875621958443e-03 8.62163652946802e-05
1.59775000000000e+01 6.35628817885460e-03 8.56696083095141e-05
1.60367857142857e+01 6.30424969004222e-03 8.51257326483650e-05
1.60960714285714e+01 6.25263723676114e-03 8.45847316483802e-05
1.61553571428571e+01 6.20144733108703e-03 8.40465987682730e-05
1.62146428571429e+01 6.15067651365098e-03 8.35113271884701e-05
1.62739285714286e+01 6.10032135340546e-03 8.29789099501751e-05
1.63332142857143e+01 6.05037844739297e-03 8.24493399591050e-05
1.63925000000000e+01 6.00084442051581e-03 8.19226101112001e-05
1.64517857142857e+01 5.95171592501121e-03 8.13987129282351e-05
1.65110714285714e+01 5.90298964112157e-03 8.08776408076653e-05
1.65703571428571e+01 5.85466227596739e-03 8.03593862758779e-05
1.66296428571429e+01 5.80673056362778e-03 7.98439416152939e-05
1.66889285714286e+01 5.75919126491952e-03 7.93312989937748e-05
1.67482142857143e+01 5.71204116717858e-03 7.88214504678661e-05
1.68075000000000e+01 5.66527708404284e-03 7.83143880998075e-05
1.68667857142857e+01 5.61889585496343e-03 7.78101036175809e-05
1.69260714285714e+01 5.57289434581661e-03 7.73085886476374e-05
1.69853571428571e+01 5.52726944786081e-03 7.68098349508388e-05
1.70446428571429e+01 5.48201807780555e-03 7.63138340745746e-05
1.71039285714286e+01 5.43713717760283e-03 7.58205774732139e-05
1.71632142857143e+01 5.39262371424091e-03 7.53300565109669e-05
1.72225000000000e+01 5.34847467953910e-03 7.48422625708036e-05
1.72817857142857e+01 5.30468708969276e-03 7.43571867372185e-05
1.73410714285714e+01 5.26125798583206e-03 7.38748200130995e-05
1.74003571428571e+01 5.21818443305637e-03 7.33951535395926e-05
1.74596428571429e+01 5.17546352049290e-03 7.29181782714887e-05
1.75189285714286e+01 5.13309236109979e-03 7.24438850893911e-05
1.75782142857143e+01 5.09106809147140e-03 7.19722648022087e-05
1.76375000000000e+01 5.04938787164463e-03 7.15033082486000e-05
1.76967857142857e+01 5.00804888467482e-03 7.10370060008668e-05
1.77560714285714e+01 4.96704833714654e-03 7.05733485670939e-05
1.78153571428571e+01 4.92638345827888e-03 7.01123265961121e-05
1.78746428571429e+01 4.88605149997514e-03 6.96539305745148e-05
1.79339285714286e+01 4.84604973663694e-03 6.91981509311444e-05
1.79932142857143e+01 4.80637546498038e-03 6.87449780392676e-05
1.80525000000000e+01 4.76702600385314e-03 6.82944023110840e-05
1.81117857142857e+01 4.72799869383925e-03 6.78464139212669e-05
1.81710714285714e+01 4.68929089772599e-03 6.74010029954552e-05
1.82303571428571e+01 4.65089999967460e-03 6.69581598013629e-05
1.82896428571429e+01 4.61282340526202e-03 6.65178744659155e-05
1.83489285714286e+01 4.57505854130543e-03 6.60801370726255e-05
1.84082142857143e+01 4.53760285568863e-03 6.56449376634708e-05
1.84675000000000e+01 4.50045381718943e-03 6.52122663269911e-05
1.85267857142857e+01 4.46360891511099e-03 6.47821129400925e-05
1.85860714285714e+01 4.42706565970897e-03 6.43544673438588e-05
1.86453571428571e+01 4.39082158142239e-03 6.39293195218306e-05
1.87046428571429e+01 4.35487423090840e-03 6.35066593358321e-05
