Energy (eV)          EEDF (eV^-(3/2))     First Anisotropy
1.31034482758621e-02 1.21754408356704e-01 5.98942629845850e-05
3.93103448275862e-02 1.21031917519508e-01 9.89416304754219e-05
6.55172413793104e-02 1.20313713946354e-01 1.30717996393761e-04
9.17241379310345e-02 1.19599772193698e-01 1.54922060284140e-04
1.17931034482759e-01 1.18890066974163e-01 1.75161027859790e-04
1.44137931034483e-01 1.18184573143741e-01 1.92796862583302e-04
1.70344827586207e-01 1.17483265717472e-01 2.08533463466861e-04
1.96551724137931e-01 1.16786119848682e-01 2.22795353660896e-04
2.22758620689655e-01 1.16093110846307e-01 2.35863729989964e-04
2.48965517241379e-01 1.15404214159005e-01 2.47937088050523e-04
2.75172413793103e-01 1.14719405384396e-01 2.59162180409848e-04
3.01379310344828e-01 1.14038660267548e-01 2.69651404667729e-04
3.27586206896552e-01 1.13361954692191e-01 2.79493279816887e-04
3.53793103448276e-01 1.12689264689877e-01 2.88759114378970e-04
3.80000000000000e-01 1.12020566430162e-01 2.97507439481431e-04
4.06206896551724e-01 1.11355836227852e-01 3.05787063085319e-04
4.32413793103448e-01 1.10695050534799e-01 3.13639238347357e-04
4.58620689655172e-01 1.10038185945815e-01 3.21099242305606e-04
4.84827586206897e-01 1.09385219191620e-01 3.28197550845132e-04
5.11034482758621e-01 1.08736127143785e-01 3.34960729704186e-04
5.37241379310345e-01 1.08090886808539e-01 3.41412121862389e-04
5.63448275862069e-01 1.07449475329836e-01 3.47572384685550e-04
5.89655172413793e-01 1.06811869988415e-01 3.53459917369152e-04
6.15862068965517e-01 1.06178048197529e-01 3.59091202559778e-04
6.42068965517241e-01 1.05547987506632e-01 3.64481084036868e-04
6.68275862068965e-01 1.04921665596348e-01 3.69642994073849e-04
6.94482758620690e-01 1.04299060281689e-01 3.74589141202629e-04
7.20689655172414e-01 1.03680149507469e-01 3.79330666687411e-04
7.46896551724138e-01 1.03064911351132e-01 3.83877775754655e-04
7.73103448275862e-01 1.02453324018538e-01 3.88239848664499e-04
7.99310344827586e-01 1.01845365845706e-01 3.92425534500652e-04
8.25517241379310e-01 1.01241015297975e-01 3.96442832591603e-04
8.51724137931035e-01 1.00640250966941e-01 4.00299161402179e-04
8.77931034482759e-01 1.00043051572703e-01 4.04001418605392e-04
9.04137931034483e-01 9.94493959602299e-02 4.07556033207953e-04
9.30344827586207e-01 9.88592631013744e-02 4.10969010974609e-04
9.56551724137931e-01 9.82726320914738e-02 4.14245974283346e-04
9.82758620689655e-01 9.76894821511607e-02 4.17392197134710e-04
1.00896551724138e+00 9.71097926231723e-02 4.20412636627678e-04
1.03517241379310e+00 9.65335429711449e-02 4.23311958098256e-04
1.06137931034483e+00 9.59607127890381e-02 4.26094563062924e-04
1.08758620689655e+00 9.53912817802200e-02 4.28764609680825e-04
1.11379310344828e+00 9.48252297740620e-02 4.31326028546818e-04
1.14000000000000e+00 9.42625367246691e-02 4.33782546199855e-04
1.16620689655172e+00 9.37031826949608e-02 4.36137696973940e-04
1.19241379310345e+00 9.31471478759340e-02 4.38394837939622e-04
1.21862068965517e+00 9.25944125667229e-02 4.40557162806146e-04
1.24482758620690e+00 9.20449571880873e-02 4.42627709832071e-04
1.27103448275862e+00 9.14987622812903e-02 4.44609377738828e-04
1.29724137931034e+00 9.09558084943853e-02 4.46504932653700e-04
1.32344827586207e+00 9.04160765946072e-02 4.48317014267529e-04
1.34965517241379e+00 8.98795474673239e-02 4.50048148959493e-04
1.37586206896552e+00 8.93462021032969e-02 4.51700754597397e-04
1.40206896551724e+00 8.88160216101068e-02 4.53277144778539e-04
1.42827586206897e+00 8.82889872111676e-02 4.54779539902234e-04
1.45448275862069e+00 8.77650802338534e-02 4.56210070446365e-04
1.48068965517241e+00 8.72442821200691e-02 4.57570779836725e-04
1.50689655172414e+00 8.67265744253186e-02 4.58863633973149e-04
1.53310344827586e+00 8.62119388076063e-02 4.60090523405251e-04
1.55931034482759e+00 8.57003570372461e-02 4.61253265205685e-04
1.58551724137931e+00 8.51918109959771e-02 4.62353611305905e-04
1.61172413793103e+00 8.46862826665584e-02 4.63393249863725e-04
1.63793103448276e+00 8.41837541419078e-02 4.64373806407388e-04
1.66413793103448e+00 8.36842076242419e-02 4.65296851235701e-04
1.69034482758621e+00 8.31876254153099e-02 4.66163900184509e-04
1.71655172413793e+00 8.26939899249242e-02 4.66976415232079e-04
1.74275862068966e+00 8.22032836701239e-02 4.67735811149616e-04
1.76896551724138e+00 8.17154892659881e-02 4.68443455818801e-04
1.79517241379310e+00 8.12305894336154e-02 4.69100670434243e-04
1.82137931034483e+00 8.07485669993106e-02 4.69708735543848e-04
1.84758620689655e+00 8.02694048859244e-02 4.70268891028858e-04
1.87379310344828e+00 7.97930861203330e-02 4.70782336003282e-04
1.90000000000000e+00 7.93195938326460e-02 4.71250234349686e-04
1.92620689655172e+00 7.88489112480278e-02 4.71673713848203e-04
1.95241379310345e+00 7.83810216961132e-02 4.72053868235401e-04
1.97862068965517e+00 7.79159086006519e-02 4.72391759332467e-04
2.00482758620690e+00 7.74535554861687e-02 4.72688415981890e-04
2.03103448275862e+00 7.69939459772166e-02 4.72944838877211e-04
2.05724137931034e+00 7.65370637909783e-02 4.73162000016078e-04
2.08344827586207e+00 7.60828927435352e-02 4.73340842119410e-04
2.10965517241379e+00 7.56314167491475e-02 4.73482283138385e-04
2.13586206896552e+00 7.51826198132297e-02 4.73587215588606e-04
2.16206896551724e+00 7.47364860382608e-02 4.73656505857632e-04
2.18827586206897e+00 7.42929996230885e-02 4.73690998432313e-04
2.21448275862069e+00 7.38521448562516e-02 4.73691515143930e-04
2.24068965517241e+00 7.34139061215585e-02 4.73658854391984e-04
2.26689655172414e+00 7.29782678974146e-02 4.73593795126490e-04
2.29310344827586e+00 7.25452147504660e-02 4.73497096027247e-04
2.31931034482759e+00 7.21147313408726e-02 4.73369494665617e-04
2.34551724137931e+00 7.16868024216555e-02 4.73211711270418e-04
2.37172413793103e+00 7.12614128326405e-02 4.73024447858156e-04
2.39793103448276e+00 7.08385475054501e-02 4.72808387351238e-04
2.42413793103448e+00 7.04181914628661e-02 4.72564197150731e-04
2.45034482758621e+00 7.00003298130541e-02 4.72292528230371e-04
2.47655172413793e+00 6.95849477542956e-02 4.71994014225495e-04
2.50275862068966e+00 6.91720305743637e-02 4.71669274831798e-04
2.52896551724138e+00 6.87615636450107e-02 4.71318914874641e-04
2.55517241379310e+00 6.83535324264583e-02 4.70943523378851e-04
2.58137931034483e+00 6.79479224667854e-02 4.70543676809836e-04
2.60758620689655e+00 6.75447193966627e-02 4.70119938127266e-04
2.63379310344828e+00 6.71439089336163e-02 4.69672855843699e-04
2.66000000000000e+00 6.67454768814283e-02 4.69202967122075e-04
2.68620689655172e+00 6.63494091251021e-02 4.68710796395803e-04
2.71241379310345e+00 6.59556916363612e-02 4.68196856125510e-04
2.73862068965517e+00 6.55643104672683e-02 4.67661647636899e-04
2.76482758620690e+00 6.51752517541103e-02 4.67105659735887e-04
2.79103448275862e+00 6.47885017168235e-02 4.66529371573638e-04
2.81724137931035e+00 6.44040466543411e-02 4.65933251701070e-04
2.84344827586207e+00 6.40218729482889e-02 4.65317757131626e-04
2.86965517241379e+00 6.36419670624268e-02 4.64683336092184e-04
2.89586206896552e+00 6.32643155381864e-02 4.64030427082719e-04
2.92206896551724e+00 6.28889049981913e-02 4.63359457943395e-04
2.94827586206897e+00 6.25157221457120e-02 4.62670848499536e-04
2.97448275862069e+00 6.21447537603852e-02 4.61965009629416e-04
3.00068965517241e+00 6.17759867015671e-02 4.61242342338679e-04
3.02689655172414e+00 6.14094079078032e-02 4.60503240306389e-04
3.05310344827586e+00 6.10450043927170e-02 4.59748088963243e-04
3.07931034482759e+00 6.06827632482085e-02 4.58977264575666e-04
3.10551724137931e+00 6.03226716439362e-02 4.58191136699384e-04
3.13172413793103e+00 5.99647168233676e-02 4.57390067269354e-04
3.15793103448276e+00 5.96088861068319e-02 4.56574409695965e-04
3.18413793103448e+00 5.92551668910124e-02 4.55744511231933e-04
3.21034482758621e+00 5.89035466451510e-02 4.54900712074498e-04
3.23655172413793e+00 5.85540129139638e-02 4.54043344475689e-04
3.26275862068966e+00 5.82065533171432e-02 4.53172735027558e-04
3.28896551724138e+00 5.78611555457083e-02 4.52289203777766e-04
3.31517241379310e+00 5.75178073647911e-02 4.51393063354980e-04
3.34137931034483e+00 5.71764966131485e-02 4.50484621176758e-04
3.36758620689655e+00 5.68372111996501e-02 4.49564178579652e-04
3.39379310344828e+00 5.64999391059437e-02 4.48632029960384e-04
3.42000000000000e+00 5.61646683859751e-02 4.47688464910646e-04
3.44620689655172e+00 5.58313871626083e-02 4.46733767046367e-04
3.47241379310345e+00 5.55000836311241e-02 4.45768214430841e-04
3.49862068965517e+00 5.51707460549463e-02 4.44792080058532e-04
3.52482758620690e+00 5.48433627680998e-02 4.43805630697497e-04
3.55103448275862e+00 5.45179221747483e-02 4.42809128899736e-04
3.57724137931034e+00 5.41944127460331e-02 4.41802832179191e-04
3.60344827586207e+00 5.38728230224265e-02 4.40786992200739e-04
3.62965517241379e+00 5.35531416132796e-02 4.39761856727276e-04
3.65586206896552e+00 5.32353571937744e-02 4.38727668814604e-04
3.68206896551724e+00 5.29194585071768e-02 4.37684666016100e-04
3.70827586206897e+00 5.26054343643955e-02 4.36633082269632e-04
3.73448275862069e+00 5.22932736410410e-02 4.35573147109304e-04
3.76068965517241e+00 5.19829652795846e-02 4.34505084886002e-04
3.78689655172414e+00 5.16744982889265e-02 4.33429116596824e-04
3.81310344827586e+00 5.13678617415579e-02 4.32345459113707e-04
3.83931034482759e+00 5.10630447756299e-02 4.31254324419888e-04
3.86551724137931e+00 5.07600365945317e-02 4.30155921384448e-04
3.89172413793103e+00 5.04588264641497e-02 4.29050455007439e-04
3.91793103448276e+00 5.01594037148528e-02 4.27938125672703e-04
3.94413793103448e+00 4.98617577410777e-02 4.26819130869865e-04
3.97034482758621e+00 4.95658779986830e-02 4.25693664455352e-04
3.99655172413793e+00 4.92717540068533e-02 4.24561915921847e-04
4.02275862068966e+00 4.89793753476933e-02 4.23424072069849e-04
4.04896551724138e+00 4.86887316636706e-02 4.22280316284470e-04
4.07517241379310e+00 4.83998126594446e-02 4.21130827821329e-04
4.10137931034483e+00 4.81126081014673e-02 4.19975783429754e-04
4.12758620689655e+00 4.78271078155126e-02 4.18815356645202e-04
4.15379310344828e+00 4.75433016884322e-02 4.17649717091357e-04
4.18000000000000e+00 4.72611796677639e-02 4.16479032056923e-04
4.20620689655172e+00 4.69807317593431e-02 4.15303465562724e-04
4.23241379310345e+00 4.67019480296448e-02 4.14123178644081e-04
4.25862068965517e+00 4.64248186027748e-02 4.12938329678025e-04
4.28482758620690e+00 4.61493336621017e-02 4.11749073463251e-04
4.31103448275862e+00 4.58754834498786e-02 4.10555562716538e-04
4.33724137931034e+00 4.56032582649921e-02 4.09357947410071e-04
4.36344827586207e+00 4.53326484645316e-02 4.08156374117914e-04
4.38965517241379e+00 4.50636444634178e-02 4.06950987470828e-04
4.41586206896552e+00 4.47962367322248e-02 4.05741929508926e-04
4.44206896551724e+00 4.45304157986883e-02 4.04529339042588e-04
4.46827586206897e+00 4.42661722473415e-02 4.03313353067307e-04
4.49448275862069e+00 4.40034967174075e-02 4.02094106131312e-04
4.52068965517241e+00 4.37423799042479e-02 4.00871729710726e-04
4.54689655172414e+00 4.34828125590081e-02 3.99646353585821e-04
4.57310344827586e+00 4.32247854865743e-02 3.98418105223389e-04
4.59931034482759e+00 4.29682895469685e-02 3.97187109165843e-04
4.62551724137931e+00 4.27133156549996e-02 3.95953488370367e-04
4.65172413793103e+00 4.24598547782852e-02 3.94717363605392e-04
4.67793103448276e+00 4.22078979385936e-02 3.93478852853742e-04
4.70413793103448e+00 4.19574362115014e-02 3.92238072615914e-04
4.73034482758621e+00 4.17084607244774e-02 3.90995137320077e-04
4.75655172413793e+00 4.14609626581737e-02 3.89750158739312e-04
4.78275862068966e+00 4.12149332460902e-02 3.88503247260063e-04
4.80896551724138e+00 4.09703637727175e-02 3.87254511305496e-04
4.83517241379310e+00 4.07272455747800e-02 3.86004056766394e-04
4.86137931034483e+00 4.04855700409064e-02 3.84751988236110e-04
4.88758620689655e+00 4.02453286098299e-02 3.83498408446874e-04
4.91379310344828e+00 4.00065127715855e-02 3.82243417714077e-04
4.94000000000000e+00 3.97691140671857e-02 3.80987115138782e-04
4.96620689655172e+00 3.95331240868764e-02 3.79729597870368e-04
4.99241379310345e+00 3.92985344717569e-02 3.78470961310824e-04
5.01862068965517e+00 3.90653369115907e-02 3.77211299352454e-04
5.04482758620690e+00 3.88335231459245e-02 3.75950703650991e-04
5.07103448275862e+00 3.86030849637747e-02 3.74689264771819e-04
5.09724137931035e+00 3.83740142019744e-02 3.73427071662606e-04
5.12344827586207e+00 3.81463027462519e-02 3.72164211133174e-04
5.14965517241379e+00 3.79199425309232e-02 3.70900768972227e-04
5.17586206896552e+00 3.76949255372883e-02 3.69636829432257e-04
5.20206896551724e+00 3.74712437946702e-02 3.68372474721235e-04
5.22827586206897e+00 3.72488893801133e-02 3.67107786090722e-04
5.25448275862069e+00 3.70278544168277e-02 3.65842843332884e-04
5.28068965517241e+00 3.68081310751899e-02 3.64577724283651e-04
5.30689655172414e+00 3.65897115724475e-02 3.63312505883076e-04
5.33310344827586e+00 3.63725881712089e-02 3.62047263684165e-04
5.35931034482759e+00 3.61567531804078e-02 3.60782071367306e-04
5.38551724137931e+00 3.59421989550144e-02 3.59517001773816e-04
5.41172413793104e+00 3.57289178945678e-02 3.58252126426033e-04
5.43793103448276e+00 3.55169024441077e-02 3.56987515053004e-04
5.46413793103448e+00 3.53061450938891e-02 3.55723236597995e-04
5.49034482758621e+00 3.50966383779591e-02 3.54459358749471e-04
5.51655172413793e+00 3.48883748750540e-02 3.53195947477877e-04
5.54275862068966e+00 3.46813472083205e-02 3.51933068017891e-04
5.56896551724138e+00 3.44755480439327e-02 3.50670784409967e-04
5.59517241379310e+00 3.42709700919577e-02 3.49409159047939e-04
5.62137931034483e+00 3.40676061060824e-02 3.48148253636862e-04
5.64758620689655e+00 3.38654488822692e-02 3.46888128744846e-04
5.67379310344828e+00 3.36644912595924e-02 3.45628843361273e-04
5.70000000000000e+00 3.34647261199687e-02 3.44370455830778e-04
5.72620689655172e+00 3.32661463868521e-02 3.43113023269140e-04
5.75241379310345e+00 3.30687450263819e-02 3.41856601717193e-04
5.77862068965517e+00 3.28725150457517e-02 3.40601246320149e-04
5.80482758620690e+00 3.26774494939939e-02 3.39347010751665e-04
5.83103448275862e+00 3.24835414617184e-02 3.38093948106667e-04
5.85724137931035e+00 3.22907840798722e-02 3.36842110481650e-04
5.88344827586207e+00 3.20991705204959e-02 3.35591548560813e-04
5.90965517241379e+00 3.19086939964675e-02 3.34342312486948e-04
5.93586206896552e+00 3.17193477602973e-02 3.33094451451508e-04
5.96206896551724e+00 3.15311251048569e-02 3.31848013290035e-04
5.98827586206897e+00 3.13440193631295e-02 3.30603045331760e-04
6.01448275862069e+00 3.11580239070366e-02 3.29359593999298e-04
6.04068965517241e+00 3.09731321481431e-02 3.28117704413036e-04
6.06689655172414e+00 3.07893375374117e-02 3.26877421220160e-04
6.09310344827586e+00 3.06066335640619e-02 3.25638788203554e-04
6.11931034482759e+00 3.04250137562515e-02 3.24401847895134e-04
6.14551724137931e+00 3.02444716808348e-02 3.23166642384822e-04
6.17172413793103e+00 3.00650009422538e-02 3.21933212938339e-04
6.19793103448276e+00 2.98865951831955e-02 3.20701599619401e-04
6.22413793103448e+00 2.97092480843554e-02 3.19471842079177e-04
6.25034482758621e+00 2.95329533633584e-02 3.18243979182629e-04
6.27655172413793e+00 2.93577047753942e-02 3.17018048639458e-04
6.30275862068966e+00 2.91834961129850e-02 3.15794087774602e-04
6.32896551724138e+00 2.90103212049354e-02 3.14572133162900e-04
6.35517241379310e+00 2.88381739169472e-02 3.13352220268559e-04
6.38137931034483e+00 2.86670481513901e-02 3.12134384197238e-04
6.40758620689655e+00 2.84969378462812e-02 3.10918659338880e-04
6.43379310344828e+00 2.83278369758782e-02 3.09705079015379e-04
6.46000000000000e+00 2.81597395504549e-02 3.08493676214799e-04
6.48620689655172e+00 2.79926396153078e-02 3.07284483126625e-04
6.51241379310345e+00 2.78265312515830e-02 3.06077531260396e-04
6.53862068965517e+00 2.76614085750407e-02 3.04872851584063e-04
6.56482758620690e+00 2.74972657366131e-02 3.03670474065530e-04
6.59103448275862e+00 2.73340969221868e-02 3.02470428375838e-04
6.61724137931034e+00 2.71718963516559e-02 3.01272743554180e-04
6.64344827586207e+00 2.70106582794610e-02 3.00077447677434e-04
6.66965517241379e+00 2.68503769943758e-02 2.98884568546822e-04
6.69586206896552e+00 2.66910468185853e-02 2.97694133360529e-04
6.72206896551724e+00 2.65326621082067e-02 2.96506168390534e-04
6.74827586206897e+00 2.63752172530803e-02 2.95320699653139e-04
6.77448275862069e+00 2.62187066758715e-02 2.94137752589016e-04
6.80068965517241e+00 2.60631248325750e-02 2.92957351747273e-04
6.82689655172414e+00 2.59084662123090e-02 2.91779521440215e-04
6.85310344827586e+00 2.57547253364414e-02 2.90604285430669e-04
6.87931034482759e+00 2.56018967590766e-02 2.89431666623024e-04
6.90551724137931e+00 2.54499750668542e-02 2.88261687702713e-04
6.93172413793103e+00 2.52989548780974e-02 2.87094370830579e-04
6.95793103448276e+00 2.51488308432845e-02 2.85929737340834e-04
6.98413793103448e+00 2.49995976448506e-02 2.84767808365665e-04
7.01034482758621e+00 2.48512499963585e-02 2.83608604536318e-04
7.03655172413793e+00 2.47037826429546e-02 2.82452145687937e-04
7.06275862068966e+00 2.45571903611745e-02 2.81298451469602e-04
7.08896551724138e+00 2.44114679581350e-02 2.80147541052052e-04
7.11517241379310e+00 2.42666102719757e-02 2.78999432839173e-04
7.14137931034483e+00 2.41226121716671e-02 2.77854145063922e-04
7.16758620689655e+00 2.39794685562247e-02 2.76711695502457e-04
7.19379310344828e+00 2.38371743551351e-02 2.75572101192143e-04
7.22000000000000e+00 2.36957245281685e-02 2.74435379013746e-04
7.24620689655172e+00 2.35551140646123e-02 2.73301545319815e-04
7.27241379310345e+00 2.34153379838749e-02 2.72170616027575e-04
7.29862068965517e+00 2.32763913345362e-02 2.71042606727150e-04
7.32482758620690e+00 2.31382691947503e-02 2.69917532314920e-04
7.35103448275862e+00 2.30009666720628e-02 2.68795407551944e-04
7.37724137931035e+00 2.28644789026790e-02 2.67676246795469e-04
7.40344827586207e+00 2.27288010518526e-02 2.66560063734083e-04
7.42965517241379e+00 2.25939283137071e-02 2.65446871933373e-04
7.45586206896552e+00 2.24598559105221e-02 2.64336684573442e-04
7.48206896551724e+00 2.23265790931097e-02 2.63229514189805e-04
7.50827586206897e+00 2.21940931406394e-02 2.62125373206644e-04
7.53448275862069e+00 2.20623933599417e-02 2.61024273680149e-04
7.56068965517241e+00 2.19314750858731e-02 2.59926227045090e-04
7.58689655172414e+00 2.18013336811437e-02 2.58831244635887e-04
7.61310344827586e+00 2.16719645356391e-02 2.57739337435719e-04
7.63931034482759e+00 2.15433630667727e-02 2.56650515828628e-04
7.66551724137931e+00 2.14155247193170e-02 2.55564790108710e-04
7.69172413793103e+00 2.12884449647426e-02 2.54482170234794e-04
7.71793103448276e+00 2.11621193015590e-02 2.53402665587999e-04
7.74413793103448e+00 2.10365432551490e-02 2.52326285469378e-04
7.77034482758621e+00 2.09117123771241e-02 2.51253038859946e-04
7.79655172413793e+00 2.07876222456550e-02 2.50182934183651e-04
7.82275862068966e+00 2.06642684653082e-02 2.49115979793713e-04
7.84896551724138e+00 2.05416466664181e-02 2.48052183737874e-04
7.87517241379310e+00 2.04197525054065e-02 2.46991553526665e-04
7.90137931034483e+00 2.02985816646226e-02 2.45934096608727e-04
7.92758620689655e+00 2.01781298517303e-02 2.44879820141164e-04
7.95379310344828e+00 2.00583928000180e-02 2.43828730762933e-04
7.98000000000000e+00 1.99393662682411e-02 2.42780835059504e-04
8.00620689655172e+00 1.98210460400245e-02 2.41736139264507e-04
8.03241379310345e+00 1.97034279243082e-02 2.40694649333200e-04
8.05862068965517e+00 1.95865077546100e-02 2.39656371027925e-04
8.08482758620690e+00 1.94702813893179e-02 2.38621309623612e-04
8.11103448275862e+00 1.93547447115380e-02 2.37589470354116e-04
8.13724137931034e+00 1.92398936285218e-02 2.36560858196164e-04
8.16344827586207e+00 1.91257240719499e-02 2.35535477656266e-04
8.18965517241379e+00 1.90122319977817e-02 2.34513333206991e-04
8.21586206896552e+00 1.88994133856978e-02 2.33494429075766e-04
8.24206896551724e+00 1.87872642393740e-02 2.32478769036357e-04
8.26827586206897e+00 1.86757805863343e-02 2.31466356835376e-04
