Energy (eV)          EEDF (eV^-(3/2))     First Anisotropy
2.61666666666667e-03 3.67525762293211e+00 2.44549952762784e-03
7.85000000000000e-03 3.63307378581071e+00 4.02858322682122e-03
1.30833333333333e-02 3.59137412571410e+00 5.29273161024424e-03
1.83166666666667e-02 3.55015308578742e+00 6.23776436301890e-03
2.35500000000000e-02 3.50940517237376e+00 7.01333199429519e-03
2.87833333333333e-02 3.46912495486658e+00 7.67640866895287e-03
3.40166666666667e-02 3.42930706531518e+00 8.25667315457627e-03
3.92500000000000e-02 3.38994619718972e+00 8.77216270512951e-03
4.44833333333333e-02 3.35103710480120e+00 9.23491544029670e-03
4.97166666666667e-02 3.31257460285688e+00 9.65349261163925e-03
5.49500000000000e-02 3.27455356547423e+00 1.00342706177419e-02
6.01833333333333e-02 3.23696892555131e+00 1.03821687457317e-02
6.54166666666667e-02 3.19981567427445e+00 1.07010890571803e-02
7.06500000000000e-02 3.16308886024918e+00 1.09941971737330e-02
7.58833333333333e-02 3.12678358886977e+00 1.12641094702646e-02
8.11166666666667e-02 3.09089502180673e+00 1.15130224630395e-02
8.63500000000000e-02 3.05541837621147e+00 1.17428049367304e-02
9.15833333333333e-02 3.02034892409749e+00 1.19550651997688e-02
9.68166666666667e-02 2.98568199182174e+00 1.21512013104299e-02
1.02050000000000e-01 2.95141295934330e+00 1.23324392946476e-02
1.07283333333333e-01 2.91753725952582e+00 1.24998626474653e-02
1.12516666666667e-01 2.88405037799997e+00 1.26544355750421e-02
1.17750000000000e-01 2.85094785197266e+00 1.27970214930951e-02
1.22983333333333e-01 2.81822526963033e+00 1.29283977625594e-02
1.28216666666667e-01 2.78587827032154e+00 1.30492678483271e-02
1.33450000000000e-01 2.75390254316922e+00 1.31602713177444e-02
1.38683333333333e-01 2.72229382656625e+00 1.32619919354738e-02
1.43916666666667e-01 2.69104790826610e+00 1.33549646143594e-02
1.49150000000000e-01 2.66016062413526e+00 1.34396812694154e-02
1.54383333333333e-01 2.62962785765298e+00 1.35165956035647e-02
1.59616666666667e-01 2.59944553993320e+00 1.35861273623009e-02
1.64850000000000e-01 2.56960964859002e+00 1.36486659866461e-02
1.70083333333333e-01 2.54011620724544e+00 1.37045736024684e-02
1.75316666666667e-01 2.51096128549896e+00 1.37541877722235e-02
1.80550000000000e-01 2.48214099788671e+00 1.37978238945326e-02
1.85783333333333e-01 2.45365150339946e+00 1.38357771541815e-02
1.91016666666667e-01 2.42548900541189e+00 1.38683243839812e-02
1.96250000000000e-01 2.39764975072105e+00 1.38957257092563e-02
2.01483333333333e-01 2.37013002907587e+00 1.39182258648469e-02
2.06716666666667e-01 2.34292617307527e+00 1.39360555033304e-02
2.11950000000000e-01 2.31603455727485e+00 1.39494323629488e-02
2.17183333333333e-01 2.28945159772872e+00 1.39585621824384e-02
2.22416666666667e-01 2.26317375186335e+00 1.39636396502369e-02
2.27650000000000e-01 2.23719751764384e+00 1.39648492596295e-02
2.32883333333333e-01 2.21151943312852e+00 1.39623659588759e-02
2.38116666666667e-01 2.18613607632391e+00 1.39563558592594e-02
2.43350000000000e-01 2.16104406440369e+00 1.39469768779536e-02
2.48583333333333e-01 2.13624005327616e+00 1.39343792086539e-02
2.53816666666667e-01 2.11172073742466e+00 1.39187058626295e-02
2.59050000000000e-01 2.08748284917352e+00 1.39000931632797e-02
2.64283333333333e-01 2.06352315826845e+00 1.38786710919120e-02
2.69516666666667e-01 2.03983847170578e+00 1.38545637100396e-02
2.74750000000000e-01 2.01642563304073e+00 1.38278895476520e-02
2.79983333333333e-01 1.99328152198061e+00 1.37987618602274e-02
2.85216666666667e-01 1.97040305420568e+00 1.37672889645777e-02
2.90450000000000e-01 1.94778718071572e+00 1.37335745492186e-02
2.95683333333333e-01 1.92543088743593e+00 1.36977178670693e-02
3.00916666666667e-01 1.90333119503157e+00 1.36598140070343e-02
3.06150000000000e-01 1.88148515828960e+00 1.36199541461183e-02
3.11383333333333e-01 1.85988986573689e+00 1.35782256947607e-02
3.16616666666667e-01 1.83854243945066e+00 1.35347125197489e-02
3.21850000000000e-01 1.81744003447209e+00 1.34894951519727e-02
3.27083333333333e-01 1.79657983843678e+00 1.34426508963777e-02
3.32316666666667e-01 1.77595907138230e+00 1.33942540173881e-02
3.37550000000000e-01 1.75557498519141e+00 1.33443759123294e-02
3.42783333333333e-01 1.73542486323443e+00 1.32930851946229e-02
3.48016666666667e-01 1.71550602017513e+00 1.32404478498839e-02
3.53250000000000e-01 1.69581580144141e+00 1.31865273823748e-02
3.58483333333333e-01 1.67635158287915e+00 1.31313848777442e-02
3.63716666666667e-01 1.65711077055764e+00 1.30750791358656e-02
3.68950000000000e-01 1.63809080026562e+00 1.30176667958136e-02
3.74183333333333e-01 1.61928913717645e+00 1.29592023828234e-02
3.79416666666667e-01 1.60070327565380e+00 1.28997384224414e-02
3.84650000000000e-01 1.58233073877139e+00 1.28393255481837e-02
3.89883333333333e-01 1.56416907798911e+00 1.27780125362287e-02
3.95116666666667e-01 1.54621587295977e+00 1.27158464043751e-02
4.00350000000000e-01 1.52846873107089e+00 1.26528725055765e-02
4.05583333333333e-01 1.51092528713155e+00 1.25891345530318e-02
4.10816666666667e-01 1.49358320318065e+00 1.25246747066562e-02
4.16050000000000e-01 1.47644016804951e+00 1.24595336549767e-02
4.21283333333333e-01 1.45949389705904e+00 1.23937506326675e-02
4.26516666666667e-01 1.44274213183001e+00 1.23273634966547e-02
4.31750000000000e-01 1.42618263986523e+00 1.22604087983242e-02
4.36983333333333e-01 1.40981321425665e+00 1.21929217950861e-02
4.42216666666667e-01 1.39363167349818e+00 1.21249365177958e-02
4.47450000000000e-01 1.37763586108610e+00 1.20564858348225e-02
4.52683333333333e-01 1.36182364523603e+00 1.19876014588848e-02
4.57916666666667e-01 1.34619291869835e+00 1.19183140071306e-02
4.63150000000000e-01 1.33074159837610e+00 1.18486530583127e-02
4.68383333333333e-01 1.31546762505116e+00 1.17786471558695e-02
4.73616666666667e-01 1.30036896320294e+00 1.17083238617521e-02
4.78850000000000e-01 1.28544360064239e+00 1.16377098077154e-02
4.84083333333333e-01 1.27068954824751e+00 1.15668306954158e-02
4.89316666666667e-01 1.25610483978514e+00 1.14957113448721e-02
4.94550000000000e-01 1.24168753156051e+00 1.14243757406975e-02
4.99783333333333e-01 1.22743570216156e+00 1.13528470298304e-02
5.05016666666667e-01 1.21334745228414e+00 1.12811475653556e-02
5.10250000000000e-01 1.19942090439624e+00 1.12092989483582e-02
5.15483333333333e-01 1.18565420249084e+00 1.11373220237817e-02
5.20716666666667e-01 1.17204551191463e+00 1.10652369202165e-02
5.25950000000000e-01 1.15859301904621e+00 1.09930630879363e-02
5.31183333333333e-01 1.14529493105713e+00 1.09208192932804e-02
5.36416666666667e-01 1.13214947574435e+00 1.08485236549143e-02
5.41650000000000e-01 1.11915490122154e+00 1.07761936785238e-02
5.46883333333333e-01 1.10630947568821e+00 1.07038462500424e-02
5.52116666666667e-01 1.09361148726584e+00 1.06314976688063e-02
5.57350000000000e-01 1.08105924370175e+00 1.05591636793036e-02
5.62583333333333e-01 1.06865107214596e+00 1.04868594635102e-02
5.67816666666667e-01 1.05638531899110e+00 1.04145996712974e-02
5.73050000000000e-01 1.04426034958825e+00 1.03423984495730e-02
5.78283333333333e-01 1.03227454803122e+00 1.02702694339378e-02
5.83516666666667e-01 1.02042631700034e+00 1.01982257766524e-02
5.88750000000000e-01 1.00871407748957e+00 1.01262801734575e-02
5.93983333333333e-01 9.97136268598175e-01 1.00544448547239e-02
5.99216666666667e-01 9.85691347378181e-01 9.98273161124151e-03
6.04450000000000e-01 9.74377788572410e-01 9.91115181896605e-03
6.09683333333333e-01 9.63194084413119e-01 9.83971642980349e-03
6.14916666666667e-01 9.52138744473303e-01 9.76843599544652e-03
6.20150000000000e-01 9.41210295415041e-01 9.69732069026047e-03
6.25383333333333e-01 9.30407280794928e-01 9.62638030181985e-03
6.30616666666667e-01 9.19728260919162e-01 9.55562425298678e-03
6.35850000000000e-01 9.09171812601766e-01 9.48506162312098e-03
6.41083333333333e-01 8.98736528976571e-01 9.41470113846235e-03
6.46316666666667e-01 8.88421019356078e-01 9.34455119262245e-03
6.51550000000000e-01 8.78223908999093e-01 9.27461986628080e-03
6.56783333333333e-01 8.68143838929061e-01 9.20491491748873e-03
6.62016666666667e-01 8.58179465796657e-01 9.13544380072450e-03
6.67250000000000e-01 8.48329461656426e-01 9.06621368521559e-03
6.72483333333333e-01 8.38592513791254e-01 8.99723144522891e-03
6.77716666666667e-01 8.28967324578640e-01 8.92850367781912e-03
6.82950000000000e-01 8.19452611275958e-01 8.86003671990095e-03
6.88183333333333e-01 8.10047105850852e-01 8.79183663857844e-03
6.93416666666667e-01 8.00749554851148e-01 8.72390924770091e-03
6.98650000000000e-01 7.91558719198356e-01 8.65626012379561e-03
7.03883333333333e-01 7.82473374023800e-01 8.58889459647677e-03
7.09116666666667e-01 7.73492308542114e-01 8.52181776391248e-03
7.14350000000000e-01 7.64614325852632e-01 8.45503450771518e-03
7.19583333333333e-01 7.55838242781059e-01 8.38854948346403e-03
7.24816666666667e-01 7.47162889756493e-01 8.32236713517339e-03
7.30050000000000e-01 7.38587110620375e-01 8.25649170922708e-03
7.35283333333333e-01 7.30109762473505e-01 8.19092724504184e-03
7.40516666666667e-01 7.21729715556543e-01 8.12567758861954e-03
7.45750000000000e-01 7.13445853066184e-01 8.06074640560228e-03
7.50983333333333e-01 7.05257071007358e-01 7.99613717209790e-03
7.56216666666667e-01 6.97162278077130e-01 7.93185318738803e-03
7.61450000000000e-01 6.89160395487811e-01 7.86789758617377e-03
7.66683333333333e-01 6.81250356824160e-01 7.80427332958166e-03
7.71916666666667e-01 6.73431107930621e-01 7.74098321709162e-03
7.77150000000000e-01 6.65701606741080e-01 7.67802989803519e-03
7.82383333333333e-01 6.58060823140907e-01 7.61541586279493e-03
7.87616666666667e-01 6.50507738857453e-01 7.55314345401281e-03
7.92850000000000e-01 6.43041347296192e-01 7.49121487739630e-03
7.98083333333333e-01 6.35660653407427e-01 7.42963219312088e-03
8.03316666666667e-01 6.28364673579991e-01 7.36839732637172e-03
8.08550000000000e-01 6.21152435483503e-01 7.30751207750938e-03
8.13783333333333e-01 6.14022977939589e-01 7.24697811368266e-03
8.19016666666667e-01 6.06975350818712e-01 7.18679697875086e-03
8.24250000000000e-01 6.00008614888292e-01 7.12697010285570e-03
8.29483333333333e-01 5.93121841688301e-01 7.06749879424877e-03
8.34716666666667e-01 5.86314113431137e-01 7.00838424863995e-03
8.39950000000000e-01 5.79584522855388e-01 6.94962755821633e-03
8.45183333333333e-01 5.72932173105636e-01 6.89122970368764e-03
8.50416666666667e-01 5.66356177635317e-01 6.83319156309993e-03
8.55650000000000e-01 5.59855660065897e-01 6.77551392034054e-03
8.60883333333333e-01 5.53429754070750e-01 6.71819745740313e-03
8.66116666666667e-01 5.47077603280925e-01 6.66124276270271e-03
8.71350000000000e-01 5.40798361149524e-01 6.60465033910161e-03
8.76583333333333e-01 5.34591190839511e-01 6.54842059639415e-03
8.81816666666667e-01 5.28455265132325e-01 6.49255385915723e-03
8.87050000000000e-01 5.22389766297242e-01 6.43705037432819e-03
8.92283333333333e-01 5.16393885982994e-01 6.38191030390898e-03
8.97516666666667e-01 5.10466825129146e-01 6.32713373238246e-03
9.02750000000000e-01 5.04607793840257e-01 6.27272067387192e-03
9.07983333333333e-01 4.98816011281172e-01 6.21867106506302e-03
9.13216666666667e-01 4.93090705591099e-01 6.16498477221307e-03
9.18450000000000e-01 4.87431113762376e-01 6.11166159792052e-03
9.23683333333333e-01 4.81836481539313e-01 6.05870127426094e-03
9.28916666666667e-01 4.76306063334900e-01 6.00610346941611e-03
9.34150000000000e-01 4.70839122114003e-01 5.95386779407728e-03
9.39383333333333e-01 4.65434929295637e-01 5.90199379479328e-03
9.44616666666667e-01 4.60092764672230e-01 5.85048096024281e-03
9.49850000000000e-01 4.54811916297078e-01 5.79932872729419e-03
9.55083333333333e-01 4.49591680389937e-01 5.74853647456206e-03
9.60316666666667e-01 4.44431361258771e-01 5.69810352834540e-03
9.65550000000000e-01 4.39330271191305e-01 5.64802916836473e-03
9.70783333333333e-01 4.34287730363820e-01 5.59831262152298e-03
9.76016666666667e-01 4.29303066765323e-01 5.54895306753021e-03
9.81250000000000e-01 4.24375616093034e-01 5.49994964433734e-03
9.86483333333333e-01 4.19504721664284e-01 5.45130144209770e-03
9.91716666666667e-01 4.14689734343030e-01 5.40300750849646e-03
9.96950000000000e-01 4.09930012439140e-01 5.35506685390006e-03
1.00218333333333e+00 4.05224921623273e-01 5.30747844551368e-03
1.00741666666667e+00 4.00573834855688e-01 5.26024120906435e-03
1.01265000000000e+00 3.95976132301925e-01 5.21335405054186e-03
1.01788333333333e+00 3.91431201186774e-01 5.16681582024751e-03
1.02311666666667e+00 3.86938435852977e-01 5.12062533085471e-03
1.02835000000000e+00 3.82497237552058e-01 5.07478139590775e-03
1.03358333333333e+00 3.78107014368096e-01 5.02928276403881e-03
1.03881666666667e+00 3.73767181259575e-01 4.98412815358027e-03
1.04405000000000e+00 3.69477159859231e-01 4.93931628595159e-03
1.04928333333333e+00 3.65236378400349e-01 4.89484582255452e-03
1.05451666666667e+00 3.61044271755443e-01 4.85071539790734e-03
1.05975000000000e+00 3.56900281244689e-01 4.80692365161277e-03
1.06498333333333e+00 3.52803854564671e-01 4.76346916781645e-03
1.07021666666667e+00 3.48754445824099e-01 4.72035050693096e-03
1.07545000000000e+00 3.44751515360437e-01 4.67756623624985e-03
1.08068333333333e+00 3.40794529671009e-01 4.63511487186029e-03
1.08591666666667e+00 3.36882961445963e-01 4.59299490902111e-03
1.09115000000000e+00 3.33016289392707e-01 4.55120485148462e-03
1.09638333333333e+00 3.29193998169300e-01 4.50974315575856e-03
1.10161666666667e+00 3.25415578414858e-01 4.46860826020034e-03
1.10685000000000e+00 3.21680526581422e-01 4.42779861310463e-03
1.11208333333333e+00 3.17988344869576e-01 4.38731261921500e-03
1.11731666666667e+00 3.14338541256450e-01 4.34714866759201e-03
1.12255000000000e+00 3.10730629334701e-01 4.30730515852228e-03
1.12778333333333e+00 3.07164128250265e-01 4.26778045218540e-03
1.13301666666667e+00 3.03638562728138e-01 4.22857289535069e-03
1.13825000000000e+00 3.00153462918129e-01 4.18968084716060e-03
1.14348333333333e+00 2.96708364334685e-01 4.15110262986122e-03
1.14871666666667e+00 2.93302807880603e-01 4.11283655438054e-03
1.15395000000000e+00 2.89936339699244e-01 4.07488094503681e-03
1.15918333333333e+00 2.86608511116363e-01 4.03723409224578e-03
1.16441666666667e+00 2.83318878661896e-01 3.99989427703039e-03
1.16965000000000e+00 2.80067003928339e-01 3.96285979470161e-03
1.17488333333333e+00 2.76852453514523e-01 3.92612890945916e-03
1.18011666666667e+00 2.73674799045601e-01 3.88969987788038e-03
1.18535000000000e+00 2.70533617037319e-01 3.85357097161850e-03
1.19058333333333e+00 2.67428488841675e-01 3.81774043381836e-03
1.19581666666667e+00 2.64359000665222e-01 3.78220650162969e-03
1.20105000000000e+00 2.61324743438976e-01 3.74696742796511e-03
1.20628333333333e+00 2.58325312765885e-01 3.71202143965561e-03
1.21151666666667e+00 2.55360308937580e-01 3.67736675903080e-03
1.21675000000000e+00 2.52429336809654e-01 3.64300162477872e-03
1.22198333333333e+00 2.49532005750889e-01 3.60892425176802e-03
1.22721666666667e+00 2.46667929658561e-01 3.57513285173589e-03
1.23245000000000e+00 2.43836726838851e-01 3.54162565328941e-03
1.23768333333333e+00 2.41038019957775e-01 3.50840086332476e-03
1.24291666666667e+00 2.38271436055137e-01 3.47545668686216e-03
1.24815000000000e+00 2.35536606429856e-01 3.44279134622538e-03
1.25338333333333e+00 2.32833166592529e-01 3.41040304399274e-03
1.25861666666667e+00 2.30160756278140e-01 3.37828998201587e-03
1.26385000000000e+00 2.27519019336073e-01 3.34645037981298e-03
1.26908333333333e+00 2.24907603684271e-01 3.31488243898753e-03
1.27431666666667e+00 2.22326161320768e-01 3.28358436146704e-03
1.27955000000000e+00 2.19774348218203e-01 3.25255436714397e-03
1.28478333333333e+00 2.17251824279505e-01 3.22179065970191e-03
1.29001666666667e+00 2.14758253348348e-01 3.19129144410735e-03
1.29525000000000e+00 2.12293303107949e-01 3.16105494353070e-03
1.30048333333333e+00 2.09856645038248e-01 3.13107936652220e-03
1.30571666666667e+00 2.07447954425348e-01 3.10136292378891e-03
1.31095000000000e+00 2.05066910264422e-01 3.07190384442673e-03
1.31618333333333e+00 2.02713195218329e-01 3.04270034439054e-03
1.32141666666667e+00 2.00386495626117e-01 3.01375064258692e-03
1.32665000000000e+00 1.98086501409861e-01 2.98505297644667e-03
1.33188333333333e+00 1.95812906034663e-01 2.95660557163644e-03
1.33711666666667e+00 1.93565406516292e-01 2.92840665749644e-03
1.34235000000000e+00 1.91343703331774e-01 2.90045448198122e-03
1.34758333333333e+00 1.89147500380740e-01 2.87274728256204e-03
1.35281666666667e+00 1.86976504992256e-01 2.84528330103767e-03
1.35805000000000e+00 1.84830427839015e-01 2.81806079787033e-03
1.36328333333333e+00 1.82708982899977e-01 2.79107802423012e-03
1.36851666666667e+00 1.80611887466456e-01 2.76433323620561e-03
1.37375000000000e+00 1.78538862059752e-01 2.73782470856055e-03
1.37898333333333e+00 1.76489630395049e-01 2.71155070787362e-03
1.38421666666667e+00 1.74463919386807e-01 2.68550950617441e-03
1.38945000000000e+00 1.72461459069689e-01 2.65969939414541e-03
1.39468333333333e+00 1.70481982563677e-01 2.63411865531289e-03
1.39991666666667e+00 1.68525226078816e-01 2.60876557913218e-03
1.40515000000000e+00 1.66590928839302e-01 2.58363847365817e-03
1.41038333333333e+00 1.64678833049770e-01 2.55873564074479e-03
1.41561666666667e+00 1.62788683899438e-01 2.53405538860297e-03
1.42085000000000e+00 1.60920229489229e-01 2.50959604396208e-03
1.42608333333333e+00 1.59073220799181e-01 2.48535592823698e-03
1.43131666666667e+00 1.57247411692050e-01 2.46133336958072e-03
1.43655000000000e+00 1.55442558843319e-01 2.43752671455818e-03
1.44178333333333e+00 1.53658421709714e-01 2.41393430524201e-03
1.44701666666667e+00 1.51894762532289e-01 2.39055449078122e-03
1.45225000000000e+00 1.50151346269215e-01 2.36738563860708e-03
1.45748333333333e+00 1.48427940565354e-01 2.34442611242040e-03
1.46271666666667e+00 1.46724315754871e-01 2.32167428329664e-03
1.46795000000000e+00 1.45040244796684e-01 2.29912854044350e-03
1.47318333333333e+00 1.43375503245063e-01 2.27678727004381e-03
1.47841666666667e+00 1.41729869251804e-01 2.25464886591591e-03
1.48365000000000e+00 1.40103123504230e-01 2.23271173984202e-03
1.48888333333333e+00 1.38495049196778e-01 2.21097430123219e-03
1.49411666666667e+00 1.36905432032772e-01 2.18943496735868e-03
1.49935000000000e+00 1.35334060164868e-01 2.16809217327274e-03
1.50458333333333e+00 1.33780724167595e-01 2.14694435225683e-03
1.50981666666667e+00 1.32245217038760e-01 2.12598994565068e-03
1.51505000000000e+00 1.30727334142235e-01 2.10522741237319e-03
1.52028333333333e+00 1.29226873181417e-01 2.08465521013158e-03
1.52551666666667e+00 1.27743634200303e-01 2.06427180485610e-03
1.53075000000000e+00 1.26277419528509e-01 2.04407567984347e-03
1.53598333333333e+00 1.24828033755637e-01 2.02406531769264e-03
1.54121666666667e+00 1.23395283732023e-01 2.00423920936410e-03
1.54645000000000e+00 1.21978978515921e-01 1.98459586296056e-03
1.55168333333333e+00 1.20578929348722e-01 1.96513378636030e-03
1.55691666666667e+00 1.19194949655428e-01 1.94585149591667e-03
1.56215000000000e+00 1.17826854993884e-01 1.92674752489106e-03
1.56738333333333e+00 1.16474463030847e-01 1.90782040675592e-03
1.57261666666667e+00 1.15137593542183e-01 1.88906868354925e-03
1.57785000000000e+00 1.13816068364089e-01 1.87049091397382e-03
1.58308333333333e+00 1.12509711369964e-01 1.85208565734359e-03
1.58831666666667e+00 1.11218348470364e-01 1.83385148160724e-03
1.59355000000000e+00 1.09941807566124e-01 1.81578697112753e-03
1.59878333333333e+00 1.08679918526006e-01 1.79789071124541e-03
1.60401666666667e+00 1.07432513186438e-01 1.78016129598620e-03
1.60925000000000e+00 1.06199425306456e-01 1.76259733553181e-03
1.61448333333333e+00 1.04980490546103e-01 1.74519744137850e-03
1.61971666666667e+00 1.03775546465966e-01 1.72796023373846e-03
1.62495000000000e+00 1.02584432483870e-01 1.71088434871763e-03
1.63018333333333e+00 1.01406989854001e-01 1.69396842404342e-03
1.63541666666667e+00 1.00243061666265e-01 1.67721110617430e-03
1.64065000000000e+00 9.90924928046476e-02 1.66061105719500e-03
1.64588333333333e+00 9.79551299270556e-02 1.64416694109164e-03
1.65111666666667e+00 9.68308214644964e-02 1.62787743058138e-03
