Energy (eV)          EEDF (eV^-(3/2))     First Anisotropy
1.50000000000000e-03 4.95075898907867e+00 2.73944191825207e-03
4.50000000000000e-03 4.91100602518688e+00 4.52063322384853e-03
7.50000000000000e-03 4.87157226450789e+00 5.95990113133551e-03
1.05000000000000e-02 4.83245514393938e+00 7.04855998363257e-03
1.35000000000000e-02 4.79365212096446e+00 7.95258068069405e-03
1.65000000000000e-02 4.75516067348256e+00 8.73482129343357e-03
1.95000000000000e-02 4.71697829964494e+00 9.42786339805258e-03
2.25000000000000e-02 4.67910251769195e+00 1.00514129890919e-02
2.55000000000000e-02 4.64153086579170e+00 1.06185597057425e-02
2.85000000000000e-02 4.60426090188003e+00 1.11385692661863e-02
3.15000000000000e-02 4.56729020350173e+00 1.16183111156636e-02
3.45000000000000e-02 4.53061636765315e+00 1.20630610775444e-02
3.75000000000000e-02 4.49423701062595e+00 1.24769855731752e-02
4.05000000000000e-02 4.45814976785219e+00 1.28634501268464e-02
4.35000000000000e-02 4.42235229375063e+00 1.32252246858991e-02
4.65000000000000e-02 4.38684226157427e+00 1.35646252414269e-02
4.95000000000000e-02 4.35161736325915e+00 1.38836144736852e-02
5.25000000000000e-02 4.31667530927428e+00 1.41838751144837e-02
5.55000000000000e-02 4.28201382847285e+00 1.44668646017541e-02
5.85000000000000e-02 4.24763066794462e+00 1.47338565769738e-02
6.15000000000000e-02 4.21352359286947e+00 1.49859729223986e-02
6.45000000000000e-02 4.17969038637217e+00 1.52242088626365e-02
6.75000000000000e-02 4.14612884937823e+00 1.54494528928349e-02
7.05000000000000e-02 4.11283680047105e+00 1.56625027879753e-02
7.35000000000000e-02 4.07981207575005e+00 1.58640786020722e-02
7.65000000000000e-02 4.04705252869006e+00 1.60548333261165e-02
7.95000000000000e-02 4.01455603000184e+00 1.62353617040924e-02
8.25000000000000e-02 3.98232046749359e+00 1.64062075847269e-02
8.55000000000000e-02 3.95034374593375e+00 1.65678700980190e-02
8.85000000000000e-02 3.91862378691476e+00 1.67208088802069e-02
9.15000000000000e-02 3.88715852871799e+00 1.68654485219960e-02
9.45000000000000e-02 3.85594592617976e+00 1.70021823779542e-02
9.75000000000000e-02 3.82498395055834e+00 1.71313758468131e-02
1.00500000000000e-01 3.79427058940215e+00 1.72533692107032e-02
1.03500000000000e-01 3.76380384641893e+00 1.73684801044601e-02
1.06500000000000e-01 3.73358174134598e+00 1.74770056728976e-02
1.09500000000000e-01 3.70360230982148e+00 1.75792244634719e-02
1.12500000000000e-01 3.67386360325676e+00 1.76753980934197e-02
1.15500000000000e-01 3.64436368870969e+00 1.77657727237718e-02
1.18500000000000e-01 3.61510064875903e+00 1.78505803672552e-02
1.21500000000000e-01 3.58607258137981e+00 1.79300400527056e-02
1.24500000000000e-01 3.55727759981966e+00 1.80043588650375e-02
1.27500000000000e-01 3.52871383247625e+00 1.80737328768877e-02
1.30500000000000e-01 3.50037942277557e+00 1.81383479856128e-02
1.33500000000000e-01 3.47227252905131e+00 1.81983806673146e-02
1.36500000000000e-01 3.44439132442512e+00 1.82539986578957e-02
1.39500000000000e-01 3.41673399668789e+00 1.83053615697297e-02
1.42500000000000e-01 3.38929874818194e+00 1.83526214513623e-02
1.45500000000000e-01 3.36208379568419e+00 1.83959232966621e-02
1.48500000000000e-01 3.33508737029028e+00 1.84354055089935e-02
1.51500000000000e-01 3.30830771729954e+00 1.84712003252611e-02
1.54500000000000e-01 3.28174309610098e+00 1.85034342040737e-02
1.57500000000000e-01 3.25539178006014e+00 1.85322281817419e-02
1.60500000000000e-01 3.22925205640687e+00 1.85576981993718e-02
1.63500000000000e-01 3.20332222612399e+00 1.85799554039408e-02
1.66500000000000e-01 3.17760060383688e+00 1.85991064258893e-02
1.69500000000000e-01 3.15208551770392e+00 1.86152536354844e-02
1.72500000000000e-01 3.12677530930782e+00 1.86284953799444e-02
1.75500000000000e-01 3.10166833354785e+00 1.86389262031109e-02
1.78500000000000e-01 3.07676295853288e+00 1.86466370492466e-02
1.81500000000000e-01 3.05205756547534e+00 1.86517154523691e-02
1.84500000000000e-01 3.02755054858598e+00 1.86542457123975e-02
1.87500000000000e-01 3.00324031496953e+00 1.86543090592366e-02
1.90500000000000e-01 2.97912528452112e+00 1.86519838058269e-02
1.93500000000000e-01 2.95520388982361e+00 1.86473454910756e-02
1.96500000000000e-01 2.93147457604570e+00 1.86404670134970e-02
1.99500000000000e-01 2.90793580084089e+00 1.86314187563128e-02
2.02500000000000e-01 2.88458603424720e+00 1.86202687046856e-02
2.05500000000000e-01 2.86142375858774e+00 1.86070825557034e-02
2.08500000000000e-01 2.83844746837207e+00 1.85919238216717e-02
2.11500000000000e-01 2.81565567019834e+00 1.85748539272161e-02
2.14500000000000e-01 2.79304688265622e+00 1.85559323006592e-02
2.17500000000000e-01 2.77061963623063e+00 1.85352164600927e-02
2.20500000000000e-01 2.74837247320620e+00 1.85127620945283e-02
2.23500000000000e-01 2.72630394757255e+00 1.84886231404775e-02
2.26500000000000e-01 2.70441262493026e+00 1.84628518542814e-02
2.29500000000000e-01 2.68269708239769e+00 1.84354988804860e-02
2.32500000000000e-01 2.66115590851846e+00 1.84066133165301e-02
2.35500000000000e-01 2.63978770316971e+00 1.83762427739984e-02
2.38500000000000e-01 2.61859107747114e+00 1.83444334366683e-02
2.41500000000000e-01 2.59756465369466e+00 1.83112301155571e-02
2.44500000000000e-01 2.57670706517491e+00 1.82766763011631e-02
2.47500000000000e-01 2.55601695622040e+00 1.82408142130842e-02
2.50500000000000e-01 2.53549298202537e+00 1.82036848471748e-02
2.53500000000000e-01 2.51513380858244e+00 1.81653280203980e-02
2.56500000000000e-01 2.49493811259585e+00 1.81257824135139e-02
2.59500000000000e-01 2.47490458139548e+00 1.80850856117295e-02
2.62500000000000e-01 2.45503191285152e+00 1.80432741434388e-02
2.65500000000000e-01 2.43531881528982e+00 1.80003835171655e-02
2.68500000000000e-01 2.41576400740796e+00 1.79564482568096e-02
2.71500000000000e-01 2.39636621819195e+00 1.79115019352990e-02
2.74500000000000e-01 2.37712418683363e+00 1.78655772067340e-02
2.77500000000000e-01 2.35803666264870e+00 1.78187058371112e-02
2.80500000000000e-01 2.33910240499546e+00 1.77709187337093e-02
2.83500000000000e-01 2.32032018319415e+00 1.77222459732025e-02
2.86500000000000e-01 2.30168877644696e+00 1.76727168285791e-02
2.89500000000000e-01 2.28320697375867e+00 1.76223597949230e-02
2.92500000000000e-01 2.26487357385799e+00 1.75712026141204e-02
2.95500000000000e-01 2.24668738511940e+00 1.75192722985529e-02
2.98500000000000e-01 2.22864722548577e+00 1.74665951538221e-02
3.01500000000000e-01 2.21075192239149e+00 1.74131968005580e-02
3.04500000000000e-01 2.19300031268627e+00 1.73591021953644e-02
3.07500000000000e-01 2.17539124255951e+00 1.73043356509327e-02
3.10500000000000e-01 2.15792356746537e+00 1.72489208553731e-02
3.13500000000000e-01 2.14059615204831e+00 1.71928808908034e-02
3.16500000000000e-01 2.12340787006931e+00 1.71362382512264e-02
3.19500000000000e-01 2.10635760433271e+00 1.70790148597318e-02
3.22500000000000e-01 2.08944424661354e+00 1.70212320850564e-02
3.25500000000000e-01 2.07266669758553e+00 1.69629107575289e-02
3.28500000000000e-01 2.05602386674960e+00 1.69040711844347e-02
3.31500000000000e-01 2.03951467236307e+00 1.68447331648221e-02
3.34500000000000e-01 2.02313804136925e+00 1.67849160037734e-02
3.37500000000000e-01 2.00689290932779e+00 1.67246385261761e-02
3.40500000000000e-01 1.99077822034539e+00 1.66639190900027e-02
3.43500000000000e-01 1.97479292700728e+00 1.66027755991291e-02
3.46500000000000e-01 1.95893599030904e+00 1.65412255157123e-02
3.49500000000000e-01 1.94320637958914e+00 1.64792858721424e-02
3.52500000000000e-01 1.92760307246192e+00 1.64169732825885e-02
3.55500000000000e-01 1.91212505475113e+00 1.63543039541601e-02
3.58500000000000e-01 1.89677132042404e+00 1.62912936976945e-02
3.61500000000000e-01 1.88154087152599e+00 1.62279579381862e-02
3.64500000000000e-01 1.86643271811563e+00 1.61643117248809e-02
3.67500000000000e-01 1.85144587820045e+00 1.61003697410383e-02
3.70500000000000e-01 1.83657937767306e+00 1.60361463133799e-02
3.73500000000000e-01 1.82183225024781e+00 1.59716554212391e-02
3.76500000000000e-01 1.80720353739802e+00 1.59069107054198e-02
3.79500000000000e-01 1.79269228829365e+00 1.58419254767789e-02
3.82500000000000e-01 1.77829755973952e+00 1.57767127245422e-02
3.85500000000000e-01 1.76401841611399e+00 1.57112851243622e-02
3.88500000000000e-01 1.74985392930816e+00 1.56456550461306e-02
3.91500000000000e-01 1.73580317866553e+00 1.55798345615535e-02
3.94500000000000e-01 1.72186525092219e+00 1.55138354515005e-02
3.97500000000000e-01 1.70803924014740e+00 1.54476692131328e-02
4.00500000000000e-01 1.69432424768479e+00 1.53813470668197e-02
4.03500000000000e-01 1.68071938209387e+00 1.53148799628510e-02
4.06500000000000e-01 1.66722375909215e+00 1.52482785879574e-02
4.09500000000000e-01 1.65383650149761e+00 1.51815533716397e-02
4.12500000000000e-01 1.64055673917173e+00 1.51147144923130e-02
4.15500000000000e-01 1.62738360896292e+00 1.50477718832831e-02
4.18500000000000e-01 1.61431625465039e+00 1.49807352385451e-02
4.21500000000000e-01 1.60135382688855e+00 1.49136140184230e-02
4.24500000000000e-01 1.58849548315176e+00 1.48464174550552e-02
4.27500000000000e-01 1.57574038767957e+00 1.47791545577210e-02
4.30500000000000e-01 1.56308771142245e+00 1.47118341180250e-02
4.33500000000000e-01 1.55053663198782e+00 1.46444647149392e-02
4.36500000000000e-01 1.53808633358666e+00 1.45770547197061e-02
4.39500000000000e-01 1.52573600698049e+00 1.45096123006098e-02
4.42500000000000e-01 1.51348484942871e+00 1.44421454276220e-02
4.45500000000000e-01 1.50133206463648e+00 1.43746618769214e-02
4.48500000000000e-01 1.48927686270296e+00 1.43071692352936e-02
4.51500000000000e-01 1.47731846006992e+00 1.42396749044172e-02
4.54500000000000e-01 1.46545607947088e+00 1.41721861050360e-02
4.57500000000000e-01 1.45368894988052e+00 1.41047098810233e-02
4.60500000000000e-01 1.44201630646463e+00 1.40372531033421e-02
4.63500000000000e-01 1.43043739053035e+00 1.39698224739023e-02
4.66500000000000e-01 1.41895144947688e+00 1.39024245293201e-02
4.69500000000000e-01 1.40755773674654e+00 1.38350656445828e-02
4.72500000000000e-01 1.39625551177629e+00 1.37677520366207e-02
4.75500000000000e-01 1.38504403994955e+00 1.37004897677878e-02
4.78500000000000e-01 1.37392259254846e+00 1.36332847492588e-02
4.81500000000000e-01 1.36289044670656e+00 1.35661427443407e-02
4.84500000000000e-01 1.35194688536172e+00 1.34990693717011e-02
4.87500000000000e-01 1.34109119720963e+00 1.34320701085201e-02
4.90500000000000e-01 1.33032267665748e+00 1.33651502935624e-02
4.93500000000000e-01 1.31964062377818e+00 1.32983151301773e-02
4.96500000000000e-01 1.30904434426477e+00 1.32315696892260e-02
4.99500000000000e-01 1.29853314938540e+00 1.31649189119380e-02
5.02500000000000e-01 1.28810635593847e+00 1.30983676126981e-02
5.05500000000000e-01 1.27776328620829e+00 1.30319204817700e-02
5.08500000000000e-01 1.26750326792098e+00 1.29655820879544e-02
5.11500000000000e-01 1.25732563420083e+00 1.28993568811827e-02
5.14500000000000e-01 1.24722972352690e+00 1.28332491950532e-02
5.17500000000000e-01 1.23721487969004e+00 1.27672632493052e-02
5.20500000000000e-01 1.22728045175025e+00 1.27014031522373e-02
5.23500000000000e-01 1.21742579399437e+00 1.26356729030711e-02
5.26500000000000e-01 1.20765026589411e+00 1.25700763942580e-02
5.29500000000000e-01 1.19795323206439e+00 1.25046174137348e-02
5.32500000000000e-01 1.18833406222207e+00 1.24392996471278e-02
5.35500000000000e-01 1.17879213114500e+00 1.23741266799062e-02
5.38500000000000e-01 1.16932681863131e+00 1.23091019994887e-02
5.41500000000000e-01 1.15993750945920e+00 1.22442289973003e-02
5.44500000000000e-01 1.15062359334685e+00 1.21795109707857e-02
5.47500000000000e-01 1.14138446491285e+00 1.21149511253756e-02
5.50500000000000e-01 1.13221952363675e+00 1.20505525764102e-02
5.53500000000000e-01 1.12312817382014e+00 1.19863183510215e-02
5.56500000000000e-01 1.11410982454781e+00 1.19222513899728e-02
5.59500000000000e-01 1.10516388964946e+00 1.18583545494570e-02
5.62500000000000e-01 1.09628978766152e+00 1.17946306028576e-02
5.65500000000000e-01 1.08748694178937e+00 1.17310822424711e-02
5.68500000000000e-01 1.07875477986987e+00 1.16677120811908e-02
5.71500000000000e-01 1.07009273433417e+00 1.16045226541539e-02
5.74500000000000e-01 1.06150024217081e+00 1.15415164203564e-02
5.77500000000000e-01 1.05297674488911e+00 1.14786957642306e-02
5.80500000000000e-01 1.04452168848291e+00 1.14160629971897e-02
5.83500000000000e-01 1.03613452339452e+00 1.13536203591389e-02
5.86500000000000e-01 1.02781470447901e+00 1.12913700199559e-02
5.89500000000000e-01 1.01956169096882e+00 1.12293140809387e-02
5.92500000000000e-01 1.01137494643853e+00 1.11674545762232e-02
5.95500000000000e-01 1.00325393877006e+00 1.11057934741717e-02
5.98500000000000e-01 9.95198140118082e-01 1.10443326787320e-02
6.01500000000000e-01 9.87207026875660e-01 1.09830740307680e-02
6.04500000000000e-01 9.79280079640266e-01 1.09220193093628e-02
6.07500000000000e-01 9.71416783180000e-01 1.08611702330946e-02
6.10500000000000e-01 9.63616626400106e-01 1.08005284612877e-02
6.13500000000000e-01 9.55879102309746e-01 1.07400955952341e-02
6.16500000000000e-01 9.48203707989058e-01 1.06798731793935e-02
6.19500000000000e-01 9.40589944556456e-01 1.06198627025692e-02
6.22500000000000e-01 9.33037317136210e-01 1.05600655990560e-02
6.25500000000000e-01 9.25545334826279e-01 1.05004832497679e-02
6.28500000000000e-01 9.18113510666404e-01 1.04411169833425e-02
6.31500000000000e-01 9.10741361606456e-01 1.03819680772218e-02
6.34500000000000e-01 9.03428408475041e-01 1.03230377587133e-02
6.37500000000000e-01 8.96174175948351e-01 1.02643272060275e-02
6.40500000000000e-01 8.88978192519274e-01 1.02058375492959e-02
6.43500000000000e-01 8.81839990466743e-01 1.01475698715674e-02
6.46500000000000e-01 8.74759105825338e-01 1.00895252097870e-02
6.49500000000000e-01 8.67735078355129e-01 1.00317045557527e-02
6.52500000000000e-01 8.60767451511760e-01 9.97410885705467e-03
6.55500000000000e-01 8.53855772416775e-01 9.91673901799485e-03
6.58500000000000e-01 8.46999591828186e-01 9.85959590048852e-03
6.61500000000000e-01 8.40198464111266e-01 9.80268032494905e-03
6.64500000000000e-01 8.33451947209591e-01 9.74599307115494e-03
6.67500000000000e-01 8.26759602616304e-01 9.68953487909901e-03
6.70500000000000e-01 8.20120995345613e-01 9.63330644981983e-03
6.73500000000000e-01 8.13535693904518e-01 9.57730844622075e-03
6.76500000000000e-01 8.07003270264768e-01 9.52154149386964e-03
6.79500000000000e-01 8.00523299835036e-01 9.46600618178262e-03
6.82500000000000e-01 7.94095361433323e-01 9.41070306319535e-03
6.85500000000000e-01 7.87719037259584e-01 9.35563265631761e-03
6.88500000000000e-01 7.81393912868571e-01 9.30079544507255e-03
6.91500000000000e-01 7.75119577142893e-01 9.24619187982329e-03
6.94500000000000e-01 7.68895622266298e-01 9.19182237808474e-03
6.97500000000000e-01 7.62721643697163e-01 9.13768732522067e-03
7.00500000000000e-01 7.56597240142202e-01 9.08378707512874e-03
7.03500000000000e-01 7.50522013530381e-01 9.03012195091315e-03
7.06500000000000e-01 7.44495568987046e-01 8.97669224554136e-03
7.09500000000000e-01 7.38517514808256e-01 8.92349822249045e-03
7.12500000000000e-01 7.32587462435324e-01 8.87054011638187e-03
7.15500000000000e-01 7.26705026429562e-01 8.81781813360133e-03
7.18500000000000e-01 7.20869824447225e-01 8.76533245290915e-03
7.21500000000000e-01 7.15081477214664e-01 8.71308322603821e-03
7.24500000000000e-01 7.09339608503674e-01 8.66107057827963e-03
7.27500000000000e-01 7.03643845107035e-01 8.60929460905915e-03
7.30500000000000e-01 6.97993816814262e-01 8.55775539250189e-03
7.33500000000000e-01 6.92389156387534e-01 8.50645297798499e-03
7.36500000000000e-01 6.86829499537834e-01 8.45538739068149e-03
7.39500000000000e-01 6.81314484901261e-01 8.40455863209413e-03
7.42500000000000e-01 6.75843754015548e-01 8.35396668057667e-03
7.45500000000000e-01 6.70416951296765e-01 8.30361149184797e-03
7.48500000000000e-01 6.65033724016200e-01 8.25349299949559e-03
7.51500000000000e-01 6.59693722277439e-01 8.20361111546930e-03
7.54500000000000e-01 6.54396598993620e-01 8.15396573056580e-03
7.57500000000000e-01 6.49142009864873e-01 8.10455671490371e-03
7.60500000000000e-01 6.43929613355945e-01 8.05538391839108e-03
7.63500000000000e-01 6.38759070673997e-01 8.00644717118340e-03
7.66500000000000e-01 6.33630045746585e-01 7.95774628413143e-03
7.69500000000000e-01 6.28542205199816e-01 7.90928104922278e-03
7.72500000000000e-01 6.23495218336680e-01 7.86105124001548e-03
7.75500000000000e-01 6.18488757115555e-01 7.81305661206104e-03
7.78500000000000e-01 6.13522496128885e-01 7.76529690332114e-03
7.81500000000000e-01 6.08596112582028e-01 7.71777183457643e-03
7.84500000000000e-01 6.03709286272281e-01 7.67048110982863e-03
7.87500000000000e-01 5.98861699568058e-01 7.62342441669372e-03
7.90500000000000e-01 5.94053037388253e-01 7.57660142678710e-03
7.93500000000000e-01 5.89282987181757e-01 7.53001179610402e-03
7.96500000000000e-01 5.84551238907143e-01 7.48365516539158e-03
7.99500000000000e-01 5.79857485012516e-01 7.43753116051259e-03
8.02500000000000e-01 5.75201420415519e-01 7.39163939280482e-03
8.05500000000000e-01 5.70582742483507e-01 7.34597945943255e-03
8.08500000000000e-01 5.66001151013876e-01 7.30055094373167e-03
8.11500000000000e-01 5.61456348214549e-01 7.25535341554765e-03
8.14500000000000e-01 5.56948038684623e-01 7.21038643156826e-03
8.17500000000000e-01 5.52475929395164e-01 7.16564953565049e-03
8.20500000000000e-01 5.48039729670166e-01 7.12114225913994e-03
8.23500000000000e-01 5.43639151167656e-01 7.07686412118431e-03
8.26500000000000e-01 5.39273907860951e-01 7.03281462904242e-03
8.29500000000000e-01 5.34943716020068e-01 6.98899327838765e-03
8.32500000000000e-01 5.30648294193282e-01 6.94539955360335e-03
8.35500000000000e-01 5.26387363188835e-01 6.90203292807446e-03
8.38500000000000e-01 5.22160646056783e-01 6.85889286447450e-03
8.41500000000000e-01 5.17967868071002e-01 6.81597881504534e-03
8.44500000000000e-01 5.13808756711328e-01 6.77329022187253e-03
8.47500000000000e-01 5.09683041645841e-01 6.73082651715614e-03
8.50500000000000e-01 5.05590454713302e-01 6.68858712347599e-03
8.53500000000000e-01 5.01530729905714e-01 6.64657145405193e-03
8.56500000000000e-01 4.97503603351040e-01 6.60477891299868e-03
8.59500000000000e-01 4.93508813296046e-01 6.56320889557743e-03
8.62500000000000e-01 4.89546100089292e-01 6.52186078844133e-03
8.65500000000000e-01 4.85615206164253e-01 6.48073396987702e-03
8.68500000000000e-01 4.81715876022578e-01 6.43982781004226e-03
8.71500000000000e-01 4.77847856217483e-01 6.39914167119702e-03
8.74500000000000e-01 4.74010895337281e-01 6.35867490793270e-03
8.77500000000000e-01 4.70204743989034e-01 6.31842686739594e-03
8.80500000000000e-01 4.66429154782350e-01 6.27839688950805e-03
8.83500000000000e-01 4.62683882313300e-01 6.23858430718068e-03
8.86500000000000e-01 4.58968683148467e-01 6.19898844652738e-03
8.89500000000000e-01 4.55283315809124e-01 6.15960862707145e-03
8.92500000000000e-01 4.51627540755539e-01 6.12044416194903e-03
8.95500000000000e-01 4.48001120371406e-01 6.08149435810939e-03
8.98500000000000e-01 4.44403818948399e-01 6.04275851651133e-03
9.01500000000000e-01 4.40835402670851e-01 6.00423593231444e-03
9.04500000000000e-01 4.37295639600560e-01 5.96592589506918e-03
9.07500000000000e-01 4.33784299661709e-01 5.92782768890148e-03
9.10500000000000e-01 4.30301154625916e-01 5.88994059269372e-03
9.13500000000000e-01 4.26845978097397e-01 5.85226388026466e-03
9.16500000000000e-01 4.23418545498251e-01 5.81479682054318e-03
9.19500000000000e-01 4.20018634053864e-01 5.77753867774008e-03
9.22500000000000e-01 4.16646022778430e-01 5.74048871151681e-03
9.25500000000000e-01 4.13300492460584e-01 5.70364617714993e-03
9.28500000000000e-01 4.09981825649158e-01 5.66701032569331e-03
9.31500000000000e-01 4.06689806639044e-01 5.63058040413740e-03
9.34500000000000e-01 4.03424221457175e-01 5.59435565556492e-03
9.37500000000000e-01 4.00184857848618e-01 5.55833531930332e-03
9.40500000000000e-01 3.96971505262776e-01 5.52251863107516e-03
9.43500000000000e-01 3.93783954839706e-01 5.48690482314536e-03
9.46500000000000e-01 3.90621999396540e-01 5.45149312446492e-03
