Energy (eV)          EEDF (eV^-(3/2))     First Anisotropy
1.18939393939394e-03 3.68701548138020e+00 1.65922401347606e-03
3.56818181818182e-03 3.66771926402810e+00 2.74189858663978e-03
5.94696969696970e-03 3.64852403459150e+00 3.62504676374335e-03
8.32575757575757e-03 3.62942926454611e+00 4.29929653771872e-03
1.07045454545455e-02 3.61043442812970e+00 4.86438037562780e-03
1.30833333333333e-02 3.59153900233304e+00 5.35791613009817e-03
1.54621212121212e-02 3.57274246685609e+00 5.79932718644240e-03
1.78409090909091e-02 3.55404430415964e+00 6.20031694550715e-03
2.02196969696970e-02 3.53544399950550e+00 6.56863044014166e-03
2.25984848484848e-02 3.51694104064613e+00 6.90972985253407e-03
2.49772727272727e-02 3.49853491811873e+00 7.22764982763955e-03
2.73560606060606e-02 3.48022512512690e+00 7.52547766020480e-03
2.97348484848485e-02 3.46201115758747e+00 7.80564255610283e-03
3.21136363636364e-02 3.44389251392988e+00 8.07009964004290e-03
3.44924242424242e-02 3.42586869527273e+00 8.32045223849035e-03
3.68712121212121e-02 3.40793920534434e+00 8.55803613014585e-03
3.92500000000000e-02 3.39010355047097e+00 8.78397931006406e-03
4.16287878787879e-02 3.37236123960418e+00 8.99924551318603e-03
4.40075757575758e-02 3.35471178417991e+00 9.20466657093452e-03
4.63863636363636e-02 3.33715469823448e+00 9.40096694062815e-03
4.87651515151515e-02 3.31968949834704e+00 9.58878263769166e-03
5.11439393939394e-02 3.30231570362722e+00 9.76867602660091e-03
5.35227272727273e-02 3.28503283573271e+00 9.94114756613517e-03
5.59015151515151e-02 3.26784041876054e+00 1.01066452119453e-02
5.82803030303030e-02 3.25073797933079e+00 1.02655720382323e-02
6.06590909090909e-02 3.23372504654092e+00 1.04182924932187e-02
6.30378787878788e-02 3.21680115197886e+00 1.05651375651508e-02
6.54166666666667e-02 3.19996582963155e+00 1.07064090701970e-02
6.77954545454545e-02 3.18321861595143e+00 1.08423832480673e-02
7.01742424242424e-02 3.16655904981669e+00 1.09733138166816e-02
7.25530303030303e-02 3.14998667251896e+00 1.10994345517120e-02
7.49318181818182e-02 3.13350102777168e+00 1.12209615084217e-02
7.73106060606061e-02 3.11710166163347e+00 1.13380949162963e-02
7.96893939393939e-02 3.10078812256033e+00 1.14510208153645e-02
8.20681818181818e-02 3.08455996137128e+00 1.15599124930005e-02
8.44469696969697e-02 3.06841673123629e+00 1.16649317217476e-02
8.68257575757576e-02 3.05235798768159e+00 1.17662298583266e-02
8.92045454545455e-02 3.03638328852365e+00 1.18639487958080e-02
9.15833333333333e-02 3.02049219391123e+00 1.19582218033523e-02
9.39621212121212e-02 3.00468426629506e+00 1.20491742846738e-02
9.63409090909091e-02 2.98895907041585e+00 1.21369244380665e-02
9.87196969696970e-02 2.97331617330749e+00 1.22215838584453e-02
1.01098484848485e-01 2.95775514423906e+00 1.23032580680211e-02
1.03477272727273e-01 2.94227555472038e+00 1.23820469731098e-02
1.05856060606061e-01 2.92687697854851e+00 1.24580453063056e-02
1.08234848484848e-01 2.91155899173614e+00 1.25313429953758e-02
1.10613636363636e-01 2.89632117264617e+00 1.26020255773935e-02
1.12992424242424e-01 2.88116310158250e+00 1.26701744662143e-02
1.15371212121212e-01 2.86608436117985e+00 1.27358671881369e-02
1.17750000000000e-01 2.85108453625724e+00 1.27991777206574e-02
1.20128787878788e-01 2.83616321380628e+00 1.28601767044943e-02
1.22507575757576e-01 2.82131998298006e+00 1.29189316610455e-02
1.24886363636364e-01 2.80655443508207e+00 1.29755071916072e-02
1.27265151515151e-01 2.79186616355468e+00 1.30299651376562e-02
1.29643939393939e-01 2.77725476407509e+00 1.30823648160587e-02
1.32022727272727e-01 2.76271983422012e+00 1.31327631281238e-02
1.34401515151515e-01 2.74826097378197e+00 1.31812146565175e-02
1.36780303030303e-01 2.73387778464737e+00 1.32277718651655e-02
1.39159090909091e-01 2.71956987078646e+00 1.32724851977242e-02
1.41537878787879e-01 2.70533683824188e+00 1.33154031899200e-02
1.43916666666667e-01 2.69117829511825e+00 1.33565725738378e-02
1.46295454545455e-01 2.67709385157121e+00 1.33960383547991e-02
1.48674242424242e-01 2.66308311988601e+00 1.34338439616164e-02
1.51053030303030e-01 2.64914571419662e+00 1.34700312898867e-02
1.53431818181818e-01 2.63528125074747e+00 1.35046407394744e-02
1.55810606060606e-01 2.62148934779141e+00 1.35377113486097e-02
1.58189393939394e-01 2.60776962557914e+00 1.35692808414515e-02
1.60568181818182e-01 2.59412170634859e+00 1.35993856916213e-02
1.62946969696970e-01 2.58054521431492e+00 1.36280611817839e-02
1.65325757575758e-01 2.56703977565999e+00 1.36553414595940e-02
1.67704545454545e-01 2.55360501852200e+00 1.36812595721705e-02
1.70083333333333e-01 2.54024057305995e+00 1.37058475691411e-02
1.72462121212121e-01 2.52694607121793e+00 1.37291365127803e-02
1.74840909090909e-01 2.51372114694215e+00 1.37511564852693e-02
1.77219696969697e-01 2.50056543609455e+00 1.37719366843812e-02
1.79598484848485e-01 2.48747857644268e+00 1.37915054437187e-02
1.81977272727273e-01 2.47446020764994e+00 1.38098902691293e-02
1.84356060606061e-01 2.46150997126560e+00 1.38271178731637e-02
1.86734848484848e-01 2.44862751071488e+00 1.38432141913488e-02
1.89113636363636e-01 2.43581247135340e+00 1.38582044618138e-02
1.91492424242424e-01 2.42306450026334e+00 1.38721132216088e-02
1.93871212121212e-01 2.41038324643914e+00 1.38849643013202e-02
1.96250000000000e-01 2.39776836071225e+00 1.38967809008587e-02
1.98628787878788e-01 2.38521949574141e+00 1.39075855975660e-02
2.01007575757576e-01 2.37273630600323e+00 1.39174003696888e-02
2.03386363636364e-01 2.36031844778267e+00 1.39262466187432e-02
2.05765151515152e-01 2.34796557916351e+00 1.39341451759390e-02
2.08143939393939e-01 2.33567736007491e+00 1.39411163669885e-02
2.10522727272727e-01 2.32345345211316e+00 1.39471800014091e-02
2.12901515151515e-01 2.31129351870234e+00 1.39523553607265e-02
2.15280303030303e-01 2.29919722502800e+00 1.39566612612411e-02
2.17659090909091e-01 2.28716423802794e+00 1.39601160554602e-02
2.20037878787879e-01 2.27519422638299e+00 1.39627376479006e-02
2.22416666666667e-01 2.26328686050805e+00 1.39645435102286e-02
2.24795454545455e-01 2.25144181254291e+00 1.39655506821587e-02
2.27174242424242e-01 2.23965875639227e+00 1.39657758261693e-02
2.29553030303030e-01 2.22793736756871e+00 1.39652352132835e-02
2.31931818181818e-01 2.21627732333273e+00 1.39639447080992e-02
2.34310606060606e-01 2.20467830263393e+00 1.39619198224368e-02
2.36689393939394e-01 2.19313998610214e+00 1.39591757129994e-02
2.39068181818182e-01 2.18166205603853e+00 1.39557271924019e-02
2.41446969696970e-01 2.17024419640705e+00 1.39515887397901e-02
2.43825757575758e-01 2.15888609282565e+00 1.39467745110658e-02
2.46204545454545e-01 2.14758743255760e+00 1.39412983362311e-02
2.48583333333333e-01 2.13634790454569e+00 1.39351737661227e-02
2.50962121212121e-01 2.12516719927450e+00 1.39284140563971e-02
2.53340909090909e-01 2.11404500889182e+00 1.39210321509831e-02
2.55719696969697e-01 2.10298102715662e+00 1.39130407283420e-02
2.58098484848485e-01 2.09197494943053e+00 1.39044521967195e-02
2.60477272727273e-01 2.08102647266956e+00 1.38952787018128e-02
2.62856060606061e-01 2.07013529541573e+00 1.38855321341913e-02
2.65234848484848e-01 2.05930111778875e+00 1.38752241249512e-02
2.67613636363636e-01 2.04852364151587e+00 1.38643660870598e-02
2.69992424242424e-01 2.03780256980871e+00 1.38529691988585e-02
2.72371212121212e-01 2.02713760747070e+00 1.38410443871503e-02
2.74750000000000e-01 2.01652846085021e+00 1.38286023683702e-02
2.77128787878788e-01 2.00597483783242e+00 1.38156536427500e-02
2.79507575757576e-01 1.99547644783132e+00 1.38022084999988e-02
2.81886363636364e-01 1.98503300178169e+00 1.37882770248181e-02
2.84265151515152e-01 1.97464421213119e+00 1.37738690916150e-02
2.86643939393939e-01 1.96430979286644e+00 1.37589944015644e-02
2.89022727272727e-01 1.95402945940238e+00 1.37436624661840e-02
2.91401515151515e-01 1.94380292867783e+00 1.37278825905708e-02
2.93780303030303e-01 1.93362991911304e+00 1.37116639104643e-02
2.96159090909091e-01 1.92351015060188e+00 1.36950153858576e-02
2.98537878787879e-01 1.91344334450417e+00 1.36779458052966e-02
3.00916666666667e-01 1.90342922363802e+00 1.36604637900711e-02
3.03295454545455e-01 1.89346751227222e+00 1.36425777884394e-02
3.05674242424242e-01 1.88355793614920e+00 1.36242961091815e-02
3.08053030303030e-01 1.87370022238515e+00 1.36056269055565e-02
3.10431818181818e-01 1.86389409955540e+00 1.35865781589755e-02
3.12810606060606e-01 1.85413929765578e+00 1.35671577126681e-02
3.15189393939394e-01 1.84443554809521e+00 1.35473732650616e-02
3.17568181818182e-01 1.83478258368825e+00 1.35272323730964e-02
3.19946969696970e-01 1.82518013864784e+00 1.35067424554675e-02
3.22325757575758e-01 1.81562794857791e+00 1.34859107957942e-02
3.24704545454545e-01 1.80612575046614e+00 1.34647445365788e-02
3.27083333333333e-01 1.79667328270401e+00 1.34432507095184e-02
3.29462121212121e-01 1.78727028499719e+00 1.34214362200784e-02
3.31840909090909e-01 1.77791649844127e+00 1.33993078318215e-02
3.34219696969697e-01 1.76861166548680e+00 1.33768721969050e-02
3.36598484848485e-01 1.75935552993221e+00 1.33541358493935e-02
3.38977272727273e-01 1.75014783691682e+00 1.33311052078053e-02
3.41356060606061e-01 1.74098833291374e+00 1.33077865776111e-02
3.43734848484848e-01 1.73187676572295e+00 1.32841861451867e-02
3.46113636363636e-01 1.72281288448908e+00 1.32603100056417e-02
3.48492424242424e-01 1.71379643961987e+00 1.32361641480503e-02
3.50871212121212e-01 1.70482718285432e+00 1.32117544404725e-02
3.53250000000000e-01 1.69590486723072e+00 1.31870866579942e-02
3.55628787878788e-01 1.68702924707983e+00 1.31621664761597e-02
3.58007575757576e-01 1.67820007801816e+00 1.31369994730024e-02
3.60386363636364e-01 1.66941711694118e+00 1.31115911310414e-02
3.62765151515151e-01 1.66068012201671e+00 1.30859468313296e-02
3.65143939393939e-01 1.65198885270064e+00 1.30600718791148e-02
3.67522727272727e-01 1.64334306966262e+00 1.30339714897708e-02
3.69901515151515e-01 1.63474253484753e+00 1.30076507745348e-02
3.72280303030303e-01 1.62618701144614e+00 1.29811147664010e-02
3.74659090909091e-01 1.61767626388856e+00 1.29543684137377e-02
3.77037878787879e-01 1.60921005783777e+00 1.29274165819250e-02
3.79416666666667e-01 1.60078816018316e+00 1.29002640549732e-02
3.81795454545455e-01 1.59241033903414e+00 1.28729155297334e-02
3.84174242424242e-01 1.58407636373419e+00 1.28453756396439e-02
3.86553030303030e-01 1.57578600479279e+00 1.28176489413632e-02
3.88931818181818e-01 1.56753903394118e+00 1.27897399012336e-02
3.91310606060606e-01 1.55933522410521e+00 1.27616529192726e-02
3.93689393939394e-01 1.55117434939919e+00 1.27333923230116e-02
3.96068181818182e-01 1.54305618511954e+00 1.27049623688378e-02
3.98446969696970e-01 1.53498050773875e+00 1.26763672433173e-02
4.00825757575758e-01 1.52694709489912e+00 1.26476110645025e-02
4.03204545454545e-01 1.51895572540668e+00 1.26186978763333e-02
4.05583333333333e-01 1.51100617924361e+00 1.25896316705150e-02
4.07962121212121e-01 1.50309823750634e+00 1.25604163739168e-02
4.10340909090909e-01 1.49523168245566e+00 1.25310558358125e-02
4.12719696969697e-01 1.48740629749191e+00 1.25015538499993e-02
4.15098484848485e-01 1.47962186714900e+00 1.24719141488934e-02
4.17477272727273e-01 1.47187817708848e+00 1.24421404046244e-02
4.19856060606061e-01 1.46417501409370e+00 1.24122362301175e-02
4.22234848484848e-01 1.45651216606386e+00 1.23822051737193e-02
4.24613636363636e-01 1.44888942202515e+00 1.23520507395620e-02
4.26992424242424e-01 1.44130657207386e+00 1.23217763756362e-02
4.29371212121212e-01 1.43376340742193e+00 1.22913854617158e-02
4.31750000000000e-01 1.42625972037399e+00 1.22608813299580e-02
4.34128787878788e-01 1.41879530432166e+00 1.22302672592649e-02
4.36507575757576e-01 1.41136995373787e+00 1.21995464761943e-02
4.38886363636364e-01 1.40398346417118e+00 1.21687221558657e-02
4.41265151515151e-01 1.39663563224014e+00 1.21377974168213e-02
4.43643939393939e-01 1.38932625564330e+00 1.21067753400167e-02
4.46022727272727e-01 1.38205513310667e+00 1.20756589575422e-02
4.48401515151515e-01 1.37482206442539e+00 1.20444512412037e-02
4.50780303030303e-01 1.36762685044235e+00 1.20131551217443e-02
4.53159090909091e-01 1.36046929304274e+00 1.19817734834747e-02
4.55537878787879e-01 1.35334919514860e+00 1.19503091650378e-02
4.57916666666667e-01 1.34626636071338e+00 1.19187649601695e-02
4.60295454545455e-01 1.33922059471657e+00 1.18871436127995e-02
4.62674242424242e-01 1.33221170317260e+00 1.18554478347932e-02
4.65053030303030e-01 1.32523949308240e+00 1.18236802952892e-02
4.67431818181818e-01 1.31830377247141e+00 1.17918436099051e-02
4.69810606060606e-01 1.31140435036980e+00 1.17599403587065e-02
4.72189393939394e-01 1.30454103680716e+00 1.17279730810995e-02
4.74568181818182e-01 1.29771364280729e+00 1.16959442764738e-02
4.76946969696970e-01 1.29092198038305e+00 1.16638564048512e-02
4.79325757575758e-01 1.28416586253112e+00 1.16317118875286e-02
4.81704545454545e-01 1.27744510322686e+00 1.15995131024173e-02
4.84083333333333e-01 1.27075951743226e+00 1.15672624005366e-02
4.86462121212121e-01 1.26410892105152e+00 1.15349620959907e-02
4.88840909090909e-01 1.25749313096546e+00 1.15026144558307e-02
4.91219696969697e-01 1.25091196501329e+00 1.14702217167626e-02
4.93598484848485e-01 1.24436524198753e+00 1.14377860803015e-02
4.95977272727273e-01 1.23785278162908e+00 1.14053097133244e-02
4.98356060606061e-01 1.23137440462226e+00 1.13727947486181e-02
5.00734848484849e-01 1.22492993258980e+00 1.13402432804500e-02
5.03113636363636e-01 1.21851918810005e+00 1.13076573800258e-02
5.05492424242424e-01 1.21214199462577e+00 1.12750390860171e-02
5.07871212121212e-01 1.20579817657574e+00 1.12423903949805e-02
5.10250000000000e-01 1.19948755927769e+00 1.12097132770190e-02
5.12628787878788e-01 1.19320996897352e+00 1.11770096711879e-02
5.15007575757576e-01 1.18696523281448e+00 1.11442814859652e-02
5.17386363636364e-01 1.18075317885646e+00 1.11115305997225e-02
5.19765151515151e-01 1.17457363605523e+00 1.10787588565219e-02
5.22143939393939e-01 1.16842643427280e+00 1.10459680806159e-02
5.24522727272727e-01 1.16231140423935e+00 1.10131600674966e-02
5.26901515151515e-01 1.15622837758212e+00 1.09803365748418e-02
5.29280303030303e-01 1.15017718680953e+00 1.09474993372124e-02
5.31659090909091e-01 1.14415766530659e+00 1.09146500616955e-02
5.34037878787879e-01 1.13816964733029e+00 1.08817904283093e-02
5.36416666666667e-01 1.13221296800506e+00 1.08489220904109e-02
5.38795454545455e-01 1.12628746331820e+00 1.08160466707065e-02
5.41174242424242e-01 1.12039297012566e+00 1.07831657748697e-02
5.43553030303030e-01 1.11452932611658e+00 1.07502809830828e-02
5.45931818181818e-01 1.10869636983994e+00 1.07173938414768e-02
5.48310606060606e-01 1.10289394068965e+00 1.06845058759398e-02
5.50689393939394e-01 1.09712187890020e+00 1.06516185879885e-02
5.53068181818182e-01 1.09138002554218e+00 1.06187334551184e-02
5.55446969696970e-01 1.08566822251798e+00 1.05858519311562e-02
5.57825757575758e-01 1.07998631255738e+00 1.05529754466125e-02
5.60204545454545e-01 1.07433413921327e+00 1.05201054049086e-02
5.62583333333333e-01 1.06871154686672e+00 1.04872431950932e-02
5.64962121212121e-01 1.06311838069431e+00 1.04543901838969e-02
5.67340909090909e-01 1.05755448669241e+00 1.04215477076918e-02
5.69719696969697e-01 1.05201971166338e+00 1.03887170853882e-02
5.72098484848485e-01 1.04651390321134e+00 1.03558996145334e-02
5.74477272727273e-01 1.04103690973798e+00 1.03230965716198e-02
5.76856060606061e-01 1.03558858043839e+00 1.02903092123932e-02
5.79234848484848e-01 1.03016876529693e+00 1.02575387682711e-02
5.81613636363636e-01 1.02477731509179e+00 1.02247864583114e-02
5.83992424242424e-01 1.01941408136456e+00 1.01920534816993e-02
5.86371212121212e-01 1.01407891644265e+00 1.01593410101455e-02
5.88750000000000e-01 1.00877167342627e+00 1.01266502000228e-02
5.91128787878788e-01 1.00349220618449e+00 1.00939821886700e-02
5.93507575757576e-01 9.98240369351123e-01 1.00613380946621e-02
5.95886363636364e-01 9.93016018320788e-01 1.00287190180772e-02
5.98265151515151e-01 9.87819009244898e-01 9.99612603710275e-03
6.00643939393939e-01 9.82649199035822e-01 9.96356021930822e-03
6.03022727272727e-01 9.77506445338490e-01 9.93102261453720e-03
6.05401515151515e-01 9.72390606551038e-01 9.89851424771716e-03
6.07780303030303e-01 9.67301541812683e-01 9.86603613029095e-03
6.10159090909091e-01 9.62239110999845e-01 9.83358925671728e-03
6.12537878787879e-01 9.57203174722287e-01 9.80117460470437e-03
6.14916666666667e-01 9.52193594319279e-01 9.76879313544575e-03
6.17295454545455e-01 9.47210231855786e-01 9.73644579040331e-03
6.19674242424242e-01 9.42252950126197e-01 9.70413350192813e-03
6.22053030303030e-01 9.37321612627838e-01 9.67185718653702e-03
6.24431818181818e-01 9.32416083580030e-01 9.63961773811196e-03
6.26810606060606e-01 9.27536227912710e-01 9.60741603867369e-03
6.29189393939394e-01 9.22681911262714e-01 9.57525295506548e-03
6.31568181818182e-01 9.17852999970069e-01 9.54312933915990e-03
6.33946969696970e-01 9.13049361074325e-01 9.51104602806442e-03
6.36325757575757e-01 9.08270862310887e-01 9.47900384433030e-03
6.38704545454545e-01 9.03517372107375e-01 9.44700359291211e-03
6.41083333333333e-01 8.98788759586957e-01 9.41504607112368e-03
6.43462121212121e-01 8.94084894543784e-01 9.38313206231392e-03
6.45840909090909e-01 8.89405647460459e-01 9.35126232946821e-03
6.48219696969697e-01 8.84750889497425e-01 9.31943762530813e-03
6.50598484848485e-01 8.80120492489408e-01 9.28765868915895e-03
6.52977272727273e-01 8.75514328941899e-01 9.25592624713378e-03
6.55356060606061e-01 8.70932272027637e-01 9.22424101231644e-03
6.57734848484848e-01 8.66374195583121e-01 9.19260368187943e-03
6.60113636363636e-01 8.61839974111609e-01 9.16101494647784e-03
6.62492424242424e-01 8.57329482760150e-01 9.12947548426160e-03
6.64871212121212e-01 8.52842597335748e-01 9.09798595482386e-03
6.67250000000000e-01 8.48379194295376e-01 9.06654700872891e-03
6.69628787878788e-01 8.43939150742577e-01 9.03515928454348e-03
6.72007575757576e-01 8.39522344424077e-01 9.00382340899975e-03
6.74386363636364e-01 8.35128653726428e-01 8.97253999715813e-03
6.76765151515151e-01 8.30757957672649e-01 8.94130964967524e-03
6.79143939393939e-01 8.26410135924934e-01 8.91013296167024e-03
6.81522727272727e-01 8.22085068763157e-01 8.87901051705946e-03
6.83901515151515e-01 8.17782637099837e-01 8.84794288282403e-03
6.86280303030303e-01 8.13502722470742e-01 8.81693061800647e-03
6.88659090909091e-01 8.09245207031632e-01 8.78597427089802e-03
6.91037878787879e-01 8.05009973555007e-01 8.75507437918349e-03
6.93416666666667e-01 8.00796905426889e-01 8.72423147008500e-03
6.95795454545455e-01 7.96605886643604e-01 8.69344605777087e-03
6.98174242424242e-01 7.92436801814217e-01 8.66271865173051e-03
7.00553030303030e-01 7.88289536140402e-01 8.63204975140953e-03
7.02931818181818e-01 7.84163975430308e-01 8.60143984078325e-03
7.05310606060606e-01 7.80060006089712e-01 8.57088939685322e-03
7.07689393939394e-01 7.75977515118895e-01 8.54039888698169e-03
7.10068181818182e-01 7.71916390109525e-01 8.50996876901948e-03
7.12446969696970e-01 7.67876519241568e-01 8.47959949143452e-03
7.14825757575758e-01 7.63857791280206e-01 8.44929149344126e-03
7.17204545454545e-01 7.59860095572778e-01 8.41904520255311e-03
7.19583333333333e-01 7.55883322050938e-01 8.38886104244941e-03
7.21962121212121e-01 7.51927361211928e-01 8.35873942792430e-03
7.24340909090909e-01 7.47992104131332e-01 8.32868075977485e-03
7.26719696969697e-01 7.44077442454794e-01 8.29868543278395e-03
7.29098484848485e-01 7.40183268395038e-01 8.26875383320404e-03
7.31477272727273e-01 7.36309474728898e-01 8.23888633887110e-03
7.33856060606061e-01 7.32455954794367e-01 8.20908331932056e-03
7.36234848484848e-01 7.28622602487662e-01 8.17934513346592e-03
7.38613636363636e-01 7.24809312265164e-01 8.14967213703578e-03
7.40992424242424e-01 7.21015979125856e-01 8.12006467778825e-03
7.43371212121212e-01 7.17242498623151e-01 8.09052309066919e-03
7.45750000000000e-01 7.13488766857091e-01 8.06104770535851e-03
7.48128787878788e-01 7.09754680471484e-01 8.03163884388437e-03
7.50507575757576e-01 7.06040136651058e-01 8.00229682072587e-03
