Energy (eV)          EEDF (eV^-(3/2))     First Anisotropy
4.46875000000000e-02 1.32782020329686e-01 1.23504338426679e-04
1.34062500000000e-01 1.29942023556684e-01 2.02440346443112e-04
2.23437500000000e-01 1.27162769809388e-01 2.63298585370065e-04
3.12812500000000e-01 1.24442959890819e-01 3.07200233534352e-04
4.02187500000000e-01 1.21781322391777e-01 3.41932905357614e-04
4.91562500000000e-01 1.19176613096489e-01 3.70508783277960e-04
5.80937500000000e-01 1.16627614400986e-01 3.94520373927044e-04
6.70312500000000e-01 1.14133134743916e-01 4.14949211163940e-04
7.59687500000000e-01 1.11692008049535e-01 4.32459169748041e-04
8.49062500000000e-01 1.09303093182607e-01 4.47528376429236e-04
9.38437500000000e-01 1.06965273414973e-01 4.60517184538820e-04
1.02781250000000e+00 1.04677455903512e-01 4.71706691214138e-04
1.11718750000000e+00 1.02438571179288e-01 4.81322156739393e-04
1.20656250000000e+00 1.00247572647608e-01 4.89548043500233e-04
1.29593750000000e+00 9.81034360987790e-02 4.96538104868151e-04
1.38531250000000e+00 9.60051592293274e-02 5.02422400349617e-04
1.47468750000000e+00 9.39517611734624e-02 5.07312321923276e-04
1.56406250000000e+00 9.19422820445558e-02 5.11304288339453e-04
1.65343750000000e+00 8.99757824864320e-02 5.14482520626936e-04
1.74281250000000e+00 8.80513432342535e-02 5.16921167546677e-04
1.83218750000000e+00 8.61680646847995e-02 5.18685960819868e-04
1.92156250000000e+00 8.43250664759350e-02 5.19835523504403e-04
2.01093750000000e+00 8.25214870750744e-02 5.20422418048071e-04
2.10031250000000e+00 8.07564833764474e-02 5.20493995906272e-04
2.18968750000000e+00 7.90292303069788e-02 5.20093093772052e-04
2.27906250000000e+00 7.73389204405975e-02 5.19258609731095e-04
2.36843750000000e+00 7.56847636207951e-02 5.18025984332052e-04
2.45781250000000e+00 7.40659865912575e-02 5.16427605565682e-04
2.54718750000000e+00 7.24818326343967e-02 5.14493152361801e-04
2.63656250000000e+00 7.09315612176131e-02 5.12249887964561e-04
2.72593750000000e+00 6.94144476471248e-02 5.09722912110319e-04
2.81531250000000e+00 6.79297827292004e-02 5.06935379084243e-04
2.90468750000000e+00 6.64768724386371e-02 5.03908687315525e-04
2.99406250000000e+00 6.50550375943305e-02 5.00662645074812e-04
3.08343750000000e+00 6.36636135417823e-02 4.97215615981361e-04
3.17281250000000e+00 6.23019498423998e-02 4.93584647353324e-04
3.26218750000000e+00 6.09694099694397e-02 4.89785583899466e-04
3.35156250000000e+00 5.96653710104561e-02 4.85833168822631e-04
3.44093750000000e+00 5.83892233761122e-02 4.81741134060788e-04
3.53031250000000e+00 5.71403705152200e-02 4.77522281112180e-04
3.61968750000000e+00 5.59182286358751e-02 4.73188553663351e-04
3.70906250000000e+00 5.47222264325558e-02 4.68751103052065e-04
3.79843750000000e+00 5.35518048190591e-02 4.64220347443056e-04
3.88781250000000e+00 5.24064166671492e-02 4.59606025466689e-04
3.97718750000000e+00 5.12855265507952e-02 4.54917244964277e-04
4.06656250000000e+00 5.01886104958794e-02 4.50162527394630e-04
4.15593750000000e+00 4.91151557352596e-02 4.45349848381447e-04
4.24531250000000e+00 4.80646604690692e-02 4.40486674817846e-04
4.33468750000000e+00 4.70366336301446e-02 4.35579998890685e-04
4.42406250000000e+00 4.60305946544700e-02 4.30636369341604e-04
4.51343750000000e+00 4.50460732565313e-02 4.25661920242591e-04
4.60281250000000e+00 4.40826092094758e-02 4.20662397530490e-04
4.69218750000000e+00 4.31397521299729e-02 4.15643183515980e-04
4.78156250000000e+00 4.22170612676770e-02 4.10609319557582e-04
4.87093750000000e+00 4.13141052991931e-02 4.05565527069840e-04
4.96031250000000e+00 4.04304621264495e-02 4.00516227016005e-04
5.04968750000000e+00 3.95657186793828e-02 3.95465558019226e-04
5.13906250000000e+00 3.87194707228426e-02 3.90417393211962e-04
5.22843750000000e+00 3.78913226676274e-02 3.85375355930932e-04
5.31781250000000e+00 3.70808873855610e-02 3.80342834353844e-04
5.40718750000000e+00 3.62877860285248e-02 3.75322995164519e-04
5.49656250000000e+00 3.55116478513606e-02 3.70318796324479e-04
5.58593750000000e+00 3.47521100385609e-02 3.65332999021509e-04
5.67531250000000e+00 3.40088175346662e-02 3.60368178858991e-04
5.76468750000000e+00 3.32814228782902e-02 3.55426736343923e-04
5.85406250000000e+00 3.25695860396944e-02 3.50510906726115e-04
5.94343750000000e+00 3.18729742618370e-02 3.45622769236444e-04
6.03281250000000e+00 3.11912619048214e-02 3.40764255767701e-04
6.12218750000000e+00 3.05241302936719e-02 3.35937159037810e-04
6.21156250000000e+00 2.98712675693649e-02 3.31143140271856e-04
6.30093750000000e+00 2.92323685430467e-02 3.26383736436189e-04
6.39031250000000e+00 2.86071345533688e-02 3.21660367055187e-04
6.47968750000000e+00 2.79952733268754e-02 3.16974340638686e-04
6.56906250000000e+00 2.73964988413762e-02 3.12326860745936e-04
6.65843750000000e+00 2.68105311922418e-02 3.07719031709834e-04
6.74781250000000e+00 2.62370964615588e-02 3.03151864043317e-04
6.83718750000000e+00 2.56759265900833e-02 2.98626279548180e-04
6.92656250000000e+00 2.51267592519337e-02 2.94143116145014e-04
7.01593750000000e+00 2.45893377319625e-02 2.89703132441539e-04
7.10531250000000e+00 2.40634108057522e-02 2.85307012055424e-04
7.19468750000000e+00 2.35487326221769e-02 2.80955367706419e-04
7.28406250000000e+00 2.30450625884765e-02 2.76648745091629e-04
7.37343750000000e+00 2.25521652577880e-02 2.72387626556767e-04
7.46281250000000e+00 2.20698102190837e-02 2.68172434575340e-04
7.55218750000000e+00 2.15977719894619e-02 2.64003535046868e-04
7.64156250000000e+00 2.11358299087428e-02 2.59881240424528e-04
7.73093750000000e+00 2.06837680363175e-02 2.55805812681908e-04
7.82031250000000e+00 2.02413750502044e-02 2.51777466127901e-04
7.90968750000000e+00 1.98084441482636e-02 2.47796370078158e-04
7.99906250000000e+00 1.93847729515253e-02 2.43862651391051e-04
8.08843750000000e+00 1.89701634095843e-02 2.39976396875532e-04
8.17781250000000e+00 1.85644217080199e-02 2.36137655577812e-04
8.26718750000000e+00 1.81673581777940e-02 2.32346440953362e-04
8.35656250000000e+00 1.77787872065885e-02 2.28602732930352e-04
8.44593750000000e+00 1.73985271520384e-02 2.24906479870274e-04
8.53531250000000e+00 1.70264002568205e-02 2.21257600431097e-04
8.62468750000000e+00 1.66622325655592e-02 2.17655985338039e-04
8.71406250000000e+00 1.63058538435078e-02 2.14101499066746e-04
8.80343750000000e+00 1.59570974969714e-02 2.10593981443313e-04
8.89281250000000e+00 1.56158004954295e-02 2.07133249165453e-04
8.98218750000000e+00 1.52818032953260e-02 2.03719097248733e-04
9.07156250000000e+00 1.49549497654884e-02 2.00351300401658e-04
9.16093750000000e+00 1.46350871141422e-02 1.97029614333192e-04
9.25031250000000e+00 1.43220658174866e-02 1.93753776996019e-04
9.33968750000000e+00 1.40157395497978e-02 1.90523509768740e-04
9.42906250000000e+00 1.37159651150269e-02 1.87338518580005e-04
9.51843750000000e+00 1.34226023798615e-02 1.84198494977396e-04
9.60781250000000e+00 1.31355142082184e-02 1.81103117143761e-04
9.69718750000000e+00 1.28545663971377e-02 1.78052050863526e-04
9.78656250000000e+00 1.25796276140478e-02 1.75044950441403e-04
9.87593750000000e+00 1.23105693353726e-02 1.72081459575751e-04
9.96531250000000e+00 1.20472657864512e-02 1.69161212188786e-04
1.00546875000000e+01 1.17895938827435e-02 1.66283833215655e-04
1.01440625000000e+01 1.15374331722922e-02 1.63448939354334e-04
1.02334375000000e+01 1.12906657794164e-02 1.60656139778202e-04
1.03228125000000e+01 1.10491763496088e-02 1.57905036813038e-04
1.04121875000000e+01 1.08128519956124e-02 1.55195226580090e-04
1.05015625000000e+01 1.05815822446493e-02 1.52526299606826e-04
1.05909375000000e+01 1.03552589867791e-02 1.49897841406860e-04
1.06803125000000e+01 1.01337764243614e-02 1.47309433030470e-04
1.07696875000000e+01 9.91703102259979e-03 1.44760651587090e-04
1.08590625000000e+01 9.70492146114266e-03 1.42251070741052e-04
1.09484375000000e+01 9.49734858672009e-03 1.39780261181818e-04
1.10378125000000e+01 9.29421536679328e-03 1.37347791069877e-04
1.11271875000000e+01 9.09542684419553e-03 1.34953226459423e-04
1.12165625000000e+01 8.90089009274328e-03 1.32596131698870e-04
1.13059375000000e+01 8.71051417379663e-03 1.30276069810226e-04
1.13953125000000e+01 8.52421009374891e-03 1.27992602848290e-04
1.14846875000000e+01 8.34189076242554e-03 1.25745292240587e-04
1.15740625000000e+01 8.16347095237260e-03 1.23533699108938e-04
1.16634375000000e+01 7.98886725901622e-03 1.21357384573478e-04
1.17528125000000e+01 7.81799806167404e-03 1.19215910039924e-04
1.18421875000000e+01 7.65078348540062e-03 1.17108837470885e-04
1.19315625000000e+01 7.48714536364889e-03 1.15035729641907e-04
1.20209375000000e+01 7.32700720173024e-03 1.12996150382952e-04
1.21103125000000e+01 7.17029414105607e-03 1.10989664806001e-04
1.21996875000000e+01 7.01693292414426e-03 1.09015839519388e-04
1.22890625000000e+01 6.86685186037400e-03 1.07074242829464e-04
1.23784375000000e+01 6.71998079247315e-03 1.05164444930194e-04
1.24678125000000e+01 6.57625106372232e-03 1.03286018081228e-04
1.25571875000000e+01 6.43559548586043e-03 1.01438536774964e-04
1.26465625000000e+01 6.29794830767670e-03 9.96215778931109e-05
1.27359375000000e+01 6.16324518427447e-03 9.78347208532415e-05
1.28253125000000e+01 6.03142314699234e-03 9.60775477457904e-05
1.29146875000000e+01 5.90242057396867e-03 9.43496434619318e-05
1.30040625000000e+01 5.77617716133570e-03 9.26505958127612e-05
1.30934375000000e+01 5.65263389502973e-03 9.09799956401898e-05
1.31828125000000e+01 5.53173302320427e-03 8.93374369199257e-05
1.32721875000000e+01 5.41341802923320e-03 8.77225168569124e-05
1.33615625000000e+01 5.29763360529139e-03 8.61348359735814e-05
1.34509375000000e+01 5.18432562650034e-03 8.45739981912577e-05
1.35403125000000e+01 5.07344112562684e-03 8.30396109050246e-05
1.36296875000000e+01 4.96492826832278e-03 8.15312850523709e-05
1.37190625000000e+01 4.85873632889453e-03 8.00486351759106e-05
1.38084375000000e+01 4.75481566659055e-03 7.85912794804562e-05
1.38978125000000e+01 4.65311770239626e-03 7.71588398847183e-05
1.39871875000000e+01 4.55359489632513e-03 7.57509420678836e-05
1.40765625000000e+01 4.45620072519550e-03 7.43672155113221e-05
1.41659375000000e+01 4.36088966088279e-03 7.30072935356641e-05
1.42553125000000e+01 4.26761714903677e-03 7.16708133334669e-05
1.43446875000000e+01 4.17633958825408e-03 7.03574159976889e-05
1.44340625000000e+01 4.08701430969623e-03 6.90667465461812e-05
1.45234375000000e+01 3.99959955714346e-03 6.77984539423915e-05
1.46128125000000e+01 3.91405446747534e-03 6.65521911124762e-05
1.47021875000000e+01 3.83033905156874e-03 6.53276149589938e-05
1.47915625000000e+01 3.74841417560447e-03 6.41243863713581e-05
1.48809375000000e+01 3.66824154277361e-03 6.29421702332239e-05
1.49703125000000e+01 3.58978367537525e-03 6.17806354269481e-05
1.50596875000000e+01 3.51300389729705e-03 6.06394548352951e-05
1.51490625000000e+01 3.43786631687053e-03 5.95183053405266e-05
1.52384375000000e+01 3.36433581009306e-03 5.84168678210116e-05
1.53278125000000e+01 3.29237800420871e-03 5.73348271454951e-05
1.54171875000000e+01 3.22195926164026e-03 5.62718721651500e-05
1.55065625000000e+01 3.15304666426491e-03 5.52276957035371e-05
1.55959375000000e+01 3.08560799802629e-03 5.42019945445907e-05
1.56853125000000e+01 3.01961173787560e-03 5.31944694187376e-05
1.57746875000000e+01 2.95502703303481e-03 5.22048249872612e-05
1.58640625000000e+01 2.89182369257509e-03 5.12327698250104e-05
1.59534375000000e+01 2.82997217130369e-03 5.02780164015520e-05
1.60428125000000e+01 2.76944355595267e-03 4.93402810608605e-05
1.61321875000000e+01 2.71020955166300e-03 4.84192839996327e-05
1.62215625000000e+01 2.65224246875784e-03 4.75147492443188e-05
1.63109375000000e+01 2.59551520979856e-03 4.66264046269464e-05
1.64003125000000e+01 2.54000125691780e-03 4.57539817598148e-05
1.64896875000000e+01 2.48567465942329e-03 4.48972160091400e-05
1.65790625000000e+01 2.43251002166690e-03 4.40558464677159e-05
1.66684375000000e+01 2.38048249117315e-03 4.32296159266642e-05
1.67578125000000e+01 2.32956774702155e-03 4.24182708463382e-05
1.68471875000000e+01 2.27974198847756e-03 4.16215613264369e-05
1.69365625000000e+01 2.23098192386655e-03 4.08392410753991e-05
1.70259375000000e+01 2.18326475968589e-03 4.00710673791251e-05
1.71153125000000e+01 2.13656818994980e-03 3.93168010690832e-05
1.72046875000000e+01 2.09087038576217e-03 3.85762064898572e-05
1.72940625000000e+01 2.04614998511231e-03 3.78490514661748e-05
1.73834375000000e+01 2.00238608288910e-03 3.71351072694743e-05
1.74728125000000e+01 1.95955822110854e-03 3.64341485840473e-05
1.75621875000000e+01 1.91764637935047e-03 3.57459534728035e-05
1.76515625000000e+01 1.87663096539977e-03 3.50703033426981e-05
1.77409375000000e+01 1.83649280608771e-03 3.44069829098584e-05
1.78303125000000e+01 1.79721313832922e-03 3.37557801644493e-05
1.79196875000000e+01 1.75877360035185e-03 3.31164863353120e-05
1.80090625000000e+01 1.72115622311235e-03 3.24888958544110e-05
1.80984375000000e+01 1.68434342189678e-03 3.18728063211151e-05
1.81878125000000e+01 1.64831798810036e-03 3.12680184663524e-05
1.82771875000000e+01 1.61306308118305e-03 3.06743361166611e-05
1.83665625000000e+01 1.57856222079725e-03 3.00915661581645e-05
1.84559375000000e+01 1.54479927908384e-03 2.95195185004998e-05
1.85453125000000e+01 1.51175847313305e-03 2.89580060407193e-05
1.86346875000000e+01 1.47942435760648e-03 2.84068446271941e-05
1.87240625000000e+01 1.44778181751703e-03 2.78658530235379e-05
1.88134375000000e+01 1.41681606116321e-03 2.73348528725737e-05
1.89028125000000e+01 1.38651261321454e-03 2.68136686603636e-05
1.89921875000000e+01 1.35685730794490e-03 2.63021276803184e-05
1.90815625000000e+01 1.32783628261058e-03 2.58000599974094e-05
1.91709375000000e+01 1.29943597096998e-03 2.53072984124946e-05
1.92603125000000e+01 1.27164309694186e-03 2.48236784267758e-05
1.93496875000000e+01 1.24444466839932e-03 2.43490382064042e-05
1.94390625000000e+01 1.21782797109644e-03 2.38832185472485e-05
1.95284375000000e+01 1.19178056272485e-03 2.34260628398364e-05
1.96178125000000e+01 1.16629026709740e-03 2.29774170344815e-05
1.97071875000000e+01 1.14134516845628e-03 2.25371296066116e-05
1.97965625000000e+01 1.11693360590286e-03 2.21050515223066e-05
1.98859375000000e+01 1.09304416794659e-03 2.16810362040557e-05
1.99753125000000e+01 1.06966568717064e-03 2.12649394967452e-05
2.00646875000000e+01 1.04678723501148e-03 2.08566196338863e-05
2.01540625000000e+01 1.02439811665023e-03 2.04559372040883e-05
2.02434375000000e+01 1.00248786601322e-03 2.00627551177884e-05
2.03328125000000e+01 9.81046240879490e-04 1.96769385742452e-05
2.04221875000000e+01 9.60063218092945e-04 1.92983550288003e-05
2.05115625000000e+01 9.39528988876890e-04 1.89268741604148e-05
2.06009375000000e+01 9.19433954248807e-04 1.85623678394895e-05
2.06903125000000e+01 8.99768720533186e-04 1.82047100959711e-05
2.07796875000000e+01 8.80524094970335e-04 1.78537770877491e-05
2.08690625000000e+01 8.61691081419106e-04 1.75094470693499e-05
2.09584375000000e+01 8.43260876151544e-04 1.71716003609310e-05
2.10478125000000e+01 8.25224863737462e-04 1.68401193175784e-05
2.11371875000000e+01 8.07574613017064e-04 1.65148882989110e-05
2.12265625000000e+01 7.90301873159683e-04 1.61957936389961e-05
2.13159375000000e+01 7.73398569806832e-04 1.58827236165763e-05
2.14053125000000e+01 7.56856801297745e-04 1.55755684256122e-05
2.14946875000000e+01 7.40668834975642e-04 1.52742201461414e-05
2.15840625000000e+01 7.24827103573006e-04 1.49785727154562e-05
2.16734375000000e+01 7.09324201674168e-04 1.46885218996006e-05
2.17628125000000e+01 6.94152882253551e-04 1.44039652651892e-05
2.18521875000000e+01 6.79306053287961e-04 1.41248021515480e-05
2.19415625000000e+01 6.64776774441327e-04 1.38509336431774e-05
2.20309375000000e+01 6.50558253820358e-04 1.35822625425374e-05
2.21203125000000e+01 6.36643844799586e-04 1.33186933431576e-05
2.22096875000000e+01 6.23027042914317e-04 1.30601322030696e-05
2.22990625000000e+01 6.09701482820039e-04 1.28064869185617e-05
2.23884375000000e+01 5.96660935316860e-04 1.25576668982575e-05
2.24778125000000e+01 5.83899304437594e-04 1.23135831375157e-05
2.25671875000000e+01 5.71410624598121e-04 1.20741481931512e-05
2.26565625000000e+01 5.59189057808702e-04 1.18392761584769e-05
2.27459375000000e+01 5.47228890944938e-04 1.16088826386650e-05
2.28353125000000e+01 5.35524533077097e-04 1.13828847264267e-05
2.29246875000000e+01 5.24070512856564e-04 1.11612009780074e-05
2.30140625000000e+01 5.12861475958193e-04 1.09437513894993e-05
2.31034375000000e+01 5.01892182577358e-04 1.07304573734672e-05
2.31928125000000e+01 4.91157504980542e-04 1.05212417358865e-05
2.32821875000000e+01 4.80652425108312e-04 1.03160286533921e-05
2.33715625000000e+01 4.70372032229568e-04 1.01147436508351e-05
2.34609375000000e+01 4.60311520645956e-04 9.91731357914753e-06
2.35503125000000e+01 4.50466187445387e-04 9.72366659351094e-06
2.36396875000000e+01 4.40831430303602e-04 9.53373213182781e-06
2.37290625000000e+01 4.31402745332755e-04 9.34744089349376e-06
2.38184375000000e+01 4.22175724976018e-04 9.16472481846728e-06
2.39078125000000e+01 4.13146055947209e-04 8.98551706663540e-06
2.39971875000000e+01 4.04309517214498e-04 8.80975199747337e-06
2.40865625000000e+01 3.95661978027228e-04 8.63736514999511e-06
2.41759375000000e+01 3.87199395984946e-04 8.46829322299167e-06
2.42653125000000e+01 3.78917815147731e-04 8.30247405555618e-06
2.43546875000000e+01 3.70813364186943e-04 8.13984660789210e-06
2.44440625000000e+01 3.62882254575519e-04 7.98035094240226e-06
2.45334375000000e+01 3.55120778816980e-04 7.82392820505611e-06
2.46228125000000e+01 3.47525308712316e-04 7.67052060703185e-06
2.47121875000000e+01 3.40092293663938e-04 7.52007140663184e-06
2.48015625000000e+01 3.32818259015905e-04 7.37252489146777e-06
2.48909375000000e+01 3.25699804429657e-04 7.22782636091327e-06
2.49803125000000e+01 3.18733602294481e-04 7.08592210882031e-06
2.50696875000000e+01 3.11916396171977e-04 6.94675940649728e-06
2.51590625000000e+01 3.05244999273797e-04 6.81028648594634e-06
2.52484375000000e+01 2.98716292971942e-04 6.67645252335627e-06
2.53378125000000e+01 2.92327225340916e-04 6.54520762284833e-06
2.54271875000000e+01 2.86074809731069e-04 6.41650280047236e-06
2.55165625000000e+01 2.79956123372449e-04 6.29028996845027e-06
2.56059375000000e+01 2.73968306008518e-04 6.16652191966387e-06
2.56953125000000e+01 2.68108558559086e-04 6.04515231238446e-06
2.57846875000000e+01 2.62374141811848e-04 5.92613565524087e-06
2.58740625000000e+01 2.56762375141907e-04 5.80942729242324e-06
2.59634375000000e+01 2.51270635258677e-04 5.69498338912015e-06
2.60528125000000e+01 2.45896354979598e-04 5.58276091718563e-06
2.61421875000000e+01 2.40637022030072e-04 5.47271764103320e-06
2.62315625000000e+01 2.35490177869070e-04 5.36481210375458e-06
2.63209375000000e+01 2.30453416539853e-04 5.25900361345960e-06
2.64103125000000e+01 2.25524383545284e-04 5.15525222983521e-06
2.64996875000000e+01 2.20700774747180e-04 5.05351875091995e-06
2.65890625000000e+01 2.15980335289223e-04 4.95376470009156e-06
2.66784375000000e+01 2.11360858542890e-04 4.85595231326517e-06
2.67678125000000e+01 2.06840185075945e-04 4.76004452629840e-06
2.68571875000000e+01 2.02416201642982e-04 4.66600496260175e-06
2.69465625000000e+01 1.98086840197558e-04 4.57379792095027e-06
2.70359375000000e+01 1.93850076925468e-04 4.48338836349504e-06
2.71253125000000e+01 1.89703931298678e-04 4.39474190397083e-06
2.72146875000000e+01 1.85646465149509e-04 4.30782479609743e-06
2.73040625000000e+01 1.81675781764614e-04 4.22260392217239e-06
2.73934375000000e+01 1.77790024998334e-04 4.13904678185191e-06
2.74828125000000e+01 1.73987378405023e-04 4.05712148111771e-06
2.75721875000000e+01 1.70266064389924e-04 3.97679672142695e-06
2.76615625000000e+01 1.66624343378215e-04 3.89804178904261e-06
2.77509375000000e+01 1.63060513001815e-04 3.82082654454224e-06
2.78403125000000e+01 1.59572907303600e-04 3.74512141250182e-06
2.79296875000000e+01 1.56159895958625e-04 3.67089737135252e-06
2.80190625000000e+01 1.52819883512007e-04 3.59812594340796e-06
2.81084375000000e+01 1.49551308633115e-04 3.52677918505927e-06
2.81978125000000e+01 1.46352643385702e-04 3.45682967713569e-06
