Energy (eV)          EEDF (eV^-(3/2))     First Anisotropy
1.59322033898305e-03 2.81086592169688e+00 1.34381048408683e-03
4.77966101694915e-03 2.79442267554552e+00 2.21998572982519e-03
7.96610169491525e-03 2.77807562051587e+00 2.93321062663478e-03
1.11525423728814e-02 2.76182419392164e+00 3.47662523743819e-03
1.43389830508475e-02 2.74566783633278e+00 3.93114304157920e-03
1.75254237288136e-02 2.72960599157582e+00 4.32731062958529e-03
2.07118644067797e-02 2.71363810676722e+00 4.68091346678093e-03
2.38983050847458e-02 2.69776363232694e+00 5.00147074476529e-03
2.70847457627119e-02 2.68198202174251e+00 5.29528711702159e-03
3.02711864406780e-02 2.66629273177417e+00 5.56681250343290e-03
3.34576271186441e-02 2.65069522235773e+00 5.81933649446705e-03
3.66440677966102e-02 2.63518895658954e+00 6.05537828808513e-03
3.98305084745763e-02 2.61977340074546e+00 6.27692167696455e-03
4.30169491525424e-02 2.60444802414248e+00 6.48556457810359e-03
4.62033898305085e-02 2.58921229924319e+00 6.68261843497765e-03
4.93898305084746e-02 2.57406570159598e+00 6.86917671687250e-03
5.25762711864407e-02 2.55900770984570e+00 7.04616354400651e-03
5.57627118644068e-02 2.54403780562920e+00 7.21436908093909e-03
5.89491525423729e-02 2.52915547364516e+00 7.37447587292517e-03
6.21355932203390e-02 2.51436020160627e+00 7.52707883351252e-03
6.53220338983051e-02 2.49965148022228e+00 7.67270064477887e-03
6.85084745762712e-02 2.48502880320320e+00 7.81180382221174e-03
7.16949152542373e-02 2.47049166717797e+00 7.94480027012874e-03
7.48813559322034e-02 2.45603957174186e+00 8.07205894798164e-03
7.80677966101695e-02 2.44167201941729e+00 8.19391209784003e-03
8.12542372881356e-02 2.42738851565411e+00 8.31066034384340e-03
8.44406779661017e-02 2.41318856876053e+00 8.42257689696839e-03
8.76271186440678e-02 2.39907168993865e+00 8.52991105632593e-03
9.08135593220339e-02 2.38503739324987e+00 8.63289115820295e-03
9.40000000000000e-02 2.37108519559831e+00 8.73172705719103e-03
9.71864406779661e-02 2.35721461672806e+00 8.82661224592731e-03
1.00372881355932e-01 2.34342517916450e+00 8.91772566455533e-03
1.03559322033898e-01 2.32971640820118e+00 9.00523321923950e-03
1.06745762711864e-01 2.31608783207449e+00 9.08928919110810e-03
1.09932203389831e-01 2.30253898153004e+00 9.17003737486403e-03
1.13118644067797e-01 2.28906939018349e+00 9.24761203264063e-03
1.16305084745763e-01 2.27567859449121e+00 9.32213890052348e-03
1.19491525423729e-01 2.26236613339634e+00 9.39373591737092e-03
1.22677966101695e-01 2.24913154865162e+00 9.46251386316940e-03
1.25864406779661e-01 2.23597438479191e+00 9.52857708050623e-03
1.29050847457627e-01 2.22289418881309e+00 9.59202396766002e-03
1.32237288135593e-01 2.20989051046300e+00 9.65294741411783e-03
1.35423728813559e-01 2.19696290221549e+00 9.71143533747181e-03
1.38610169491525e-01 2.18411091897736e+00 9.76757102420105e-03
1.41796610169492e-01 2.17133411835201e+00 9.82143344809833e-03
1.44983050847458e-01 2.15863206053087e+00 9.87309762148279e-03
1.48169491525424e-01 2.14600430836121e+00 9.92263491160726e-03
1.51355932203390e-01 2.13345042708039e+00 9.97011326961801e-03
1.54542372881356e-01 2.12096998455301e+00 1.00155974206423e-02
1.57728813559322e-01 2.10856255124818e+00 1.00591491694335e-02
1.60915254237288e-01 2.09622769999388e+00 1.01008275514426e-02
1.64101694915254e-01 2.08396500619410e+00 1.01406889682300e-02
1.67288135593220e-01 2.07177404780749e+00 1.01787874378289e-02
1.70474576271186e-01 2.05965440511951e+00 1.02151747025817e-02
1.73661016949153e-01 2.04760566094203e+00 1.02499003257583e-02
1.76847457627119e-01 2.03562740059316e+00 1.02830119011201e-02
1.80033898305085e-01 2.02371921168514e+00 1.03145551297259e-02
1.83220338983051e-01 2.01188068430849e+00 1.03445738885402e-02
1.86406779661017e-01 2.00011141101288e+00 1.03731104092068e-02
1.89593220338983e-01 1.98841098660902e+00 1.04002053322320e-02
1.92779661016949e-01 1.97677900833910e+00 1.04258977550609e-02
1.95966101694915e-01 1.96521507585858e+00 1.04502253871484e-02
1.99152542372881e-01 1.95371879105059e+00 1.04732245873846e-02
2.02338983050847e-01 1.94228975818434e+00 1.04949303969756e-02
2.05525423728814e-01 1.93092758389739e+00 1.05153766759173e-02
2.08711864406780e-01 1.91963187702157e+00 1.05345961278432e-02
2.11898305084746e-01 1.90840224873049e+00 1.05526203215454e-02
2.15084745762712e-01 1.89723831252230e+00 1.05694798125921e-02
2.18271186440678e-01 1.88613968405603e+00 1.05852041586755e-02
2.21457627118644e-01 1.87510598128920e+00 1.05998219325377e-02
2.24644067796610e-01 1.86413682446113e+00 1.06133608315379e-02
2.27830508474576e-01 1.85323183593864e+00 1.06258476857709e-02
2.31016949152542e-01 1.84239064034486e+00 1.06373084644442e-02
2.34203389830508e-01 1.83161286454286e+00 1.06477683755229e-02
2.37389830508475e-01 1.82089813749004e+00 1.06572518683133e-02
2.40576271186441e-01 1.81024609035878e+00 1.06657826446947e-02
2.43762711864407e-01 1.79965635647905e+00 1.06733837109268e-02
2.46949152542373e-01 1.78912857136690e+00 1.06800774254232e-02
2.50135593220339e-01 1.77866237258798e+00 1.06858855060898e-02
2.53322033898305e-01 1.76825739986956e+00 1.06908290264068e-02
2.56508474576271e-01 1.75791329508535e+00 1.06949284982447e-02
2.59694915254237e-01 1.74762970212602e+00 1.06982038658204e-02
2.62881355932203e-01 1.73740626700456e+00 1.07006744990228e-02
2.66067796610169e-01 1.72724263784154e+00 1.07023592704962e-02
2.69254237288136e-01 1.71713846474218e+00 1.07032765473415e-02
2.72440677966102e-01 1.70709339989552e+00 1.07034441823163e-02
2.75627118644068e-01 1.69710709756011e+00 1.07028795859438e-02
2.78813559322034e-01 1.68717921394718e+00 1.07015997164878e-02
2.82000000000000e-01 1.67730940731405e+00 1.06996210695211e-02
2.85186440677966e-01 1.66749733795031e+00 1.06969597456788e-02
2.88372881355932e-01 1.65774266806651e+00 1.06936314393106e-02
2.91559322033898e-01 1.64804506188242e+00 1.06896514268147e-02
2.94745762711864e-01 1.63840418561351e+00 1.06850346305460e-02
2.97932203389831e-01 1.62881970736490e+00 1.06797956064488e-02
3.01118644067797e-01 1.61929129721478e+00 1.06739485314826e-02
3.04305084745763e-01 1.60981862720121e+00 1.06675072641019e-02
3.07491525423729e-01 1.60040137122093e+00 1.06604853311154e-02
3.10677966101695e-01 1.59103920510835e+00 1.06528959144559e-02
3.13864406779661e-01 1.58173180662260e+00 1.06447519085779e-02
3.17050847457627e-01 1.57247885535093e+00 1.06360659067543e-02
3.20237288135593e-01 1.56328003278352e+00 1.06268501873744e-02
3.23423728813559e-01 1.55413502230085e+00 1.06171167685595e-02
3.26610169491525e-01 1.54504350908131e+00 1.06068773940642e-02
3.29796610169492e-01 1.53600518017219e+00 1.05961435264149e-02
3.32983050847458e-01 1.52701972445152e+00 1.05849263702998e-02
3.36169491525424e-01 1.51808683264290e+00 1.05732368940706e-02
3.39355932203390e-01 1.50920619722786e+00 1.05610858227066e-02
3.42542372881356e-01 1.50037751251263e+00 1.05484836233816e-02
3.45728813559322e-01 1.49160047461606e+00 1.05354405548049e-02
3.48915254237288e-01 1.48287478138577e+00 1.05219666525600e-02
3.52101694915254e-01 1.47420013246145e+00 1.05080717145736e-02
3.55288135593220e-01 1.46557622926318e+00 1.04937653483728e-02
3.58474576271186e-01 1.45700277491094e+00 1.04790569564135e-02
3.61661016949153e-01 1.44847947428486e+00 1.04639557215283e-02
3.64847457627119e-01 1.44000603401377e+00 1.04484706522536e-02
3.68033898305085e-01 1.43158216239802e+00 1.04326105682116e-02
3.71220338983051e-01 1.42320756946672e+00 1.04163840855953e-02
3.74406779661017e-01 1.41488196696664e+00 1.03997996607052e-02
3.77593220338983e-01 1.40660506828803e+00 1.03828655754305e-02
3.80779661016949e-01 1.39837658851918e+00 1.03655899228213e-02
3.83966101694915e-01 1.39019624443553e+00 1.03479806489607e-02
3.87152542372881e-01 1.38206375442840e+00 1.03300455385736e-02
3.90338983050847e-01 1.37397883855700e+00 1.03117922007364e-02
3.93525423728814e-01 1.36594121853772e+00 1.02932281091923e-02
3.96711864406780e-01 1.35795061767567e+00 1.02743605881066e-02
3.99898305084746e-01 1.35000676091424e+00 1.02551967979540e-02
4.03084745762712e-01 1.34210937482461e+00 1.02357437743735e-02
4.06271186440678e-01 1.33425818753991e+00 1.02160084140955e-02
4.09457627118644e-01 1.32645292880250e+00 1.01959974610281e-02
4.12644067796610e-01 1.31869332995367e+00 1.01757175437366e-02
4.15830508474576e-01 1.31097912387030e+00 1.01551751615671e-02
4.19016949152542e-01 1.30331004501001e+00 1.01343766709484e-02
4.22203389830508e-01 1.29568582940100e+00 1.01133283215752e-02
4.25389830508475e-01 1.28810621458111e+00 1.00920362427408e-02
4.28576271186441e-01 1.28057093964092e+00 1.00705064351105e-02
4.31762711864407e-01 1.27307974519728e+00 1.00487447846882e-02
4.34949152542373e-01 1.26563237340081e+00 1.00267570756033e-02
4.38135593220339e-01 1.25822856787760e+00 1.00045489821675e-02
4.41322033898305e-01 1.25086807376999e+00 9.98212605562792e-03
4.44508474576271e-01 1.24355063772699e+00 9.95949375775621e-03
4.47694915254237e-01 1.23627600784807e+00 9.93665744766308e-03
4.50881355932203e-01 1.22904393372210e+00 9.91362236878839e-03
4.54067796610169e-01 1.22185416641802e+00 9.89039368140022e-03
4.57254237288136e-01 1.21470645843060e+00 9.86697644967076e-03
4.60440677966102e-01 1.20760056371767e+00 9.84337562890786e-03
4.63627118644068e-01 1.20053623769101e+00 9.81959609701607e-03
4.66813559322034e-01 1.19351323716397e+00 9.79564264183697e-03
4.70000000000000e-01 1.18653132038713e+00 9.77151994862525e-03
4.73186440677966e-01 1.17959024703935e+00 9.74723263052530e-03
4.76372881355932e-01 1.17268977817719e+00 9.72278521616821e-03
4.79559322033898e-01 1.16582967626908e+00 9.69818213740052e-03
4.82745762711864e-01 1.15900970518654e+00 9.67342775882233e-03
4.85932203389831e-01 1.15222963015528e+00 9.64852636563696e-03
4.89118644067797e-01 1.14548921778803e+00 9.62348215163858e-03
4.92305084745763e-01 1.13878823607577e+00 9.59829924784956e-03
4.95491525423729e-01 1.13212645434067e+00 9.57298171062153e-03
4.98677966101695e-01 1.12550364326739e+00 9.54753350988249e-03
5.01864406779661e-01 1.11891957489457e+00 9.52195855691386e-03
5.05050847457627e-01 1.11237402256931e+00 9.49626069270088e-03
5.08237288135593e-01 1.10586676097717e+00 9.47044367643674e-03
5.11423728813559e-01 1.09939756613386e+00 9.44451121247590e-03
5.14610169491525e-01 1.09296621534115e+00 9.41846693893043e-03
5.17796610169492e-01 1.08657248721572e+00 9.39231442047768e-03
5.20983050847458e-01 1.08021616166933e+00 9.36605715831208e-03
5.24169491525424e-01 1.07389701991273e+00 9.33969859924371e-03
5.27355932203390e-01 1.06761484441344e+00 9.31324212880088e-03
5.30542372881356e-01 1.06136941892313e+00 9.28669106027026e-03
5.33728813559322e-01 1.05516052846961e+00 9.26004865996053e-03
5.36915254237288e-01 1.04898795931593e+00 9.23331813632434e-03
5.40101694915254e-01 1.04285149898669e+00 9.20650262923687e-03
5.43288135593220e-01 1.03675093626016e+00 9.17960523453628e-03
5.46474576271186e-01 1.03068606112871e+00 9.15262899339468e-03
5.49661016949153e-01 1.02465666482402e+00 9.12557688183164e-03
5.52847457627119e-01 1.01866253980941e+00 9.09845183456074e-03
5.56033898305085e-01 1.01270347974148e+00 9.07125673460598e-03
5.59220338983051e-01 1.00677927949433e+00 9.04399440304688e-03
5.62406779661017e-01 1.00088973515203e+00 9.01666762219566e-03
5.65593220338983e-01 9.95034643971482e-01 8.98927912545437e-03
5.68779661016949e-01 9.89213804405642e-01 8.96183158728685e-03
5.71966101694915e-01 9.83427016096180e-01 8.93432764575397e-03
5.75152542372881e-01 9.77674079837457e-01 8.90676989260283e-03
5.78338983050847e-01 9.71954797598871e-01 8.87916086346734e-03
5.81525423728814e-01 9.66268972517615e-01 8.85150305978325e-03
5.84711864406780e-01 9.60616408863789e-01 8.82379893909863e-03
5.87898305084746e-01 9.54996912061872e-01 8.79605090550456e-03
5.91084745762712e-01 9.49410288683605e-01 8.76826133095129e-03
5.94271186440678e-01 9.43856346414180e-01 8.74043254577666e-03
5.97457627118644e-01 9.38334894072871e-01 8.71256682935838e-03
6.00644067796610e-01 9.32845741606055e-01 8.68466643085433e-03
6.03830508474576e-01 9.27388700054419e-01 8.65673355994433e-03
6.07016949152542e-01 9.21963581572808e-01 8.62877037770029e-03
6.10203389830508e-01 9.16570199423361e-01 8.60077901677105e-03
6.13389830508475e-01 9.11208367943713e-01 8.57276157233092e-03
6.16576271186441e-01 9.05877902566082e-01 8.54472009625587e-03
6.19762711864407e-01 9.00578619802383e-01 8.51665660438338e-03
6.22949152542373e-01 8.95310337245998e-01 8.48857308314468e-03
6.26135593220339e-01 8.90072873541148e-01 8.46047148398868e-03
6.29322033898305e-01 8.84866048401099e-01 8.43235371470117e-03
6.32508474576271e-01 8.79689682601590e-01 8.40422165842889e-03
6.35694915254237e-01 8.74543597951119e-01 8.37607716507908e-03
6.38881355932203e-01 8.69427617308446e-01 8.34792204283534e-03
6.42067796610169e-01 8.64341564576154e-01 8.31975807668146e-03
6.45254237288136e-01 8.59285264671802e-01 8.29158702000276e-03
6.48440677966102e-01 8.54258543544765e-01 8.26341058629537e-03
6.51627118644068e-01 8.49261228169920e-01 8.23523046720626e-03
6.54813559322034e-01 8.44293146519636e-01 8.20704832433167e-03
6.58000000000000e-01 8.39354127579982e-01 8.17886578111369e-03
6.61186440677966e-01 8.34444001344531e-01 8.15068444041445e-03
6.64372881355932e-01 8.29562598787158e-01 8.12250587650500e-03
6.67559322033898e-01 8.24709751877646e-01 8.09433162714653e-03
6.70745762711864e-01 8.19885293575598e-01 8.06616321071316e-03
6.73932203389831e-01 8.15089057804026e-01 8.03800211836466e-03
6.77118644067797e-01 8.10320879464366e-01 8.00984980631119e-03
6.80305084745763e-01 8.05580594430513e-01 7.98170771249857e-03
6.83491525423729e-01 8.00868039523151e-01 7.95357724895897e-03
6.86677966101695e-01 7.96183052524226e-01 7.92545979425547e-03
6.89864406779661e-01 7.91525472171074e-01 7.89735670974208e-03
6.93050847457627e-01 7.86895138131496e-01 7.86926933208773e-03
6.96237288135593e-01 7.82291891017688e-01 7.84119896589975e-03
6.99423728813559e-01 7.77715572380480e-01 7.81314689957086e-03
7.02610169491525e-01 7.73166024685104e-01 7.78511439797203e-03
7.05796610169491e-01 7.68643091324630e-01 7.75710269770148e-03
7.08983050847458e-01 7.64146616608258e-01 7.72911301270553e-03
7.12169491525424e-01 7.59676445761954e-01 7.70114653941658e-03
7.15355932203390e-01 7.55232424905067e-01 7.67320445220342e-03
7.18542372881356e-01 7.50814401063163e-01 7.64528789636304e-03
7.21728813559322e-01 7.46422222162500e-01 7.61739800310237e-03
7.24915254237288e-01 7.42055737007295e-01 7.58953588259452e-03
7.28101694915254e-01 7.37714795292087e-01 7.56170261712969e-03
7.31288135593220e-01 7.33399247596317e-01 7.53389927572225e-03
7.34474576271186e-01 7.29108945362223e-01 7.50612690732873e-03
7.37661016949153e-01 7.24843740906750e-01 7.47838653415335e-03
7.40847457627119e-01 7.20603487416237e-01 7.45067916589406e-03
7.44033898305085e-01 7.16388038924911e-01 7.42300579311776e-03
7.47220338983051e-01 7.12197250326370e-01 7.39536738071688e-03
7.50406779661017e-01 7.08030977368371e-01 7.36776488180364e-03
7.53593220338983e-01 7.03889076631904e-01 7.34019923123884e-03
7.56779661016949e-01 6.99771405542267e-01 7.31267133923592e-03
7.59966101694915e-01 6.95677822363944e-01 7.28518210491406e-03
7.63152542372881e-01 6.91608186180254e-01 7.25773240997621e-03
7.66338983050847e-01 6.87562356904024e-01 7.23032311245991e-03
7.69525423728814e-01 6.83540195272560e-01 7.20295505995824e-03
7.72711864406780e-01 6.79541562827845e-01 7.17562908343911e-03
7.75898305084746e-01 6.75566321926834e-01 7.14834599114090e-03
7.79084745762712e-01 6.71614335736516e-01 7.12110658147257e-03
7.82271186440678e-01 6.67685468214639e-01 7.09391163697232e-03
7.85457627118644e-01 6.63779584119644e-01 7.06676191834188e-03
7.88644067796610e-01 6.59896549005810e-01 7.03965817703493e-03
7.91830508474576e-01 6.56036229204502e-01 7.01260114935130e-03
7.95016949152542e-01 6.52198491833746e-01 6.98559155060865e-03
7.98203389830508e-01 6.48383204793465e-01 6.95863008742698e-03
8.01389830508475e-01 6.44590236747223e-01 6.93171745195464e-03
8.04576271186441e-01 6.40819457131465e-01 6.90485431808999e-03
8.07762711864407e-01 6.37070736146420e-01 6.87804134579626e-03
8.10949152542373e-01 6.33343944756012e-01 6.85127918504452e-03
8.14135593220339e-01 6.29638954670216e-01 6.82456847219627e-03
8.17322033898305e-01 6.25955638353899e-01 6.79790982446235e-03
8.20508474576271e-01 6.22293869022254e-01 6.77130385154318e-03
8.23694915254237e-01 6.18653520623607e-01 6.74475115014103e-03
8.26881355932203e-01 6.15034467847957e-01 6.71825229854295e-03
8.30067796610169e-01 6.11436586122484e-01 6.69180786798301e-03
8.33254237288136e-01 6.07859751594814e-01 6.66541841728059e-03
8.36440677966102e-01 6.04303841141252e-01 6.63908448754373e-03
8.39627118644068e-01 6.00768732362377e-01 6.61280661325925e-03
8.42813559322034e-01 5.97254303566741e-01 6.58658531705668e-03
8.46000000000000e-01 5.93760433778809e-01 6.56042110452834e-03
8.49186440677966e-01 5.90287002734644e-01 6.53431447505685e-03
8.52372881355932e-01 5.86833890866015e-01 6.50826591669651e-03
8.55559322033898e-01 5.83400979308074e-01 6.48227590111099e-03
8.58745762711864e-01 5.79988149895104e-01 6.45634489414492e-03
8.61932203389830e-01 5.76595285145052e-01 6.43047335081802e-03
8.65118644067797e-01 5.73222268266926e-01 6.40466171037941e-03
8.68305084745763e-01 5.69868983156628e-01 6.37891040663047e-03
8.71491525423729e-01 5.66535314381878e-01 6.35321986302959e-03
8.74677966101695e-01 5.63221147189361e-01 6.32759048785731e-03
8.77864406779661e-01 5.59926367500629e-01 6.30202268429813e-03
8.81050847457627e-01 5.56650861897411e-01 6.27651684565393e-03
8.84237288135593e-01 5.53394517628516e-01 6.25107335061859e-03
8.87423728813559e-01 5.50157222605806e-01 6.22569257312286e-03
8.90610169491525e-01 5.46938865389879e-01 6.20037487765435e-03
8.93796610169492e-01 5.43739335196736e-01 6.17512061618179e-03
8.96983050847458e-01 5.40558521890451e-01 6.14993013159093e-03
9.00169491525424e-01 5.37396315982733e-01 6.12480376082775e-03
9.03355932203390e-01 5.34252608619059e-01 6.09974183195175e-03
9.06542372881356e-01 5.31127291585065e-01 6.07474465964216e-03
9.09728813559322e-01 5.28020257302688e-01 6.04981255454028e-03
9.12915254237288e-01 5.24931398816647e-01 6.02494581879759e-03
9.16101694915254e-01 5.21860609800615e-01 6.00014474168153e-03
9.19288135593220e-01 5.18807784553430e-01 5.97540960870127e-03
9.22474576271186e-01 5.15772817985915e-01 5.95074069725592e-03
9.25661016949153e-01 5.12755605626840e-01 5.92613827233643e-03
9.28847457627119e-01 5.09756043619196e-01 5.90160259544113e-03
9.32033898305085e-01 5.06774028707354e-01 5.87713392032106e-03
9.35220338983051e-01 5.03809458242811e-01 5.85273248877646e-03
9.38406779661017e-01 5.00862230180541e-01 5.82839853936748e-03
9.41593220338983e-01 4.97932243066468e-01 5.80413230325389e-03
9.44779661016949e-01 4.95019396043016e-01 5.77993400008461e-03
9.47966101694915e-01 4.92123588845530e-01 5.75580384650739e-03
9.51152542372881e-01 4.89244721790051e-01 5.73174205210208e-03
9.54338983050847e-01 4.86382695778688e-01 5.70774881536050e-03
9.57525423728814e-01 4.83537412296091e-01 5.68382433200112e-03
9.60711864406780e-01 4.80708773397537e-01 5.65996879099172e-03
9.63898305084746e-01 4.77896681714114e-01 5.63618237061824e-03
9.67084745762712e-01 4.75101040449262e-01 5.61246524661012e-03
9.70271186440678e-01 4.72321753367146e-01 5.58881758824944e-03
9.73457627118644e-01 4.69558724797669e-01 5.56523955452773e-03
9.76644067796610e-01 4.66811859633070e-01 5.54173130208550e-03
9.79830508474576e-01 4.64081063316589e-01 5.51829298140670e-03
9.83016949152542e-01 4.61366241847302e-01 5.49492473306095e-03
9.86203389830508e-01 4.58667301776788e-01 5.47162669546221e-03
9.89389830508475e-01 4.55984150198059e-01 5.44839900114579e-03
9.92576271186441e-01 4.53316694750249e-01 5.42524177431467e-03
9.95762711864407e-01 4.50664843612787e-01 5.40215513353510e-03
9.98949152542373e-01 4.48028505504760e-01 5.37913919060173e-03
1.00213559322034e+00 4.45407589681637e-01 5.35619405783762e-03
1.00532203389831e+00 4.42802005919765e-01 5.33331984086548e-03
