Energy (eV)          EEDF (eV^-(3/2))     First Anisotropy
3.58461538461538e-02 2.51258298729639e-01 2.58043085446057e-04
1.07538461538462e-01 2.44668414320096e-01 4.21933126293889e-04
1.79230769230769e-01 2.38251366310996e-01 5.46062328446540e-04
2.50923076923077e-01 2.32002621606420e-01 6.33960751946804e-04
3.22615384615385e-01 2.25917766029412e-01 7.02148327744405e-04
3.94307692307692e-01 2.19992501193159e-01 7.57065780250043e-04
4.66000000000000e-01 2.14222641409698e-01 8.02142789395338e-04
5.37692307692308e-01 2.08604110789462e-01 8.39507016841982e-04
6.09384615384615e-01 2.03132940343194e-01 8.70605961042914e-04
6.81076923076923e-01 1.97805265186946e-01 8.96487509780203e-04
7.52769230769231e-01 1.92617321785000e-01 9.17944968028014e-04
8.24461538461538e-01 1.87565445318978e-01 9.35599498960450e-04
8.96153846153846e-01 1.82646067095526e-01 9.49950415261015e-04
9.67846153846154e-01 1.77855712007271e-01 9.61407579295335e-04
1.03953846153846e+00 1.73190996086684e-01 9.70313210789072e-04
1.11123076923077e+00 1.68648624130903e-01 9.76957102738939e-04
1.18292307692308e+00 1.64225387400127e-01 9.81587569805046e-04
1.25461538461538e+00 1.59918161232063e-01 9.84419513965305e-04
1.32630769230769e+00 1.55723902957159e-01 9.85640505412814e-04
1.39800000000000e+00 1.51639649707692e-01 9.85415464992115e-04
1.46969230769231e+00 1.47662516352050e-01 9.83890323038560e-04
1.54138461538462e+00 1.43789693371968e-01 9.81194916788694e-04
1.61307692307692e+00 1.40018444964727e-01 9.77445319204014e-04
1.68476923076923e+00 1.36346107080769e-01 9.72745740889058e-04
1.75646153846154e+00 1.32770085562520e-01 9.67190093435200e-04
1.82815384615385e+00 1.29287854248815e-01 9.60863283337535e-04
1.89984615384615e+00 1.25896953254893e-01 9.53842295740305e-04
1.97153846153846e+00 1.22594987212406e-01 9.46197116860080e-04
2.04323076923077e+00 1.19379623577796e-01 9.37991512871050e-04
2.11492307692308e+00 1.16248590999174e-01 9.29283702930480e-04
2.18661538461538e+00 1.13199677666078e-01 9.20126934560356e-04
2.25830769230769e+00 1.10230729793859e-01 9.10569982380899e-04
2.33000000000000e+00 1.07339650086351e-01 9.00657587739777e-04
2.40169230769231e+00 1.04524396265996e-01 8.90430843335378e-04
2.47338461538462e+00 1.01782979595166e-01 8.79927528698162e-04
2.54507692307692e+00 9.91134635081014e-02 8.69182406586673e-04
2.61676923076923e+00 9.65139622303258e-02 8.58227490094176e-04
2.68846153846154e+00 9.39826394559621e-02 8.47092280105982e-04
2.76015384615385e+00 9.15177070217787e-02 8.35803974953457e-04
2.83184615384615e+00 8.91174236733956e-02 8.24387658304773e-04
2.90353846153846e+00 8.67800938251443e-02 8.12866472251626e-04
2.97523076923077e+00 8.45040663624404e-02 8.01261769842551e-04
3.04692307692308e+00 8.22877334825846e-02 7.89593256408168e-04
3.11861538461538e+00 8.01295295367615e-02 7.77879114756884e-04
3.19030769230769e+00 7.80279299467678e-02 7.66136118863695e-04
3.26200000000000e+00 7.59814501203293e-02 7.54379740269446e-04
3.33369230769231e+00 7.39886444082953e-02 7.42624244832680e-04
3.40538461538462e+00 7.20481050652108e-02 7.30882779312841e-04
3.47707692307692e+00 7.01584612734601e-02 7.19167450611561e-04
3.54876923076923e+00 6.83183781685677e-02 7.07489400927069e-04
3.62046153846154e+00 6.65265559011654e-02 6.95858876520181e-04
3.69215384615385e+00 6.47817287037385e-02 6.84285289382674e-04
3.76384615384615e+00 6.30826640118090e-02 6.72777274017715e-04
3.83553846153846e+00 6.14281615879849e-02 6.61342742342654e-04
3.90723076923077e+00 5.98170526741594e-02 6.49988932187065e-04
3.97892307692308e+00 5.82481991697667e-02 6.38722454242169e-04
4.05061538461538e+00 5.67204928158326e-02 6.27549333701773e-04
4.12230769230769e+00 5.52328544243212e-02 6.16475048821480e-04
4.19400000000000e+00 5.37842331116363e-02 6.05504568468551e-04
4.26569230769231e+00 5.23736055595343e-02 5.94642386776581e-04
4.33738461538462e+00 5.09999752822153e-02 5.83892554166937e-04
4.40907692307692e+00 4.96623719326249e-02 5.73258706169819e-04
4.48076923076923e+00 4.83598506135062e-02 5.62744091786461e-04
4.55246153846154e+00 4.70914912126780e-02 5.52351599720339e-04
4.62415384615385e+00 4.58563977446292e-02 5.42083781794956e-04
4.69584615384615e+00 4.46536977261828e-02 5.31942874764446e-04
4.76753846153846e+00 4.34825415572234e-02 5.21930822249598e-04
4.83923076923077e+00 4.23421019205586e-02 5.12049293798859e-04
4.91092307692308e+00 4.12315731997150e-02 5.02299704019235e-04
4.98261538461538e+00 4.01501709029935e-02 4.92683229279408e-04
5.05430769230769e+00 3.90971311162838e-02 4.83200823300269e-04
5.12600000000000e+00 3.80717099610566e-02 4.73853232862238e-04
5.19769230769231e+00 3.70731830707754e-02 4.64641012361043e-04
5.26938461538462e+00 3.61008450733881e-02 4.55564536661712e-04
5.34107692307692e+00 3.51540090989685e-02 4.46624013108471e-04
5.41276923076923e+00 3.42320062924870e-02 4.37819493750302e-04
5.48446153846154e+00 3.33341853429446e-02 4.29150886668851e-04
5.55615384615385e+00 3.24599120183391e-02 4.20617965918295e-04
5.62784615384615e+00 3.16085687226743e-02 4.12220380816687e-04
5.69953846153846e+00 3.07795540579635e-02 4.03957665670432e-04
5.77123076923077e+00 2.99722823994082e-02 3.95829247966148e-04
5.84292307692308e+00 2.91861834830280e-02 3.87834456903609e-04
5.91461538461538e+00 2.84207019987551e-02 3.79972530627761e-04
5.98630769230769e+00 2.76752972023026e-02 3.72242622988335e-04
6.05800000000000e+00 2.69494425317712e-02 3.64643810602256e-04
6.12969230769231e+00 2.62426252368157e-02 3.57175099381485e-04
6.20138461538462e+00 2.55543460129539e-02 3.49835430146943e-04
6.27307692307692e+00 2.48841186523998e-02 3.42623683871929e-04
6.34476923076923e+00 2.42314696993940e-02 3.35538687230559e-04
6.41646153846154e+00 2.35959381167278e-02 3.28579217715860e-04
6.48815384615385e+00 2.29770749570778e-02 3.21744007991900e-04
6.55984615384615e+00 2.23744430489062e-02 3.15031749953394e-04
6.63153846153846e+00 2.17876166866005e-02 3.08441099190413e-04
6.70323076923077e+00 2.12161813297572e-02 3.01970678563109e-04
6.77492307692308e+00 2.06597333111522e-02 2.95619082105596e-04
6.84661538461538e+00 2.01178795491085e-02 2.89384878174191e-04
6.91830769230769e+00 1.95902372723451e-02 2.83266612376768e-04
6.99000000000000e+00 1.90764337487264e-02 2.77262810785604e-04
7.06169230769231e+00 1.85761060226571e-02 2.71371982879543e-04
7.13338461538462e+00 1.80889006565524e-02 2.65592623958222e-04
7.20507692307692e+00 1.76144734833417e-02 2.59923217381714e-04
7.27676923076923e+00 1.71524893626051e-02 2.54362237075893e-04
7.34846153846154e+00 1.67026219444303e-02 2.48908149815925e-04
7.42015384615385e+00 1.62645534370337e-02 2.43559417060469e-04
7.49184615384615e+00 1.58379743841461e-02 2.38314496646219e-04
7.56353846153846e+00 1.54225834457695e-02 2.33171844800651e-04
7.63523076923077e+00 1.50180871853109e-02 2.28129917613332e-04
7.70692307692308e+00 1.46241998627969e-02 2.23187172769903e-04
7.77861538461539e+00 1.42406432314845e-02 2.18342070827107e-04
7.85030769230769e+00 1.38671463428739e-02 2.13593076382149e-04
7.92200000000000e+00 1.35034453547750e-02 2.08938659466989e-04
7.99369230769231e+00 1.31492833453625e-02 2.04377296798728e-04
8.06538461538462e+00 1.28044101303501e-02 1.99907472712038e-04
8.13707692307692e+00 1.24685820876162e-02 1.95527680006800e-04
8.20876923076923e+00 1.21415619846452e-02 1.91236421001848e-04
8.28046153846154e+00 1.18231188113222e-02 1.87032208469572e-04
8.35215384615385e+00 1.15130276155893e-02 1.82913566297416e-04
8.42384615384615e+00 1.12110693457149e-02 1.78879030081383e-04
8.49553846153846e+00 1.09170306951518e-02 1.74927147955409e-04
8.56723076923077e+00 1.06307039518576e-02 1.71056481082112e-04
8.63892307692308e+00 1.03518868518805e-02 1.67265604340301e-04
8.71061538461539e+00 1.00803824355072e-02 1.63553106726196e-04
8.78230769230769e+00 9.81599890911812e-03 1.59917591703238e-04
8.85400000000000e+00 9.55854950936645e-03 1.56357677720347e-04
8.92569230769231e+00 9.30785237152272e-03 1.52871998651651e-04
8.99738461538462e+00 9.06373040015900e-03 1.49459204039793e-04
9.06907692307692e+00 8.82601114490737e-03 1.46117959298169e-04
9.14076923076923e+00 8.59452667834661e-03 1.42846946066018e-04
9.21246153846154e+00 8.36911347761733e-03 1.39644862498236e-04
9.28415384615385e+00 8.14961230817262e-03 1.36510423385453e-04
9.35584615384615e+00 7.93586811204207e-03 1.33442360241439e-04
9.42753846153846e+00 7.72772989804198e-03 1.30439421561068e-04
9.49923076923077e+00 7.52505063511478e-03 1.27500372862787e-04
9.57092307692308e+00 7.32768714866687e-03 1.24623996874473e-04
9.64261538461538e+00 7.13550001880851e-03 1.21809093537609e-04
9.71430769230769e+00 6.94835348249800e-03 1.19054479987138e-04
9.78600000000000e+00 6.76611533742282e-03 1.16358990654228e-04
9.85769230769231e+00 6.58865684878733e-03 1.13721477325773e-04
9.92938461538462e+00 6.41585265783226e-03 1.11140809080522e-04
1.00010769230769e+01 6.24758069383108e-03 1.08615872256717e-04
1.00727692307692e+01 6.08372208734967e-03 1.06145570325324e-04
1.01444615384615e+01 5.92416108741315e-03 1.03728823962924e-04
1.02161538461538e+01 5.76878497841134e-03 1.01364571095858e-04
1.02878461538462e+01 5.61748400098644e-03 9.90517666029932e-05
1.03595384615385e+01 5.47015127449673e-03 9.67893823121778e-05
1.04312307692308e+01 5.32668272151726e-03 9.45764069018437e-05
1.05029230769231e+01 5.18697699431715e-03 9.24118457933761e-05
1.05746153846154e+01 5.05093540326646e-03 9.02947210339721e-05
1.06463076923077e+01 4.91846184712072e-03 8.82240711714860e-05
1.07180000000000e+01 4.78946274513402e-03 8.61989513081023e-05
1.07896923076923e+01 4.66384696981114e-03 8.42184323908507e-05
1.08613846153846e+01 4.54152578602703e-03 8.22816014495148e-05
1.09330769230769e+01 4.42241278477918e-03 8.03875618487364e-05
1.10047692307692e+01 4.30642382336005e-03 7.85354325176880e-05
1.10764615384615e+01 4.19347696591773e-03 7.67243479963372e-05
1.11481538461538e+01 4.08349242557553e-03 7.49534582689322e-05
1.12198461538462e+01 3.97639250806970e-03 7.32219285936533e-05
1.12915384615385e+01 3.87210155686463e-03 7.15289393283813e-05
1.13632307692308e+01 3.77054589970970e-03 6.98736857535364e-05
1.14349230769231e+01 3.67165379659563e-03 6.82553778923783e-05
1.15066153846154e+01 3.57535538907654e-03 6.66732403284815e-05
1.15783076923077e+01 3.48158265092121e-03 6.51265120212099e-05
1.16500000000000e+01 3.39026934005858e-03 6.36144462459678e-05
1.17216923076923e+01 3.30135095104018e-03 6.21363100194543e-05
1.17933846153846e+01 3.21476467174762e-03 6.06913841712086e-05
1.18650769230769e+01 3.13044933670064e-03 5.92789634278640e-05
1.19367692307692e+01 3.04834538463859e-03 5.78983558060387e-05
1.20084615384615e+01 2.96839481644573e-03 5.65488825623587e-05
1.20801538461538e+01 2.89054115417999e-03 5.52298780016972e-05
1.21518461538462e+01 2.81472940117637e-03 5.39406892853489e-05
1.22235384615385e+01 2.74090600319624e-03 5.26806762390435e-05
1.22952307692308e+01 2.66901881059696e-03 5.14492111613358e-05
1.23669230769231e+01 2.59901704149228e-03 5.02456786325411e-05
1.24386153846154e+01 2.53085124587952e-03 4.90694753239726e-05
1.25103076923077e+01 2.46447327070752e-03 4.79200098079463e-05
1.25820000000000e+01 2.39983622586082e-03 4.67967024548356e-05
1.26536923076923e+01 2.33689445054851e-03 4.56989849813033e-05
1.27253846153846e+01 2.27560348254017e-03 4.46263004406426e-05
1.27970769230769e+01 2.21592002523622e-03 4.35781032236696e-05
1.28687692307692e+01 2.15780191760002e-03 4.25538585904718e-05
1.29404615384615e+01 2.10120810437487e-03 4.15530425833289e-05
1.30121538461538e+01 2.04609860708215e-03 4.05751418447319e-05
1.30838461538462e+01 1.99243449578007e-03 3.96196534369588e-05
1.31555384615385e+01 1.94017786156286e-03 3.86860846630934e-05
1.32272307692308e+01 1.88929178978208e-03 3.77739528897901e-05
1.32989230769231e+01 1.83974033396938e-03 3.68827853718437e-05
1.33706153846154e+01 1.79148849044358e-03 3.60121190783733e-05
1.34423076923077e+01 1.74450217358363e-03 3.51615005208701e-05
1.35140000000000e+01 1.69874819175021e-03 3.43304856420065e-05
1.35856923076923e+01 1.65419422351746e-03 3.35186394674434e-05
1.36573846153846e+01 1.61080879582360e-03 3.27255360608042e-05
1.37290769230769e+01 1.56856126073567e-03 3.19507584870636e-05
1.38007692307692e+01 1.52742177414037e-03 3.11938984566325e-05
1.38724615384615e+01 1.48736127466179e-03 3.04545562308692e-05
1.39441538461538e+01 1.44835146313223e-03 2.97323404638419e-05
1.40158461538462e+01 1.41036478260128e-03 2.90268680461757e-05
1.40875384615385e+01 1.37337439886917e-03 2.83377639508899e-05
1.41592307692308e+01 1.33735418153112e-03 2.76646610813798e-05
1.42309230769231e+01 1.30227868551838e-03 2.70072001215577e-05
1.43026153846154e+01 1.26812313312354e-03 2.63650293880027e-05
1.43743076923077e+01 1.23486339649727e-03 2.57378046842497e-05
1.44460000000000e+01 1.20247598060419e-03 2.51251891975249e-05
1.45176923076923e+01 1.17093800641290e-03 2.45268532340222e-05
1.45893846153846e+01 1.14022719538484e-03 2.39424741625201e-05
1.46610769230769e+01 1.11032185307274e-03 2.33717363645403e-05
1.47327692307692e+01 1.08120085402120e-03 2.28143309666289e-05
1.48044615384615e+01 1.05284362684331e-03 2.22699557523266e-05
1.48761538461538e+01 1.02523013968889e-03 2.17383150311872e-05
1.49478461538462e+01 9.98340886093740e-04 2.12191195098917e-05
1.50195384615385e+01 9.72156871199968e-04 2.07120861653754e-05
1.50912307692308e+01 9.46659598338015e-04 2.02169381200501e-05
1.51629230769231e+01 9.21831055960305e-04 1.97334045191080e-05
1.52346153846154e+01 8.97653704917693e-04 1.92612204097936e-05
1.53063076923077e+01 8.74110466069616e-04 1.88001266227105e-05
1.53780000000000e+01 8.51184708219207e-04 1.83498696827999e-05
1.54496923076923e+01 8.28860236223305e-04 1.79102016100753e-05
1.55213846153846e+01 8.07121279984854e-04 1.74808798638055e-05
1.55930769230769e+01 7.85952482871418e-04 1.70616672916981e-05
1.56647692307692e+01 7.65338891017120e-04 1.66523319300854e-05
1.57364615384615e+01 7.45265942759071e-04 1.62526469278506e-05
1.58081538461538e+01 7.25719458350855e-04 1.58623904413468e-05
1.58798461538462e+01 7.06685629945799e-04 1.54813455311946e-05
1.59515384615385e+01 6.88151011842902e-04 1.51093000608894e-05
1.60232307692308e+01 6.70102510988771e-04 1.47460465972579e-05
1.60949230769231e+01 6.52527377728480e-04 1.43913823127456e-05
1.61666153846154e+01 6.35413196799077e-04 1.40451088894455e-05
1.62383076923077e+01 6.18747878559304e-04 1.37070324249002e-05
1.63100000000000e+01 6.02519650449348e-04 1.33769633586635e-05
1.63816923076923e+01 5.86717048580104e-04 1.30547163234375e-05
1.64533846153846e+01 5.71328909923843e-04 1.27401100951482e-05
1.65250769230769e+01 5.56344364134002e-04 1.24329675467950e-05
1.65967692307692e+01 5.41752825966375e-04 1.21331155002102e-05
1.66684615384615e+01 5.27543987801579e-04 1.18403846631793e-05
1.67401538461538e+01 5.13707812363640e-04 1.15546095469258e-05
1.68118461538462e+01 5.00234525629555e-04 1.12756283851829e-05
1.68835384615385e+01 4.87114609924775e-04 1.10032830547936e-05
1.69552307692308e+01 4.74338797199898e-04 1.07374189978590e-05
1.70269230769231e+01 4.61898062483577e-04 1.04778851454116e-05
1.70986153846154e+01 4.49783617507179e-04 1.02245338425468e-05
1.71703076923077e+01 4.37986904496663e-04 9.97722077502625e-06
1.72420000000000e+01 4.26499590127271e-04 9.73580491041691e-06
1.73136923076923e+01 4.15313559573511e-04 9.50014838753751e-06
1.73853846153846e+01 4.04420910970205e-04 9.27011647424811e-06
1.74570769230769e+01 3.93813949633320e-04 9.04557752806420e-06
1.75287692307692e+01 3.83485182691386e-04 8.82640288670018e-06
1.76004615384615e+01 3.73427313792453e-04 8.61246681758773e-06
1.76721538461538e+01 3.63633237949871e-04 8.40364645408022e-06
1.77438461538462e+01 3.54096036523247e-04 8.19982173294627e-06
1.78155384615385e+01 3.44808972331020e-04 8.00087533310812e-06
1.78872307692308e+01 3.35765484891295e-04 7.80669261563057e-06
1.79589230769231e+01 3.26959185787416e-04 7.61716156493972e-06
1.80306153846154e+01 3.18383854155126e-04 7.43217273122208e-06
1.81023076923077e+01 3.10033432288077e-04 7.25161917400605e-06
1.81740000000000e+01 3.01902021358600e-04 7.07539641592969e-06
1.82456923076923e+01 2.93983877208221e-04 6.90340236102616e-06
1.83173846153846e+01 2.86273406419838e-04 6.73553726028211e-06
1.83890769230769e+01 2.78765162234043e-04 6.57170367929673e-06
1.84607692307692e+01 2.71453840746478e-04 6.41180641777349e-06
1.85324615384615e+01 2.64334277161100e-04 6.25575246981300e-06
1.86041538461538e+01 2.57401442141717e-04 6.10345097516480e-06
1.86758461538462e+01 2.50650438259207e-04 5.95481317149967e-06
1.87475384615385e+01 2.44076496531907e-04 5.80975234767091e-06
1.88192307692308e+01 2.37674973056783e-04 5.66818379796314e-06
1.88909230769231e+01 2.31441345728913e-04 5.53002477730968e-06
1.89626153846154e+01 2.25371211047021e-04 5.39519445744343e-06
1.90343076923077e+01 2.19460281002797e-04 5.26361388397777e-06
1.91060000000000e+01 2.13704380051799e-04 5.13520594063041e-06
1.91776923076923e+01 2.08099442135195e-04 5.00989528905830e-06
1.92493846153846e+01 2.02641507894928e-04 4.88760834143240e-06
1.93210769230769e+01 1.97326721787620e-04 4.76827323456594e-06
1.93927692307692e+01 1.92151329391278e-04 4.65181977088689e-06
1.94644615384615e+01 1.87111674753125e-04 4.53817938767368e-06
1.95361538461538e+01 1.82204197807001e-04 4.42728512014227e-06
1.96078461538462e+01 1.77425431858489e-04 4.31907156532847e-06
1.96795384615385e+01 1.72772001135999e-04 4.21347484674054e-06
1.97512307692308e+01 1.68240618406105e-04 4.11043257977857e-06
1.98229230769231e+01 1.63828082651395e-04 4.00988383790592e-06
1.98946153846154e+01 1.59531276809241e-04 3.91176911954496e-06
1.99663076923077e+01 1.55347165569872e-04 3.81603031569338e-06
2.00380000000000e+01 1.51272793232196e-04 3.72261068255328e-06
2.01096923076923e+01 1.47305281596548e-04 3.63145479737471e-06
2.01813846153846e+01 1.43441827990543e-04 3.54250853700042e-06
2.02530769230769e+01 1.39679703229059e-04 3.45571905755391e-06
2.03247692307692e+01 1.36016249706762e-04 3.37103475127708e-06
2.03964615384615e+01 1.32448879520743e-04 3.28840522296822e-06
2.04681538461538e+01 1.28975072642395e-04 3.20778126223355e-06
2.05398461538462e+01 1.25592375137241e-04 3.12911481634962e-06
2.06115384615385e+01 1.22298397431439e-04 3.05235896371849e-06
2.06832307692308e+01 1.19090812623774e-04 2.97746788791081e-06
2.07549230769231e+01 1.15967354841907e-04 2.90439685228470e-06
2.08266153846154e+01 1.12925817641733e-04 2.83310217516076e-06
2.08983076923077e+01 1.09964052448727e-04 2.76354120554809e-06
2.09700000000000e+01 1.07079967040171e-04 2.69567230239069e-06
2.10416923076923e+01 1.04271524054114e-04 2.62945480224856e-06
2.11133846153846e+01 1.01536739590103e-04 2.56484900273495e-06
2.11850769230769e+01 9.88736817670230e-05 2.50181614679259e-06
2.12567692307692e+01 9.62804693722336e-05 2.44031839120442e-06
2.13284615384615e+01 9.37552705326552e-05 2.38031878871074e-06
2.14001538461538e+01 9.12963014207160e-05 2.32178126727290e-06
2.14718461538462e+01 8.89018249942368e-05 2.26467060980198e-06
2.15435384615385e+01 8.65701497693613e-05 2.20895243433843e-06
2.16152307692308e+01 8.42996286256823e-05 2.15459317467797e-06
2.16869230769231e+01 8.20886576426938e-05 2.10156006143482e-06
2.17586153846154e+01 7.99356749667638e-05 2.04982110352726e-06
2.18303076923077e+01 7.78391597078242e-05 1.99934507008093e-06
2.19020000000000e+01 7.57976308649981e-05 1.95010147480550e-06
2.19736923076923e+01 7.38096462715482e-05 1.90206055239498e-06
2.20453846153846e+01 7.18738016031847e-05 1.85519324587429e-06
2.21170769230769e+01 6.99887293584487e-05 1.80947119455965e-06
2.21887692307692e+01 6.81530979020680e-05 1.76486671113042e-06
2.22604615384615e+01 6.63656105242750e-05 1.72135276815552e-06
2.23321538461538e+01 6.46250045247977e-05 1.67890298267320e-06
2.24038461538462e+01 6.29300503208740e-05 1.63749160112164e-06
2.24755384615385e+01 6.12795505786587e-05 1.59709348460997e-06
2.25472307692308e+01 5.96723393674195e-05 1.55768409452580e-06
2.26189230769231e+01 5.81072813359081e-05 1.51923947847183e-06
