Energy (eV)          EEDF (eV^-(3/2))     First Anisotropy
1.30416666666667e-01 4.07003814531181e-02 4.35786706844923e-05
3.91250000000000e-01 3.95466971283988e-02 7.11801731833773e-05
6.52083333333333e-01 3.84257148912971e-02 9.19203944231453e-05
9.12916666666667e-01 3.73365077785938e-02 1.06484471432008e-04
1.17375000000000e+00 3.62781751010342e-02 1.17681181423092e-04
1.43458333333333e+00 3.52498416898052e-02 1.26609419127089e-04
1.69541666666667e+00 3.42506572010126e-02 1.33856149816669e-04
1.95625000000000e+00 3.32797953840484e-02 1.39786496869731e-04
2.21708333333333e+00 3.23364534057148e-02 1.44649445564086e-04
2.47791666666667e+00 3.14198511993880e-02 1.48625601617086e-04
2.73875000000000e+00 3.05292308046032e-02 1.51851915185531e-04
2.99958333333333e+00 2.96638557433318e-02 1.54435754685756e-04
3.26041666666667e+00 2.88230104199023e-02 1.56463505661199e-04
3.52125000000000e+00 2.80059995192869e-02 1.58006119348871e-04
3.78208333333333e+00 2.72121474337775e-02 1.59122852316560e-04
4.04291666666667e+00 2.64407977107966e-02 1.59863880778339e-04
4.30375000000000e+00 2.56913125029883e-02 1.60272183373853e-04
4.56458333333333e+00 2.49630720417846e-02 1.60384931384189e-04
4.82541666666667e+00 2.42554741298212e-02 1.60234539509035e-04
5.08625000000000e+00 2.35679336376776e-02 1.59849474855425e-04
5.34708333333333e+00 2.28998820207018e-02 1.59254889641783e-04
5.60791666666667e+00 2.22507668527075e-02 1.58473124701464e-04
5.86875000000000e+00 2.16200513650660e-02 1.57524114991293e-04
6.12958333333333e+00 2.10072140033225e-02 1.56425719486407e-04
6.39041666666667e+00 2.04117479989767e-02 1.55193993543947e-04
6.65125000000000e+00 1.98331609471758e-02 1.53843415481480e-04
6.91208333333333e+00 1.92709743998892e-02 1.52387076215853e-04
7.17291666666667e+00 1.87247234727583e-02 1.50836840222072e-04
7.43375000000000e+00 1.81939564580476e-02 1.49203482726481e-04
7.69458333333333e+00 1.76782344513874e-02 1.47496806980944e-04
7.95541666666667e+00 1.71771309908813e-02 1.45725745974168e-04
8.21625000000000e+00 1.66902317023036e-02 1.43898450764021e-04
8.47708333333333e+00 1.62171339566530e-02 1.42022367199139e-04
8.73791666666667e+00 1.57574465389125e-02 1.40104303622951e-04
8.99875000000000e+00 1.53107893227608e-02 1.38150490544273e-04
9.25958333333333e+00 1.48767929564027e-02 1.36166633099476e-04
9.52041666666667e+00 1.44550985585721e-02 1.34157958011933e-04
9.78125000000000e+00 1.40453574202721e-02 1.32129255468553e-04
1.00420833333333e+01 1.36472307165524e-02 1.30084916281911e-04
1.03029166666667e+01 1.32603892275341e-02 1.28028965467215e-04
1.05637500000000e+01 1.28845130659547e-02 1.25965092975188e-04
1.08245833333333e+01 1.25192914075254e-02 1.23896680004874e-04
1.10854166666667e+01 1.21644222454128e-02 1.21826824122101e-04
1.13462500000000e+01 1.18196121298160e-02 1.19758362599163e-04
1.16070833333333e+01 1.14845759261962e-02 1.17693891103072e-04
1.18679166666667e+01 1.11590365882671e-02 1.15635783098967e-04
1.21287500000000e+01 1.08427249197775e-02 1.13586207539417e-04
1.23895833333333e+01 1.05353793526444e-02 1.11547142878427e-04
1.26504166666667e+01 1.02367457381921e-02 1.09520392022520e-04
1.29112500000000e+01 9.94657712916721e-03 1.07507596028297e-04
1.31720833333333e+01 9.66463357614807e-03 1.05510244764905e-04
1.34329166666667e+01 9.39068193562380e-03 1.03529688607301e-04
1.36937500000000e+01 9.12449567046337e-03 1.01567149192115e-04
1.39545833333333e+01 8.86585466310440e-03 9.96237276253688e-05
1.42154166666667e+01 8.61454503915741e-03 9.77004137410565e-05
1.44762500000000e+01 8.37035898472140e-03 9.57980946452168e-05
1.47370833333333e+01 8.13309457497546e-03 9.39175610929481e-05
1.49979166666667e+01 7.90255561208582e-03 9.20595148942481e-05
1.52587500000000e+01 7.67855145791087e-03 9.02245757662781e-05
1.55195833333333e+01 7.46089687673017e-03 8.84132863238839e-05
1.57804166666667e+01 7.24941188632071e-03 8.66261180535040e-05
1.60412500000000e+01 7.04392160472797e-03 8.48634768521296e-05
1.63020833333333e+01 6.84425610596971e-03 8.31257069538795e-05
1.65629166666667e+01 6.65025028323204e-03 8.14130957823544e-05
1.68237500000000e+01 6.46174370850272e-03 7.97258784571007e-05
1.70845833333333e+01 6.27858050018184e-03 7.80642408945781e-05
1.73454166666667e+01 6.10060919742769e-03 7.64283237719226e-05
1.76062500000000e+01 5.92768263155577e-03 7.48182262127675e-05
1.78670833333333e+01 5.75965780457596e-03 7.32340082414505e-05
1.81279166666667e+01 5.59639577379228e-03 7.16756940357648e-05
1.83887500000000e+01 5.43776153396813e-03 7.01432749543609e-05
1.86495833333333e+01 5.28362390588973e-03 6.86367114802325e-05
1.89104166666667e+01 5.13385543039325e-03 6.71559358996846e-05
1.91712500000000e+01 4.98833226038440e-03 6.57008547971743e-05
1.94320833333333e+01 4.84693405860168e-03 6.42713505927982e-05
1.96929166666667e+01 4.70954390030909e-03 6.28672837548197e-05
1.99537500000000e+01 4.57604817433732e-03 6.14884948607441e-05
2.02145833333333e+01 4.44633648928833e-03 6.01348058102732e-05
2.04754166666667e+01 4.32030158419170e-03 5.88060216562618e-05
2.07362500000000e+01 4.19783923780689e-03 5.75019323103779e-05
2.09970833333333e+01 4.07884818257273e-03 5.62223134954962e-05
2.12579166666667e+01 3.96323002258134e-03 5.49669282628271e-05
2.15187500000000e+01 3.85088915044601e-03 5.37355284048712e-05
2.17795833333333e+01 3.74173266835685e-03 5.25278551978944e-05
2.20404166666667e+01 3.63567031277728e-03 5.13436406597588e-05
2.23012500000000e+01 3.53261437824195e-03 5.01826087207737e-05
2.25620833333333e+01 3.43247964493208e-03 4.90444757966294e-05
2.28229166666667e+01 3.33518330954737e-03 4.79289518311564e-05
2.30837500000000e+01 3.24064491545230e-03 4.68357412661921e-05
2.33445833333333e+01 3.14878628623333e-03 4.57645434773695e-05
2.36054166666667e+01 3.05953146224261e-03 4.47150536379064e-05
2.38662500000000e+01 2.97280663656087e-03 4.36869635211245e-05
2.41270833333333e+01 2.88854009404254e-03 4.26799618252226e-05
2.43879166666667e+01 2.80666215306855e-03 4.16937348877437e-05
2.46487500000000e+01 2.72710510683882e-03 4.07279673484031e-05
2.49095833333333e+01 2.64980316745229e-03 3.97823423840258e-05
2.51704166666667e+01 2.57469241244328e-03 3.88565422981623e-05
2.54312500000000e+01 2.50171073095785e-03 3.79502490670864e-05
2.56920833333333e+01 2.43079777245317e-03 3.70631445021262e-05
2.59529166666667e+01 2.36189489762615e-03 3.61949107347166e-05
2.62137500000000e+01 2.29494512906579e-03 3.53452306645461e-05
2.64745833333333e+01 2.22989310419025e-03 3.45137880633425e-05
2.67354166666667e+01 2.16668503020860e-03 3.37002679722523e-05
2.69962500000000e+01 2.10526863887524e-03 3.29043570679507e-05
2.72570833333333e+01 2.04559314331488e-03 3.21257437193864e-05
2.75179166666667e+01 1.98760919668711e-03 3.13641183115986e-05
2.77787500000000e+01 1.93126885070063e-03 3.06191735430105e-05
2.80395833333333e+01 1.87652551600513e-03 2.98906044445703e-05
2.83004166666667e+01 1.82333392425519e-03 2.91781086418259e-05
2.85612500000000e+01 1.77165009007091e-03 2.84813865944839e-05
2.88220833333333e+01 1.72143127470208e-03 2.78001415856959e-05
2.90829166666667e+01 1.67263595121271e-03 2.71340799323195e-05
2.93437500000000e+01 1.62522376960089e-03 2.64829111760612e-05
2.96045833333333e+01 1.57915552346497e-03 2.58463480492744e-05
2.98654166666667e+01 1.53439311805274e-03 2.52241066417646e-05
3.01262500000000e+01 1.49089953827741e-03 2.46159065513613e-05
3.03870833333333e+01 1.44863881813784e-03 2.40214708314633e-05
3.06479166666667e+01 1.40757601139725e-03 2.34405261214378e-05
3.09087500000000e+01 1.36767716225426e-03 2.28728027632375e-05
3.11695833333333e+01 1.32890927728966e-03 2.23180347349965e-05
3.14304166666667e+01 1.29124029855880e-03 2.17759597509783e-05
3.16912500000000e+01 1.25463907669673e-03 2.12463193498257e-05
3.19520833333333e+01 1.21907534518276e-03 2.07288588177403e-05
3.22129166666667e+01 1.18451969564839e-03 2.02233272630114e-05
3.24737500000000e+01 1.15094355321396e-03 1.97294776806286e-05
3.27345833333333e+01 1.11831915287966e-03 1.92470668679382e-05
3.29954166666667e+01 1.08661951686684e-03 1.87758554780139e-05
3.32562500000000e+01 1.05581843200075e-03 1.83156080646304e-05
3.35170833333333e+01 1.02589042805224e-03 1.78660929927616e-05
3.37779166666667e+01 9.96810756945342e-04 1.74270824744008e-05
3.40387500000000e+01 9.68555372016008e-04 1.69983525972836e-05
3.42995833333333e+01 9.41100908143407e-04 1.65796832321522e-05
3.45604166666667e+01 9.14424662670321e-04 1.61708580540819e-05
3.48212500000000e+01 8.88504576381966e-04 1.57716645578165e-05
3.50820833333333e+01 8.63319215279052e-04 1.53818939633640e-05
3.53429166666667e+01 8.38847753070126e-04 1.50013412254143e-05
3.56037500000000e+01 8.15069953727615e-04 1.46298050377153e-05
3.58645833333333e+01 7.91966154766973e-04 1.42670877382579e-05
3.61254166666667e+01 7.69517251181682e-04 1.39129953089751e-05
3.63862500000000e+01 7.47704679445521e-04 1.35673373712103e-05
3.66470833333333e+01 7.26510402173376e-04 1.32299270914986e-05
3.69079166666667e+01 7.05916893380188e-04 1.29005811734007e-05
3.71687500000000e+01 6.85907123809370e-04 1.25791198457972e-05
3.74295833333333e+01 6.66464546861130e-04 1.22653667700651e-05
3.76904166666667e+01 6.47573085066399e-04 1.19591490256092e-05
3.79512500000000e+01 6.29217116631318e-04 1.16602970924485e-05
3.82120833333333e+01 6.11381462528342e-04 1.13686447604103e-05
3.84729166666667e+01 5.94051374085142e-04 1.10840291096800e-05
3.87337500000000e+01 5.77212520644230e-04 1.08062904889143e-05
3.89945833333333e+01 5.60850977720773e-04 1.05352724269304e-05
3.92554166666667e+01 5.44953215614671e-04 1.02708216093883e-05
3.95162500000000e+01 5.29506088092789e-04 1.00127878534664e-05
3.97770833333333e+01 5.14496821525343e-04 9.76102402240674e-06
4.00379166666667e+01 4.99913004436898e-04 9.51538599926325e-06
4.02987500000000e+01 4.85742577126367e-04 9.27573265901160e-06
4.05595833333333e+01 4.71973821701118e-04 9.04192578621025e-06
4.08204166666667e+01 4.58595352489555e-04 8.81383004659709e-06
4.10812500000000e+01 4.45596106521107e-04 8.59131295736200e-06
4.13420833333333e+01 4.32965334383871e-04 8.37424480810301e-06
4.16029166666667e+01 4.20692591427808e-04 8.16249863092519e-06
4.18637500000000e+01 4.08767729033395e-04 7.95595016948217e-06
4.21245833333333e+01 3.97180886224761e-04 7.75447780333944e-06
4.23854166666667e+01 3.85922481598362e-04 7.55796251711932e-06
4.26462500000000e+01 3.74983205314894e-04 7.36628786881434e-06
4.29070833333333e+01 3.64354011405499e-04 7.17933991761565e-06
4.31679166666667e+01 3.54026110366138e-04 6.99700719255357e-06
4.34287500000000e+01 3.43990961812806e-04 6.81918066049776e-06
4.36895833333333e+01 3.34240267423530e-04 6.64575365746410e-06
4.39504166666667e+01 3.24765964143587e-04 6.47662185712060e-06
4.42112500000000e+01 3.15560217449028e-04 6.31168323881410e-06
4.44720833333333e+01 3.06615414871942e-04 6.15083802233354e-06
4.47329166666667e+01 2.97924159766160e-04 5.99398863658278e-06
4.49937500000000e+01 2.89479265128682e-04 5.84103968791016e-06
4.52545833333333e+01 2.81273747659988e-04 5.69189789827784e-06
4.55154166666667e+01 2.73300822044056e-04 5.54647207434502e-06
4.57762500000000e+01 2.65553895281425e-04 5.40467307632221e-06
4.60370833333333e+01 2.58026561240366e-04 5.26641375947367e-06
4.62979166666667e+01 2.50712595408791e-04 5.13160894380643e-06
4.65587500000000e+01 2.43605949696575e-04 5.00017538362513e-06
4.68195833333333e+01 2.36700747437011e-04 4.87203171227735e-06
4.70804166666667e+01 2.29991278571711e-04 4.74709841260188e-06
4.73412500000000e+01 2.23471994883301e-04 4.62529778732108e-06
4.76020833333333e+01 2.17137505409946e-04 4.50655390692645e-06
4.78629166666667e+01 2.10982572027555e-04 4.39079258100412e-06
4.81237500000000e+01 2.05002105077176e-04 4.27794132956917e-06
4.83845833333333e+01 1.99191159158470e-04 4.16792933397889e-06
4.86454166666667e+01 1.93544929076445e-04 4.06068740922425e-06
4.89062500000000e+01 1.88058745830861e-04 3.95614797628337e-06
4.91670833333333e+01 1.82728072757336e-04 3.85424501594253e-06
4.94279166666667e+01 1.77548501808546e-04 3.75491404211814e-06
4.96887500000000e+01 1.72515749875655e-04 3.65809207528291e-06
4.99495833333333e+01 1.67625655248317e-04 3.56371759907159e-06
5.02104166666667e+01 1.62874174202769e-04 3.47173053467615e-06
5.04712500000000e+01 1.58257377627773e-04 3.38207221537936e-06
5.07320833333333e+01 1.53771447777170e-04 3.29468534581940e-06
5.09929166666667e+01 1.49412675139549e-04 3.20951397748448e-06
5.12537500000000e+01 1.45177455343479e-04 3.12650348437241e-06
5.15145833333333e+01 1.41062286178442e-04 3.04560052478761e-06
5.17754166666667e+01 1.37063764722848e-04 2.96675301794661e-06
5.20362500000000e+01 1.33178584505430e-04 2.88991012076912e-06
5.22970833333333e+01 1.29403532772376e-04 2.81502219208165e-06
5.25579166666667e+01 1.25735487852379e-04 2.74204077033410e-06
5.28187500000000e+01 1.22171416552982e-04 2.67091855151661e-06
5.30795833333333e+01 1.18708371653561e-04 2.60160935564584e-06
5.33404166666667e+01 1.15343489487855e-04 2.53406810558273e-06
5.36012500000000e+01 1.12073987555813e-04 2.46825080606138e-06
5.38620833333333e+01 1.08897162223751e-04 2.40411451233611e-06
5.41229166666667e+01 1.05810386506432e-04 2.34161731008302e-06
5.43837500000000e+01 1.02811107876558e-04 2.28071829551977e-06
5.46445833333333e+01 9.98968461549960e-05 2.22137754609489e-06
5.49054166666667e+01 9.70651914759295e-05 2.16355610144959e-06
5.51662500000000e+01 9.43138022776380e-05 2.10721594460179e-06
5.54270833333333e+01 9.16404033670810e-05 2.05231997456276e-06
5.56879166666667e+01 8.90427840530206e-05 1.99883198833084e-06
5.59487500000000e+01 8.65187963030756e-05 1.94671666310857e-06
5.62095833333333e+01 8.40663529682547e-05 1.89593953073599e-06
5.64704166666667e+01 8.16834260701895e-05 1.84646696068399e-06
5.67312500000000e+01 7.93680451106994e-05 1.79826614327042e-06
5.69920833333333e+01 7.71182954430540e-05 1.75130506580322e-06
5.72529166666667e+01 7.49323167006006e-05 1.70555249653886e-06
5.75137500000000e+01 7.28083012462130e-05 1.66097796886068e-06
5.77745833333333e+01 7.07444926781584e-05 1.61755175902967e-06
5.80354166666667e+01 6.87391843884505e-05 1.57524487107096e-06
5.82962500000000e+01 6.67907181406023e-05 1.53402902187643e-06
5.85570833333333e+01 6.48974826989746e-05 1.49387662046541e-06
5.88179166666667e+01 6.30579125061472e-05 1.45476075376118e-06
5.90787500000000e+01 6.12704863783571e-05 1.41665517257855e-06
5.93395833333333e+01 5.95337262481214e-05 1.37953427230141e-06
5.96004166666667e+01 5.78461959508066e-05 1.34337307951038e-06
5.98612500000000e+01 5.62065000280085e-05 1.30814723881557e-06
6.01220833333333e+01 5.46132825740907e-05 1.27383299486263e-06
6.03829166666667e+01 5.30652261229375e-05 1.24040717977239e-06
6.06437500000000e+01 5.15610505503424e-05 1.20784720077917e-06
6.09045833333333e+01 5.00995120158735e-05 1.17613102348098e-06
6.11654166666667e+01 4.86794019415416e-05 1.14523716005237e-06
6.14262500000000e+01 4.72995460050027e-05 1.11514465764885e-06
6.16870833333333e+01 4.59588031688725e-05 1.08583308282160e-06
6.19479166666667e+01 4.46560647437222e-05 1.05728251046499e-06
6.22087500000000e+01 4.33902534645800e-05 1.02947351294823e-06
6.24695833333333e+01 4.21603226004663e-05 1.00238714561928e-06
6.27304166666667e+01 4.09652550947581e-05 9.76004936449145e-07
6.29912500000000e+01 3.98040627180942e-05 9.50308875852710e-07
6.32520833333333e+01 3.86757852515026e-05 9.25281403210701e-07
6.35129166666667e+01 3.75794896977464e-05 9.00905397173865e-07
6.37737500000000e+01 3.65142695043097e-05 8.77164166135883e-07
6.40345833333333e+01 3.54792438140358e-05 8.54041435706241e-07
6.42954166666667e+01 3.44735567415943e-05 8.31521339638338e-07
6.45562500000000e+01 3.34963766607492e-05 8.09588410918584e-07
6.48170833333333e+01 3.25468955169279e-05 7.88227570126939e-07
6.50779166666667e+01 3.16243281634340e-05 7.67424116954240e-07
6.53387500000000e+01 3.07279117076780e-05 7.47163721872725e-07
6.55995833333333e+01 2.98569048805589e-05 7.27432415324740e-07
6.58604166666667e+01 2.90105874274902e-05 7.08216579795749e-07
6.61212500000000e+01 2.81882595087149e-05 6.89502942032887e-07
6.63820833333333e+01 2.73892411208036e-05 6.71278563005956e-07
6.66429166666667e+01 2.66128715379693e-05 6.53530830503880e-07
6.69037500000000e+01 2.58585087619904e-05 6.36247451869197e-07
6.71645833333333e+01 2.51255289915194e-05 6.19416444678860e-07
6.74254166666667e+01 2.44133261095338e-05 6.03026129833255e-07
6.76862500000000e+01 2.37213111787626e-05 5.87065124775954e-07
6.79470833333333e+01 2.30489119548545e-05 5.71522334845077e-07
6.82079166666667e+01 2.23955724161557e-05 5.56386946825347e-07
6.84687500000000e+01 2.17607523008753e-05 5.41648422623819e-07
6.87295833333333e+01 2.11439266604873e-05 5.27296491245641e-07
6.89904166666667e+01 2.05445854283415e-05 5.13321142781010e-07
6.92512500000000e+01 1.99622329951137e-05 4.99712622508929e-07
6.95120833333333e+01 1.93963877991172e-05 4.86461423454155e-07
6.97729166666667e+01 1.88465819305401e-05 4.73558280782304e-07
7.00337500000000e+01 1.83123607420125e-05 4.60994166305085e-07
7.02945833333333e+01 1.77932824727776e-05 4.48760281577977e-07
7.05554166666667e+01 1.72889178856132e-05 4.36848052678012e-07
7.08162500000000e+01 1.67988499096111e-05 4.25249125085306e-07
7.10770833333333e+01 1.63226732954094e-05 4.13955357283707e-07
7.13379166666667e+01 1.58599942820989e-05 4.02958815897092e-07
7.15987500000000e+01 1.54104302695508e-05 3.92251770923320e-07
7.18595833333333e+01 1.49736095021415e-05 3.81826689802478e-07
7.21204166666667e+01 1.45491707631700e-05 3.71676232888877e-07
7.23812500000000e+01 1.41367630742875e-05 3.61793249014858e-07
7.26420833333333e+01 1.37360454053614e-05 3.52170769993642e-07
7.29029166666667e+01 1.33466863941308e-05 3.42802006405393e-07
7.31637500000000e+01 1.29683640704969e-05 3.33680343469530e-07
7.34245833333333e+01 1.26007655903652e-05 3.24799335951403e-07
7.36854166666667e+01 1.22435869784557e-05 3.16152704242027e-07
7.39462500000000e+01 1.18965328753967e-05 3.07734330518786e-07
7.42070833333333e+01 1.15593162935643e-05 2.99538254027178e-07
7.44679166666667e+01 1.12316583811343e-05 2.91558667434979e-07
7.47287500000000e+01 1.09132881900941e-05 2.83789913262373e-07
7.49895833333333e+01 1.06039424522608e-05 2.76226479511975e-07
7.52504166666667e+01 1.03033653628209e-05 2.68862996279319e-07
7.55112500000000e+01 1.00113083675295e-05 2.61694232434544e-07
7.57720833333333e+01 9.72752995723998e-06 2.54715091575712e-07
7.60329166666667e+01 9.45179546932193e-06 2.47920608878584e-07
7.62937500000000e+01 9.18387689246043e-06 2.41305948013083e-07
7.65545833333333e+01 8.92355267816708e-06 2.34866397396619e-07
7.68154166666667e+01 8.67060755860023e-06 2.28597367267147e-07
7.70762500000000e+01 8.42483236750826e-06 2.22494386818594e-07
7.73370833333333e+01 8.18602386731857e-06 2.16553100732569e-07
7.75979166666667e+01 7.95398458200544e-06 2.10769266459624e-07
7.78587500000000e+01 7.72852263284199e-06 2.05138751558852e-07
7.81195833333333e+01 7.50945157977972e-06 1.99657530487818e-07
7.83804166666667e+01 7.29659026812116e-06 1.94321682077884e-07
7.86412500000000e+01 7.08976267785574e-06 1.89127387064093e-07
7.89020833333333e+01 6.88879777814866e-06 1.84070925114558e-07
7.91629166666667e+01 6.69352938667841e-06 1.79148672486624e-07
7.94237500000000e+01 6.50379603143279e-06 1.74357099734002e-07
7.96845833333333e+01 6.31944081722383e-06 1.69692768958165e-07
7.99454166666667e+01 6.14031129664407e-06 1.65152331632952e-07
8.02062500000000e+01 5.96625934329220e-06 1.60732526476749e-07
8.04670833333333e+01 5.79714102932009e-06 1.56430176909679e-07
8.07279166666667e+01 5.63281650704827e-06 1.52242189035007e-07
8.09887500000000e+01 5.47314989267578e-06 1.48165549664980e-07
8.12495833333333e+01 5.31800915394759e-06 1.44197323968720e-07
8.15104166666667e+01 5.16726600154888e-06 1.40334653599588e-07
8.17712500000000e+01 5.02079578243200e-06 1.36574754863961e-07
8.20320833333333e+01 4.87847737676779e-06 1.32914916545854e-07
8.22929166666667e+01 4.74019309831109e-06 1.29352498170054e-07
