Energy (eV)          EEDF (eV^-(3/2))     First Anisotropy
9.18604651162791e-03 3.24880818447910e-01 1.84964612439098e-04
2.75581395348837e-02 3.22281679914129e-01 3.05233523174858e-04
4.59302325581395e-02 3.19703335225109e-01 4.02424931243692e-04
6.43023255813953e-02 3.17145618019446e-01 4.75947543033506e-04
8.26744186046512e-02 3.14608363277209e-01 5.37006619224482e-04
1.01046511627907e-01 3.12091407292000e-01 5.89845737066070e-04
1.19418604651163e-01 3.09594587669723e-01 6.36664402506734e-04
1.37790697674419e-01 3.07117743311407e-01 6.78792867328971e-04
1.56162790697674e-01 3.04660714409272e-01 7.17114711233243e-04
1.74534883720930e-01 3.02223342434051e-01 7.52255366126514e-04
1.92906976744186e-01 2.99805470124759e-01 7.84678498361657e-04
2.11279069767442e-01 2.97406941478541e-01 8.14740195893455e-04
2.29651162790698e-01 2.95027601740614e-01 8.42721657558806e-04
2.48023255813953e-01 2.92667297394276e-01 8.68850019667634e-04
2.66395348837209e-01 2.90325876151003e-01 8.93312216562364e-04
2.84767441860465e-01 2.88003186940622e-01 9.16264540869305e-04
3.03139534883721e-01 2.85699079901564e-01 9.37839437564831e-04
3.21511627906977e-01 2.83413406371198e-01 9.58150456224526e-04
3.39883720930233e-01 2.81146018876234e-01 9.77295940363144e-04
3.58255813953488e-01 2.78896771123209e-01 9.95361828584988e-04
3.76627906976744e-01 2.76665517989052e-01 1.01242381712010e-03
3.95000000000000e-01 2.74452115511717e-01 1.02854905479047e-03
4.13372093023256e-01 2.72256420875543e-01 1.04379748625028e-03
4.31744186046512e-01 2.70078292418419e-01 1.05822293385243e-03
4.50116279069767e-01 2.67917589605914e-01 1.07187397631269e-03
4.68488372093023e-01 2.65774173027918e-01 1.08479466613065e-03
4.86860465116279e-01 2.63647904389638e-01 1.09702512527392e-03
5.05232558139535e-01 2.61538646502687e-01 1.10860204136863e-03
5.23604651162791e-01 2.59446263276221e-01 1.11955908456379e-03
5.41976744186046e-01 2.57370619708165e-01 1.12992726016699e-03
5.60348837209302e-01 2.55311581876501e-01 1.13973520885237e-03
5.78720930232558e-01 2.53269016930624e-01 1.14900946374930e-03
5.97093023255814e-01 2.51242793082775e-01 1.15777467181957e-03
6.15465116279070e-01 2.49232779599533e-01 1.16605378546508e-03
6.33837209302326e-01 2.47238846793383e-01 1.17386822916756e-03
6.52209302325581e-01 2.45260866014350e-01 1.18123804506806e-03
6.70581395348837e-01 2.43298709641691e-01 1.18818202068733e-03
6.88953488372093e-01 2.41352251075670e-01 1.19471780142502e-03
7.07325581395349e-01 2.39421364729383e-01 1.20086199002533e-03
7.25697674418605e-01 2.37505926020658e-01 1.20663023483151e-03
7.44069767441860e-01 2.35605811364015e-01 1.21203730835609e-03
7.62441860465116e-01 2.33720898162696e-01 1.21709717745367e-03
7.80813953488372e-01 2.31851064800748e-01 1.22182306618223e-03
7.99186046511628e-01 2.29996190635184e-01 1.22622751227767e-03
8.17558139534884e-01 2.28156155988192e-01 1.23032241802856e-03
8.35930232558139e-01 2.26330842139418e-01 1.23411909622648e-03
8.54302325581395e-01 2.24520131318306e-01 1.23762831177250e-03
8.72674418604651e-01 2.22723906696497e-01 1.24086031943814e-03
8.91046511627907e-01 2.20942052380292e-01 1.24382489821564e-03
9.09418604651163e-01 2.19174453403176e-01 1.24653138263295e-03
9.27790697674419e-01 2.17420995718396e-01 1.24898869136094e-03
9.46162790697674e-01 2.15681566191609e-01 1.25120535339922e-03
9.64534883720930e-01 2.13956052593577e-01 1.25318953209181e-03
9.82906976744186e-01 2.12244343592927e-01 1.25494904719250e-03
1.00127906976744e+00 2.10546328748970e-01 1.25649139639005e-03
1.01965116279070e+00 2.08861898497928e-01 1.25782376945709e-03
1.03802325581395e+00 2.07190944170893e-01 1.25895306986895e-03
1.05639534883721e+00 2.05533357956302e-01 1.25988593608533e-03
1.07476744186047e+00 2.03889032890025e-01 1.26062874207286e-03
1.09313953488372e+00 2.02257862894576e-01 1.26118761916601e-03
1.11151162790698e+00 2.00639742725381e-01 1.26156847466283e-03
1.12988372093023e+00 1.99034567979864e-01 1.26177699744830e-03
1.14825581395349e+00 1.97442235077086e-01 1.26181866402155e-03
1.16662790697674e+00 1.95862641292571e-01 1.26169875428311e-03
1.18500000000000e+00 1.94295684709491e-01 1.26142236911712e-03
1.20337209302326e+00 1.92741264213701e-01 1.26099442343341e-03
1.22174418604651e+00 1.91199279525937e-01 1.26041966263514e-03
1.24011627906977e+00 1.89669631155962e-01 1.25970267811629e-03
1.25848837209302e+00 1.88152220397618e-01 1.25884789940280e-03
1.27686046511628e+00 1.86646949358680e-01 1.25785960878894e-03
1.29523255813953e+00 1.85153720917753e-01 1.25674195284341e-03
1.31360465116279e+00 1.83672438730457e-01 1.25549894327231e-03
1.33197674418605e+00 1.82203007212357e-01 1.25413445839084e-03
1.35034883720930e+00 1.80745331565773e-01 1.25265225325718e-03
1.36872093023256e+00 1.79299317740211e-01 1.25105597165517e-03
1.38709302325581e+00 1.77864872427454e-01 1.24934913728713e-03
1.40546511627907e+00 1.76441903086489e-01 1.24753516525480e-03
1.42383720930233e+00 1.75030317906108e-01 1.24561737295169e-03
1.44220930232558e+00 1.73630025800068e-01 1.24359897106812e-03
1.46058139534884e+00 1.72240936430322e-01 1.24148307409221e-03
1.47895348837209e+00 1.70862960171653e-01 1.23927270828869e-03
1.49732558139535e+00 1.69496008115894e-01 1.23697081067692e-03
1.51569767441860e+00 1.68139992057376e-01 1.23458022861993e-03
1.53406976744186e+00 1.66794824513946e-01 1.23210372702272e-03
1.55244186046512e+00 1.65460418694276e-01 1.22954399726395e-03
1.57081395348837e+00 1.64136688493108e-01 1.22690364823551e-03
1.58918604651163e+00 1.62823548510902e-01 1.22418521502021e-03
1.60755813953488e+00 1.61520914022766e-01 1.22139116717024e-03
1.62593023255814e+00 1.60228700973823e-01 1.21852389981900e-03
1.64430232558140e+00 1.58946825997569e-01 1.21558574176593e-03
1.66267441860465e+00 1.57675206386376e-01 1.21257896319796e-03
1.68104651162791e+00 1.56413760086892e-01 1.20950576691495e-03
1.69941860465116e+00 1.55162405717266e-01 1.20636829587784e-03
1.71779069767442e+00 1.53921062539103e-01 1.20316863876855e-03
1.73616279069767e+00 1.52689650459935e-01 1.19990882809731e-03
1.75453488372093e+00 1.51468090021212e-01 1.19659083885195e-03
1.77290697674419e+00 1.50256302413970e-01 1.19321659361145e-03
1.79127906976744e+00 1.49054209452686e-01 1.18978796916492e-03
1.80965116279070e+00 1.47861733570866e-01 1.18630678817570e-03
1.82802325581395e+00 1.46678797835738e-01 1.18277482569169e-03
1.84639534883721e+00 1.45505325923334e-01 1.17919381538649e-03
1.86476744186046e+00 1.44341242114143e-01 1.17556544140452e-03
1.88313953488372e+00 1.43186471306929e-01 1.17189134450504e-03
1.90151162790698e+00 1.42040938994959e-01 1.16817312649624e-03
1.91988372093023e+00 1.40904571267579e-01 1.16441234818103e-03
1.93825581395349e+00 1.39777294799721e-01 1.16061052778029e-03
1.95662790697674e+00 1.38659036864530e-01 1.15676914504819e-03
1.97500000000000e+00 1.37549725311113e-01 1.15288964674165e-03
1.99337209302326e+00 1.36449288560375e-01 1.14897343897565e-03
2.01174418604651e+00 1.35357655616890e-01 1.14502189262584e-03
2.03011627906977e+00 1.34274756047635e-01 1.14103634852215e-03
2.04848837209302e+00 1.33200519977902e-01 1.13701811000226e-03
2.06686046511628e+00 1.32134878102481e-01 1.13296844804785e-03
2.08523255813953e+00 1.31077761665320e-01 1.12888860493336e-03
2.10360465116279e+00 1.30029102460440e-01 1.12477979218614e-03
2.12197674418605e+00 1.28988832822707e-01 1.12064318896550e-03
2.14034883720930e+00 1.27956885638087e-01 1.11647994546964e-03
2.15872093023256e+00 1.26933194324536e-01 1.11229118755627e-03
2.17709302325581e+00 1.25917692828101e-01 1.10807800980573e-03
2.19546511627907e+00 1.24910315632574e-01 1.10384148009649e-03
2.21383720930233e+00 1.23910997741189e-01 1.09958264401369e-03
2.23220930232558e+00 1.22919674672798e-01 1.09530251810680e-03
2.25058139534884e+00 1.21936282470984e-01 1.09100209426207e-03
2.26895348837209e+00 1.20960757686518e-01 1.08668234277106e-03
2.28732558139535e+00 1.19993037377786e-01 1.08234421038652e-03
2.30569767441860e+00 1.19033059102631e-01 1.07798861874468e-03
2.32406976744186e+00 1.18080760926729e-01 1.07361646724234e-03
2.34244186046512e+00 1.17136081407065e-01 1.06922863700093e-03
2.36081395348837e+00 1.16198959588277e-01 1.06482598460375e-03
2.37918604651163e+00 1.15269335010574e-01 1.06040934602718e-03
2.39755813953488e+00 1.14347147693852e-01 1.05597954043538e-03
2.41593023255814e+00 1.13432338134144e-01 1.05153736409952e-03
2.43430232558140e+00 1.12524847311079e-01 1.04708359416890e-03
2.45267441860465e+00 1.11624616672650e-01 1.04261899231220e-03
2.47104651162791e+00 1.10731588131713e-01 1.03814429881509e-03
2.48941860465116e+00 1.09845704073055e-01 1.03366023619481e-03
2.50779069767442e+00 1.08966907338758e-01 1.02916751171574e-03
2.52616279069767e+00 1.08095141228180e-01 1.02466681561089e-03
2.54453488372093e+00 1.07230349490959e-01 1.02015881961286e-03
2.56290697674419e+00 1.06372476333515e-01 1.01564417932119e-03
2.58127906976744e+00 1.05521466405211e-01 1.01112353750297e-03
2.59965116279070e+00 1.04677264795036e-01 1.00659751861826e-03
2.61802325581395e+00 1.03839817037751e-01 1.00206673210250e-03
2.63639534883721e+00 1.03009069100585e-01 9.97531775540509e-04
2.65476744186046e+00 1.02184967379982e-01 9.92993229354266e-04
2.67313953488372e+00 1.01367458707423e-01 9.88451659957730e-04
2.69151162790698e+00 1.00556490336625e-01 9.83907621936627e-04
2.70988372093023e+00 9.97520099432898e-02 9.79361656412634e-04
2.72825581395349e+00 9.89539656188523e-02 9.74814289679712e-04
2.74662790697674e+00 9.81623058758464e-02 9.70266035259204e-04
2.76500000000000e+00 9.73769796357802e-02 9.65717396792736e-04
2.78337209302326e+00 9.65979362260511e-02 9.61168863116126e-04
2.80174418604651e+00 9.58251253850232e-02 9.56620911137041e-04
2.82011627906977e+00 9.50584972503510e-02 9.52074008620808e-04
2.83848837209302e+00 9.42980023559631e-02 9.47528609411304e-04
2.85686046511628e+00 9.35435916368691e-02 9.42985156202726e-04
2.87523255813953e+00 9.27952164179168e-02 9.38444082443171e-04
2.89360465116279e+00 9.20528284133705e-02 9.33905810839097e-04
2.91197674418605e+00 9.13163797213060e-02 9.29370752099572e-04
2.93034883720930e+00 9.05858228280536e-02 9.24839306733751e-04
2.94872093023256e+00 8.98611105975279e-02 9.20311867601108e-04
2.96709302325581e+00 8.91421962683620e-02 9.15788815478433e-04
2.98546511627907e+00 8.84290334581132e-02 9.11270521596799e-04
3.00383720930233e+00 8.77215761529753e-02 9.06757350100097e-04
3.02220930232558e+00 8.70197787049798e-02 9.02249653744341e-04
3.04058139534884e+00 8.63235958359780e-02 8.97747776345424e-04
3.05895348837209e+00 8.56329826277252e-02 8.93252054452115e-04
3.07732558139535e+00 8.49478945213373e-02 8.88762815983481e-04
3.09569767441860e+00 8.42682873122539e-02 8.84280379078073e-04
3.11406976744186e+00 8.35941171539234e-02 8.79805053675400e-04
3.13244186046512e+00 8.29253405483786e-02 8.75337143774194e-04
3.15081395348837e+00 8.22619143435766e-02 8.70876943441698e-04
3.16918604651163e+00 8.16037957368893e-02 8.66424739060040e-04
3.18755813953488e+00 8.09509422660065e-02 8.61980811505198e-04
3.20593023255814e+00 8.03033118063411e-02 8.57545432274948e-04
3.22430232558140e+00 7.96608625743338e-02 8.53118865659495e-04
3.24267441860465e+00 7.90235531186762e-02 8.48701370847057e-04
3.26104651162791e+00 7.83913423177705e-02 8.44293198166872e-04
3.27941860465116e+00 7.77641893828647e-02 8.39894591184478e-04
3.29779069767442e+00 7.71420538495811e-02 8.35505788130538e-04
3.31616279069767e+00 7.65248955772679e-02 8.31127020694508e-04
3.33453488372093e+00 7.59126747446034e-02 8.26758512999369e-04
3.35290697674419e+00 7.53053518524961e-02 8.22400482953782e-04
3.37127906976744e+00 7.47028877160161e-02 8.18053144191037e-04
3.38965116279070e+00 7.41052434619891e-02 8.13716702580009e-04
3.40802325581395e+00 7.35123805317437e-02 8.09391358155933e-04
3.42639534883721e+00 7.29242606733185e-02 8.05077306995067e-04
3.44476744186046e+00 7.23408459391097e-02 8.00774737828933e-04
3.46313953488372e+00 7.17620986884759e-02 7.96483833910214e-04
3.48151162790698e+00 7.11879815802118e-02 7.92204774281085e-04
3.49988372093023e+00 7.06184575718523e-02 7.87937732677942e-04
3.51825581395349e+00 7.00534899157025e-02 7.83682876597271e-04
3.53662790697674e+00 6.94930421612485e-02 7.79440368496523e-04
3.55500000000000e+00 6.89370781479814e-02 7.75210367523938e-04
3.57337209302326e+00 6.83855620031680e-02 7.70993026372763e-04
3.59174418604651e+00 6.78384581441348e-02 7.66788493003463e-04
3.61011627906977e+00 6.72957312713313e-02 7.62596912317001e-04
3.62848837209302e+00 6.67573463661520e-02 7.58418423101540e-04
3.64686046511628e+00 6.62232686931015e-02 7.54253159698584e-04
3.66523255813953e+00 6.56934637930902e-02 7.50101253132164e-04
3.68360465116279e+00 6.51678974827111e-02 7.45962830114955e-04
3.70197674418605e+00 6.46465358506485e-02 7.41838012197979e-04
3.72034883720930e+00 6.41293452596826e-02 7.37726916840386e-04
3.73872093023256e+00 6.36162923402905e-02 7.33629658956548e-04
3.75709302325581e+00 6.31073439885820e-02 7.29546348077245e-04
3.77546511627907e+00 6.26024673681988e-02 7.25477089889591e-04
3.79383720930233e+00 6.21016299041244e-02 7.21421987734277e-04
3.81220930232558e+00 6.16047992806688e-02 7.17381139849675e-04
3.83058139534884e+00 6.11119434432675e-02 7.13354640862917e-04
3.84895348837209e+00 6.06230305924951e-02 7.09342582797880e-04
3.86732558139535e+00 6.01380291833314e-02 7.05345054173526e-04
3.88569767441860e+00 5.96569079219069e-02 7.01362139230414e-04
3.90406976744186e+00 5.91796357671688e-02 6.97393918885894e-04
3.92244186046512e+00 5.87061819251627e-02 6.93440472120710e-04
3.94081395348837e+00 5.82365158471219e-02 6.89501873415316e-04
3.95918604651163e+00 5.77706072310453e-02 6.85578194129579e-04
3.97755813953488e+00 5.73084260161619e-02 6.81669503844947e-04
3.99593023255814e+00 5.68499423810664e-02 6.77775867875187e-04
4.01430232558140e+00 5.63951267452132e-02 6.73897348603388e-04
4.03267441860465e+00 5.59439497635598e-02 6.70034006782728e-04
4.05104651162791e+00 5.54963823247429e-02 6.66185899119382e-04
4.06941860465116e+00 5.50523955524956e-02 6.62353079566869e-04
4.08779069767442e+00 5.46119608004627e-02 6.58535600200865e-04
4.10616279069767e+00 5.41750496514671e-02 6.54733510423260e-04
4.12453488372093e+00 5.37416339146437e-02 6.50946856277041e-04
4.14290697674419e+00 5.33116856267478e-02 6.47175681275649e-04
4.16127906976744e+00 5.28851770471968e-02 6.43420027608645e-04
4.17965116279070e+00 5.24620806563441e-02 6.39679933891453e-04
4.19802325581395e+00 5.20423691567192e-02 6.35955436365885e-04
4.21639534883721e+00 5.16260154682249e-02 6.32246570068828e-04
4.23476744186047e+00 5.12129927264515e-02 6.28553366646848e-04
4.25313953488372e+00 5.08032742838509e-02 6.24875855519229e-04
4.27151162790698e+00 5.03968337050861e-02 6.21214064662511e-04
4.28988372093023e+00 4.99936447663105e-02 6.17568019888286e-04
4.30825581395349e+00 4.95936814525618e-02 6.13937744220152e-04
4.32662790697674e+00 4.91969179588473e-02 6.10323258637642e-04
4.34500000000000e+00 4.88033286856924e-02 6.06724583160760e-04
4.36337209302326e+00 4.84128882375452e-02 6.03141734814443e-04
4.38174418604651e+00 4.80255714238023e-02 5.99574728708179e-04
4.40011627906977e+00 4.76413532544960e-02 5.96023579087287e-04
4.41848837209302e+00 4.72602089387360e-02 5.92488297355798e-04
4.43686046511628e+00 4.68821138856804e-02 5.88968893123058e-04
4.45523255813953e+00 4.65070437003569e-02 5.85465374908225e-04
4.47360465116279e+00 4.61349741829604e-02 5.81977749484803e-04
4.49197674418605e+00 4.57658813264826e-02 5.78506021314110e-04
4.51034883720930e+00 4.53997413176078e-02 5.75050193213612e-04
4.52872093023256e+00 4.50365305327121e-02 5.71610267333780e-04
4.54709302325581e+00 4.46762255363874e-02 5.68186243315339e-04
4.56546511627907e+00 4.43188030822887e-02 5.64778119261486e-04
4.58383720930233e+00 4.39642401092550e-02 5.61385892685058e-04
4.60220930232558e+00 4.36125137398689e-02 5.58009558718245e-04
4.62058139534884e+00 4.32636012812567e-02 5.54649111055605e-04
4.63895348837209e+00 4.29174802213292e-02 5.51304542587878e-04
4.65732558139535e+00 4.25741282281007e-02 5.47975844806662e-04
4.67569767441860e+00 4.22335231475309e-02 5.44663007289193e-04
4.69406976744186e+00 4.18956430042626e-02 5.41366018299564e-04
4.71244186046512e+00 4.15604659980199e-02 5.38084865669714e-04
4.73081395348837e+00 4.12279705022434e-02 5.34819535130176e-04
4.74918604651163e+00 4.08981350647873e-02 5.31570011186461e-04
4.76755813953488e+00 4.05709384044259e-02 5.28336277973298e-04
4.78593023255814e+00 4.02463594095216e-02 5.25118317632727e-04
4.80430232558140e+00 3.99243771386826e-02 5.21916111164617e-04
4.82267441860465e+00 3.96049708173757e-02 5.18729639255771e-04
4.84104651162791e+00 3.92881198366244e-02 5.15558880703902e-04
4.85941860465116e+00 3.89738037536307e-02 5.12403813242443e-04
4.87779069767442e+00 3.86620022884898e-02 5.09264414095029e-04
4.89616279069767e+00 3.83526953235416e-02 5.06140659449348e-04
4.91453488372093e+00 3.80458629014588e-02 5.03032524000769e-04
4.93290697674419e+00 3.77414852258168e-02 4.99939981478457e-04
4.95127906976744e+00 3.74395426579437e-02 4.96863005416762e-04
4.96965116279070e+00 3.71400157156896e-02 4.93801567684807e-04
4.98802325581395e+00 3.68428850739634e-02 4.90755639254293e-04
5.00639534883721e+00 3.65481315616775e-02 4.87725190948222e-04
5.02476744186046e+00 3.62557361605450e-02 4.84710192011874e-04
5.04313953488372e+00 3.59656800055866e-02 4.81710610857763e-04
5.06151162790698e+00 3.56779443821661e-02 4.78726415565675e-04
5.07988372093023e+00 3.53925107253697e-02 4.75757573404533e-04
5.09825581395349e+00 3.51093606182615e-02 4.72804050417099e-04
5.11662790697674e+00 3.48284757923481e-02 4.69865811894590e-04
5.13500000000000e+00 3.45498381247338e-02 4.66942823073798e-04
5.15337209302326e+00 3.42734296369836e-02 4.64035047803237e-04
5.17174418604651e+00 3.39992324955594e-02 4.61142449236968e-04
5.19011627906977e+00 3.37272290090601e-02 4.58264990511330e-04
5.20848837209302e+00 3.34574016271105e-02 4.55402633448449e-04
5.22686046511628e+00 3.31897329407722e-02 4.52555339229610e-04
5.24523255813953e+00 3.29242056798650e-02 4.49723068846767e-04
5.26360465116279e+00 3.26608027123753e-02 4.46905782667842e-04
5.28197674418605e+00 3.23995070428637e-02 4.44103440058665e-04
5.30034883720930e+00 3.21403018128397e-02 4.41315999811408e-04
5.31872093023256e+00 3.18831702981916e-02 4.38543420775276e-04
5.33709302325581e+00 3.16280959081349e-02 4.35785660645895e-04
5.35546511627907e+00 3.13750621855645e-02 4.33042676592697e-04
5.37383720930233e+00 3.11240528045586e-02 4.30314425871098e-04
5.39220930232558e+00 3.08750515693530e-02 4.27600864645629e-04
5.41058139534884e+00 3.06280424146709e-02 4.24901948599188e-04
5.42895348837209e+00 3.03830094033004e-02 4.22217633340940e-04
5.44732558139535e+00 3.01399367255322e-02 4.19547874010949e-04
5.46569767441860e+00 2.98988086977049e-02 4.16892624935999e-04
5.48406976744186e+00 2.96596097625054e-02 4.14251840016758e-04
5.50244186046512e+00 2.94223244866430e-02 4.11625473298659e-04
5.52081395348837e+00 2.91869375598780e-02 4.09013477872565e-04
5.53918604651163e+00 2.89534337953030e-02 4.06415806442561e-04
5.55755813953488e+00 2.87217981270837e-02 4.03832411880176e-04
5.57593023255814e+00 2.84920156095111e-02 4.01263246155494e-04
5.59430232558139e+00 2.82640714172643e-02 3.98708260888808e-04
5.61267441860465e+00 2.80379508432168e-02 3.96167407888999e-04
5.63104651162791e+00 2.78136392975110e-02 3.93640638114289e-04
5.64941860465116e+00 2.75911223078031e-02 3.91127902207740e-04
5.66779069767442e+00 2.73703855171342e-02 3.88629150855868e-04
5.68616279069767e+00 2.71514146834049e-02 3.86144334438543e-04
5.70453488372093e+00 2.69341956780819e-02 3.83673402723710e-04
5.72290697674419e+00 2.67187144864194e-02 3.81216305207842e-04
5.74127906976744e+00 2.65049572054130e-02 3.78772991618074e-04
5.75965116279070e+00 2.62929100429239e-02 3.76343410940986e-04
5.77802325581395e+00 2.60825593178849e-02 3.73927511922253e-04
5.79639534883721e+00 2.58738914583131e-02 3.71525243554485e-04
