Energy (eV)          EEDF (eV^-(3/2))     First Anisotropy
7.60937500000000e-03 6.69639068986844e-01 4.39623458134182e-04
2.28281250000000e-02 6.62454724575651e-01 7.24484651915288e-04
3.80468750000000e-02 6.55347458707653e-01 9.52545452340389e-04
5.32656250000000e-02 6.48316444432512e-01 1.12347597131567e-03
6.84843750000000e-02 6.41360863671315e-01 1.26411972418597e-03
8.37031250000000e-02 6.34479907121958e-01 1.38468466856384e-03
9.89218750000000e-02 6.27672774165049e-01 1.49048248348301e-03
1.14140625000000e-01 6.20938672770778e-01 1.58473791376113e-03
1.29359375000000e-01 6.14276819406762e-01 1.66960093660215e-03
1.44578125000000e-01 6.07686438946887e-01 1.74659901885568e-03
1.59796875000000e-01 6.01166764581120e-01 1.81686868422208e-03
1.75015625000000e-01 5.94717037726286e-01 1.88128589740703e-03
1.90234375000000e-01 5.88336507937805e-01 1.94054483694959e-03
2.05453125000000e-01 5.82024432822383e-01 1.99520815598891e-03
2.20671875000000e-01 5.75780077951622e-01 2.04574048123064e-03
2.35890625000000e-01 5.69602716776574e-01 2.09253155285208e-03
2.51109375000000e-01 5.63491630543205e-01 2.13591269349928e-03
2.66328125000000e-01 5.57446108208761e-01 2.17616883064554e-03
2.81546875000000e-01 5.51465446359041e-01 2.21354746656832e-03
2.96765625000000e-01 5.45548949126552e-01 2.24826549923844e-03
3.11984375000000e-01 5.39695928109541e-01 2.28051449628206e-03
3.27203125000000e-01 5.33905702291896e-01 2.31046483357237e-03
3.42421875000000e-01 5.28177597963914e-01 2.33826898599564e-03
3.57640625000000e-01 5.22510948643906e-01 2.36406417526397e-03
3.72859375000000e-01 5.16905095000653e-01 2.38797452332231e-03
3.88078125000000e-01 5.11359384776694e-01 2.41011282077144e-03
4.03296875000000e-01 5.05873172712426e-01 2.43058199206933e-03
4.18515625000000e-01 5.00445820471034e-01 2.44947631940439e-03
4.33734375000000e-01 4.95076696564214e-01 2.46688247265577e-03
4.48953125000000e-01 4.89765176278700e-01 2.48288038216137e-03
4.64171875000000e-01 4.84510641603576e-01 2.49754398302156e-03
4.79390625000000e-01 4.79312481158366e-01 2.51094185362206e-03
4.94609375000000e-01 4.74170090121903e-01 2.52313776644116e-03
5.09828125000000e-01 4.69082870161953e-01 2.53419116564777e-03
5.25046875000000e-01 4.64050229365599e-01 2.54415758322170e-03
5.40265625000000e-01 4.59071582170367e-01 2.55308900315388e-03
5.55484375000000e-01 4.54146349296099e-01 2.56103418156286e-03
5.70703125000000e-01 4.49273957677547e-01 2.56803892919115e-03
5.85921875000000e-01 4.44453840397699e-01 2.57414636164655e-03
6.01140625000000e-01 4.39685436621816e-01 2.57939712186276e-03
6.16359375000000e-01 4.34968191532174e-01 2.58382957853228e-03
6.31578125000000e-01 4.30301556263514e-01 2.58748000367408e-03
6.46796875000000e-01 4.25684987839177e-01 2.59038273201318e-03
6.62015625000000e-01 4.21117949107926e-01 2.59257030444847e-03
6.77234375000000e-01 4.16599908681451e-01 2.59407359755296e-03
6.92453125000000e-01 4.12130340872538e-01 2.59492194077195e-03
7.07671875000000e-01 4.07708725633901e-01 2.59514322275268e-03
7.22890625000000e-01 4.03334548497679e-01 2.59476398804378e-03
7.38109375000000e-01 3.99007300515571e-01 2.59380952523727e-03
7.53328125000000e-01 3.94726478199622e-01 2.59230394748523e-03
7.68546875000000e-01 3.90491583463636e-01 2.59027026620415e-03
7.83765625000000e-01 3.86302123565228e-01 2.58773045867929e-03
7.98984375000000e-01 3.82157611048489e-01 2.58470553019142e-03
8.14203125000000e-01 3.78057563687269e-01 2.58121557121598e-03
8.29421875000000e-01 3.74001504429067e-01 2.57727981017859e-03
8.44640625000000e-01 3.69988961339529e-01 2.57291666219403e-03
8.59859375000000e-01 3.66019467547533e-01 2.56814377416873e-03
8.75078125000000e-01 3.62092561190869e-01 2.56297806660384e-03
8.90296875000000e-01 3.58207785362501e-01 2.55743577239868e-03
9.05515625000000e-01 3.54364688057400e-01 2.55153247292233e-03
9.20734375000000e-01 3.50562822119958e-01 2.54528313159327e-03
9.35953125000000e-01 3.46801745191955e-01 2.53870212518141e-03
9.51171875000000e-01 3.43081019661094e-01 2.53180327302522e-03
9.66390625000000e-01 3.39400212610079e-01 2.52459986433752e-03
9.81609375000000e-01 3.35758895766246e-01 2.51710468375588e-03
9.96828125000000e-01 3.32156645451733e-01 2.50933003527909e-03
1.01204687500000e+00 3.28593042534183e-01 2.50128776471729e-03
1.02726562500000e+00 3.25067672377976e-01 2.49298928077051e-03
1.04248437500000e+00 3.21580124795985e-01 2.48444557484155e-03
1.05770312500000e+00 3.18129994001852e-01 2.47566723967820e-03
1.07292187500000e+00 3.14716878562769e-01 2.46666448693140e-03
1.08814062500000e+00 3.11340381352775e-01 2.45744716370833e-03
1.10335937500000e+00 3.08000109506547e-01 2.44802476819291e-03
1.11857812500000e+00 3.04695674373688e-01 2.43840646439985e-03
1.13379687500000e+00 3.01426691473507e-01 2.42860109612201e-03
1.14901562500000e+00 2.98192780450286e-01 2.41861720012674e-03
1.16423437500000e+00 2.94993565029021e-01 2.40846301865273e-03
1.17945312500000e+00 2.91828672971641e-01 2.39814651125308e-03
1.19467187500000e+00 2.88697736033703e-01 2.38767536602756e-03
1.20989062500000e+00 2.85600389921537e-01 2.37705701028466e-03
1.22510937500000e+00 2.82536274249867e-01 2.36629862066914e-03
1.24032812500000e+00 2.79505032499875e-01 2.35540713278820e-03
1.25554687500000e+00 2.76506311977719e-01 2.34438925036892e-03
1.27076562500000e+00 2.73539763773498e-01 2.33325145397476e-03
1.28598437500000e+00 2.70605042720653e-01 2.32200000930727e-03
1.30120312500000e+00 2.67701807355810e-01 2.31064097511965e-03
1.31642187500000e+00 2.64829719879043e-01 2.29918021076310e-03
1.33164062500000e+00 2.61988446114577e-01 2.28762338338808e-03
1.34685937500000e+00 2.59177655471901e-01 2.27597597482085e-03
1.36207812500000e+00 2.56397020907304e-01 2.26424328813270e-03
1.37729687500000e+00 2.53646218885824e-01 2.25243045392008e-03
1.39251562500000e+00 2.50924929343603e-01 2.24054243631071e-03
1.40773437500000e+00 2.48232835650643e-01 2.22858403871108e-03
1.42295312500000e+00 2.45569624573974e-01 2.21655990930974e-03
1.43817187500000e+00 2.42934986241197e-01 2.20447454634857e-03
1.45339062500000e+00 2.40328614104439e-01 2.19233230317460e-03
1.46860937500000e+00 2.37750204904681e-01 2.18013739308430e-03
1.48382812500000e+00 2.35199458636473e-01 2.16789389397029e-03
1.49904687500000e+00 2.32676078513027e-01 2.15560575278057e-03
1.51426562500000e+00 2.30179770931688e-01 2.14327678980045e-03
1.52948437500000e+00 2.27710245439769e-01 2.13091070276530e-03
1.54470312500000e+00 2.25267214700758e-01 2.11851107081267e-03
1.55992187500000e+00 2.22850394460885e-01 2.10608135828160e-03
1.57514062500000e+00 2.20459503516047e-01 2.09362491836635e-03
1.59035937500000e+00 2.18094263679093e-01 2.08114499663176e-03
1.60557812500000e+00 2.15754399747450e-01 2.06864473439650e-03
1.62079687500000e+00 2.13439639471109e-01 2.05612717199039e-03
1.63601562500000e+00 2.11149713520942e-01 2.04359525189179e-03
1.65123437500000e+00 2.08884355457370e-01 2.03105182175027e-03
1.66645312500000e+00 2.06643301699357e-01 2.01849963729986e-03
1.68167187500000e+00 2.04426291493745e-01 2.00594136516796e-03
1.69689062500000e+00 2.02233066884915e-01 1.99337958558409e-03
1.71210937500000e+00 2.00063372684770e-01 1.98081679499344e-03
1.72732812500000e+00 1.97916956443045e-01 1.96825540857880e-03
1.74254687500000e+00 1.95793568417934e-01 1.95569776269503e-03
1.75776562500000e+00 1.93692961547032e-01 1.94314611721990e-03
1.77298437500000e+00 1.91614891418586e-01 1.93060265782469e-03
1.78820312500000e+00 1.89559116243061e-01 1.91806949816780e-03
1.80342187500000e+00 1.87525396825003e-01 1.90554868201508e-03
1.81864062500000e+00 1.85513496535212e-01 1.89304218528908e-03
1.83385937500000e+00 1.83523181283206e-01 1.88055191805070e-03
1.84907812500000e+00 1.81554219489984e-01 1.86807972641567e-03
1.86429687500000e+00 1.79606382061086e-01 1.85562739440860e-03
1.87951562500000e+00 1.77679442359930e-01 1.84319664575714e-03
1.89473437500000e+00 1.75773176181448e-01 1.83078914562827e-03
1.90995312500000e+00 1.73887361725996e-01 1.81840650230936e-03
1.92517187500000e+00 1.72021779573547e-01 1.80605026883591e-03
1.94039062500000e+00 1.70176212658164e-01 1.79372194456789e-03
1.95560937500000e+00 1.68350446242737e-01 1.78142297671677e-03
1.97082812500000e+00 1.66544267894008e-01 1.76915476182539e-03
1.98604687500000e+00 1.64757467457842e-01 1.75691864720185e-03
2.00126562500000e+00 1.62989837034785e-01 1.74471593230942e-03
2.01648437500000e+00 1.61241170955868e-01 1.73254787011401e-03
2.03170312500000e+00 1.59511265758679e-01 1.72041566839095e-03
2.04692187500000e+00 1.57799920163691e-01 1.70832049099239e-03
2.06214062500000e+00 1.56106935050839e-01 1.69626345907628e-03
2.07735937500000e+00 1.54432113436355e-01 1.68424565229932e-03
2.09257812500000e+00 1.52775260449846e-01 1.67226810997428e-03
2.10779687500000e+00 1.51136183311623e-01 1.66033183219302e-03
2.12301562500000e+00 1.49514691310269e-01 1.64843778091702e-03
2.13823437500000e+00 1.47910595780446e-01 1.63658688103570e-03
2.15345312500000e+00 1.46323710080950e-01 1.62478002139411e-03
2.16867187500000e+00 1.44753849572990e-01 1.61301805579131e-03
2.18389062500000e+00 1.43200831598704e-01 1.60130180394975e-03
2.19910937500000e+00 1.41664475459910e-01 1.58963205245684e-03
2.21432812500000e+00 1.40144602397080e-01 1.57800955567997e-03
2.22954687500000e+00 1.38641035568537e-01 1.56643503665562e-03
2.24476562500000e+00 1.37153600029885e-01 1.55490918795343e-03
2.25998437500000e+00 1.35682122713650e-01 1.54343267251574e-03
2.27520312500000e+00 1.34226432409142e-01 1.53200612447384e-03
2.29042187500000e+00 1.32786359742539e-01 1.52063014994179e-03
2.30564062500000e+00 1.31361737157174e-01 1.50930532778793e-03
2.32085937500000e+00 1.29952398894045e-01 1.49803221038510e-03
2.33607812500000e+00 1.28558180972523e-01 1.48681132434038e-03
2.35129687500000e+00 1.27178921171275e-01 1.47564317120485e-03
2.36651562500000e+00 1.25814459009392e-01 1.46452822816393e-03
2.38173437500000e+00 1.24464635727711e-01 1.45346694870914e-03
2.39695312500000e+00 1.23129294270345e-01 1.44245976329141e-03
2.41217187500000e+00 1.21808279266412e-01 1.43150707995698e-03
2.42739062500000e+00 1.20501437011953e-01 1.42060928496621e-03
2.44260937500000e+00 1.19208615452050e-01 1.40976674339568e-03
2.45782812500000e+00 1.17929664163135e-01 1.39897979972442e-03
2.47304687500000e+00 1.16664434335485e-01 1.38824877840434e-03
2.48826562500000e+00 1.15412778755911e-01 1.37757398441566e-03
2.50348437500000e+00 1.14174551790625e-01 1.36695570380771e-03
2.51870312500000e+00 1.12949609368299e-01 1.35639420422540e-03
2.53392187500000e+00 1.11737808963301e-01 1.34588973542180e-03
2.54914062500000e+00 1.10539009579110e-01 1.33544252975732e-03
2.56435937500000e+00 1.09353071731912e-01 1.32505280268598e-03
2.57957812500000e+00 1.08179857434372e-01 1.31472075322891e-03
2.59479687500000e+00 1.07019230179574e-01 1.30444656443552e-03
2.61001562500000e+00 1.05871054925144e-01 1.29423040383268e-03
2.62523437500000e+00 1.04735198077534e-01 1.28407242386243e-03
2.64045312500000e+00 1.03611527476478e-01 1.27397276230831e-03
2.65567187500000e+00 1.02499912379616e-01 1.26393154271068e-03
2.67089062500000e+00 1.01400223447281e-01 1.25394887477139e-03
2.68610937500000e+00 1.00312332727449e-01 1.24402485474824e-03
2.70132812500000e+00 9.92361136408558e-02 1.23415956583914e-03
2.71654687500000e+00 9.81714409662622e-02 1.22435307855652e-03
2.73176562500000e+00 9.71181908258896e-02 1.21460545109233e-03
2.74698437500000e+00 9.60762406710044e-02 1.20491672967354e-03
2.76220312500000e+00 9.50454692676593e-02 1.19528694890888e-03
2.77742187500000e+00 9.40257566825874e-02 1.18571613212664e-03
2.79264062500000e+00 9.30169842692477e-02 1.17620429170380e-03
2.80785937500000e+00 9.20190346540201e-02 1.16675142938723e-03
2.82307812500000e+00 9.10317917225487e-02 1.15735753660637e-03
2.83829687500000e+00 9.00551406062317e-02 1.14802259477833e-03
2.85351562500000e+00 8.90889676688559e-02 1.13874657560526e-03
2.86873437500000e+00 8.81331604933747e-02 1.12952944136415e-03
2.88395312500000e+00 8.71876078688285e-02 1.12037114518950e-03
2.89917187500000e+00 8.62521997774044e-02 1.11127163134870e-03
2.91439062500000e+00 8.53268273816359e-02 1.10223083551082e-03
2.92960937500000e+00 8.44113830117386e-02 1.09324868500847e-03
2.94482812500000e+00 8.35057601530834e-02 1.08432509909317e-03
2.96004687500000e+00 8.26098534338024e-02 1.07545998918431e-03
2.97526562500000e+00 8.17235586125293e-02 1.06665325911205e-03
2.99048437500000e+00 8.08467725662698e-02 1.05790480535409e-03
3.00570312500000e+00 7.99793932784036e-02 1.04921451726636e-03
3.02092187500000e+00 7.91213198268144e-02 1.04058227730829e-03
3.03614062500000e+00 7.82724523721469e-02 1.03200796126233e-03
3.05135937500000e+00 7.74326921461906e-02 1.02349143844793e-03
3.06657812500000e+00 7.66019414403876e-02 1.01503257193037e-03
3.08179687500000e+00 7.57801035944642e-02 1.00663121872426e-03
3.09701562500000e+00 7.49670829851837e-02 9.98287229992184e-04
3.11223437500000e+00 7.41627850152210e-02 9.90000451238127e-04
3.12745312500000e+00 7.33671161021554e-02 9.81770722496359e-04
3.14267187500000e+00 7.25799836675822e-02 9.73597878515513e-04
3.15789062500000e+00 7.18012961263409e-02 9.65481748938065e-04
3.17310937500000e+00 7.10309628758591e-02 9.57422158475509e-04
3.18832812500000e+00 7.02688942856107e-02 9.49418927079024e-04
3.20354687500000e+00 6.95150016866868e-02 9.41471870105990e-04
3.21876562500000e+00 6.87691973614791e-02 9.33580798482399e-04
3.23398437500000e+00 6.80313945334734e-02 9.25745518861086e-04
3.24920312500000e+00 6.73015073571533e-02 9.17965833776128e-04
3.26442187500000e+00 6.65794509080116e-02 9.10241541793509e-04
3.27964062500000e+00 6.58651411726690e-02 9.02572437657843e-04
3.29485937500000e+00 6.51584950390992e-02 8.94958312435475e-04
3.31007812500000e+00 6.44594302869581e-02 8.87398953654238e-04
3.32529687500000e+00 6.37678655780178e-02 8.79894145439461e-04
3.34051562500000e+00 6.30837204467020e-02 8.72443668646654e-04
3.35573437500000e+00 6.24069152907243e-02 8.65047300990935e-04
3.37095312500000e+00 6.17373713618257e-02 8.57704817173220e-04
3.38617187500000e+00 6.10750107566123e-02 8.50415989003239e-04
3.40139062500000e+00 6.04197564074908e-02 8.43180585519400e-04
3.41660937500000e+00 5.97715320737016e-02 8.35998373105779e-04
3.43182812500000e+00 5.91302623324481e-02 8.28869115606087e-04
3.44704687500000e+00 5.84958725701207e-02 8.21792574434713e-04
3.46226562500000e+00 5.78682889736155e-02 8.14768508685082e-04
3.47748437500000e+00 5.72474385217460e-02 8.07796675235270e-04
3.49270312500000e+00 5.66332489767466e-02 8.00876828850912e-04
3.50792187500000e+00 5.60256488758678e-02 7.94008722285513e-04
3.52314062500000e+00 5.54245675230612e-02 7.87192106378138e-04
3.53835937500000e+00 5.48299349807537e-02 7.80426730148771e-04
3.55357812500000e+00 5.42416820617103e-02 7.73712340891167e-04
3.56879687500000e+00 5.36597403209838e-02 7.67048684263292e-04
3.58401562500000e+00 5.30840420479508e-02 7.60435504375538e-04
3.59923437500000e+00 5.25145202584340e-02 7.53872543876631e-04
3.61445312500000e+00 5.19511086869077e-02 7.47359544037354e-04
3.62967187500000e+00 5.13937417787882e-02 7.40896244832067e-04
3.64489062500000e+00 5.08423546828060e-02 7.34482385018180e-04
3.66010937500000e+00 5.02968832434600e-02 7.28117702213551e-04
3.67532812500000e+00 4.97572639935532e-02 7.21801932971889e-04
3.69054687500000e+00 4.92234341468081e-02 7.15534812856136e-04
3.70576562500000e+00 4.86953315905610e-02 7.09316076509998e-04
3.72098437500000e+00 4.81728948785352e-02 7.03145457727576e-04
3.73620312500000e+00 4.76560632236916e-02 6.97022689521208e-04
3.75142187500000e+00 4.71447764911559e-02 6.90947504187493e-04
3.76664062500000e+00 4.66389751912217e-02 6.84919633371528e-04
3.78185937500000e+00 4.61386004724287e-02 6.78938808129518e-04
3.79707812500000e+00 4.56435941147153e-02 6.73004758989740e-04
3.81229687500000e+00 4.51538985226443e-02 6.67117216011763e-04
3.82751562500000e+00 4.46694567187016e-02 6.61275908844149e-04
3.84273437500000e+00 4.41902123366668e-02 6.55480566780672e-04
3.85795312500000e+00 4.37161096150546e-02 6.49730918814816e-04
3.87317187500000e+00 4.32470933906271e-02 6.44026693693084e-04
3.88839062500000e+00 4.27831090919750e-02 6.38367619966617e-04
3.90360937500000e+00 4.23241027331686e-02 6.32753426041456e-04
3.91882812500000e+00 4.18700209074758e-02 6.27183840227560e-04
3.93404687500000e+00 4.14208107811483e-02 6.21658590786268e-04
3.94926562500000e+00 4.09764200872744e-02 6.16177405976575e-04
3.96448437500000e+00 4.05367971196974e-02 6.10740014100053e-04
3.97970312500000e+00 4.01018907269996e-02 6.05346143544598e-04
3.99492187500000e+00 3.96716503065504e-02 5.99995522826890e-04
4.01014062500000e+00 3.92460257986189e-02 5.94687880633622e-04
4.02535937500000e+00 3.88249676805490e-02 5.89422945861627e-04
4.04057812500000e+00 3.84084269609974e-02 5.84200447656763e-04
4.05579687500000e+00 3.79963551742334e-02 5.79020115451783e-04
4.07101562500000e+00 3.75887043744996e-02 5.73881679003066e-04
4.08623437500000e+00 3.71854271304335e-02 5.68784868426278e-04
4.10145312500000e+00 3.67864765195485e-02 5.63729414230926e-04
4.11667187500000e+00 3.63918061227745e-02 5.58715047354017e-04
4.13189062500000e+00 3.60013700190566e-02 5.53741499192656e-04
4.14710937500000e+00 3.56151227800127e-02 5.48808501635626e-04
4.16232812500000e+00 3.52330194646470e-02 5.43915787094072e-04
4.17754687500000e+00 3.48550156141213e-02 5.39063088531199e-04
4.19276562500000e+00 3.44810672465825e-02 5.34250139491170e-04
4.20798437500000e+00 3.41111308520444e-02 5.29476674127053e-04
4.22320312500000e+00 3.37451633873259e-02 5.24742427227834e-04
4.23842187500000e+00 3.33831222710422e-02 5.20047134244677e-04
4.25364062500000e+00 3.30249653786508e-02 5.15390531316311e-04
4.26885937500000e+00 3.26706510375501e-02 5.10772355293633e-04
4.28407812500000e+00 3.23201380222304e-02 5.06192343763511e-04
4.29929687500000e+00 3.19733855494774e-02 5.01650235071799e-04
4.31451562500000e+00 3.16303532736269e-02 4.97145768345648e-04
4.32973437500000e+00 3.12910012818706e-02 4.92678683514988e-04
4.34495312500000e+00 3.09552900896120e-02 4.88248721333388e-04
4.36017187500000e+00 3.06231806358721e-02 4.83855623398182e-04
4.37539062500000e+00 3.02946342787449e-02 4.79499132169880e-04
4.39060937500000e+00 2.99696127909011e-02 4.75178990990943e-04
4.40582812500000e+00 2.96480783551401e-02 4.70894944103870e-04
4.42104687500000e+00 2.93299935599901e-02 4.66646736668687e-04
4.43626562500000e+00 2.90153213953551e-02 4.62434114779778e-04
4.45148437500000e+00 2.87040252482086e-02 4.58256825482151e-04
4.46670312500000e+00 2.83960688983337e-02 4.54114616787052e-04
4.48192187500000e+00 2.80914165141084e-02 4.50007237687001e-04
4.49714062500000e+00 2.77900326483371e-02 4.45934438170337e-04
4.51235937500000e+00 2.74918822341256e-02 4.41895969235110e-04
4.52757812500000e+00 2.71969305808016e-02 4.37891582902489e-04
4.54279687500000e+00 2.69051433698776e-02 4.33921032229647e-04
4.55801562500000e+00 2.66164866510584e-02 4.29984071322090e-04
4.57323437500000e+00 2.63309268382908e-02 4.26080455345512e-04
4.58845312500000e+00 2.60484307058554e-02 4.22209940537157e-04
4.60367187500000e+00 2.57689653845013e-02 4.18372284216681e-04
4.61889062500000e+00 2.54924983576211e-02 4.14567244796584e-04
4.63410937500000e+00 2.52189974574679e-02 4.10794581792137e-04
4.64932812500000e+00 2.49484308614120e-02 4.07054055830904e-04
4.66454687500000e+00 2.46807670882390e-02 4.03345428661799e-04
4.67976562500000e+00 2.44159749944862e-02 3.99668463163714e-04
4.69498437500000e+00 2.41540237708190e-02 3.96022923353797e-04
4.71020312500000e+00 2.38948829384468e-02 3.92408574395239e-04
4.72542187500000e+00 2.36385223455758e-02 3.88825182604709e-04
4.74064062500000e+00 2.33849121639015e-02 3.85272515459392e-04
4.75585937500000e+00 2.31340228851377e-02 3.81750341603675e-04
4.77107812500000e+00 2.28858253175831e-02 3.78258430855450e-04
4.78629687500000e+00 2.26402905827250e-02 3.74796554212040e-04
4.80151562500000e+00 2.23973901118790e-02 3.71364483855808e-04
