Energy (eV)          EEDF (eV^-(3/2))     First Anisotropy
3.10416666666667e-03 1.40061377575430e+00 7.47503024102732e-04
9.31250000000000e-03 1.39058237153119e+00 1.23406839007394e-03
1.55208333333333e-02 1.38062281367612e+00 1.62839085448077e-03
2.17291666666667e-02 1.37073458769996e+00 1.92752332609526e-03
2.79375000000000e-02 1.36091718268047e+00 2.17664182529961e-03
3.41458333333333e-02 1.35117009135373e+00 2.39283390761961e-03
4.03541666666667e-02 1.34149281015716e+00 2.58494588036015e-03
4.65625000000000e-02 1.33188483909466e+00 2.75832181949934e-03
5.27708333333333e-02 1.32234568173700e+00 2.91650734492408e-03
5.89791666666667e-02 1.31287484525027e+00 3.06200936505256e-03
6.51875000000000e-02 1.30347184030794e+00 3.19668431677664e-03
7.13958333333333e-02 1.29413618107657e+00 3.32195633025360e-03
7.76041666666667e-02 1.28486738523015e+00 3.43894879069670e-03
8.38125000000000e-02 1.27566497388191e+00 3.54856812085031e-03
9.00208333333333e-02 1.26652847156568e+00 3.65155950718746e-03
9.62291666666667e-02 1.25745740624178e+00 3.74854532777579e-03
1.02437500000000e-01 1.24845130923996e+00 3.84005245225519e-03
1.08645833333333e-01 1.23950971521328e+00 3.92653211192243e-03
1.14854166666667e-01 1.23063216224176e+00 4.00837472237998e-03
1.21062500000000e-01 1.22181819164842e+00 4.08592113608761e-03
1.27270833333333e-01 1.21306734797690e+00 4.15947127479616e-03
1.33479166666667e-01 1.20437917917314e+00 4.22929094471562e-03
1.39687500000000e-01 1.19575323634651e+00 4.29561724779334e-03
1.45895833333333e-01 1.18718907376595e+00 4.35866286367366e-03
1.52104166666667e-01 1.17868624901179e+00 4.41861958529980e-03
1.58312500000000e-01 1.17024432277042e+00 4.47566121722447e-03
1.64520833333333e-01 1.16186285882639e+00 4.52994591353454e-03
1.70729166666667e-01 1.15354142419120e+00 4.58161818259975e-03
1.76937500000000e-01 1.14527958892369e+00 4.63081057121084e-03
1.83145833333333e-01 1.13707692611942e+00 4.67764503433042e-03
1.89354166666667e-01 1.12893301202147e+00 4.72223415297089e-03
1.95562500000000e-01 1.12084742586101e+00 4.76468217718237e-03
2.01770833333333e-01 1.11281974984490e+00 4.80508587308255e-03
2.07979166666667e-01 1.10484956925196e+00 4.84353530465654e-03
2.14187500000000e-01 1.09693647228991e+00 4.88011451377492e-03
2.20395833333333e-01 1.08908005008173e+00 4.91490206648976e-03
2.26604166666667e-01 1.08127989675005e+00 4.94797157817250e-03
2.32812500000000e-01 1.07353560928754e+00 4.97939217618068e-03
2.39020833333333e-01 1.06584678754253e+00 5.00922886403838e-03
2.45229166666667e-01 1.05821303429336e+00 5.03754288787387e-03
2.51437500000000e-01 1.05063395513023e+00 5.06439206276101e-03
2.57645833333333e-01 1.04310915844019e+00 5.08983102187349e-03
2.63854166666667e-01 1.03563825547314e+00 5.11391148066239e-03
2.70062500000000e-01 1.02822086023332e+00 5.13668247429358e-03
2.76270833333333e-01 1.02085658946400e+00 5.15819053155686e-03
2.82479166666667e-01 1.01354506270628e+00 5.17847987079797e-03
2.88687500000000e-01 1.00628590219893e+00 5.19759257741332e-03
2.94895833333333e-01 9.99078732862872e-01 5.21556872706088e-03
3.01104166666667e-01 9.91923182353836e-01 5.23244653464658e-03
3.07312500000000e-01 9.84818880969426e-01 5.24826249022044e-03
3.13520833333333e-01 9.77765461633533e-01 5.26305144715792e-03
3.19729166666667e-01 9.70762559943633e-01 5.27684673798818e-03
3.25937500000000e-01 9.63809814084238e-01 5.28968028068266e-03
3.32145833333333e-01 9.56906864811291e-01 5.30158264210751e-03
3.38354166666667e-01 9.50053355494786e-01 5.31258312987797e-03
3.44562500000000e-01 9.43248932037878e-01 5.32270987709634e-03
3.50770833333333e-01 9.36493242861323e-01 5.33198988802295e-03
3.56979166666667e-01 9.29785938941982e-01 5.34044911223298e-03
3.63187500000000e-01 9.23126673736981e-01 5.34811251335002e-03
3.69395833333333e-01 9.16515103168246e-01 5.35500410172886e-03
3.75604166666667e-01 9.09950885657362e-01 5.36114699530041e-03
3.81812500000000e-01 9.03433682054270e-01 5.36656347620334e-03
3.88020833333333e-01 8.96963155621931e-01 5.37127501384939e-03
3.94229166666667e-01 8.90538972067947e-01 5.37530231558439e-03
4.00437500000000e-01 8.84160799477360e-01 5.37866537401939e-03
4.06645833333333e-01 8.77828308297466e-01 5.38138348289282e-03
4.12854166666667e-01 8.71541171366546e-01 5.38347527981845e-03
4.19062500000000e-01 8.65299063850390e-01 5.38495878635740e-03
4.25270833333333e-01 8.59101663227285e-01 5.38585141843551e-03
4.31479166666667e-01 8.52948649314159e-01 5.38617002285672e-03
4.37687500000000e-01 8.46839704206491e-01 5.38593091163220e-03
4.43895833333333e-01 8.40774512263496e-01 5.38514986824633e-03
4.50104166666667e-01 8.34752760131944e-01 5.38384217919221e-03
4.56312500000000e-01 8.28774136689169e-01 5.38202266370066e-03
4.62520833333333e-01 8.22838333028467e-01 5.37970567682342e-03
4.68729166666667e-01 8.16945042480806e-01 5.37690513694417e-03
4.74937500000000e-01 8.11093960560697e-01 5.37363455177789e-03
4.81145833333333e-01 8.05284784951805e-01 5.36990701900354e-03
4.87354166666667e-01 7.99517215526758e-01 5.36573525048602e-03
4.93562500000000e-01 7.93790954295652e-01 5.36113159521754e-03
4.99770833333333e-01 7.88105705391879e-01 5.35610803805706e-03
5.05979166666667e-01 7.82461175090225e-01 5.35067622123634e-03
5.12187500000000e-01 7.76857071757792e-01 5.34484746476874e-03
5.18395833333333e-01 7.71293105840076e-01 5.33863276372543e-03
5.24604166666667e-01 7.65768989877475e-01 5.33204280747505e-03
5.30812500000000e-01 7.60284438458493e-01 5.32508799797600e-03
5.37020833333333e-01 7.54839168206029e-01 5.31777844592232e-03
5.43229166666667e-01 7.49432897792474e-01 5.31012398807599e-03
5.49437500000000e-01 7.44065347895003e-01 5.30213420377257e-03
5.55645833333333e-01 7.38736241182109e-01 5.29381841019781e-03
5.61854166666667e-01 7.33445302327391e-01 5.28518567810029e-03
5.68062500000000e-01 7.28192257966810e-01 5.27624484677714e-03
5.74270833333333e-01 7.22976836685451e-01 5.26700451868717e-03
5.80479166666667e-01 7.17798769030128e-01 5.25747307377629e-03
5.86687500000000e-01 7.12657787468465e-01 5.24765868315973e-03
5.92895833333333e-01 7.07553626375899e-01 5.23756930323322e-03
5.99104166666667e-01 7.02486022047191e-01 5.22721268880237e-03
6.05312500000000e-01 6.97454712657219e-01 5.21659640563889e-03
6.11520833333333e-01 6.92459438248226e-01 5.20572782421943e-03
6.17729166666667e-01 6.87499940740319e-01 5.19461413181458e-03
6.23937500000000e-01 6.82575963893882e-01 5.18326234406473e-03
6.30145833333333e-01 6.77687253297048e-01 5.17167929845036e-03
6.36354166666667e-01 6.72833556375291e-01 5.15987166547228e-03
6.42562500000000e-01 6.68014622355341e-01 5.14784595936816e-03
6.48770833333333e-01 6.63230202252897e-01 5.13560853139519e-03
6.54979166666667e-01 6.58480048881369e-01 5.12316558021026e-03
6.61187500000000e-01 6.53763916817219e-01 5.11052316183020e-03
6.67395833333333e-01 6.49081562387911e-01 5.09768718279299e-03
6.73604166666667e-01 6.44432743679866e-01 5.08466340982973e-03
6.79812500000000e-01 6.39817220505154e-01 5.07145747915330e-03
6.86020833333333e-01 6.35234754389672e-01 5.05807488955181e-03
6.92229166666667e-01 6.30685108580379e-01 5.04452101143043e-03
6.98437500000000e-01 6.26168048013263e-01 5.03080109550047e-03
7.04645833333333e-01 6.21683339301739e-01 5.01692026584881e-03
7.10854166666667e-01 6.17230750743232e-01 5.00288352841456e-03
7.17062500000000e-01 6.12810052288337e-01 4.98869577914140e-03
7.23270833333333e-01 6.08421015529445e-01 4.97436179705734e-03
7.29479166666667e-01 6.04063413706717e-01 4.95988625224218e-03
7.35687500000000e-01 5.99737021678376e-01 4.94527371349785e-03
7.41895833333333e-01 5.95441615909566e-01 4.93052864146499e-03
7.48104166666667e-01 5.91176974477748e-01 4.91565539613113e-03
7.54312500000000e-01 5.86942877044083e-01 4.90065824406364e-03
7.60520833333333e-01 5.82739104842503e-01 4.88554135158615e-03
7.66729166666667e-01 5.78565440684589e-01 4.87030879186982e-03
7.72937500000000e-01 5.74421668931978e-01 4.85496455176830e-03
7.79145833333333e-01 5.70307575485649e-01 4.83951252507252e-03
7.85354166666667e-01 5.66222947790320e-01 4.82395651922158e-03
7.91562500000000e-01 5.62167574807826e-01 4.80830026177441e-03
7.97770833333333e-01 5.58141247006626e-01 4.79254739375679e-03
8.03979166666667e-01 5.54143756365742e-01 4.77670147602432e-03
8.10187500000000e-01 5.50174896349076e-01 4.76076599540213e-03
8.16395833333333e-01 5.46234461895116e-01 4.74474435813379e-03
8.22604166666667e-01 5.42322249420470e-01 4.72863989592490e-03
8.28812500000000e-01 5.38438056795061e-01 4.71245587177789e-03
8.35020833333333e-01 5.34581683332043e-01 4.69619547355237e-03
8.41229166666667e-01 5.30752929790948e-01 4.67986181971416e-03
8.47437500000000e-01 5.26951598353728e-01 4.66345796488827e-03
8.53645833333333e-01 5.23177492614872e-01 4.64698689353732e-03
8.59854166666667e-01 5.19430417584195e-01 4.63045152543775e-03
8.66062500000000e-01 5.15710179663690e-01 4.61385472097333e-03
8.72270833333333e-01 5.12016586637842e-01 4.59719927493600e-03
8.78479166666667e-01 5.08349447676084e-01 4.58048792174972e-03
8.84687500000000e-01 5.04708573310424e-01 4.56372334052179e-03
8.90895833333333e-01 5.01093775425948e-01 4.54690814897003e-03
8.97104166666667e-01 4.97504867262982e-01 4.53004490841259e-03
9.03312500000000e-01 4.93941663395439e-01 4.51313612859417e-03
9.09520833333333e-01 4.90403979721530e-01 4.49618426174180e-03
9.15729166666667e-01 4.86891633465627e-01 4.47919170733568e-03
9.21937500000000e-01 4.83404443157328e-01 4.46216081672630e-03
9.28145833333333e-01 4.79942228622346e-01 4.44509388731983e-03
9.34354166666667e-01 4.76504810984121e-01 4.42799316714467e-03
9.40562500000000e-01 4.73092012643542e-01 4.41086085927197e-03
9.46770833333333e-01 4.69703657270041e-01 4.39369911613240e-03
9.52979166666667e-01 4.66339569802944e-01 4.37651004389170e-03
9.59187500000000e-01 4.62999576431852e-01 4.35929570668650e-03
9.65395833333333e-01 4.59683504587910e-01 4.34205812107232e-03
9.71604166666667e-01 4.56391182944934e-01 4.32479926021913e-03
9.77812500000000e-01 4.53122441400409e-01 4.30752105797508e-03
9.84020833333333e-01 4.49877111066943e-01 4.29022540344462e-03
9.90229166666667e-01 4.46655024273175e-01 4.27291414501484e-03
9.96437500000000e-01 4.43456014545380e-01 4.25558909425736e-03
1.00264583333333e+00 4.40279916599082e-01 4.23825202063548e-03
1.00885416666667e+00 4.37126566339785e-01 4.22090465248186e-03
1.01506250000000e+00 4.33995800854063e-01 4.20354869521153e-03
1.02127083333333e+00 4.30887458356684e-01 4.18618580012545e-03
1.02747916666667e+00 4.27801378280553e-01 4.16881757964505e-03
1.03368750000000e+00 4.24737401178553e-01 4.15144563982429e-03
1.03989583333333e+00 4.21695368717326e-01 4.13407152353687e-03
1.04610416666667e+00 4.18675123754619e-01 4.11669673995632e-03
1.05231250000000e+00 4.15676510244799e-01 4.09932279311152e-03
1.05852083333333e+00 4.12699373232717e-01 4.08195112675742e-03
1.06472916666667e+00 4.09743558927927e-01 4.06458315293776e-03
1.07093750000000e+00 4.06808914613715e-01 4.04722027966263e-03
1.07714583333333e+00 4.03895288641049e-01 4.02986385740567e-03
1.08335416666667e+00 4.01002530499812e-01 4.01251520678495e-03
1.08956250000000e+00 3.98130490731194e-01 3.99517564539423e-03
1.09577083333333e+00 3.95279020921722e-01 3.97784643587204e-03
1.10197916666667e+00 3.92447973771658e-01 3.96052881273432e-03
1.10818750000000e+00 3.89637203010594e-01 3.94322400838986e-03
1.11439583333333e+00 3.86846563391569e-01 3.92593320272945e-03
1.12060416666667e+00 3.84075910756759e-01 3.90865754914076e-03
1.12681250000000e+00 3.81325101956141e-01 3.89139819973807e-03
1.13302083333333e+00 3.78593994841692e-01 3.87415625642059e-03
1.13922916666667e+00 3.75882448330499e-01 3.85693279609939e-03
1.14543750000000e+00 3.73190322326356e-01 3.83972889516972e-03
1.15164583333333e+00 3.70517477714047e-01 3.82254558199093e-03
1.15785416666667e+00 3.67863776419996e-01 3.80538386135332e-03
1.16406250000000e+00 3.65229081336664e-01 3.78824473821877e-03
1.17027083333333e+00 3.62613256316927e-01 3.77112917157675e-03
1.17647916666667e+00 3.60016166232365e-01 3.75403809817748e-03
1.18268750000000e+00 3.57437676900350e-01 3.73697245556792e-03
1.18889583333333e+00 3.54877655078512e-01 3.71993313727748e-03
1.19510416666667e+00 3.52335968520778e-01 3.70292101584394e-03
1.20131250000000e+00 3.49812485907033e-01 3.68593696516931e-03
1.20752083333333e+00 3.47307076837678e-01 3.66898181699197e-03
1.21372916666667e+00 3.44819611887513e-01 3.65205638323079e-03
1.21993750000000e+00 3.42349962537874e-01 3.63516147768340e-03
1.22614583333333e+00 3.39898001171268e-01 3.61829787374320e-03
1.23235416666667e+00 3.37463601123210e-01 3.60146632608544e-03
1.23856250000000e+00 3.35046636616720e-01 3.58466759173052e-03
1.24477083333333e+00 3.32646982757047e-01 3.56790238896654e-03
1.25097916666667e+00 3.30264515581543e-01 3.55117141839881e-03
1.25718750000000e+00 3.27899111996423e-01 3.53447538339977e-03
1.26339583333333e+00 3.25550649771580e-01 3.51781495019911e-03
1.26960416666667e+00 3.23219007588577e-01 3.50119076831755e-03
1.27581250000000e+00 3.20904064979586e-01 3.48460349042544e-03
1.28202083333333e+00 3.18605702322285e-01 3.46805373356230e-03
1.28822916666667e+00 3.16323800886053e-01 3.45154209897597e-03
1.29443750000000e+00 3.14058242772999e-01 3.43506919140846e-03
1.30064583333333e+00 3.11808910912940e-01 3.41863558141013e-03
1.30685416666667e+00 3.09575689107882e-01 3.40224182460525e-03
1.31306250000000e+00 3.07358461975043e-01 3.38588848042231e-03
1.31927083333333e+00 3.05157114941925e-01 3.36957607546874e-03
1.32547916666667e+00 3.02971534289141e-01 3.35330512224163e-03
1.33168750000000e+00 3.00801607095366e-01 3.33707613732168e-03
1.33789583333333e+00 2.98647221232492e-01 3.32088960577506e-03
1.34410416666667e+00 2.96508265406875e-01 3.30474599932680e-03
1.35031250000000e+00 2.94384629106137e-01 3.28864579403660e-03
1.35652083333333e+00 2.92276202594401e-01 3.27258943569557e-03
1.36272916666667e+00 2.90182876952031e-01 3.25657735748024e-03
1.36893750000000e+00 2.88104544024204e-01 3.24060999712586e-03
1.37514583333333e+00 2.86041096416234e-01 3.22468776328777e-03
1.38135416666667e+00 2.83992427531854e-01 3.20881105269303e-03
1.38756250000000e+00 2.81958431523506e-01 3.19298026682779e-03
1.39377083333333e+00 2.79939003287736e-01 3.17719577923311e-03
1.39997916666667e+00 2.77934038502099e-01 3.16145795216991e-03
1.40618750000000e+00 2.75943433577073e-01 3.14576715283647e-03
1.41239583333333e+00 2.73967085651556e-01 3.13012372156992e-03
1.41860416666667e+00 2.72004892628419e-01 3.11452798804025e-03
1.42481250000000e+00 2.70056753128013e-01 3.09898028701255e-03
1.43102083333333e+00 2.68122566483738e-01 3.08348092742636e-03
1.43722916666667e+00 2.66202232776320e-01 3.06803020813394e-03
1.44343750000000e+00 2.64295652788836e-01 3.05262843322114e-03
1.44964583333333e+00 2.62402728002368e-01 3.03727588193904e-03
1.45585416666667e+00 2.60523360629044e-01 3.02197282400008e-03
1.46206250000000e+00 2.58657453568532e-01 3.00671953447140e-03
1.46827083333333e+00 2.56804910403769e-01 2.99151626453267e-03
1.47447916666667e+00 2.54965635432824e-01 2.97636325634442e-03
1.48068750000000e+00 2.53139533626804e-01 2.96126075752757e-03
1.48689583333333e+00 2.51326510625653e-01 2.94620899272160e-03
1.49310416666667e+00 2.49526472768894e-01 2.93120817803899e-03
1.49931250000000e+00 2.47739327054877e-01 2.91625853514328e-03
1.50552083333333e+00 2.45964981136668e-01 2.90136026358441e-03
1.51172916666667e+00 2.44203343351697e-01 2.88651355485123e-03
1.51793750000000e+00 2.42454322682313e-01 2.87171860606074e-03
1.52414583333333e+00 2.40717828751752e-01 2.85697559304762e-03
1.53035416666667e+00 2.38993771852735e-01 2.84228468402690e-03
1.53656250000000e+00 2.37282062909286e-01 2.82764605290628e-03
1.54277083333333e+00 2.35582613472774e-01 2.81305985310748e-03
1.54897916666667e+00 2.33895335749506e-01 2.79852623085180e-03
1.55518750000000e+00 2.32220142563761e-01 2.78404533810609e-03
1.56139583333333e+00 2.30556947353900e-01 2.76961730711401e-03
1.56760416666667e+00 2.28905664198999e-01 2.75524226331581e-03
1.57381250000000e+00 2.27266207783055e-01 2.74092033794002e-03
1.58002083333333e+00 2.25638493391160e-01 2.72665164322375e-03
1.58622916666667e+00 2.24022436935217e-01 2.71243628497740e-03
1.59243750000000e+00 2.22417954919261e-01 2.69827437483224e-03
1.59864583333333e+00 2.20824964435719e-01 2.68416600612956e-03
1.60485416666667e+00 2.19243383190221e-01 2.67011126614173e-03
1.61106250000000e+00 2.17673129468020e-01 2.65611024798595e-03
1.61727083333333e+00 2.16114122130311e-01 2.64216302716243e-03
1.62347916666667e+00 2.14566280638196e-01 2.62826967344149e-03
1.62968750000000e+00 2.13029525020142e-01 2.61443026245402e-03
1.63589583333333e+00 2.11503775868379e-01 2.60064485285976e-03
1.64210416666667e+00 2.09988954362033e-01 2.58691349791087e-03
1.64831250000000e+00 2.08484982235600e-01 2.57323625672799e-03
1.65452083333333e+00 2.06991781775410e-01 2.55961317208031e-03
1.66072916666667e+00 2.05509275841968e-01 2.54604428163581e-03
1.66693750000000e+00 2.04037387839403e-01 2.53252962893182e-03
1.67314583333333e+00 2.02576041712003e-01 2.51906924174951e-03
1.67935416666667e+00 2.01125161965786e-01 2.50566314305913e-03
1.68556250000000e+00 1.99684673638897e-01 2.49231136169512e-03
1.69177083333333e+00 1.98254502298207e-01 2.47901391130774e-03
1.69797916666667e+00 1.96834574060150e-01 2.46577080101199e-03
1.70418750000000e+00 1.95424815562027e-01 2.45258204577602e-03
1.71039583333333e+00 1.94025153958673e-01 2.43944764593294e-03
1.71660416666667e+00 1.92635516942587e-01 2.42636759754296e-03
1.72281250000000e+00 1.91255832716112e-01 2.41334190250285e-03
1.72902083333333e+00 1.89886029988169e-01 2.40037054860196e-03
1.73522916666667e+00 1.88526037993701e-01 2.38745351960585e-03
1.74143750000000e+00 1.87175786466708e-01 2.37459080509513e-03
1.74764583333333e+00 1.85835205637037e-01 2.36178238105065e-03
1.75385416666667e+00 1.84504226249178e-01 2.34902821966613e-03
1.76006250000000e+00 1.83182779536110e-01 2.33632829892425e-03
1.76627083333333e+00 1.81870797216160e-01 2.32368258369550e-03
1.77247916666667e+00 1.80568211511161e-01 2.31109103528843e-03
1.77868750000000e+00 1.79274955121097e-01 2.29855362077051e-03
1.78489583333333e+00 1.77990961221017e-01 2.28607029456587e-03
1.79110416666667e+00 1.76716163478585e-01 2.27364100775070e-03
1.79731250000000e+00 1.75450496029492e-01 2.26126571712620e-03
1.80352083333333e+00 1.74193893474430e-01 2.24894436730121e-03
1.80972916666667e+00 1.72946290896056e-01 2.23667689974003e-03
1.81593750000000e+00 1.71707623835140e-01 2.22446326159477e-03
1.82214583333333e+00 1.70477828287599e-01 2.21230338825920e-03
1.82835416666667e+00 1.69256840720900e-01 2.20019721217580e-03
1.83456250000000e+00 1.68044598050916e-01 2.18814467143428e-03
1.84077083333333e+00 1.66841037639027e-01 2.17614569278352e-03
1.84697916666667e+00 1.65646097307967e-01 2.16420020020525e-03
1.85318750000000e+00 1.64459715319380e-01 2.15230812328498e-03
1.85939583333333e+00 1.63281830370972e-01 2.14046938066933e-03
1.86560416666667e+00 1.62112381611838e-01 2.12868388841254e-03
1.87181250000000e+00 1.60951308620682e-01 2.11695156812649e-03
1.87802083333333e+00 1.59798551403029e-01 2.10527233087131e-03
1.88422916666667e+00 1.58654050406040e-01 2.09364608528087e-03
1.89043750000000e+00 1.57517746497385e-01 2.08207274549847e-03
1.89664583333333e+00 1.56389580962501e-01 2.07055221548805e-03
1.90285416666667e+00 1.55269495518931e-01 2.05908439694551e-03
1.90906250000000e+00 1.54157432295808e-01 2.04766919702588e-03
1.91527083333333e+00 1.53053333831180e-01 2.03630651306312e-03
1.92147916666667e+00 1.51957143085869e-01 2.02499624027366e-03
1.92768750000000e+00 1.50868803423563e-01 2.01373827928089e-03
1.93389583333333e+00 1.49788258608197e-01 2.00253252123261e-03
1.94010416666667e+00 1.48715452817349e-01 1.99137885530190e-03
1.94631250000000e+00 1.47650330622929e-01 1.98027717601493e-03
1.95252083333333e+00 1.46592836988601e-01 1.96922736875478e-03
1.95872916666667e+00 1.45542917282748e-01 1.95822931706599e-03
