Energy (eV)          EEDF (eV^-(3/2))     First Anisotropy
3.62500000000000e-02 5.39502911230887e-02 3.36544120910786e-05
1.08750000000000e-01 5.34358318254043e-02 5.54945953561139e-05
1.81250000000000e-01 5.29262783096961e-02 7.30517411339386e-05
2.53750000000000e-01 5.24215837954431e-02 8.62644813859893e-05
3.26250000000000e-01 5.19217019481776e-02 9.71806499087074e-05
3.98750000000000e-01 5.14265868752628e-02 1.06577576146150e-04
4.71250000000000e-01 5.09361931216834e-02 1.14859043616860e-04
5.43750000000000e-01 5.04504756658732e-02 1.22269780202319e-04
6.16250000000000e-01 4.99693899155827e-02 1.28972680739882e-04
6.88750000000000e-01 4.94928917037850e-02 1.35083287984844e-04
7.61250000000000e-01 4.90209372846214e-02 1.40687435915317e-04
8.33750000000000e-01 4.85534833293846e-02 1.45851177265721e-04
9.06250000000000e-01 4.80904869225416e-02 1.50626777420984e-04
9.78750000000000e-01 4.76319055577932e-02 1.55056536310767e-04
1.05125000000000e+00 4.71776971341719e-02 1.59175334052643e-04
1.12375000000000e+00 4.67278199521767e-02 1.63012388240393e-04
1.19625000000000e+00 4.62822327099446e-02 1.66592503805711e-04
1.26875000000000e+00 4.58408944994594e-02 1.69936984809342e-04
1.34125000000000e+00 4.54037648027953e-02 1.73064314278359e-04
1.41375000000000e+00 4.49708034883974e-02 1.75990670812051e-04
1.48625000000000e+00 4.45419708073976e-02 1.78730327750652e-04
1.55875000000000e+00 4.41172273899650e-02 1.81295966193449e-04
1.63125000000000e+00 4.36965342416915e-02 1.83698923716877e-04
1.70375000000000e+00 4.32798527400121e-02 1.85949394354739e-04
1.77625000000000e+00 4.28671446306590e-02 1.88056591119815e-04
1.84875000000000e+00 4.24583720241493e-02 1.90028879371994e-04
1.92125000000000e+00 4.20534973923070e-02 1.91873887236332e-04
1.99375000000000e+00 4.16524835648171e-02 1.93598597764959e-04
2.06625000000000e+00 4.12552937258135e-02 1.95209426437401e-04
2.13875000000000e+00 4.08618914104989e-02 1.96712286782100e-04
2.21125000000000e+00 4.04722405017971e-02 1.98112646295064e-04
2.28375000000000e+00 4.00863052270370e-02 1.99415574373306e-04
2.35625000000000e+00 3.97040501546689e-02 2.00625783630406e-04
2.42875000000000e+00 3.93254401910113e-02 2.01747665691589e-04
2.50125000000000e+00 3.89504405770288e-02 2.02785322355638e-04
2.57375000000000e+00 3.85790168851416e-02 2.03742592846058e-04
2.64625000000000e+00 3.82111350160645e-02 2.04623077743640e-04
2.71875000000000e+00 3.78467611956760e-02 2.05430160088647e-04
2.79125000000000e+00 3.74858619719183e-02 2.06167024057647e-04
2.86375000000000e+00 3.71284042117255e-02 2.06836671552691e-04
2.93625000000000e+00 3.67743550979824e-02 2.07441936985854e-04
3.00875000000000e+00 3.64236821265111e-02 2.07985500497717e-04
3.08125000000000e+00 3.60763531030870e-02 2.08469899811499e-04
3.15375000000000e+00 3.57323361404835e-02 2.08897540894251e-04
3.22625000000000e+00 3.53915996555442e-02 2.09270707571620e-04
3.29875000000000e+00 3.50541123662833e-02 2.09591570221529e-04
3.37125000000000e+00 3.47198432890140e-02 2.09862193654577e-04
3.44375000000000e+00 3.43887617355036e-02 2.10084544274295e-04
3.51625000000000e+00 3.40608373101567e-02 2.10260496597898e-04
3.58875000000000e+00 3.37360399072238e-02 2.10391839207569e-04
3.66125000000000e+00 3.34143397080381e-02 2.10480280193321e-04
3.73375000000000e+00 3.30957071782779e-02 2.10527452140898e-04
3.80625000000000e+00 3.27801130652545e-02 2.10534916711419e-04
3.87875000000000e+00 3.24675283952274e-02 2.10504168854009e-04
3.95125000000000e+00 3.21579244707438e-02 2.10436640687649e-04
4.02375000000000e+00 3.18512728680043e-02 2.10333705084323e-04
4.09625000000000e+00 3.15475454342529e-02 2.10196678981885e-04
4.16875000000000e+00 3.12467142851931e-02 2.10026826451797e-04
4.24125000000000e+00 3.09487518024272e-02 2.09825361544264e-04
4.31375000000000e+00 3.06536306309213e-02 2.09593450930754e-04
4.38625000000000e+00 3.03613236764936e-02 2.09332216361828e-04
4.45875000000000e+00 3.00718041033271e-02 2.09042736956260e-04
4.53125000000000e+00 2.97850453315057e-02 2.08726051335891e-04
4.60375000000000e+00 2.95010210345742e-02 2.08383159619097e-04
4.67625000000000e+00 2.92197051371214e-02 2.08015025284582e-04
4.74875000000000e+00 2.89410718123859e-02 2.07622576915949e-04
4.82125000000000e+00 2.86650954798853e-02 2.07206709836593e-04
4.89375000000000e+00 2.83917508030674e-02 2.06768287643550e-04
4.96625000000000e+00 2.81210126869845e-02 2.06308143647980e-04
5.03875000000000e+00 2.78528562759895e-02 2.05827082229552e-04
5.11125000000000e+00 2.75872569514535e-02 2.05325880111050e-04
5.18375000000000e+00 2.73241903295063e-02 2.04805287559081e-04
5.25625000000000e+00 2.70636322587973e-02 2.04266029516344e-04
5.32875000000000e+00 2.68055588182783e-02 2.03708806670231e-04
5.40125000000000e+00 2.65499463150076e-02 2.03134296462323e-04
5.47375000000000e+00 2.62967712819749e-02 2.02543154042873e-04
5.54625000000000e+00 2.60460104759462e-02 2.01936013173977e-04
5.61875000000000e+00 2.57976408753307e-02 2.01313487085012e-04
5.69125000000000e+00 2.55516396780670e-02 2.00676169283385e-04
5.76375000000000e+00 2.53079842995293e-02 2.00024634323590e-04
5.83625000000000e+00 2.50666523704548e-02 1.99359438537309e-04
5.90875000000000e+00 2.48276217348891e-02 1.98681120726939e-04
5.98125000000000e+00 2.45908704481528e-02 1.97990202824912e-04
6.05375000000000e+00 2.43563767748267e-02 1.97287190520942e-04
6.12625000000000e+00 2.41241191867562e-02 1.96572573859122e-04
6.19875000000000e+00 2.38940763610747e-02 1.95846827806704e-04
6.27125000000000e+00 2.36662271782467e-02 1.95110412796300e-04
6.34375000000000e+00 2.34405507201279e-02 1.94363775243006e-04
6.41625000000000e+00 2.32170262680456e-02 1.93607348037930e-04
6.48875000000000e+00 2.29956333008962e-02 1.92841551019503e-04
6.56125000000000e+00 2.27763514932613e-02 1.92066791423795e-04
6.63375000000000e+00 2.25591607135416e-02 1.91283464315068e-04
6.70625000000000e+00 2.23440410221088e-02 1.90491952997594e-04
6.77875000000000e+00 2.21309726694748e-02 1.89692629409790e-04
6.85125000000000e+00 2.19199360944789e-02 1.88885854501660e-04
6.92375000000000e+00 2.17109119224918e-02 1.88071978596393e-04
6.99625000000000e+00 2.15038809636366e-02 1.87251341736957e-04
7.06875000000000e+00 2.12988242110275e-02 1.86424274018510e-04
7.14125000000000e+00 2.10957228390244e-02 1.85591095907308e-04
7.21375000000000e+00 2.08945582015048e-02 1.84752118546811e-04
7.28625000000000e+00 2.06953118301522e-02 1.83907644051697e-04
7.35875000000000e+00 2.04979654327600e-02 1.83057965790276e-04
7.43125000000000e+00 2.03025008915526e-02 1.82203368655952e-04
7.50375000000000e+00 2.01089002615218e-02 1.81344129328296e-04
7.57625000000000e+00 1.99171457687797e-02 1.80480516524130e-04
7.64875000000000e+00 1.97272198089264e-02 1.79612791239163e-04
7.72125000000000e+00 1.95391049454343e-02 1.78741206980640e-04
7.79375000000000e+00 1.93527839080468e-02 1.77866009991390e-04
7.86625000000000e+00 1.91682395911934e-02 1.76987439465686e-04
7.93875000000000e+00 1.89854550524187e-02 1.76105727757274e-04
8.01125000000000e+00 1.88044135108272e-02 1.75221100579963e-04
8.08375000000000e+00 1.86250983455428e-02 1.74333777201061e-04
8.15625000000000e+00 1.84474930941827e-02 1.73443970628022e-04
8.22875000000000e+00 1.82715814513463e-02 1.72551887788572e-04
8.30125000000000e+00 1.80973472671177e-02 1.71657729704591e-04
8.37375000000000e+00 1.79247745455838e-02 1.70761691660069e-04
8.44625000000000e+00 1.77538474433652e-02 1.69863963363329e-04
8.51875000000000e+00 1.75845502681617e-02 1.68964729103797e-04
8.59125000000000e+00 1.74168674773121e-02 1.68064167903537e-04
8.66375000000000e+00 1.72507836763665e-02 1.67162453663747e-04
8.73625000000000e+00 1.70862836176738e-02 1.66259755306468e-04
8.80875000000000e+00 1.69233521989814e-02 1.65356236911688e-04
8.88125000000000e+00 1.67619744620485e-02 1.64452057849965e-04
8.95375000000000e+00 1.66021355912736e-02 1.63547372910843e-04
9.02625000000000e+00 1.64438209123336e-02 1.62642332427176e-04
9.09875000000000e+00 1.62870158908367e-02 1.61737082395508e-04
9.17125000000000e+00 1.61317061309884e-02 1.60831764592689e-04
9.24375000000000e+00 1.59778773742696e-02 1.59926516688875e-04
9.31625000000000e+00 1.58255154981275e-02 1.59021472357047e-04
9.38875000000000e+00 1.56746065146794e-02 1.58116761379145e-04
9.46125000000000e+00 1.55251365694280e-02 1.57212509748986e-04
9.53375000000000e+00 1.53770919399900e-02 1.56308839772085e-04
9.60625000000000e+00 1.52304590348359e-02 1.55405870162477e-04
9.67875000000000e+00 1.50852243920423e-02 1.54503716136658e-04
9.75125000000000e+00 1.49413746780560e-02 1.53602489504717e-04
9.82375000000000e+00 1.47988966864702e-02 1.52702298758822e-04
9.89625000000000e+00 1.46577773368116e-02 1.51803249159118e-04
9.96875000000000e+00 1.45180036733395e-02 1.50905442817120e-04
1.00412500000000e+01 1.43795628638569e-02 1.50008978776710e-04
1.01137500000000e+01 1.42424421985320e-02 1.49113953092810e-04
1.01862500000000e+01 1.41066290887313e-02 1.48220458907822e-04
1.02587500000000e+01 1.39721110658642e-02 1.47328586525893e-04
1.03312500000000e+01 1.38388757802381e-02 1.46438423485110e-04
1.04037500000000e+01 1.37069109999245e-02 1.45550054627644e-04
1.04762500000000e+01 1.35762046096361e-02 1.44663562167982e-04
1.05487500000000e+01 1.34467446096148e-02 1.43779025759250e-04
1.06212500000000e+01 1.33185191145298e-02 1.42896522557715e-04
1.06937500000000e+01 1.31915163523862e-02 1.42016127285530e-04
1.07662500000000e+01 1.30657246634448e-02 1.41137912291777e-04
1.08387500000000e+01 1.29411324991512e-02 1.40261947611840e-04
1.09112500000000e+01 1.28177284210758e-02 1.39388301025195e-04
1.09837500000000e+01 1.26955010998635e-02 1.38517038111665e-04
1.10562500000000e+01 1.25744393141939e-02 1.37648222306158e-04
1.11287500000000e+01 1.24545319497507e-02 1.36781914951948e-04
1.12012500000000e+01 1.23357679982016e-02 1.35918175352588e-04
1.12737500000000e+01 1.22181365561876e-02 1.35057060822427e-04
1.13462500000000e+01 1.21016268243218e-02 1.34198626735820e-04
1.14187500000000e+01 1.19862281061983e-02 1.33342926575066e-04
1.14912500000000e+01 1.18719298074100e-02 1.32490011977093e-04
1.15637500000000e+01 1.17587214345759e-02 1.31639932778951e-04
1.16362500000000e+01 1.16465925943778e-02 1.30792737062141e-04
1.17087500000000e+01 1.15355329926062e-02 1.29948471195802e-04
1.17812500000000e+01 1.14255324332151e-02 1.29107179878803e-04
1.18537500000000e+01 1.13165808173859e-02 1.28268906180784e-04
1.19262500000000e+01 1.12086681426006e-02 1.27433691582150e-04
1.19987500000000e+01 1.11017845017228e-02 1.26601576013055e-04
1.20712500000000e+01 1.09959200820890e-02 1.25772597891437e-04
1.21437500000000e+01 1.08910651646070e-02 1.24946794160072e-04
1.22162500000000e+01 1.07872101228643e-02 1.24124200322743e-04
1.22887500000000e+01 1.06843454222436e-02 1.23304850479500e-04
1.23612500000000e+01 1.05824616190481e-02 1.22488777361033e-04
1.24337500000000e+01 1.04815493596339e-02 1.21676012362246e-04
1.25062500000000e+01 1.03815993795520e-02 1.20866585574964e-04
1.25787500000000e+01 1.02826025026970e-02 1.20060525819878e-04
1.26512500000000e+01 1.01845496404653e-02 1.19257860677699e-04
1.27237500000000e+01 1.00874317909203e-02 1.18458616519559e-04
1.27962500000000e+01 9.99124003796599e-03 1.17662818536691e-04
1.28687500000000e+01 9.89596555052864e-03 1.16870490769379e-04
1.29412500000000e+01 9.80159958174583e-03 1.16081656135226e-04
1.30137500000000e+01 9.70813346816349e-03 1.15296336456736e-04
1.30862500000000e+01 9.61555862894053e-03 1.14514552488249e-04
1.31587500000000e+01 9.52386656506108e-03 1.13736323942247e-04
1.32312500000000e+01 9.43304885855418e-03 1.12961669515011e-04
1.33037500000000e+01 9.34309717172099e-03 1.12190606911685e-04
1.33762500000000e+01 9.25400324636932e-03 1.11423152870766e-04
1.34487500000000e+01 9.16575890305545e-03 1.10659323188000e-04
1.35212500000000e+01 9.07835604033323e-03 1.09899132739712e-04
1.35937500000000e+01 8.99178663401030e-03 1.09142595505616e-04
1.36662500000000e+01 8.90604273641139e-03 1.08389724591073e-04
1.37387500000000e+01 8.82111647564870e-03 1.07640532248841e-04
1.38112500000000e+01 8.73700005489921e-03 1.06895029900333e-04
1.38837500000000e+01 8.65368575168884e-03 1.06153228156347e-04
1.39562500000000e+01 8.57116591718349e-03 1.05415136837359e-04
1.40287500000000e+01 8.48943297548685e-03 1.04680764993315e-04
1.41012500000000e+01 8.40847942294484e-03 1.03950120923001e-04
1.41737500000000e+01 8.32829782745675e-03 1.03223212192945e-04
1.42462500000000e+01 8.24888082779290e-03 1.02500045655888e-04
1.43187500000000e+01 8.17022113291885e-03 1.01780627468846e-04
1.43912500000000e+01 8.09231152132601e-03 1.01064963110752e-04
1.44637500000000e+01 8.01514484036869e-03 1.00353057399694e-04
1.45362500000000e+01 7.93871400560738e-03 9.96449145097717e-05
1.46087500000000e+01 7.86301200015842e-03 9.89405379875688e-05
1.46812500000000e+01 7.78803187404974e-03 9.82399307682440e-05
1.47537500000000e+01 7.71376674358282e-03 9.75430951912567e-05
1.48262500000000e+01 7.64020979070074e-03 9.68500330157578e-05
1.48987500000000e+01 7.56735426236224e-03 9.61607454356163e-05
1.49712500000000e+01 7.49519346992169e-03 9.54752330941176e-05
1.50437500000000e+01 7.42372078851508e-03 9.47934960983170e-05
1.51162500000000e+01 7.35292965645179e-03 9.41155340330845e-05
1.51887500000000e+01 7.28281357461217e-03 9.34413459748387e-05
1.52612500000000e+01 7.21336610585090e-03 9.27709305049637e-05
1.53337500000000e+01 7.14458087440602e-03 9.21042857229340e-05
1.54062500000000e+01 7.07645156531355e-03 9.14414092591343e-05
1.54787500000000e+01 7.00897192382775e-03 9.07822982873991e-05
1.55512500000000e+01 6.94213575484693e-03 9.01269495372850e-05
1.56237500000000e+01 6.87593692234463e-03 8.94753593060564e-05
1.56962500000000e+01 6.81036934880635e-03 8.88275234704085e-05
1.57687500000000e+01 6.74542701467155e-03 8.81834374979309e-05
1.58412500000000e+01 6.68110395778103e-03 8.75430964583107e-05
1.59137500000000e+01 6.61739427282956e-03 8.69064950342984e-05
1.59862500000000e+01 6.55429211082375e-03 8.62736275324274e-05
1.60587500000000e+01 6.49179167854502e-03 8.56444878934901e-05
1.61312500000000e+01 6.42988723801779e-03 8.50190697027760e-05
1.62037500000000e+01 6.36857310598269e-03 8.43973662001057e-05
1.62762500000000e+01 6.30784365337479e-03 8.37793702896325e-05
1.63487500000000e+01 6.24769330480679e-03 8.31650745494186e-05
1.64212500000000e+01 6.18811653805719e-03 8.25544712408077e-05
1.64937500000000e+01 6.12910788356328e-03 8.19475523175822e-05
1.65662500000000e+01 6.07066192391906e-03 8.13443094349370e-05
1.66387500000000e+01 6.01277329337781e-03 8.07447339582398e-05
1.67112500000000e+01 5.95543667735950e-03 8.01488169715950e-05
1.67837500000000e+01 5.89864681196291e-03 7.95565492862296e-05
1.68562500000000e+01 5.84239848348234e-03 7.89679214486974e-05
1.69287500000000e+01 5.78668652792894e-03 7.83829237488879e-05
1.70012500000000e+01 5.73150583055663e-03 7.78015462278578e-05
1.70737500000000e+01 5.67685132539256e-03 7.72237786855079e-05
1.71462500000000e+01 5.62271799477198e-03 7.66496106880742e-05
1.72187500000000e+01 5.56910086887759e-03 7.60790315754596e-05
1.72912500000000e+01 5.51599502528329e-03 7.55120304684036e-05
1.73637500000000e+01 5.46339558850228e-03 7.49485962754884e-05
1.74362500000000e+01 5.41129772953942e-03 7.43887176999979e-05
1.75087500000000e+01 5.35969666544791e-03 7.38323832466259e-05
1.75812500000000e+01 5.30858765889018e-03 7.32795812280285e-05
1.76537500000000e+01 5.25796601770299e-03 7.27302997712263e-05
1.77262500000000e+01 5.20782709446662e-03 7.21845268238779e-05
1.77987500000000e+01 5.15816628607825e-03 7.16422501604117e-05
1.78712500000000e+01 5.10897903332931e-03 7.11034573880206e-05
1.79437500000000e+01 5.06026082048696e-03 7.05681359525222e-05
1.80162500000000e+01 5.01200717487949e-03 7.00362731440806e-05
1.80887500000000e+01 4.96421366648569e-03 6.95078561028133e-05
1.81612500000000e+01 4.91687590752818e-03 6.89828718242701e-05
1.82337500000000e+01 4.86998955207053e-03 6.84613071647899e-05
1.83062500000000e+01 4.82355029561831e-03 6.79431488467341e-05
1.83787500000000e+01 4.77755387472391e-03 6.74283834636085e-05
1.84512500000000e+01 4.73199606659508e-03 6.69169974850616e-05
1.85237500000000e+01 4.68687268870733e-03 6.64089772617795e-05
1.85962500000000e+01 4.64217959841984e-03 6.59043090302764e-05
1.86687500000000e+01 4.59791269259524e-03 6.54029789175584e-05
1.87412500000000e+01 4.55406790722284e-03 6.49049729456991e-05
1.88137500000000e+01 4.51064121704557e-03 6.44102770363115e-05
1.88862500000000e+01 4.46762863519038e-03 6.39188770149066e-05
1.89587500000000e+01 4.42502621280229e-03 6.34307586151611e-05
1.90312500000000e+01 4.38283003868180e-03 6.29459074830888e-05
1.91037500000000e+01 4.34103623892584e-03 6.24643091811232e-05
1.91762500000000e+01 4.29964097657211e-03 6.19859491920973e-05
1.92487500000000e+01 4.25864045124683e-03 6.15108129231317e-05
1.93212500000000e+01 4.21803089881582e-03 6.10388857094460e-05
1.93937500000000e+01 4.17780859103895e-03 6.05701528180718e-05
1.94662500000000e+01 4.13796983522785e-03 6.01045994514857e-05
1.95387500000000e+01 4.09851097390688e-03 5.96422107511605e-05
1.96112500000000e+01 4.05942838447738e-03 5.91829718010268e-05
1.96837500000000e+01 4.02071847888506e-03 5.87268676308600e-05
1.97562500000000e+01 3.98237770329063e-03 5.82738832195967e-05
1.98287500000000e+01 3.94440253774348e-03 5.78240034985605e-05
1.99012500000000e+01 3.90678949585858e-03 5.73772133546156e-05
1.99737500000000e+01 3.86953512449634e-03 5.69334976332572e-05
2.00462500000000e+01 3.83263600344566e-03 5.64928411416151e-05
2.01187500000000e+01 3.79608874510988e-03 5.60552286513996e-05
2.01912500000000e+01 3.75988999419580e-03 5.56206449017711e-05
2.02637500000000e+01 3.72403642740563e-03 5.51890746021427e-05
2.03362500000000e+01 3.68852475313187e-03 5.47605024349194e-05
2.04087500000000e+01 3.65335171115517e-03 5.43349130581679e-05
2.04812500000000e+01 3.61851407234496e-03 5.39122911082235e-05
2.05537500000000e+01 3.58400863836303e-03 5.34926212022407e-05
2.06262500000000e+01 3.54983224136991e-03 5.30758879406787e-05
2.06987500000000e+01 3.51598174373397e-03 5.26620759097206e-05
2.07712500000000e+01 3.48245403774347e-03 5.22511696836456e-05
2.08437500000000e+01 3.44924604532116e-03 5.18431538271397e-05
2.09162500000000e+01 3.41635471774174e-03 5.14380128975428e-05
2.09887500000000e+01 3.38377703535194e-03 5.10357314470538e-05
2.10612500000000e+01 3.35151000729331e-03 5.06362940248685e-05
2.11337500000000e+01 3.31955067122764e-03 5.02396851792731e-05
2.12062500000000e+01 3.28789609306499e-03 4.98458894596879e-05
2.12787500000000e+01 3.25654336669431e-03 4.94548914186496e-05
2.13512500000000e+01 3.22548961371666e-03 4.90666756137560e-05
2.14237500000000e+01 3.19473198318095e-03 4.86812266095536e-05
2.14962500000000e+01 3.16426765132216e-03 4.82985289793819e-05
2.15687500000000e+01 3.13409382130218e-03 4.79185673071690e-05
2.16412500000000e+01 3.10420772295298e-03 4.75413261891846e-05
2.17137500000000e+01 3.07460661252227e-03 4.71667902357410e-05
2.17862500000000e+01 3.04528777242169e-03 4.67949440728588e-05
2.18587500000000e+01 3.01624851097724e-03 4.64257723438869e-05
2.19312500000000e+01 2.98748616218218e-03 4.60592597110774e-05
2.20037500000000e+01 2.95899808545230e-03 4.56953908571204e-05
2.20762500000000e+01 2.93078166538348e-03 4.53341504866399e-05
2.21487500000000e+01 2.90283431151157e-03 4.49755233276527e-05
2.22212500000000e+01 2.87515345807456e-03 4.46194941329823e-05
2.22937500000000e+01 2.84773656377705e-03 4.42660476816366e-05
2.23662500000000e+01 2.82058111155695e-03 4.39151687801541e-05
2.24387500000000e+01 2.79368460835435e-03 4.35668422639049e-05
2.25112500000000e+01 2.76704458488266e-03 4.32210529983621e-05
2.25837500000000e+01 2.74065859540194e-03 4.28777858803414e-05
2.26562500000000e+01 2.71452421749434e-03 4.25370258391954e-05
2.27287500000000e+01 2.68863905184169e-03 4.21987578379799e-05
2.28012500000000e+01 2.66300072200525e-03 4.18629668745916e-05
2.28737500000000e+01 2.63760687420755e-03 4.15296379828702e-05
