Energy (eV)          EEDF (eV^-(3/2))     First Anisotropy
6.78947368421053e-03 1.72721219929839e+00 1.45322900318365e-03
2.03684210526316e-02 1.69615136929744e+00 2.38613875170487e-03
3.39473684210526e-02 1.66564911305209e+00 3.11426600248672e-03
4.75263157894737e-02 1.63569538544019e+00 3.64617305954234e-03
6.11052631578947e-02 1.60628032215912e+00 4.07253841895573e-03
7.46842105263158e-02 1.57739423634358e+00 4.42824212077237e-03
8.82631578947368e-02 1.54902761523398e+00 4.73163073489226e-03
1.01842105263158e-01 1.52117111718643e+00 4.99395826616241e-03
1.15421052631579e-01 1.49381556855012e+00 5.22280285160593e-03
1.29000000000000e-01 1.46695196072637e+00 5.42360006978388e-03
1.42578947368421e-01 1.44057144683714e+00 5.60043135115629e-03
1.56157894736842e-01 1.41466533949643e+00 5.75646980317778e-03
1.69736842105263e-01 1.38922510732822e+00 5.89425072355119e-03
1.83315789473684e-01 1.36424237225817e+00 6.01584486243855e-03
1.96894736842105e-01 1.33970890715545e+00 6.12297446874913e-03
2.10473684210526e-01 1.31561663257752e+00 6.21709376874319e-03
2.24052631578947e-01 1.29195761461979e+00 6.29944649160793e-03
2.37631578947368e-01 1.26872406192578e+00 6.37110808673352e-03
2.51210526315789e-01 1.24590832316739e+00 6.43301730266776e-03
2.64789473684211e-01 1.22350288479936e+00 6.48600036388743e-03
2.78368421052632e-01 1.20150036829439e+00 6.53078975293650e-03
2.91947368421053e-01 1.17989352774678e+00 6.56803897086590e-03
3.05526315789474e-01 1.15867524770436e+00 6.59833437701317e-03
3.19105263157895e-01 1.13783854059536e+00 6.62220476277557e-03
3.32684210526316e-01 1.11737654444988e+00 6.64012913386788e-03
3.46263157894737e-01 1.09728252082022e+00 6.65254317862448e-03
3.59842105263158e-01 1.07754985232104e+00 6.65984463453332e-03
3.73421052631579e-01 1.05817204068022e+00 6.66239779170451e-03
3.87000000000000e-01 1.03914270442729e+00 6.66053732510967e-03
4.00578947368421e-01 1.02045557680720e+00 6.65457151841585e-03
4.14157894736842e-01 1.00210450385459e+00 6.64478506290168e-03
4.27736842105263e-01 9.84083442223534e-01 6.63144147152546e-03
4.41315789473684e-01 9.66386457209304e-01 6.61478514007917e-03
4.54894736842105e-01 9.49007720911506e-01 6.59504317866333e-03
4.68473684210526e-01 9.31941510157772e-01 6.57242700035569e-03
4.82052631578947e-01 9.15182204770132e-01 6.54713371748799e-03
4.95631578947368e-01 8.98724285601557e-01 6.51934739282045e-03
5.09210526315789e-01 8.82562332726789e-01 6.48924011821359e-03
5.22789473684211e-01 8.66691023751520e-01 6.45697300247526e-03
5.36368421052632e-01 8.51105131962359e-01 6.42269705421541e-03
5.49947368421053e-01 8.35799524612839e-01 6.38655394817843e-03
5.63526315789474e-01 8.20769161314677e-01 6.34867673930297e-03
5.77105263157895e-01 8.06009092293626e-01 6.30919050693234e-03
5.90684210526316e-01 7.91514456765149e-01 6.26821291466444e-03
6.04263157894737e-01 7.77280481405318e-01 6.22585474299713e-03
6.17842105263158e-01 7.63302478683419e-01 6.18222036251449e-03
6.31421052631579e-01 7.49575845410575e-01 6.13740816416339e-03
6.45000000000000e-01 7.36096061154873e-01 6.09151096476006e-03
6.58578947368421e-01 7.22858686757222e-01 6.04461635578492e-03
6.72157894736842e-01 7.09859362928524e-01 5.99680704316297e-03
6.85736842105263e-01 6.97093808753296e-01 5.94816115963275e-03
6.99315789473684e-01 6.84557820283729e-01 5.89875253411914e-03
7.12894736842105e-01 6.72247269207637e-01 5.84865096018440e-03
7.26473684210526e-01 6.60158101419084e-01 5.79792243511968e-03
7.40052631578947e-01 6.48286335751002e-01 5.74662938045472e-03
7.53631578947368e-01 6.36628062613583e-01 5.69483085635201e-03
7.67210526315790e-01 6.25179442709768e-01 5.64258274258659e-03
7.80789473684211e-01 6.13936705814826e-01 5.58993792274814e-03
7.94368421052632e-01 6.02896149489660e-01 5.53694645573858e-03
8.07947368421053e-01 5.92054137864224e-01 5.48365572085817e-03
8.21526315789474e-01 5.81407100479397e-01 5.43011056787612e-03
8.35105263157895e-01 5.70951531070916e-01 5.37635345725918e-03
8.48684210526316e-01 5.60683986416956e-01 5.32242457774791e-03
8.62263157894737e-01 5.50601085239490e-01 5.26836197130545e-03
8.75842105263158e-01 5.40699507043814e-01 5.21420164352852e-03
8.89421052631579e-01 5.30975991070671e-01 5.15997766666487e-03
9.03000000000000e-01 5.21427335188331e-01 5.10572228378787e-03
9.16578947368421e-01 5.12050394839952e-01 5.05146599321972e-03
9.30157894736842e-01 5.02842082037993e-01 4.99723763990905e-03
9.43736842105263e-01 4.93799364316583e-01 4.94306450147121e-03
9.57315789473684e-01 4.84919263734537e-01 4.88897235816500e-03
9.70894736842105e-01 4.76198855921732e-01 4.83498557102720e-03
9.84473684210526e-01 4.67635269080004e-01 4.78112715010300e-03
9.98052631578947e-01 4.59225683072484e-01 4.72741882374960e-03
1.01163157894737e+00 4.50967328429006e-01 4.67388108063258e-03
1.02521052631579e+00 4.42857485617547e-01 4.62053326070521e-03
1.03878947368421e+00 4.34893483840437e-01 4.56739360223328e-03
1.05236842105263e+00 4.27072700407699e-01 4.51447925231299e-03
1.06594736842105e+00 4.19392559863514e-01 4.46180638135646e-03
1.07952631578947e+00 4.11850532926361e-01 4.40939019980578e-03
1.09310526315789e+00 4.04444135870454e-01 4.35724498272997e-03
1.10668421052632e+00 3.97170929635148e-01 4.30538413438843e-03
1.12026315789474e+00 3.90028519083637e-01 4.25382024492758e-03
1.13384210526316e+00 3.83014552026835e-01 4.20256511130060e-03
1.14742105263158e+00 3.76126718638482e-01 4.15162975548881e-03
1.16100000000000e+00 3.69362750630336e-01 4.10102447930003e-03
1.17457894736842e+00 3.62720420559943e-01 4.05075891230531e-03
1.18815789473684e+00 3.56197540930927e-01 4.00084202744662e-03
1.20173684210526e+00 3.49791963640893e-01 3.95128215441657e-03
1.21531578947368e+00 3.43501579217255e-01 3.90208702649889e-03
1.22889473684211e+00 3.37324316171098e-01 3.85326382138201e-03
1.24247368421053e+00 3.31258140167283e-01 3.80481917269560e-03
1.25605263157895e+00 3.25301053504099e-01 3.75675917968722e-03
1.26963157894737e+00 3.19451094405038e-01 3.70908944750401e-03
1.28321052631579e+00 3.13706336415874e-01 3.66181512215144e-03
1.29678947368421e+00 3.08064887638683e-01 3.61494089888937e-03
1.31036842105263e+00 3.02524890242061e-01 3.56847102297055e-03
1.32394736842105e+00 2.97084519844072e-01 3.52240934893844e-03
1.33752631578947e+00 2.91741984790980e-01 3.47675934017675e-03
1.35110526315789e+00 2.86495525689199e-01 3.43152407412720e-03
1.36468421052632e+00 2.81343414784589e-01 3.38670627350364e-03
1.37826315789474e+00 2.76283955429024e-01 3.34230833319166e-03
1.39184210526316e+00 2.71315481414019e-01 3.29833232484256e-03
1.40542105263158e+00 2.66436356531004e-01 3.25478000026747e-03
1.41900000000000e+00 2.61644973995659e-01 3.21165281862551e-03
1.43257894736842e+00 2.56939755950507e-01 3.16895196975646e-03
1.44615789473684e+00 2.52319152848981e-01 3.12667837719478e-03
1.45973684210526e+00 2.47781643042661e-01 3.08483270015110e-03
1.47331578947368e+00 2.43325732247264e-01 3.04341535727823e-03
1.48689473684211e+00 2.38949953078932e-01 3.00242654698099e-03
1.50047368421053e+00 2.34652864484686e-01 2.96186624919802e-03
1.51405263157895e+00 2.30433051355258e-01 2.92173422629136e-03
1.52763157894737e+00 2.26289124029643e-01 2.88203004388513e-03
1.54121052631579e+00 2.22219717862866e-01 2.84275308859830e-03
1.55478947368421e+00 2.18223492699142e-01 2.80390256886735e-03
1.56836842105263e+00 2.14299132508955e-01 2.76547751104886e-03
1.58194736842105e+00 2.10445344952727e-01 2.72747679359218e-03
1.59552631578947e+00 2.06660860883908e-01 2.68989914277838e-03
1.60910526315789e+00 2.02944434003229e-01 2.65274313231552e-03
1.62268421052632e+00 1.99294840423832e-01 2.61600719994601e-03
1.63626315789474e+00 1.95710878289397e-01 2.57968966147269e-03
1.64984210526316e+00 1.92191367314215e-01 2.54378871044324e-03
1.66342105263158e+00 1.88735148459435e-01 2.50830241721383e-03
1.67700000000000e+00 1.85341083529428e-01 2.47322874360815e-03
1.69057894736842e+00 1.82008054815980e-01 2.43856555524416e-03
1.70415789473684e+00 1.78734964672485e-01 2.40431062074214e-03
1.71773684210526e+00 1.75520735210917e-01 2.37046161038659e-03
1.73131578947368e+00 1.72364307927149e-01 2.33701610909089e-03
1.74489473684211e+00 1.69264643369474e-01 2.30397162725033e-03
1.75847368421053e+00 1.66220720744272e-01 2.27132559958785e-03
1.77205263157895e+00 1.63231537632524e-01 2.23907538351853e-03
1.78563157894737e+00 1.60296109641950e-01 2.20721827063454e-03
1.79921052631579e+00 1.57413470098240e-01 2.17575149627625e-03
1.81278947368421e+00 1.54582669679782e-01 2.14467223810686e-03
1.82636842105263e+00 1.51802776152553e-01 2.11397761167207e-03
1.83994736842105e+00 1.49072874061385e-01 2.08366469099641e-03
1.85352631578947e+00 1.46392064385106e-01 2.05373050404545e-03
1.86710526315789e+00 1.43759464284400e-01 2.02417203078550e-03
1.88068421052632e+00 1.41174206796211e-01 1.99498621247505e-03
1.89426315789474e+00 1.38635440561171e-01 1.96616995934458e-03
1.90784210526316e+00 1.36142329504039e-01 1.93772014889310e-03
1.92142105263158e+00 1.33694052598047e-01 1.90963362383547e-03
1.93500000000000e+00 1.31289803581115e-01 1.88190720036343e-03
1.94857894736842e+00 1.28928790702017e-01 1.85453767494102e-03
1.96215789473684e+00 1.26610236424192e-01 1.82752182249449e-03
1.97573684210526e+00 1.24333377205579e-01 1.80085639429138e-03
1.98931578947368e+00 1.22097463235058e-01 1.77453812529307e-03
2.00289473684211e+00 1.19901758196079e-01 1.74856374017336e-03
2.01647368421053e+00 1.17745538992101e-01 1.72292995144124e-03
2.03005263157895e+00 1.15628095540940e-01 1.69763345728691e-03
2.04363157894737e+00 1.13548730529989e-01 1.67267094813170e-03
2.05721052631579e+00 1.11506759196110e-01 1.64803911196274e-03
2.07078947368421e+00 1.09501509071097e-01 1.62373463242035e-03
2.08436842105263e+00 1.07532319789619e-01 1.59975418492120e-03
2.09794736842105e+00 1.05598542870708e-01 1.57609444939947e-03
2.11152631578947e+00 1.03699541477271e-01 1.55275210642380e-03
2.12510526315790e+00 1.01834690233634e-01 1.52972383506433e-03
2.13868421052632e+00 1.00003375010372e-01 1.50700631823499e-03
2.15226315789474e+00 9.82049927301208e-02 1.48459624700406e-03
2.16584210526316e+00 9.64389511445564e-02 1.46249031869445e-03
2.17942105263158e+00 9.47046686640773e-02 1.44068523477807e-03
2.19300000000000e+00 9.30015741579262e-02 1.41917770564408e-03
2.20657894736842e+00 9.13291067734052e-02 1.39796445442538e-03
2.22015789473684e+00 8.96867157290231e-02 1.37704221511886e-03
2.23373684210526e+00 8.80738601555425e-02 1.35640773052130e-03
2.24731578947368e+00 8.64900089102949e-02 1.33605775648757e-03
2.26089473684211e+00 8.49346404088814e-02 1.31598906532834e-03
2.27447368421053e+00 8.34072424332962e-02 1.29619844396360e-03
2.28805263157895e+00 8.19073119836043e-02 1.27668269191065e-03
2.30163157894737e+00 8.04343551054337e-02 1.25743862508848e-03
2.31521052631579e+00 7.89878867333084e-02 1.23846307883555e-03
2.32878947368421e+00 7.75674305126418e-02 1.21975290610657e-03
2.34236842105263e+00 7.61725186613587e-02 1.20130497437270e-03
2.35594736842105e+00 7.48026918152012e-02 1.18311617363398e-03
2.36952631578947e+00 7.34574988594753e-02 1.16518341334328e-03
2.38310526315790e+00 7.21364967976774e-02 1.14750362051299e-03
2.39668421052632e+00 7.08392505997962e-02 1.13007374283024e-03
2.41026315789474e+00 6.95653330641411e-02 1.11289075110100e-03
2.42384210526316e+00 6.83143246612218e-02 1.09595163754941e-03
2.43742105263158e+00 6.70858134112160e-02 1.07925341399232e-03
2.45100000000000e+00 6.58793947430196e-02 1.06279311462474e-03
2.46457894736842e+00 6.46946713656393e-02 1.04656779819103e-03
2.47815789473684e+00 6.35312531233171e-02 1.03057454634264e-03
2.49173684210526e+00 6.23887568812598e-02 1.01481046188350e-03
2.50531578947368e+00 6.12668063946702e-02 9.99272671260946e-04
2.51889473684211e+00 6.01650321890470e-02 9.83958326494305e-04
2.53247368421053e+00 5.90830714257325e-02 9.68864603594026e-04
2.54605263157895e+00 5.80205677953597e-02 9.53988700879662e-04
2.55963157894737e+00 5.69771713961537e-02 9.39327841207684e-04
2.57321052631579e+00 5.59525386225256e-02 9.24879273684165e-04
2.58678947368421e+00 5.49463320402833e-02 9.10640272147236e-04
2.60036842105263e+00 5.39582202872872e-02 8.96608132786490e-04
2.61394736842105e+00 5.29878779639226e-02 8.82780179236881e-04
2.62752631578947e+00 5.20349855151059e-02 8.69153760228499e-04
2.64110526315790e+00 5.10992291360174e-02 8.55726248038496e-04
2.65468421052632e+00 5.01803006650514e-02 8.42495040317406e-04
2.66826315789474e+00 4.92778974855895e-02 8.29457561474020e-04
2.68184210526316e+00 4.83917224164711e-02 8.16611261276376e-04
2.69542105263158e+00 4.75214836241208e-02 8.03953613375762e-04
2.70900000000000e+00 4.66668945230667e-02 7.91482116940060e-04
2.72257894736842e+00 4.58276736845275e-02 7.79194297882319e-04
2.73615789473684e+00 4.50035447347339e-02 7.67087707525337e-04
2.74973684210526e+00 4.41942362730240e-02 7.55159921196586e-04
2.76331578947368e+00 4.33994817793930e-02 7.43408539688865e-04
2.77689473684211e+00 4.26190195294230e-02 7.31831190349702e-04
2.79047368421053e+00 4.18525924998865e-02 7.20425525808673e-04
2.80405263157895e+00 4.10999482924122e-02 7.09189222641875e-04
2.81763157894737e+00 4.03608390475653e-02 6.98119982677899e-04
2.83121052631579e+00 3.96350213656835e-02 6.87215533963177e-04
2.84478947368421e+00 3.89222562192348e-02 6.76473629550997e-04
2.85836842105263e+00 3.82223088816809e-02 6.65892045712212e-04
2.87194736842105e+00 3.75349488499211e-02 6.55468585198156e-04
2.88552631578947e+00 3.68599497614011e-02 6.45201075479997e-04
2.89910526315790e+00 3.61970893266363e-02 6.35087367533991e-04
2.91268421052632e+00 3.55461492536186e-02 6.25125336910642e-04
2.92626315789474e+00 3.49069151780305e-02 6.15312884511125e-04
2.93984210526316e+00 3.42791765862781e-02 6.05647935484347e-04
2.95342105263158e+00 3.36627267526167e-02 5.96128438075961e-04
2.96700000000000e+00 3.30573626688941e-02 5.86752364583509e-04
2.98057894736842e+00 3.24628849796132e-02 5.77517712042814e-04
2.99415789473684e+00 3.18790979104608e-02 5.68422501181953e-04
3.00773684210526e+00 3.13058092097272e-02 5.59464775331611e-04
3.02131578947368e+00 3.07428300830071e-02 5.50642601278126e-04
3.03489473684211e+00 3.01899751327750e-02 5.41954069869643e-04
3.04847368421053e+00 2.96470622920145e-02 5.33397295025035e-04
3.06205263157895e+00 2.91139127696425e-02 5.24970412703328e-04
3.07563157894737e+00 2.85903509898155e-02 5.16671581665169e-04
3.08921052631579e+00 2.80762045357069e-02 5.08498984007513e-04
3.10278947368421e+00 2.75713040878685e-02 5.00450824225448e-04
3.11636842105263e+00 2.70754833733892e-02 4.92525327884508e-04
3.12994736842105e+00 2.65885791109735e-02 4.84720743721736e-04
3.14352631578947e+00 2.61104309526335e-02 4.77035342342260e-04
3.15710526315790e+00 2.56408814354762e-02 4.69467415288530e-04
3.17068421052632e+00 2.51797759282955e-02 4.62015275661337e-04
3.18426315789474e+00 2.47269625820175e-02 4.54677258545545e-04
3.19784210526316e+00 2.42822922755459e-02 4.47451720161860e-04
3.21142105263158e+00 2.38456185708528e-02 4.40337036988247e-04
3.22500000000000e+00 2.34167976633358e-02 4.33331606313399e-04
3.23857894736842e+00 2.29956883357104e-02 4.26433846610688e-04
3.25215789473684e+00 2.25821519077116e-02 4.19642196736886e-04
3.26573684210526e+00 2.21760521942636e-02 4.12955115103360e-04
3.27931578947368e+00 2.17772554593361e-02 4.06371080169029e-04
3.29289473684211e+00 2.13856303730447e-02 3.99888590768205e-04
3.30647368421053e+00 2.10010479649318e-02 3.93506165354152e-04
3.32005263157895e+00 2.06233815850068e-02 3.87222341217757e-04
3.33363157894737e+00 2.02525068608539e-02 3.81035674926171e-04
3.34721052631579e+00 1.98883016577181e-02 3.74944742609681e-04
3.36078947368421e+00 1.95306460351087e-02 3.68948139248085e-04
3.37436842105263e+00 1.91794222105154e-02 3.63044477693559e-04
3.38794736842105e+00 1.88345145205136e-02 3.57232390028590e-04
3.40152631578947e+00 1.84958093797064e-02 3.51510526608365e-04
3.41510526315790e+00 1.81631952463233e-02 3.45877555358306e-04
3.42868421052632e+00 1.78365625844725e-02 3.40332162129444e-04
3.44226315789474e+00 1.75158038289643e-02 3.34873050922841e-04
3.45584210526316e+00 1.72008133471710e-02 3.29498943247436e-04
3.46942105263158e+00 1.68914874069906e-02 3.24208577458640e-04
3.48300000000000e+00 1.65877241417575e-02 3.19000709073753e-04
3.49657894736842e+00 1.62894235175152e-02 3.13874110966881e-04
3.51015789473684e+00 1.59964872975854e-02 3.08827572763943e-04
3.52373684210526e+00 1.57088190127359e-02 3.03859900220238e-04
3.53731578947368e+00 1.54263239285613e-02 2.98969915500069e-04
3.55089473684211e+00 1.51489090150354e-02 2.94156457345463e-04
3.56447368421053e+00 1.48764829135961e-02 2.89418380506466e-04
3.57805263157895e+00 1.46089559093662e-02 2.84754555155628e-04
3.59163157894737e+00 1.43462399008309e-02 2.80163867135581e-04
3.60521052631579e+00 1.40882483715108e-02 2.75645218104546e-04
3.61878947368421e+00 1.38348963593830e-02 2.71197525000089e-04
3.63236842105263e+00 1.35861004310149e-02 2.66819719324071e-04
3.64594736842105e+00 1.33417786540185e-02 2.62510748022407e-04
3.65952631578947e+00 1.31018505681156e-02 2.58269572785207e-04
3.67310526315790e+00 1.28662371606178e-02 2.54095169522033e-04
3.68668421052632e+00 1.26348608397380e-02 2.49986528560329e-04
3.70026315789474e+00 1.24076454096286e-02 2.45942654755661e-04
3.71384210526316e+00 1.21845160434984e-02 2.41962567010774e-04
3.72742105263158e+00 1.19653992607829e-02 2.38045297782437e-04
3.74100000000000e+00 1.17502229023342e-02 2.34189893256378e-04
3.75457894736842e+00 1.15389161071982e-02 2.30395413441006e-04
3.76815789473684e+00 1.13314092876376e-02 2.26660931715177e-04
3.78173684210526e+00 1.11276341078768e-02 2.22985534364864e-04
3.79531578947368e+00 1.09275234610373e-02 2.19368320737103e-04
3.80889473684211e+00 1.07310114475330e-02 2.15808403319151e-04
3.82247368421053e+00 1.05380333518643e-02 2.12304907313380e-04
3.83605263157895e+00 1.03485256228288e-02 2.08856970202104e-04
3.84963157894737e+00 1.01624258520793e-02 2.05463741882776e-04
3.86321052631579e+00 9.97967275402534e-03 2.02124384734307e-04
3.87678947368421e+00 9.80020614427117e-03 1.98838073217587e-04
3.89036842105263e+00 9.62396692119262e-03 1.95603993354305e-04
3.90394736842105e+00 9.45089704642817e-03 1.92421343297767e-04
3.91752631578947e+00 9.28093952447409e-03 1.89289332823343e-04
3.93110526315790e+00 9.11403838522248e-03 1.86207182939336e-04
3.94468421052632e+00 8.95013866508750e-03 1.83174125993482e-04
3.95826315789474e+00 8.78918638929552e-03 1.80189405719858e-04
3.97184210526316e+00 8.63112855292522e-03 1.77252276881446e-04
3.98542105263158e+00 8.47591310465171e-03 1.74362004904924e-04
3.99900000000000e+00 8.32348892920009e-03 1.71517865973531e-04
4.01257894736842e+00 8.17380583087042e-03 1.68719147065005e-04
4.02615789473684e+00 8.02681451592005e-03 1.65965145615967e-04
4.03973684210526e+00 7.88246657743102e-03 1.63255169179239e-04
4.05331578947368e+00 7.74071447899739e-03 1.60588535504545e-04
4.06689473684211e+00 7.60151153939909e-03 1.57964572568635e-04
4.08047368421053e+00 7.46481191623112e-03 1.55382618260219e-04
4.09405263157895e+00 7.33057059181695e-03 1.52842020058482e-04
4.10763157894737e+00 7.19874335804279e-03 1.50342135102997e-04
4.12121052631579e+00 7.06928680210026e-03 1.47882330217000e-04
4.13478947368421e+00 6.94215829127398e-03 1.45461981611694e-04
4.14836842105263e+00 6.81731595982894e-03 1.43080474507504e-04
4.16194736842105e+00 6.69471869519331e-03 1.40737203504699e-04
4.17552631578947e+00 6.57432612356109e-03 1.38431572213414e-04
4.18910526315790e+00 6.45609859746509e-03 1.36162992966703e-04
4.20268421052632e+00 6.33999718242673e-03 1.33930886873952e-04
4.21626315789474e+00 6.22598364439405e-03 1.31734683833912e-04
4.22984210526316e+00 6.11402043636252e-03 1.29573822270606e-04
4.24342105263158e+00 6.00407068680780e-03 1.27447748864263e-04
4.25700000000000e+00 5.89609818727399e-03 1.25355918596989e-04
4.27057894736842e+00 5.79006738068785e-03 1.23297794761203e-04
4.28415789473684e+00 5.68594334892569e-03 1.21272848711902e-04
