Energy (eV)          EEDF (eV^-(3/2))     First Anisotropy
3.63953488372093e-02 4.11321788268924e-02 2.35057391531693e-05
1.09186046511628e-01 4.08034458132576e-02 3.87899550187180e-05
1.81976744186047e-01 4.04773400717384e-02 5.11417401980647e-05
2.54767441860465e-01 4.01538406035585e-02 6.04857805591256e-05
3.27558139534884e-01 3.98329265791886e-02 6.82460336780044e-05
4.00348837209302e-01 3.95145773365971e-02 7.49617642344862e-05
4.73139534883721e-01 3.91987723768152e-02 8.09124775248706e-05
5.45930232558140e-01 3.88854913656782e-02 8.62672151199417e-05
6.18720930232558e-01 3.85747141321075e-02 9.11382566734016e-05
6.91511627906977e-01 3.82664206650858e-02 9.56050771989645e-05
7.64302325581395e-01 3.79605911140863e-02 9.97265950599106e-05
8.37093023255814e-01 3.76572057876231e-02 1.03548058164458e-04
9.09883720930233e-01 3.73562451507971e-02 1.07105197926671e-04
9.82674418604651e-01 3.70576898252256e-02 1.10426875828712e-04
1.05546511627907e+00 3.67615205867937e-02 1.13536844743741e-04
1.12825581395349e+00 3.64677183657332e-02 1.16454963530106e-04
1.20104651162791e+00 3.61762642472050e-02 1.19198061278661e-04
1.27383720930233e+00 3.58871394623125e-02 1.21780566036559e-04
1.34662790697674e+00 3.56003253947922e-02 1.24214973097838e-04
1.41941860465116e+00 3.53158035771873e-02 1.26512201525586e-04
1.49220930232558e+00 3.50335556915845e-02 1.28681869353778e-04
1.56500000000000e+00 3.47535635624812e-02 1.30732508446935e-04
1.63779069767442e+00 3.44758091616487e-02 1.32671734977263e-04
1.71058139534884e+00 3.42002746049397e-02 1.34506387217282e-04
1.78337209302326e+00 3.39269421527119e-02 1.36242637386913e-04
1.85616279069767e+00 3.36557942039142e-02 1.37886082675354e-04
1.92895348837209e+00 3.33868132997772e-02 1.39441820457471e-04
2.00174418604651e+00 3.31199821210511e-02 1.40914511762188e-04
2.07453488372093e+00 3.28552834882078e-02 1.42308434561358e-04
2.14732558139535e+00 3.25927003563940e-02 1.43627528235088e-04
2.22011627906977e+00 3.23322158183111e-02 1.44875431367462e-04
2.29290697674419e+00 3.20738131017717e-02 1.46055514939200e-04
2.36569767441860e+00 3.18174755686432e-02 1.47170910127163e-04
2.43848837209302e+00 3.15631867148269e-02 1.48224533114614e-04
2.51127906976744e+00 3.13109301659746e-02 1.49219105955892e-04
2.58406976744186e+00 3.10606896796872e-02 1.50157174760709e-04
2.65686046511628e+00 3.08124491433780e-02 1.51041126253718e-04
2.72965116279070e+00 3.05661925741491e-02 1.51873202332008e-04
2.80244186046512e+00 3.03219041149904e-02 1.52655512422848e-04
2.87523255813954e+00 3.00795680365556e-02 1.53390044412450e-04
2.94802325581395e+00 2.98391687352060e-02 1.54078674929108e-04
3.02081395348837e+00 2.96006907328078e-02 1.54723178500573e-04
3.09360465116279e+00 2.93641186733213e-02 1.55325235284855e-04
3.16639534883721e+00 2.91294373242468e-02 1.55886437985018e-04
3.23918604651163e+00 2.88966315748183e-02 1.56408298704433e-04
3.31197674418605e+00 2.86656864350422e-02 1.56892254537225e-04
3.38476744186047e+00 2.84365870354101e-02 1.57339673206906e-04
3.45755813953488e+00 2.82093186238682e-02 1.57751857628924e-04
3.53034883720930e+00 2.79838665669588e-02 1.58130050036339e-04
3.60313953488372e+00 2.77602163481779e-02 1.58475436208902e-04
3.67593023255814e+00 2.75383535676481e-02 1.58789149313240e-04
3.74872093023256e+00 2.73182639393482e-02 1.59072273012592e-04
3.82151162790698e+00 2.70999332920514e-02 1.59325844297320e-04
3.89430232558140e+00 2.68833475677882e-02 1.59550856519510e-04
3.96709302325581e+00 2.66684928214876e-02 1.59748262164290e-04
4.03988372093023e+00 2.64553552184303e-02 1.59918975027352e-04
4.11267441860465e+00 2.62439210350199e-02 1.60063872207161e-04
4.18546511627907e+00 2.60341766573377e-02 1.60183796444498e-04
4.25825581395349e+00 2.58261085802717e-02 1.60279557809380e-04
4.33104651162791e+00 2.56197034071239e-02 1.60351935726869e-04
4.40383720930233e+00 2.54149478472949e-02 1.60401680412865e-04
4.47662790697674e+00 2.52118287168921e-02 1.60429514193760e-04
4.54941860465116e+00 2.50103329373914e-02 1.60436133110673e-04
4.62220930232558e+00 2.48104475352289e-02 1.60422208396517e-04
4.69500000000000e+00 2.46121596396494e-02 1.60388387526275e-04
4.76779069767442e+00 2.44154564832035e-02 1.60335295184982e-04
4.84058139534884e+00 2.42203254004808e-02 1.60263534524431e-04
4.91337209302326e+00 2.40267538276899e-02 1.60173688322758e-04
4.98616279069767e+00 2.38347293006537e-02 1.60066319763598e-04
5.05895348837209e+00 2.36442394552117e-02 1.59941973155245e-04
5.13174418604651e+00 2.34552720260180e-02 1.59801174935422e-04
5.20453488372093e+00 2.32678148461142e-02 1.59644434599734e-04
5.27732558139535e+00 2.30818558450548e-02 1.59472245286115e-04
5.35011627906977e+00 2.28973830492291e-02 1.59285084314348e-04
5.42290697674419e+00 2.27143845807192e-02 1.59083414075725e-04
5.49569767441860e+00 2.25328486565381e-02 1.58867682503224e-04
5.56848837209302e+00 2.23527635881941e-02 1.58638323871252e-04
5.64127906976744e+00 2.21741177799571e-02 1.58395759206744e-04
5.71406976744186e+00 2.19968997291002e-02 1.58140396668571e-04
5.78686046511628e+00 2.18210980248278e-02 1.57872632196007e-04
5.85965116279070e+00 2.16467013478391e-02 1.57592850108548e-04
5.93244186046512e+00 2.14736984686975e-02 1.57301423418796e-04
6.00523255813953e+00 2.13020782480157e-02 1.56998714120687e-04
6.07802325581395e+00 2.11318296354333e-02 1.56685073735705e-04
6.15081395348837e+00 2.09629416691806e-02 1.56360843818053e-04
6.22360465116279e+00 2.07954034745424e-02 1.56026356193403e-04
6.29639534883721e+00 2.06292042639941e-02 1.55681933178137e-04
6.36918604651163e+00 2.04643333362253e-02 1.55327888104680e-04
6.44197674418605e+00 2.03007800754523e-02 1.54964525513852e-04
6.51476744186047e+00 2.01385339509838e-02 1.54592141634830e-04
6.58755813953488e+00 1.99775845157878e-02 1.54211024554279e-04
6.66034883720930e+00 1.98179214065787e-02 1.53821454370695e-04
6.73313953488372e+00 1.96595343428961e-02 1.53423703583260e-04
6.80593023255814e+00 1.95024131266732e-02 1.53018037450924e-04
6.87872093023256e+00 1.93465476408818e-02 1.52604714120662e-04
6.95151162790698e+00 1.91919278495843e-02 1.52183984743691e-04
7.02430232558140e+00 1.90385437970511e-02 1.51756093815020e-04
7.09709302325581e+00 1.88863856073348e-02 1.51321279486724e-04
7.16988372093023e+00 1.87354434829858e-02 1.50879773664396e-04
7.24267441860465e+00 1.85857077050743e-02 1.50431802093587e-04
7.31546511627907e+00 1.84371686323445e-02 1.49977584708934e-04
7.38825581395349e+00 1.82898167005954e-02 1.49517335709350e-04
7.46104651162791e+00 1.81436424222600e-02 1.49051263880018e-04
7.53383720930233e+00 1.79986363852020e-02 1.48579572657803e-04
7.60662790697674e+00 1.78547892527064e-02 1.48102460188617e-04
7.67941860465116e+00 1.77120917626787e-02 1.47620119586169e-04
7.75220930232558e+00 1.75705347272306e-02 1.47132739170109e-04
7.82500000000000e+00 1.74301090315367e-02 1.46640502512850e-04
7.89779069767442e+00 1.72908056338034e-02 1.46143588479617e-04
7.97058139534884e+00 1.71526155644997e-02 1.45642171460155e-04
8.04337209302326e+00 1.70155299259509e-02 1.45136421581690e-04
8.11616279069767e+00 1.68795398912506e-02 1.44626504741060e-04
8.18895348837209e+00 1.67446367042103e-02 1.44112582631070e-04
8.26174418604651e+00 1.66108116786219e-02 1.43594812949189e-04
8.33453488372093e+00 1.64780561978577e-02 1.43073349589184e-04
8.40732558139535e+00 1.63463617138348e-02 1.42548342661595e-04
8.48011627906977e+00 1.62157197469488e-02 1.42019938509052e-04
8.55290697674419e+00 1.60861218853648e-02 1.41488279935768e-04
8.62569767441861e+00 1.59575597844766e-02 1.40953506219176e-04
8.69848837209302e+00 1.58300251665155e-02 1.40415753323078e-04
8.77127906976744e+00 1.57035098195746e-02 1.39875153906205e-04
8.84406976744186e+00 1.55780055975258e-02 1.39331837326553e-04
8.91686046511628e+00 1.54535044193458e-02 1.38785929810092e-04
8.98965116279070e+00 1.53299982687330e-02 1.38237554605224e-04
9.06244186046512e+00 1.52074791931770e-02 1.37686831984342e-04
9.13523255813953e+00 1.50859393038634e-02 1.37133879241648e-04
9.20802325581395e+00 1.49653707750259e-02 1.36578810847542e-04
9.28081395348837e+00 1.48457658435717e-02 1.36021738589817e-04
9.35360465116279e+00 1.47271168081924e-02 1.35462771569619e-04
9.42639534883721e+00 1.46094160292597e-02 1.34902016194086e-04
9.49918604651163e+00 1.44926559282017e-02 1.34339576352695e-04
9.57197674418605e+00 1.43768289870156e-02 1.33775553408498e-04
9.64476744186046e+00 1.42619277479022e-02 1.33210046362498e-04
9.71755813953488e+00 1.41479448124266e-02 1.32643151843776e-04
9.79034883720930e+00 1.40348728414030e-02 1.32074964096757e-04
9.86313953488372e+00 1.39227045543015e-02 1.31505575109798e-04
9.93593023255814e+00 1.38114327288909e-02 1.30935074732495e-04
1.00087209302326e+01 1.37010502004358e-02 1.30363550726456e-04
1.00815116279070e+01 1.35915498613575e-02 1.29791088556434e-04
1.01543023255814e+01 1.34829246613206e-02 1.29217771669819e-04
1.02270930232558e+01 1.33751676061160e-02 1.28643681642287e-04
1.02998837209302e+01 1.32682717574327e-02 1.28068898027230e-04
1.03726744186047e+01 1.31622302324118e-02 1.27493498467594e-04
1.04454651162791e+01 1.30570362032029e-02 1.26917558740222e-04
1.05182558139535e+01 1.29526828965244e-02 1.26341152799004e-04
1.05910465116279e+01 1.28491635932276e-02 1.25764352816833e-04
1.06638372093023e+01 1.27464716278639e-02 1.25187229226453e-04
1.07366279069767e+01 1.26446003882560e-02 1.24609850760192e-04
1.08094186046512e+01 1.25435433150713e-02 1.24032284488624e-04
1.08822093023256e+01 1.24432939014007e-02 1.23454595858259e-04
1.09550000000000e+01 1.23438456923387e-02 1.22876848454241e-04
1.10277906976744e+01 1.22451922854597e-02 1.22299104863119e-04
1.11005813953488e+01 1.21473273277111e-02 1.21721426153673e-04
1.11733720930233e+01 1.20502445177194e-02 1.21143871349540e-04
1.12461627906977e+01 1.19539376044720e-02 1.20566498308100e-04
1.13189534883721e+01 1.18584003869154e-02 1.19989363468889e-04
1.13917441860465e+01 1.17636267135553e-02 1.19412521884930e-04
1.14645348837209e+01 1.16696104820611e-02 1.18836027253317e-04
1.15373255813953e+01 1.15763456388725e-02 1.18259931945012e-04
1.16101162790698e+01 1.14838261788100e-02 1.17684287033892e-04
1.16829069767442e+01 1.13920461446882e-02 1.17109142325110e-04
1.17556976744186e+01 1.13009996269321e-02 1.16534546382723e-04
1.18284883720930e+01 1.12106807631966e-02 1.15960546556645e-04
1.19012790697674e+01 1.11210837379894e-02 1.15387189008967e-04
1.19740697674419e+01 1.10322027822961e-02 1.14814518739622e-04
1.20468604651163e+01 1.09440321732086e-02 1.14242579611437e-04
1.21196511627907e+01 1.08565662335575e-02 1.13671414374572e-04
1.21924418604651e+01 1.07697993315455e-02 1.13101064690395e-04
1.22652325581395e+01 1.06837258803855e-02 1.12531571154787e-04
1.23380232558140e+01 1.05983403379404e-02 1.11962973320870e-04
1.24108139534884e+01 1.05136372063666e-02 1.11395309721235e-04
1.24836046511628e+01 1.04296110317601e-02 1.10828617889636e-04
1.25563953488372e+01 1.03462564038046e-02 1.10262934382220e-04
1.26291860465116e+01 1.02635679554240e-02 1.09698294798153e-04
1.27019767441860e+01 1.01815403624363e-02 1.09134733799818e-04
1.27747674418605e+01 1.01001683432111e-02 1.08572285132673e-04
1.28475581395349e+01 1.00194466583293e-02 1.08010981644518e-04
1.29203488372093e+01 9.93937011024586e-03 1.07450855304353e-04
1.29931395348837e+01 9.85993354295510e-03 1.06891937220825e-04
1.30659302325581e+01 9.78113184165869e-03 1.06334257660252e-04
1.31387209302326e+01 9.70295993243634e-03 1.05777846064238e-04
1.32115116279070e+01 9.62541278191910e-03 1.05222731066904e-04
1.32843023255814e+01 9.54848539696526e-03 1.04668940511728e-04
1.33570930232558e+01 9.47217282433886e-03 1.04116501468021e-04
1.34298837209302e+01 9.39647015039075e-03 1.03565440247033e-04
1.35026744186047e+01 9.32137250074220e-03 1.03015782417702e-04
1.35754651162791e+01 9.24687503997107e-03 1.02467552822061e-04
1.36482558139535e+01 9.17297297130046e-03 1.01920775590312e-04
1.37210465116279e+01 9.09966153628981e-03 1.01375474155575e-04
1.37938372093023e+01 9.02693601452859e-03 1.00831671268306e-04
1.38666279069767e+01 8.95479172333229e-03 1.00289389010416e-04
1.39394186046512e+01 8.88322401744094e-03 9.97486488090895e-05
1.40122093023256e+01 8.81222828872000e-03 9.92094714502810e-05
1.40850000000000e+01 8.74179996586368e-03 9.86718769208068e-05
1.41577906976744e+01 8.67193451459196e-03 9.81358849379084e-05
1.42305813953488e+01 8.60262743587415e-03 9.76015146160325e-05
1.43033720930233e+01 8.53387426713412e-03 9.70687841286003e-05
1.43761627906977e+01 8.46567058146120e-03 9.65377112483971e-05
1.44489534883721e+01 8.39801198732504e-03 9.60083131822718e-05
1.45217441860465e+01 8.33089412829290e-03 9.54806065827911e-05
1.45945348837209e+01 8.26431268274915e-03 9.49546075596334e-05
1.46673255813953e+01 8.19826336361696e-03 9.44303316907469e-05
1.47401162790698e+01 8.13274191808233e-03 9.39077940332998e-05
1.48129069767442e+01 8.06774412732021e-03 9.33870091343665e-05
1.48856976744186e+01 8.00326580622287e-03 9.28679910414291e-05
1.49584883720930e+01 7.93930280313042e-03 9.23507533126474e-05
1.50312790697674e+01 7.87585099956350e-03 9.18353090269072e-05
1.51040697674419e+01 7.81290630995811e-03 9.13216707936986e-05
1.51768604651163e+01 7.75046468140252e-03 9.08098507627583e-05
1.52496511627907e+01 7.68852209337633e-03 9.02998606335247e-05
1.53224418604651e+01 7.62707455749156e-03 8.97917116644234e-05
1.53952325581395e+01 7.56611811723591e-03 8.92854146819420e-05
1.54680232558140e+01 7.50564884771795e-03 8.87809800895301e-05
1.55408139534884e+01 7.44566285541441e-03 8.82784178763228e-05
1.56136046511628e+01 7.38615627791950e-03 8.77777376256837e-05
1.56863953488372e+01 7.32712528369623e-03 8.72789485236107e-05
1.57591860465116e+01 7.26856607182958e-03 8.67820593668968e-05
1.58319767441860e+01 7.21047487178196e-03 8.62870785711837e-05
1.59047674418605e+01 7.15284794315033e-03 8.57940141788868e-05
1.59775581395349e+01 7.09568157542536e-03 8.53028738669062e-05
1.60503488372093e+01 7.03897208775254e-03 8.48136649542148e-05
1.61231395348837e+01 6.98271582869513e-03 8.43263944092747e-05
1.61959302325581e+01 6.92690917599913e-03 8.38410688573353e-05
1.62687209302326e+01 6.87154853635994e-03 8.33576945875690e-05
1.63415116279070e+01 6.81663034519111e-03 8.28762775600774e-05
1.64143023255814e+01 6.76215106639470e-03 8.23968234127496e-05
1.64870930232558e+01 6.70810719213372e-03 8.19193374679971e-05
1.65598837209302e+01 6.65449524260617e-03 8.14438247393633e-05
1.66326744186047e+01 6.60131176582103e-03 8.09702899379966e-05
1.67054651162791e+01 6.54855333737597e-03 8.04987374789866e-05
1.67782558139535e+01 6.49621656023687e-03 8.00291714875988e-05
1.68510465116279e+01 6.44429806451909e-03 7.95615958053884e-05
1.69238372093023e+01 6.39279450727047e-03 7.90960139961674e-05
1.69966279069767e+01 6.34170257225612e-03 7.86324293518959e-05
1.70694186046512e+01 6.29101896974485e-03 7.81708448984333e-05
1.71422093023256e+01 6.24074043629738e-03 7.77112634011974e-05
1.72150000000000e+01 6.19086373455620e-03 7.72536872610459e-05
1.72877906976744e+01 6.14138565332200e-03 7.67981188506469e-05
1.73605813953488e+01 6.09230300648655e-03 7.63445602983267e-05
1.74333720930233e+01 6.04361263369372e-03 7.58930132686290e-05
1.75061627906977e+01 5.99531139984528e-03 7.54434793057897e-05
1.75789534883721e+01 5.94739619489907e-03 7.49959597253114e-05
1.76517441860465e+01 5.89986393366870e-03 7.45504556188981e-05
1.77245348837209e+01 5.85271155562499e-03 7.41069678593009e-05
1.77973255813953e+01 5.80593602469879e-03 7.36654971050794e-05
1.78701162790698e+01 5.75953432908561e-03 7.32260438052551e-05
1.79429069767442e+01 5.71350348105160e-03 7.27886082038978e-05
1.80156976744186e+01 5.66784051674123e-03 7.23531903446145e-05
1.80884883720930e+01 5.62254249598643e-03 7.19197900749503e-05
1.81612790697674e+01 5.57760650211728e-03 7.14884070507136e-05
1.82340697674419e+01 5.53302964177422e-03 7.10590407402216e-05
1.83068604651163e+01 5.48880904472173e-03 7.06316904284599e-05
1.83796511627907e+01 5.44494186366355e-03 7.02063552211652e-05
1.84524418604651e+01 5.40142527405931e-03 6.97830340488407e-05
1.85252325581395e+01 5.35825647394270e-03 6.93617256706779e-05
1.85980232558140e+01 5.31543268374103e-03 6.89424286784219e-05
1.86708139534884e+01 5.27295114609627e-03 6.85251415001664e-05
1.87436046511628e+01 5.23080912568750e-03 6.81098624040603e-05
1.88163953488372e+01 5.18900390905479e-03 6.76965895019630e-05
1.88891860465116e+01 5.14753280442446e-03 6.72853207530182e-05
1.89619767441860e+01 5.10639314153581e-03 6.68760539671520e-05
1.90347674418605e+01 5.06558227146918e-03 6.64687868085481e-05
1.91075581395349e+01 5.02509756647536e-03 6.60635167990268e-05
1.91803488372093e+01 4.98493641980639e-03 6.56602413213502e-05
1.92531395348837e+01 4.94509624554776e-03 6.52589576224957e-05
1.93259302325581e+01 4.90557447845187e-03 6.48596628168495e-05
1.93987209302326e+01 4.86636857377286e-03 6.44623538893438e-05
1.94715116279070e+01 4.82747600710275e-03 6.40670276985415e-05
1.95443023255814e+01 4.78889427420895e-03 6.36736809796566e-05
1.96170930232558e+01 4.75062089087294e-03 6.32823103475203e-05
1.96898837209302e+01 4.71265339273037e-03 6.28929122995003e-05
1.97626744186047e+01 4.67498933511236e-03 6.25054832183537e-05
1.98354651162791e+01 4.63762629288811e-03 6.21200193750362e-05
1.99082558139535e+01 4.60056186030873e-03 6.17365169314572e-05
1.99810465116279e+01 4.56379365085233e-03 6.13549719431797e-05
2.00538372093023e+01 4.52731929707039e-03 6.09753803620721e-05
2.01266279069767e+01 4.49113645043530e-03 6.05977380389133e-05
2.01994186046512e+01 4.45524278118914e-03 6.02220407259506e-05
2.02722093023256e+01 4.41963597819368e-03 5.98482840794023e-05
2.03450000000000e+01 4.38431374878156e-03 5.94764635904806e-05
2.04177906976744e+01 4.34927381877944e-03 5.91065748034058e-05
2.04905813953488e+01 4.31451393184597e-03 5.87386131734991e-05
2.05633720930233e+01 4.28003184984544e-03 5.83725739231366e-05
2.06361627906977e+01 4.24582535252960e-03 5.80084522644422e-05
2.07089534883721e+01 4.21189223739466e-03 5.76462433276168e-05
2.07817441860465e+01 4.17823031953947e-03 5.72859421631317e-05
2.08545348837209e+01 4.14483743152489e-03 5.69275437438968e-05
2.09273255813953e+01 4.11171142323416e-03 5.65710429673849e-05
2.10001162790698e+01 4.07885016173452e-03 5.62164346577011e-05
2.10729069767442e+01 4.04625153113984e-03 5.58637135676286e-05
2.11456976744186e+01 4.01391343247438e-03 5.55128743806364e-05
2.12184883720930e+01 3.98183378353767e-03 5.51639117128406e-05
2.12912790697674e+01 3.95001051877039e-03 5.48168201149347e-05
2.13640697674419e+01 3.91844158912144e-03 5.44715940740851e-05
2.14368604651163e+01 3.88712496191592e-03 5.41282280157921e-05
2.15096511627907e+01 3.85605862072434e-03 5.37867163057064e-05
2.15824418604651e+01 3.82524056523270e-03 5.34470532514215e-05
2.16552325581395e+01 3.79466881111377e-03 5.31092331042360e-05
2.17280232558140e+01 3.76434138989926e-03 5.27732500608717e-05
2.18008139534884e+01 3.73425634885311e-03 5.24390982651694e-05
2.18736046511628e+01 3.70441175084575e-03 5.21067718097420e-05
2.19463953488372e+01 3.67480567422936e-03 5.17762647376133e-05
2.20191860465116e+01 3.64543621271412e-03 5.14475710438082e-05
2.20919767441860e+01 3.61630147524553e-03 5.11206846769127e-05
2.21647674418605e+01 3.58739958588259e-03 5.07955995406299e-05
2.22375581395349e+01 3.55872868367705e-03 5.04723094952817e-05
2.23103488372093e+01 3.53028692255354e-03 5.01508083592915e-05
2.23831395348837e+01 3.50207247119076e-03 4.98310899106388e-05
2.24559302325581e+01 3.47408351290352e-03 4.95131478882812e-05
2.25287209302326e+01 3.44631824552578e-03 4.91969759935537e-05
2.26015116279070e+01 3.41877488129462e-03 4.88825678915433e-05
2.26743023255814e+01 3.39145164673512e-03 4.85699172124379e-05
2.27470930232558e+01 3.36434678254617e-03 4.82590175528404e-05
2.28198837209302e+01 3.33745854348718e-03 4.79498624770682e-05
2.28926744186047e+01 3.31078519826575e-03 4.76424455184267e-05
2.29654651162791e+01 3.28432502942614e-03 4.73367601804557e-05
