Energy (eV)          EEDF (eV^-(3/2))     First Anisotropy
2.18604651162791e-03 2.80775756563295e+00 1.57064078511945e-03
6.55813953488372e-03 2.78524535302288e+00 2.59189032756503e-03
1.09302325581395e-02 2.76291364020399e+00 3.41713057301244e-03
1.53023255813954e-02 2.74076097992509e+00 4.04136511746857e-03
1.96744186046512e-02 2.71878593667379e+00 4.55974905482928e-03
2.40465116279070e-02 2.69698708630992e+00 5.00831979555657e-03
2.84186046511628e-02 2.67536301613360e+00 5.40575650184435e-03
3.27906976744186e-02 2.65391232471202e+00 5.76335651735788e-03
3.71627906976744e-02 2.63263362199238e+00 6.08862394270556e-03
4.15348837209302e-02 2.61152552898741e+00 6.38687060299366e-03
4.59069767441860e-02 2.59058667776809e+00 6.66203453212035e-03
5.02790697674419e-02 2.56981571133455e+00 6.91714013828439e-03
5.46511627906977e-02 2.54921128365406e+00 7.15457581880699e-03
5.90232558139535e-02 2.52877205943984e+00 7.37627083413673e-03
6.33953488372093e-02 2.50849671411111e+00 7.58381300805078e-03
6.77674418604651e-02 2.48838393370860e+00 7.77852992466067e-03
7.21395348837209e-02 2.46843241478183e+00 7.96154662048353e-03
7.65116279069768e-02 2.44864086438667e+00 8.13382764771241e-03
8.08837209302326e-02 2.42900799991630e+00 8.29620841195934e-03
8.52558139534884e-02 2.40953254904813e+00 8.44941895636820e-03
8.96279069767442e-02 2.39021324964036e+00 8.59410232411027e-03
9.40000000000000e-02 2.37104884971388e+00 8.73082895308120e-03
9.83720930232558e-02 2.35203810730532e+00 8.86010811476448e-03
1.02744186046512e-01 2.33317979031777e+00 8.98239705394104e-03
1.07116279069767e-01 2.31447267672129e+00 9.09810846424439e-03
1.11488372093023e-01 2.29591555418719e+00 9.20761661876842e-03
1.15860465116279e-01 2.27750722010717e+00 9.31126239194285e-03
1.20232558139535e-01 2.25924648151536e+00 9.40935748477251e-03
1.24604651162791e-01 2.24113215501097e+00 9.50218796552933e-03
1.28976744186047e-01 2.22316306668162e+00 9.59001726494591e-03
1.33348837209302e-01 2.20533805202726e+00 9.67308872612424e-03
1.37720930232558e-01 2.18765595588466e+00 9.75162778822312e-03
1.42093023255814e-01 2.17011563235259e+00 9.82584386683665e-03
1.46465116279070e-01 2.15271594471750e+00 9.89593198152637e-03
1.50837209302326e-01 2.13545576537992e+00 9.96207417129050e-03
1.55209302325581e-01 2.11833397578130e+00 1.00244407311560e-02
1.59581395348837e-01 2.10134946633160e+00 1.00831912970841e-02
1.63953488372093e-01 2.08450113633731e+00 1.01384758015946e-02
1.68325581395349e-01 2.06778789393015e+00 1.01904353186795e-02
1.72697674418605e-01 2.05120865599633e+00 1.02392028134978e-02
1.77069767441860e-01 2.03476234810630e+00 1.02849038098143e-02
1.81441860465116e-01 2.01844790444517e+00 1.03276569861035e-02
1.85813953488372e-01 2.00226426774361e+00 1.03675747095586e-02
1.90186046511628e-01 1.98621038920934e+00 1.04047635158534e-02
1.94558139534884e-01 1.97028522845909e+00 1.04393245413159e-02
1.98930232558140e-01 1.95448775345135e+00 1.04713539132926e-02
2.03302325581395e-01 1.93881694041935e+00 1.05009431036246e-02
2.07674418604651e-01 1.92327177380475e+00 1.05281792494401e-02
2.12046511627907e-01 1.90785124619185e+00 1.05531454449796e-02
2.16418604651163e-01 1.89255435824224e+00 1.05759210076376e-02
2.20790697674419e-01 1.87738011863009e+00 1.05965817210047e-02
2.25162790697674e-01 1.86232754397789e+00 1.06152000573428e-02
2.29534883720930e-01 1.84739565879273e+00 1.06318453816211e-02
2.33906976744186e-01 1.83258349540304e+00 1.06465841389865e-02
2.38279069767442e-01 1.81789009389593e+00 1.06594800273185e-02
2.42651162790698e-01 1.80331450205497e+00 1.06705941563248e-02
2.47023255813954e-01 1.78885577529847e+00 1.06799851944672e-02
2.51395348837209e-01 1.77451297661825e+00 1.06877095048631e-02
2.55767441860465e-01 1.76028517651896e+00 1.06938212711817e-02
2.60139534883721e-01 1.74617145295779e+00 1.06983726144418e-02
2.64511627906977e-01 1.73217089128478e+00 1.07014137015187e-02
2.68883720930233e-01 1.71828258418348e+00 1.07029928460915e-02
2.73255813953488e-01 1.70450563161220e+00 1.07031566026814e-02
2.77627906976744e-01 1.69083914074563e+00 1.07019498543606e-02
2.82000000000000e-01 1.67728222591706e+00 1.06994159030717e-02
2.86372093023256e-01 1.66383400851601e+00 1.06955965207785e-02
2.90744186046512e-01 1.65049361706743e+00 1.06905320382615e-02
2.95116279069767e-01 1.63726018703764e+00 1.06842614295282e-02
2.99488372093023e-01 1.62413286082470e+00 1.06768223487718e-02
3.03860465116279e-01 1.61111078770278e+00 1.06682511983273e-02
3.08232558139535e-01 1.59819312376707e+00 1.06585831843154e-02
3.12604651162791e-01 1.58537903187909e+00 1.06478523690071e-02
3.16976744186047e-01 1.57266768161238e+00 1.06360917201457e-02
3.21348837209302e-01 1.56005824919877e+00 1.06233331574481e-02
3.25720930232558e-01 1.54754991747494e+00 1.06096075964889e-02
3.30093023255814e-01 1.53514187582945e+00 1.05949449901465e-02
3.34465116279070e-01 1.52283332015027e+00 1.05793743677824e-02
3.38837209302326e-01 1.51062345277261e+00 1.05629238723106e-02
3.43209302325581e-01 1.49851148242724e+00 1.05456207952959e-02
3.47581395348837e-01 1.48649662418924e+00 1.05274916102137e-02
3.51953488372093e-01 1.47457809942711e+00 1.05085620039910e-02
3.56325581395349e-01 1.46275513575228e+00 1.04888569069428e-02
3.60697674418605e-01 1.45102696696913e+00 1.04684005212033e-02
3.65069767441860e-01 1.43939283302526e+00 1.04472163477448e-02
3.69441860465116e-01 1.42785197996228e+00 1.04253272120780e-02
3.73813953488372e-01 1.41640365986694e+00 1.04027552887097e-02
3.78186046511628e-01 1.40504713082264e+00 1.03795221244387e-02
3.82558139534884e-01 1.39378165686137e+00 1.03556486605478e-02
3.86930232558140e-01 1.38260650791601e+00 1.03311552539688e-02
3.91302325581395e-01 1.37152095977304e+00 1.03060616974845e-02
3.95674418604651e-01 1.36052429402556e+00 1.02803872390042e-02
4.00046511627907e-01 1.34961579802677e+00 1.02541505999837e-02
4.04418604651163e-01 1.33879476484377e+00 1.02273699930282e-02
4.08790697674419e-01 1.32806049321177e+00 1.02000631387273e-02
4.13162790697674e-01 1.31741228748859e+00 1.01722472817639e-02
4.17534883720930e-01 1.30684945760965e+00 1.01439392063341e-02
4.21906976744186e-01 1.29637131904318e+00 1.01151552509206e-02
4.26279069767442e-01 1.28597719274593e+00 1.00859113224486e-02
4.30651162790698e-01 1.27566640511908e+00 1.00562229098579e-02
4.35023255813954e-01 1.26543828796468e+00 1.00261050971229e-02
4.39395348837209e-01 1.25529217844226e+00 9.99557257574813e-03
4.43767441860465e-01 1.24522741902594e+00 9.96463965676712e-03
4.48139534883721e-01 1.23524335746178e+00 9.93332028226434e-03
4.52511627906977e-01 1.22533934672553e+00 9.90162803645362e-03
4.56883720930233e-01 1.21551474498067e+00 9.86957615632631e-03
4.61255813953488e-01 1.20576891553688e+00 9.83717754189195e-03
4.65627906976744e-01 1.19610122680869e+00 9.80444476603355e-03
4.70000000000000e-01 1.18651105227462e+00 9.77139008860918e-03
4.74372093023256e-01 1.17699777041744e+00 9.73802545164719e-03
4.78744186046512e-01 1.16756076474172e+00 9.70436249749584e-03
4.83116279069768e-01 1.15819942367553e+00 9.67041258676842e-03
4.87488372093023e-01 1.14891314055047e+00 9.63618679224107e-03
4.91860465116279e-01 1.13970131356231e+00 9.60169591153376e-03
4.96232558139535e-01 1.13056334573199e+00 9.56695047471990e-03
5.00604651162791e-01 1.12149864486698e+00 9.53196075167059e-03
5.04976744186047e-01 1.11250662352283e+00 9.49673675914292e-03
5.09348837209302e-01 1.10358669896517e+00 9.46128826762786e-03
5.13720930232558e-01 1.09473829313191e+00 9.42562480796530e-03
5.18093023255814e-01 1.08596083259575e+00 9.38975567773718e-03
5.22465116279070e-01 1.07725374852710e+00 9.35368994744793e-03
5.26837209302326e-01 1.06861647665713e+00 9.31743646650024e-03
5.31209302325582e-01 1.06004845724127e+00 9.28100386897488e-03
5.35581395348837e-01 1.05154913502286e+00 9.24440057922294e-03
5.39953488372093e-01 1.04311795919727e+00 9.20763481728152e-03
5.44325581395349e-01 1.03475438337610e+00 9.17071460411331e-03
5.48697674418605e-01 1.02645786555184e+00 9.13364776668156e-03
5.53069767441861e-01 1.01822786806271e+00 9.09644194286649e-03
5.57441860465116e-01 1.01006385755784e+00 9.05910458622936e-03
5.61813953488372e-01 1.00196530496268e+00 9.02164297062789e-03
5.66186046511628e-01 9.93931685444740e-01 8.98406419469245e-03
5.70558139534884e-01 9.85962478379552e-01 8.94637518616533e-03
5.74930232558140e-01 9.78057167316954e-01 8.90858270610864e-03
5.79302325581395e-01 9.70215239947606e-01 8.87069335299053e-03
5.83674418604651e-01 9.62436188069796e-01 8.83271356664600e-03
5.88046511627907e-01 9.54719507556501e-01 8.79464963212317e-03
5.92418604651163e-01 9.47064698322722e-01 8.75650768341697e-03
5.96790697674419e-01 9.39471264293071e-01 8.71829370709429e-03
6.01162790697675e-01 9.31938713369623e-01 8.68001354581601e-03
6.05534883720930e-01 9.24466557400031e-01 8.64167290175803e-03
6.09906976744186e-01 9.17054312145881e-01 8.60327733993515e-03
6.14279069767442e-01 9.09701497251320e-01 8.56483229143162e-03
6.18651162790698e-01 9.02407636211921e-01 8.52634305654134e-03
6.23023255813954e-01 8.95172256343801e-01 8.48781480782091e-03
6.27395348837209e-01 8.87994888752997e-01 8.44925259305912e-03
6.31767441860465e-01 8.80875068305068e-01 8.41066133816459e-03
6.36139534883721e-01 8.73812333594960e-01 8.37204584997567e-03
6.40511627906977e-01 8.66806226917101e-01 8.33341081899350e-03
6.44883720930233e-01 8.59856294235736e-01 8.29476082204243e-03
6.49255813953488e-01 8.52962085155511e-01 8.25610032485969e-03
6.53627906976744e-01 8.46123152892277e-01 8.21743368461611e-03
6.58000000000000e-01 8.39339054244138e-01 8.17876515513086e-03
6.62372093023256e-01 8.32609349553064e-01 8.14009888092626e-03
6.66744186046512e-01 8.25933602705621e-01 8.10143890514048e-03
6.71116279069768e-01 8.19311381075258e-01 8.06278917745764e-03
6.75488372093023e-01 8.12742255504166e-01 8.02415354778299e-03
6.79860465116279e-01 8.06225800275462e-01 7.98553577126111e-03
6.84232558139535e-01 7.99761593085604e-01 7.94693951037468e-03
6.88604651162791e-01 7.93349215017020e-01 7.90836833699008e-03
6.92976744186047e-01 7.86988250510964e-01 7.86982573435255e-03
6.97348837209302e-01 7.80678287340581e-01 7.83131509903234e-03
7.01720930232558e-01 7.74418916584195e-01 7.79283974282116e-03
7.06093023255814e-01 7.68209732598808e-01 7.75440289458165e-03
7.10465116279070e-01 7.62050332993809e-01 7.71600770205241e-03
7.14837209302326e-01 7.55940318604904e-01 7.67765723360969e-03
7.19209302325581e-01 7.49879293468239e-01 7.63935447998447e-03
7.23581395348837e-01 7.43866864794747e-01 7.60110235594050e-03
7.27953488372093e-01 7.37902642944687e-01 7.56290370191015e-03
7.32325581395349e-01 7.31986241402398e-01 7.52476128559086e-03
7.36697674418605e-01 7.26117276751248e-01 7.48667780350591e-03
7.41069767441861e-01 7.20295368648785e-01 7.44865588252685e-03
7.45441860465116e-01 7.14520139802092e-01 7.41069808136008e-03
7.49813953488372e-01 7.08791215943335e-01 7.37280689199926e-03
7.54186046511628e-01 7.03108225805507e-01 7.33498474114358e-03
7.58558139534884e-01 6.97470801098367e-01 7.29723399158229e-03
7.62930232558140e-01 6.91878576484577e-01 7.25955694354818e-03
7.67302325581395e-01 6.86331189556023e-01 7.22195583604104e-03
7.71674418604651e-01 6.80828280810328e-01 7.18443284811920e-03
7.76046511627907e-01 6.75369493627559e-01 7.14699010016211e-03
7.80418604651163e-01 6.69954474247109e-01 7.10962965510452e-03
7.84790697674419e-01 6.64582871744776e-01 7.07235351964255e-03
7.89162790697674e-01 6.59254338010020e-01 7.03516364541344e-03
7.93534883720930e-01 6.53968527723404e-01 6.99806193014788e-03
7.97906976744186e-01 6.48725098334215e-01 6.96105021879761e-03
8.02279069767442e-01 6.43523710038262e-01 6.92413030463708e-03
8.06651162790698e-01 6.38364025755859e-01 6.88730393034141e-03
8.11023255813954e-01 6.33245711109979e-01 6.85057278904094e-03
8.15395348837209e-01 6.28168434404582e-01 6.81393852535134e-03
8.19767441860465e-01 6.23131866603123e-01 6.77740273638355e-03
8.24139534883721e-01 6.18135681307226e-01 6.74096697272916e-03
8.28511627906977e-01 6.13179554735531e-01 6.70463273942564e-03
8.32883720930233e-01 6.08263165702714e-01 6.66840149690138e-03
8.37255813953488e-01 6.03386195598670e-01 6.63227466189958e-03
8.41627906976744e-01 5.98548328367866e-01 6.59625360838258e-03
8.46000000000000e-01 5.93749250488859e-01 6.56033967013960e-03
8.50372093023256e-01 5.88988650948653e-01 6.52453413645226e-03
8.54744186046512e-01 5.84266221238632e-01 6.48883825642360e-03
8.59116279069768e-01 5.79581655318361e-01 6.45325324334365e-03
8.63488372093023e-01 5.74934649601196e-01 6.41778027017628e-03
8.67860465116279e-01 5.70324902934610e-01 6.38242047214174e-03
8.72232558139535e-01 5.65752116580674e-01 6.34717494749498e-03
8.76604651162791e-01 5.61215994196700e-01 6.31204475828838e-03
8.80976744186047e-01 5.56716241816033e-01 6.27703093111890e-03
8.85348837209302e-01 5.52252567829005e-01 6.24213445785899e-03
8.89720930232558e-01 5.47824682964030e-01 6.20735629637256e-03
8.94093023255814e-01 5.43432300268866e-01 6.17269737121668e-03
8.98465116279070e-01 5.39075135092012e-01 6.13815857432880e-03
9.02837209302326e-01 5.34752905064264e-01 6.10374076569915e-03
9.07209302325582e-01 5.30465330080415e-01 6.06944477403062e-03
9.11581395348837e-01 5.26212132281105e-01 6.03527139738431e-03
9.15953488372093e-01 5.21993036034809e-01 6.00122140381188e-03
9.20325581395349e-01 5.17807767919979e-01 5.96729553197622e-03
9.24697674418605e-01 5.13656056707325e-01 5.93349449175823e-03
9.29069767441861e-01 5.09537633342233e-01 5.89981896485235e-03
9.33441860465116e-01 5.05452230927334e-01 5.86626960535021e-03
9.37813953488372e-01 5.01399584705204e-01 5.83284704031107e-03
9.42186046511628e-01 4.97379432041209e-01 5.79955187032273e-03
9.46558139534884e-01 4.93391512406481e-01 5.76638467005036e-03
9.50930232558140e-01 4.89435567361038e-01 5.73334598877439e-03
9.55302325581395e-01 4.85511340537035e-01 5.70043635091838e-03
9.59674418604651e-01 4.81618577622147e-01 5.66765625656525e-03
9.64046511627907e-01 4.77757026343092e-01 5.63500618196444e-03
9.68418604651163e-01 4.73926436449280e-01 5.60248658002889e-03
9.72790697674419e-01 4.70126559696595e-01 5.57009788082223e-03
9.77162790697675e-01 4.66357149831309e-01 5.53784049203545e-03
9.81534883720930e-01 4.62617962574122e-01 5.50571479945507e-03
9.85906976744186e-01 4.58908755604331e-01 5.47372116742248e-03
9.90279069767442e-01 4.55229288544129e-01 5.44185993928401e-03
9.94651162790698e-01 4.51579322943024e-01 5.41013143783244e-03
9.99023255813954e-01 4.47958622262386e-01 5.37853596335458e-03
1.00339534883721e+00 4.44366951866904e-01 5.34707380954969e-03
1.00776744186047e+00 4.40804078965338e-01 5.31574523055947e-03
1.01213953488372e+00 4.37269772697189e-01 5.28455046040465e-03
1.01651162790698e+00 4.33763804018855e-01 5.25348973773247e-03
1.02088372093023e+00 4.30285945723171e-01 5.22256328214222e-03
1.02525581395349e+00 4.26835972392795e-01 5.19177127261315e-03
1.02962790697674e+00 4.23413660482070e-01 5.16111387086940e-03
1.03400000000000e+00 4.20018788205266e-01 5.13059125600790e-03
1.03837209302326e+00 4.16651135524154e-01 5.10020355649107e-03
1.04274418604651e+00 4.13310484226784e-01 5.06995088462392e-03
1.04711627906977e+00 4.09996617819512e-01 5.03983337014847e-03
1.05148837209302e+00 4.06709321514850e-01 5.00985109421764e-03
1.05586046511628e+00 4.03448382307289e-01 4.98000412284341e-03
1.06023255813954e+00 4.00213588869016e-01 4.95029252914390e-03
1.06460465116279e+00 3.97004731566623e-01 4.92071637082461e-03
1.06897674418605e+00 3.93821602419288e-01 4.89127567065747e-03
1.07334883720930e+00 3.90663995170649e-01 4.86197043754755e-03
1.07772093023256e+00 3.87531705189401e-01 4.83280069779822e-03
1.08209302325581e+00 3.84424529457724e-01 4.80376643364037e-03
1.08646511627907e+00 3.81342266640477e-01 4.77486761434895e-03
1.09083720930233e+00 3.78284716989108e-01 4.74610422657597e-03
1.09520930232558e+00 3.75251682330358e-01 4.71747621465857e-03
1.09958139534884e+00 3.72242966132882e-01 4.68898351082156e-03
1.10395348837209e+00 3.69258373414397e-01 4.66062605525312e-03
1.10832558139535e+00 3.66297710755974e-01 4.63240377573713e-03
1.11269767441860e+00 3.63360786264468e-01 4.60431656997676e-03
1.11706976744186e+00 3.60447409635729e-01 4.57636432460771e-03
1.12144186046512e+00 3.57557392066033e-01 4.54854694345264e-03
1.12581395348837e+00 3.54690546241320e-01 4.52086429191572e-03
1.13018604651163e+00 3.51846686398069e-01 4.49331622509144e-03
1.13455813953488e+00 3.49025628237638e-01 4.46590261517848e-03
1.13893023255814e+00 3.46227188915776e-01 4.43862329747134e-03
1.14330232558140e+00 3.43451187101245e-01 4.41147809765629e-03
1.14767441860465e+00 3.40697442893015e-01 4.38446685843472e-03
1.15204651162791e+00 3.37965777809961e-01 4.35758938706426e-03
1.15641860465116e+00 3.35256014847385e-01 4.33084548184346e-03
1.16079069767442e+00 3.32567978396932e-01 4.30423494974437e-03
1.16516279069767e+00 3.29901494258247e-01 4.27775758849128e-03
1.16953488372093e+00 3.27256389606248e-01 4.25141317098528e-03
1.17390697674419e+00 3.24632493044763e-01 4.22520146200578e-03
1.17827906976744e+00 3.22029634530066e-01 4.19912224301220e-03
1.18265116279070e+00 3.19447645361120e-01 4.17317526324218e-03
1.18702325581395e+00 3.16886358231256e-01 4.14736026439606e-03
1.19139534883721e+00 3.14345607154210e-01 4.12167700472334e-03
1.19576744186047e+00 3.11825227454567e-01 4.09612521151513e-03
1.20013953488372e+00 3.09325055817590e-01 4.07070460506550e-03
1.20451162790698e+00 3.06844930217663e-01 4.04541491461621e-03
1.20888372093023e+00 3.04384689928274e-01 4.02025586212108e-03
1.21325581395349e+00 3.01944175492523e-01 3.99522714812272e-03
1.21762790697674e+00 2.99523228770442e-01 3.97032846685535e-03
1.22200000000000e+00 2.97121692870647e-01 3.94555952870027e-03
1.22637209302326e+00 2.94739412141267e-01 3.92092001587790e-03
1.23074418604651e+00 2.92376232215565e-01 3.89640960478801e-03
1.23511627906977e+00 2.90031999945780e-01 3.87202798781713e-03
1.23948837209302e+00 2.87706563394268e-01 3.84777483028591e-03
1.24386046511628e+00 2.85399771877489e-01 3.82364979214481e-03
1.24823255813954e+00 2.83111475901988e-01 3.79965254240283e-03
1.25260465116279e+00 2.80841527172935e-01 3.77578274440989e-03
1.25697674418605e+00 2.78589778567521e-01 3.75204004304252e-03
1.26134883720930e+00 2.76356084176766e-01 3.72842407837283e-03
1.26572093023256e+00 2.74140299244331e-01 3.70493450601313e-03
1.27009302325581e+00 2.71942280158107e-01 3.68157095694419e-03
1.27446511627907e+00 2.69761884490521e-01 3.65833305774911e-03
1.27883720930233e+00 2.67598970939299e-01 3.63522045037029e-03
1.28320930232558e+00 2.65453399319252e-01 3.61223275307047e-03
1.28758139534884e+00 2.63325030601146e-01 3.58936958008999e-03
1.29195348837209e+00 2.61213726854364e-01 3.56663055471327e-03
1.29632558139535e+00 2.59119351254206e-01 3.54401529591922e-03
1.30069767441860e+00 2.57041768057868e-01 3.52152340674829e-03
1.30506976744186e+00 2.54980842641416e-01 3.49915448668225e-03
1.30944186046512e+00 2.52936441444950e-01 3.47690815008850e-03
1.31381395348837e+00 2.50908431964800e-01 3.45478398977709e-03
1.31818604651163e+00 2.48896682789190e-01 3.43278159533853e-03
1.32255813953488e+00 2.46901063545120e-01 3.41090057105497e-03
1.32693023255814e+00 2.44921444890760e-01 3.38914050048019e-03
1.33130232558140e+00 2.42957698549843e-01 3.36750096426067e-03
1.33567441860465e+00 2.41009697260239e-01 3.34598155754332e-03
1.34004651162791e+00 2.39077314766500e-01 3.32458185554771e-03
1.34441860465116e+00 2.37160425853058e-01 3.30330143087279e-03
1.34879069767442e+00 2.35258906294424e-01 3.28213986501734e-03
1.35316279069767e+00 2.33372632861128e-01 3.26109673659630e-03
1.35753488372093e+00 2.31501483298672e-01 3.24017161106156e-03
1.36190697674419e+00 2.29645336359104e-01 3.21936405161760e-03
1.36627906976744e+00 2.27804071753359e-01 3.19867363547213e-03
1.37065116279070e+00 2.25977570144200e-01 3.17809992168162e-03
1.37502325581395e+00 2.24165713176685e-01 3.15764246731469e-03
1.37939534883721e+00 2.22368383432000e-01 3.13730084324540e-03
