Energy (eV)          EEDF (eV^-(3/2))     First Anisotropy
1.56363636363636e-02 1.01591913532001e-01 5.14070463963070e-05
4.69090909090909e-02 1.00954361090474e-01 8.49067233099356e-05
7.81818181818182e-02 1.00320809688559e-01 1.12137049633993e-04
1.09454545454545e-01 9.96912342155466e-02 1.32854947437018e-04
1.40727272727273e-01 9.90656097204904e-02 1.50159452925755e-04
1.72000000000000e-01 9.84439114091174e-02 1.65221240971931e-04
2.03272727272727e-01 9.78261146386995e-02 1.78645630832406e-04
2.34545454545455e-01 9.72121949283229e-02 1.90797858856495e-04
2.65818181818182e-01 9.66021279466324e-02 2.01919961217063e-04
2.97090909090909e-01 9.59958895151669e-02 2.12182866722328e-04
3.28363636363636e-01 9.53934556054367e-02 2.21713004176318e-04
3.59636363636364e-01 9.47948023437256e-02 2.30607248036050e-04
3.90909090909091e-01 9.41999060039556e-02 2.38941926684230e-04
4.22181818181818e-01 9.36087430076013e-02 2.46778555223610e-04
4.53454545454545e-01 9.30212899271507e-02 2.54167648529868e-04
4.84727272727273e-01 9.24375234804963e-02 2.61151348865509e-04
5.16000000000000e-01 9.18574205316482e-02 2.67765290986155e-04
5.47272727272727e-01 9.12809580887778e-02 2.74039960449514e-04
5.78545454545454e-01 9.07081133065679e-02 2.80001705045026e-04
6.09818181818182e-01 9.01388634818965e-02 2.85673502072325e-04
6.41090909090909e-01 8.95731860541339e-02 2.91075549676691e-04
6.72363636363636e-01 8.90110586034079e-02 2.96225729765217e-04
7.03636363636364e-01 8.84524588522780e-02 3.01139975549997e-04
7.34909090909091e-01 8.78973646621971e-02 3.05832566664069e-04
7.66181818181818e-01 8.73457540328432e-02 3.10316367656927e-04
7.97454545454545e-01 8.67976051034620e-02 3.14603024204713e-04
8.28727272727273e-01 8.62528961497106e-02 3.18703125181164e-04
8.60000000000000e-01 8.57116055835797e-02 3.22626337280658e-04
8.91272727272727e-01 8.51737119519420e-02 3.26381518032050e-04
9.22545454545455e-01 8.46391939375468e-02 3.29976811635536e-04
9.53818181818182e-01 8.41080303562774e-02 3.33419730488968e-04
9.85090909090909e-01 8.35802001569656e-02 3.36717224333726e-04
1.01636363636364e+00 8.30556824215721e-02 3.39875740943120e-04
1.04763636363636e+00 8.25344563597949e-02 3.42901277073368e-04
1.07890909090909e+00 8.20165013143727e-02 3.45799422310451e-04
1.11018181818182e+00 8.15017967624136e-02 3.48575401658643e-04
1.14145454545455e+00 8.09903223003539e-02 3.51234107961196e-04
1.17272727272727e+00 8.04820576574369e-02 3.53780130561668e-04
1.20400000000000e+00 7.99769826900984e-02 3.56217783688956e-04
1.23527272727273e+00 7.94750773853195e-02 3.58551131528099e-04
1.26654545454545e+00 7.89763218473734e-02 3.60784007840433e-04
1.29781818181818e+00 7.84806963095548e-02 3.62920033270881e-04
1.32909090909091e+00 7.79881811292179e-02 3.64962633703486e-04
1.36036363636364e+00 7.74987567906348e-02 3.66915056646633e-04
1.39163636363636e+00 7.70124038931951e-02 3.68780383459733e-04
1.42290909090909e+00 7.65291031617184e-02 3.70561539583848e-04
1.45418181818182e+00 7.60488354453349e-02 3.72261309595524e-04
1.48545454545455e+00 7.55715817066588e-02 3.73882345294131e-04
1.51672727272727e+00 7.50973230311444e-02 3.75427173528248e-04
1.54800000000000e+00 7.46260406229362e-02 3.76898205847975e-04
1.57927272727273e+00 7.41577158071332e-02 3.78297747230886e-04
1.61054545454545e+00 7.36923300200086e-02 3.79628001822657e-04
1.64181818181818e+00 7.32298648173546e-02 3.80891078066032e-04
1.67309090909091e+00 7.27703018707194e-02 3.82088995788916e-04
1.70436363636364e+00 7.23136229693783e-02 3.83223692641337e-04
1.73563636363636e+00 7.18598100114427e-02 3.84297027904038e-04
1.76690909090909e+00 7.14088450113508e-02 3.85310785357573e-04
1.79818181818182e+00 7.09607100989263e-02 3.86266680800797e-04
1.82945454545455e+00 7.05153875111031e-02 3.87166364303346e-04
1.86072727272727e+00 7.00728595988206e-02 3.88011422721252e-04
1.89200000000000e+00 6.96331088237710e-02 3.88803384162209e-04
1.92327272727273e+00 6.91961177599997e-02 3.89543722060838e-04
1.95454545454545e+00 6.87618690863137e-02 3.90233857062159e-04
1.98581818181818e+00 6.83303455925268e-02 3.90875158684688e-04
2.01709090909091e+00 6.79015301764621e-02 3.91468948892841e-04
2.04836363636364e+00 6.74754058453629e-02 3.92016505361416e-04
2.07963636363636e+00 6.70519557088992e-02 3.92519062712390e-04
2.11090909090909e+00 6.66311629848474e-02 3.92977813137570e-04
2.14218181818182e+00 6.62130109982676e-02 3.93393911144012e-04
2.17345454545455e+00 6.57974831749304e-02 3.93768473960968e-04
2.20472727272727e+00 6.53845630465973e-02 3.94102582304254e-04
2.23600000000000e+00 6.49742342483740e-02 3.94397282923489e-04
2.26727272727273e+00 6.45664805198741e-02 3.94653590932202e-04
2.29854545454545e+00 6.41612856991257e-02 3.94872490352534e-04
2.32981818181818e+00 6.37586337274039e-02 3.95054934560591e-04
2.36109090909091e+00 6.33585086467650e-02 3.95201848448425e-04
2.39236363636364e+00 6.29608946010805e-02 3.95314130401278e-04
2.42363636363636e+00 6.25657758303717e-02 3.95392652591351e-04
2.45490909090909e+00 6.21731366752446e-02 3.95438260801884e-04
2.48618181818182e+00 6.17829615761536e-02 3.95451777865789e-04
2.51745454545455e+00 6.13952350680416e-02 3.95434003405777e-04
2.54872727272727e+00 6.10099417844904e-02 3.95385713929249e-04
2.58000000000000e+00 6.06270664555127e-02 3.95307664506668e-04
2.61127272727273e+00 6.02465939084122e-02 3.95200590305475e-04
2.64254545454545e+00 5.98685090627757e-02 3.95065206606834e-04
2.67381818181818e+00 5.94927969343010e-02 3.94902208769378e-04
2.70509090909091e+00 5.91194426327239e-02 3.94712273712313e-04
2.73636363636364e+00 5.87484313625853e-02 3.94496061269737e-04
2.76763636363636e+00 5.83797484185432e-02 3.94254214102082e-04
2.79890909090909e+00 5.80133791889097e-02 3.93987357221082e-04
2.83018181818182e+00 5.76493091549845e-02 3.93696100689913e-04
2.86145454545455e+00 5.72875238865963e-02 3.93381039114462e-04
2.89272727272727e+00 5.69280090454303e-02 3.93042751462679e-04
2.92400000000000e+00 5.65707503831517e-02 3.92681802284200e-04
2.95527272727273e+00 5.62157337420464e-02 3.92298742822665e-04
2.98654545454545e+00 5.58629450508326e-02 3.91894110811871e-04
3.01781818181818e+00 5.55123703277466e-02 3.91468430239750e-04
3.04909090909091e+00 5.51639956787704e-02 3.91022212455515e-04
3.08036363636364e+00 5.48178072982051e-02 3.90555957178620e-04
3.11163636363636e+00 5.44737914647286e-02 3.90070152250214e-04
3.14290909090909e+00 5.41319345442620e-02 3.89565273054735e-04
3.17418181818182e+00 5.37922229893606e-02 3.89041784743520e-04
3.20545454545455e+00 5.34546433354502e-02 3.88500141644035e-04
3.23672727272727e+00 5.31191822035341e-02 3.87940786965857e-04
3.26800000000000e+00 5.27858262985754e-02 3.87364153747077e-04
3.29927272727273e+00 5.24545624099768e-02 3.86770665715705e-04
3.33054545454545e+00 5.21253774080290e-02 3.86160736995460e-04
3.36181818181818e+00 5.17982582464310e-02 3.85534771789874e-04
3.39309090909091e+00 5.14731919607570e-02 3.84893165257082e-04
3.42436363636364e+00 5.11501656688845e-02 3.84236304305583e-04
3.45563636363636e+00 5.08291665676378e-02 3.83564567282540e-04
3.48690909090909e+00 5.05101819351393e-02 3.82878323375207e-04
3.51818181818182e+00 5.01931991302502e-02 3.82177934496678e-04
3.54945454545455e+00 4.98782055893565e-02 3.81463754684199e-04
3.58072727272727e+00 4.95651888285956e-02 3.80736129764442e-04
3.61200000000000e+00 4.92541364424477e-02 3.79995398121107e-04
3.64327272727273e+00 4.89450361040942e-02 3.79241891392454e-04
3.67454545454545e+00 4.86378755623715e-02 3.78475934146060e-04
3.70581818181818e+00 4.83326426438544e-02 3.77697843537728e-04
3.73709090909091e+00 4.80293252515139e-02 3.76907930029802e-04
3.76836363636364e+00 4.77279113650373e-02 3.76106498043657e-04
3.79963636363636e+00 4.74283890379399e-02 3.75293845629894e-04
3.83090909090909e+00 4.71307463995137e-02 3.74470263885994e-04
3.86218181818182e+00 4.68349716543126e-02 3.73636038586124e-04
3.89345454545455e+00 4.65410530793792e-02 3.72791449600033e-04
3.92472727272727e+00 4.62489790260959e-02 3.71936770551562e-04
3.95600000000000e+00 4.59587379189463e-02 3.71072269460318e-04
3.98727272727273e+00 4.56703182557803e-02 3.70198209324115e-04
4.01854545454545e+00 4.53837086051806e-02 3.69314847790896e-04
4.04981818181818e+00 4.50988976081964e-02 3.68422436818530e-04
4.08109090909091e+00 4.48158739771625e-02 3.67521223280377e-04
4.11236363636364e+00 4.45346264959336e-02 3.66611449514751e-04
4.14363636363636e+00 4.42551440173802e-02 3.65693352998711e-04
4.17490909090909e+00 4.39774154650159e-02 3.64767165797687e-04
4.20618181818182e+00 4.37014298325214e-02 3.63833115992250e-04
4.23745454545455e+00 4.34271761813350e-02 3.62891427130863e-04
4.26872727272727e+00 4.31546436422010e-02 3.61942317898019e-04
4.30000000000000e+00 4.28838214140744e-02 3.60986002662068e-04
4.33127272727273e+00 4.26146987643138e-02 3.60022691972041e-04
4.36254545454545e+00 4.23472650263866e-02 3.59052592240377e-04
4.39381818181818e+00 4.20815096013241e-02 3.58075905415923e-04
4.42509090909091e+00 4.18174219566729e-02 3.57092829503969e-04
4.45636363636364e+00 4.15549916266656e-02 3.56103559037878e-04
4.48763636363636e+00 4.12942082100326e-02 3.55108284766787e-04
4.51890909090909e+00 4.10350613713708e-02 3.54107193143056e-04
4.55018181818182e+00 4.07775408407032e-02 3.53100467582825e-04
4.58145454545455e+00 4.05216364113705e-02 3.52088287957502e-04
4.61272727272727e+00 4.02673379413350e-02 3.51070830279068e-04
4.64400000000000e+00 4.00146353522063e-02 3.50048267174772e-04
4.67527272727273e+00 3.97635186293783e-02 3.49020768317575e-04
4.70654545454545e+00 3.95139778200167e-02 3.47988500125986e-04
4.73781818181818e+00 3.92660030342872e-02 3.46951625455825e-04
4.76909090909091e+00 3.90195844444206e-02 3.45910304052943e-04
4.80036363636364e+00 3.87747122848325e-02 3.44864692963545e-04
4.83163636363636e+00 3.85313768502007e-02 3.43814946240376e-04
4.86290909090909e+00 3.82895684966225e-02 3.42761214469366e-04
4.89418181818182e+00 3.80492776412067e-02 3.41703645890862e-04
4.92545454545454e+00 3.78104947602184e-02 3.40642385930514e-04
4.95672727272727e+00 3.75732103901830e-02 3.39577576904851e-04
4.98800000000000e+00 3.73374151270149e-02 3.38509358437361e-04
5.01927272727273e+00 3.71030996261106e-02 3.37437867835551e-04
5.05054545454545e+00 3.68702546005750e-02 3.36363239810414e-04
5.08181818181818e+00 3.66388708222630e-02 3.35285606189189e-04
5.11309090909091e+00 3.64089391209423e-02 3.34205096313323e-04
5.14436363636364e+00 3.61804503843723e-02 3.33121837399187e-04
5.17563636363636e+00 3.59533955566076e-02 3.32035954264391e-04
5.20690909090909e+00 3.57277656389807e-02 3.30947568892625e-04
5.23818181818182e+00 3.55035516897230e-02 3.29856801436124e-04
5.26945454545455e+00 3.52807448223251e-02 3.28763769784713e-04
5.30072727272727e+00 3.50593362064757e-02 3.27668589292520e-04
5.33200000000000e+00 3.48393170672788e-02 3.26571373145589e-04
5.36327272727273e+00 3.46206786853129e-02 3.25472232695174e-04
5.39454545454545e+00 3.44034123950605e-02 3.24371277197473e-04
5.42581818181818e+00 3.41875095857946e-02 3.23268613547538e-04
5.45709090909091e+00 3.39729617008265e-02 3.22164346631901e-04
5.48836363636364e+00 3.37597602375531e-02 3.21058579648088e-04
5.51963636363636e+00 3.35478967459526e-02 3.19951413851167e-04
5.55090909090909e+00 3.33373628294222e-02 3.18842948154780e-04
5.58218181818182e+00 3.31281501444268e-02 3.17733280031076e-04
5.61345454545455e+00 3.29202503990428e-02 3.16622505115645e-04
5.64472727272727e+00 3.27136553537596e-02 3.15510716955131e-04
5.67600000000000e+00 3.25083568207746e-02 3.14398007334211e-04
5.70727272727273e+00 3.23043466640248e-02 3.13284466571878e-04
5.73854545454545e+00 3.21016167977911e-02 3.12170183281138e-04
5.76981818181818e+00 3.19001591874561e-02 3.11055244123705e-04
5.80109090909091e+00 3.16999658488247e-02 3.09939734124047e-04
5.83236363636364e+00 3.15010288481475e-02 3.08823736954097e-04
5.86363636363636e+00 3.13033403007819e-02 3.07707334699605e-04
5.89490909090909e+00 3.11068923719080e-02 3.06590607494728e-04
5.92618181818182e+00 3.09116772762032e-02 3.05473634332525e-04
5.95745454545454e+00 3.07176872765438e-02 3.04356492703244e-04
5.98872727272727e+00 3.05249146846921e-02 3.03239258362003e-04
6.02000000000000e+00 3.03333518606584e-02 3.02122005620999e-04
6.05127272727273e+00 3.01429912127125e-02 3.01004807614302e-04
6.08254545454545e+00 2.99538251961376e-02 2.99887736076590e-04
6.11381818181818e+00 2.97658463138803e-02 2.98770861117415e-04
6.14509090909091e+00 2.95790471159363e-02 2.97654251502361e-04
6.17636363636364e+00 2.93934201993539e-02 2.96537974907895e-04
6.20763636363636e+00 2.92089582070383e-02 2.95422097706356e-04
6.23890909090909e+00 2.90256538283665e-02 2.94306684631589e-04
6.27018181818182e+00 2.88434997988835e-02 2.93191799510886e-04
6.30145454545455e+00 2.86624888991430e-02 2.92077504933981e-04
6.33272727272727e+00 2.84826139552965e-02 2.90963862039486e-04
6.36400000000000e+00 2.83038678385156e-02 2.89850930777159e-04
6.39527272727273e+00 2.81262434649864e-02 2.88738770145528e-04
6.42654545454545e+00 2.79497337947953e-02 2.87627437988474e-04
6.45781818181818e+00 2.77743318324868e-02 2.86516990787826e-04
6.48909090909091e+00 2.76000306265064e-02 2.85407483915972e-04
6.52036363636364e+00 2.74268232691898e-02 2.84298971864902e-04
6.55163636363636e+00 2.72547028956909e-02 2.83191508048616e-04
6.58290909090909e+00 2.70836626845114e-02 2.82085144497174e-04
6.61418181818182e+00 2.69136958572180e-02 2.80979932519198e-04
6.64545454545455e+00 2.67447956774028e-02 2.79875922399101e-04
6.67672727272727e+00 2.65769554511911e-02 2.78773163200904e-04
6.70800000000000e+00 2.64101685267158e-02 2.77671703004359e-04
6.73927272727273e+00 2.62444282940997e-02 2.76571589119023e-04
6.77054545454545e+00 2.60797281844549e-02 2.75472867897336e-04
6.80181818181818e+00 2.59160616703640e-02 2.74375584544224e-04
6.83309090909091e+00 2.57534222653735e-02 2.73279783344819e-04
6.86436363636364e+00 2.55918035239706e-02 2.72185507870879e-04
6.89563636363636e+00 2.54311990406215e-02 2.71092800799355e-04
6.92690909090909e+00 2.52716024502270e-02 2.70001703632485e-04
6.95818181818182e+00 2.51130074278600e-02 2.68912257298574e-04
6.98945454545454e+00 2.49554076878308e-02 2.67824501874926e-04
7.02072727272727e+00 2.47987969841251e-02 2.66738476407859e-04
7.05200000000000e+00 2.46431691099257e-02 2.65654219125868e-04
7.08327272727273e+00 2.44885178975849e-02 2.64571767632896e-04
7.11454545454545e+00 2.43348372177240e-02 2.63491158736759e-04
7.14581818181818e+00 2.41821209796492e-02 2.62412428274435e-04
7.17709090909091e+00 2.40303631308897e-02 2.61335611317821e-04
7.20836363636364e+00 2.38795576571658e-02 2.60260742360285e-04
7.23963636363636e+00 2.37296985815230e-02 2.59187855150147e-04
7.27090909090909e+00 2.35807799647256e-02 2.58116982434495e-04
7.30218181818182e+00 2.34327959050120e-02 2.57048156504917e-04
7.33345454545455e+00 2.32857405372533e-02 2.55981408943969e-04
7.36472727272727e+00 2.31396080333310e-02 2.54916770459946e-04
7.39600000000000e+00 2.29943926017013e-02 2.53854271079811e-04
7.42727272727273e+00 2.28500884873596e-02 2.52793940324202e-04
7.45854545454545e+00 2.27066899710295e-02 2.51735807049857e-04
7.48981818181818e+00 2.25641913695209e-02 2.50679899289321e-04
7.52109090909091e+00 2.24225870353097e-02 2.49626244437287e-04
7.55236363636364e+00 2.22818713564989e-02 2.48574869419633e-04
7.58363636363636e+00 2.21420387560371e-02 2.47525800540515e-04
7.61490909090909e+00 2.20030836920594e-02 2.46479063247799e-04
7.64618181818182e+00 2.18650006576589e-02 2.45434682629634e-04
7.67745454545455e+00 2.17277841801278e-02 2.44392683182271e-04
7.70872727272727e+00 2.15914288212836e-02 2.43353088658429e-04
7.74000000000000e+00 2.14559291770718e-02 2.42315922242259e-04
7.77127272727273e+00 2.13212798775242e-02 2.41281206708046e-04
7.80254545454545e+00 2.11874755860264e-02 2.40248964275586e-04
7.83381818181818e+00 2.10545109996280e-02 2.39219216463124e-04
7.86509090909091e+00 2.09223808486582e-02 2.38191984256396e-04
7.89636363636364e+00 2.07910798966820e-02 2.37167288262013e-04
7.92763636363636e+00 2.06606029397943e-02 2.36145148567168e-04
7.95890909090909e+00 2.05309448069138e-02 2.35125584524763e-04
7.99018181818182e+00 2.04021003595720e-02 2.34108615205752e-04
8.02145454545455e+00 2.02740644912253e-02 2.33094259186423e-04
8.05272727272727e+00 2.01468321275383e-02 2.32082534409312e-04
8.08400000000000e+00 2.00203982260204e-02 2.31073458342104e-04
8.11527272727273e+00 1.98947577759797e-02 2.30067048121800e-04
8.14654545454545e+00 1.97699057978601e-02 2.29063320421958e-04
8.17781818181818e+00 1.96458373435108e-02 2.28062291317722e-04
8.20909090909091e+00 1.95225474958336e-02 2.27063976439478e-04
8.24036363636364e+00 1.94000313687360e-02 2.26068391112237e-04
8.27163636363636e+00 1.92782841064918e-02 2.25075550226872e-04
8.30290909090909e+00 1.91573008839966e-02 2.24085468043186e-04
8.33418181818182e+00 1.90370769065698e-02 2.23098158602492e-04
8.36545454545455e+00 1.89176074093327e-02 2.22113635532674e-04
8.39672727272727e+00 1.87988876574536e-02 2.21131911920475e-04
8.42800000000000e+00 1.86809129458146e-02 2.20153000456068e-04
8.45927272727273e+00 1.85636785989634e-02 2.19176913564221e-04
8.49054545454545e+00 1.84471799705124e-02 2.18203663282433e-04
8.52181818181818e+00 1.83314124433716e-02 2.17233261137000e-04
8.55309090909091e+00 1.82163714294263e-02 2.16265718282865e-04
8.58436363636364e+00 1.81020523694875e-02 2.15301045630522e-04
8.61563636363636e+00 1.79884507327119e-02 2.14339253727721e-04
8.64690909090909e+00 1.78755620168236e-02 2.13380352578972e-04
8.67818181818182e+00 1.77633817479297e-02 2.12424352022209e-04
8.70945454545454e+00 1.76519054799559e-02 2.11471261550059e-04
8.74072727272727e+00 1.75411287948592e-02 2.10521090192561e-04
8.77200000000000e+00 1.74310473023226e-02 2.09573846648870e-04
8.80327272727273e+00 1.73216566397045e-02 2.08629539406760e-04
8.83454545454545e+00 1.72129524714936e-02 2.07688176630682e-04
8.86581818181818e+00 1.71049304895113e-02 2.06749766047975e-04
8.89709090909091e+00 1.69975864126150e-02 2.05814315076287e-04
8.92836363636364e+00 1.68909159866484e-02 2.04881830939284e-04
8.95963636363636e+00 1.67849149839137e-02 2.03952320557964e-04
8.99090909090909e+00 1.66795792033643e-02 2.03025790385097e-04
9.02218181818182e+00 1.65749044704330e-02 2.02102246749447e-04
9.05345454545455e+00 1.64708866365194e-02 2.01181695691797e-04
9.08472727272727e+00 1.63675215791741e-02 2.00264142857275e-04
9.11600000000000e+00 1.62648052018186e-02 1.99349593615396e-04
9.14727272727273e+00 1.61627334336942e-02 1.98438053169137e-04
9.17854545454545e+00 1.60613022293657e-02 1.97529526452067e-04
9.20981818181818e+00 1.59605075688974e-02 1.96624018023783e-04
9.24109090909091e+00 1.58603454575813e-02 1.95721532186225e-04
9.27236363636364e+00 1.57608119258852e-02 1.94822073089195e-04
9.30363636363636e+00 1.56619030289741e-02 1.93925644630544e-04
9.33490909090909e+00 1.55636148468767e-02 1.93032250304233e-04
9.36618181818182e+00 1.54659434843256e-02 1.92141893515134e-04
9.39745454545455e+00 1.53688850702906e-02 1.91254577428594e-04
9.42872727272727e+00 1.52724357581391e-02 1.90370304871447e-04
9.46000000000000e+00 1.51765917253783e-02 1.89489078441651e-04
9.49127272727273e+00 1.50813491736040e-02 1.88610900607876e-04
9.52254545454545e+00 1.49867043280487e-02 1.87735773614932e-04
9.55381818181818e+00 1.48926534377347e-02 1.86863699387719e-04
9.58509090909091e+00 1.47991927752240e-02 1.85994679637436e-04
9.61636363636364e+00 1.47063186365664e-02 1.85128715957998e-04
9.64763636363636e+00 1.46140273408638e-02 1.84265809734234e-04
9.67890909090909e+00 1.45223152304144e-02 1.83405962002414e-04
9.71018181818182e+00 1.44311786705644e-02 1.82549173738430e-04
9.74145454545454e+00 1.43406140492821e-02 1.81695445719636e-04
9.77272727272727e+00 1.42506177772980e-02 1.80844778433900e-04
9.80400000000000e+00 1.41611862878669e-02 1.79997172179751e-04
9.83527272727273e+00 1.40723160367175e-02 1.79152627157400e-04
9.86654545454545e+00 1.39840035016404e-02 1.78311143381836e-04
