Energy (eV)          EEDF (eV^-(3/2))     First Anisotropy
9.81132075471698e-05 2.15078544572548e+02 4.18043007556577e-02
2.94339622641509e-04 2.13682211586131e+02 6.90387966621720e-02
4.90566037735849e-04 2.12294943873493e+02 9.11602682691426e-02
6.86792452830189e-04 2.10916682580777e+02 1.07979058877980e-01
8.83018867924528e-04 2.09547369236444e+02 1.22016853226624e-01
1.07924528301887e-03 2.08186945748602e+02 1.34226528915231e-01
1.27547169811321e-03 2.06835354402513e+02 1.45100936395809e-01
1.47169811320755e-03 2.05492537857385e+02 1.54937537766940e-01
1.66792452830189e-03 2.04158439146959e+02 1.63933512603489e-01
1.86415094339623e-03 2.02833001671986e+02 1.72228151289224e-01
2.06037735849057e-03 2.01516169203119e+02 1.79924510814622e-01
2.25660377358491e-03 2.00207885873920e+02 1.87101579657923e-01
2.45283018867925e-03 1.98908096182559e+02 1.93821611040447e-01
2.64905660377358e-03 1.97616744985819e+02 2.00134790952651e-01
2.84528301886792e-03 1.96333777500042e+02 2.06082342706988e-01
3.04150943396226e-03 1.95059139295815e+02 2.11698666330553e-01
3.23773584905660e-03 1.93792776298400e+02 2.17012857993052e-01
3.43396226415094e-03 1.92534634782913e+02 2.22049816437464e-01
3.63018867924528e-03 1.91284661374388e+02 2.26831066796923e-01
3.82641509433962e-03 1.90042803043330e+02 2.31375385404738e-01
4.02264150943396e-03 1.88809007105507e+02 2.35699281934532e-01
4.21886792452830e-03 1.87583221217796e+02 2.39817376702705e-01
4.41509433962264e-03 1.86365393377774e+02 2.43742700097498e-01
4.61132075471698e-03 1.85155471919797e+02 2.47486932797246e-01
4.80754716981132e-03 1.83953405514431e+02 2.51060600773949e-01
5.00377358490566e-03 1.82759143164737e+02 2.54473234930443e-01
5.20000000000000e-03 1.81572634205570e+02 2.57733503135538e-01
5.39622641509434e-03 1.80393828300034e+02 2.60849320139264e-01
5.59245283018868e-03 1.79222675438677e+02 2.63827939924077e-01
5.78867924528302e-03 1.78059125936103e+02 2.66676033676670e-01
5.98490566037736e-03 1.76903130430072e+02 2.69399756186144e-01
6.18113207547170e-03 1.75754639878248e+02 2.72004802581992e-01
6.37735849056604e-03 1.74613605557231e+02 2.74496457215453e-01
6.57358490566038e-03 1.73479979059422e+02 2.76879635864377e-01
6.76981132075472e-03 1.72353712291995e+02 2.79158922466105e-01
6.96603773584906e-03 1.71234757473869e+02 2.81338601120089e-01
7.16226415094340e-03 1.70123067134633e+02 2.83422684193402e-01
7.35849056603774e-03 1.69018594111614e+02 2.85414937001121e-01
7.55471698113208e-03 1.67921291548764e+02 2.87318899656182e-01
7.75094339622642e-03 1.66831112893813e+02 2.89137906390371e-01
7.94716981132075e-03 1.65748011897122e+02 2.90875102783758e-01
8.14339622641509e-03 1.64671942608925e+02 2.92533461094412e-01
8.33962264150943e-03 1.63602859378148e+02 2.94115794018402e-01
8.53584905660377e-03 1.62540716849726e+02 2.95624767000068e-01
8.73207547169811e-03 1.61485469963406e+02 2.97062909348226e-01
8.92830188679245e-03 1.60437073951126e+02 2.98432624230142e-01
9.12452830188679e-03 1.59395484335806e+02 2.99736197745761e-01
9.32075471698113e-03 1.58360656928793e+02 3.00975807121906e-01
9.51698113207547e-03 1.57332547828632e+02 3.02153528190267e-01
9.71320754716981e-03 1.56311113418579e+02 3.03271342166923e-01
9.90943396226415e-03 1.55296310365355e+02 3.04331141703411e-01
1.01056603773585e-02 1.54288095616287e+02 3.05334737092487e-01
1.03018867924528e-02 1.53286426399513e+02 3.06283861092885e-01
1.04981132075472e-02 1.52291260220114e+02 3.07180173180699e-01
1.06943396226415e-02 1.51302554859054e+02 3.08025264726077e-01
1.08905660377358e-02 1.50320268371396e+02 3.08820662748068e-01
1.10867924528302e-02 1.49344359084520e+02 3.09567833141857e-01
1.12830188679245e-02 1.48374785595130e+02 3.10268185601723e-01
1.14792452830189e-02 1.47411506771207e+02 3.10923075827876e-01
1.16754716981132e-02 1.46454481746515e+02 3.11533807455457e-01
1.18716981132075e-02 1.45503669920125e+02 3.12101636311255e-01
1.20679245283019e-02 1.44559030954700e+02 3.12627772453529e-01
1.22641509433962e-02 1.43620524774782e+02 3.13113382086127e-01
1.24603773584906e-02 1.42688111564025e+02 3.13559591121432e-01
1.26566037735849e-02 1.41761751766742e+02 3.13967486339433e-01
1.28528301886792e-02 1.40841406082952e+02 3.14338116377795e-01
1.30490566037736e-02 1.39927035467819e+02 3.14672494916442e-01
1.32452830188679e-02 1.39018601129990e+02 3.14971601897541e-01
1.34415094339623e-02 1.38116064529959e+02 3.15236385102275e-01
1.36377358490566e-02 1.37219387378425e+02 3.15467761217368e-01
1.38339622641509e-02 1.36328531633751e+02 3.15666618455367e-01
1.40301886792453e-02 1.35443459503132e+02 3.15833817042343e-01
1.42264150943396e-02 1.34564133438182e+02 3.15970189606060e-01
1.44226415094340e-02 1.33690516134284e+02 3.16076543585768e-01
1.46188679245283e-02 1.32822570529012e+02 3.16153661905204e-01
1.48150943396226e-02 1.31960259800556e+02 3.16202304000493e-01
1.50113207547170e-02 1.31103547366164e+02 3.16223206415809e-01
1.52075471698113e-02 1.30252396879790e+02 3.16217084843867e-01
1.54037735849057e-02 1.29406772232961e+02 3.16184634247404e-01
1.56000000000000e-02 1.28566637550816e+02 3.16126528919003e-01
1.57962264150943e-02 1.27731957191399e+02 3.16043424399065e-01
1.59924528301887e-02 1.26902695744149e+02 3.15935957833766e-01
1.61886792452830e-02 1.26078818028399e+02 3.15804748327259e-01
1.63849056603774e-02 1.25260289091172e+02 3.15650398647427e-01
1.65811320754717e-02 1.24447074207846e+02 3.15473495163411e-01
1.67773584905660e-02 1.23639138878518e+02 3.15274607741439e-01
1.69735849056604e-02 1.22836448827260e+02 3.15054291370692e-01
1.71698113207547e-02 1.22038970000672e+02 3.14813086355258e-01
1.73660377358491e-02 1.21246668566435e+02 3.14551518831916e-01
1.75622641509434e-02 1.20459510911879e+02 3.14270100944156e-01
1.77584905660377e-02 1.19677463641926e+02 3.13969332268947e-01
1.79547169811321e-02 1.18900493579572e+02 3.13649699628138e-01
1.81509433962264e-02 1.18128567762563e+02 3.13311676873187e-01
1.83471698113208e-02 1.17361653442647e+02 3.12955726261014e-01
1.85433962264151e-02 1.16599718084175e+02 3.12582298523601e-01
1.87396226415094e-02 1.15842729362730e+02 3.12191833241925e-01
1.89358490566038e-02 1.15090655163750e+02 3.11784758910944e-01
1.91320754716981e-02 1.14343463580616e+02 3.11361494162594e-01
1.93283018867925e-02 1.13601122914968e+02 3.10922447506807e-01
1.95245283018868e-02 1.12863601673676e+02 3.10468017055447e-01
1.97207547169811e-02 1.12130868568069e+02 3.09998591712476e-01
1.99169811320755e-02 1.11402892512608e+02 3.09514551167276e-01
2.01132075471698e-02 1.10679642623567e+02 3.09016265898385e-01
2.03094339622642e-02 1.09961088217224e+02 3.08504098262609e-01
2.05056603773585e-02 1.09247198810073e+02 3.07978402201740e-01
2.07018867924528e-02 1.08537944116003e+02 3.07439522937911e-01
2.08981132075472e-02 1.07833294045525e+02 3.06887798038781e-01
2.10943396226415e-02 1.07133218704499e+02 3.06323557369366e-01
2.12905660377358e-02 1.06437688392861e+02 3.05747123311129e-01
2.14867924528302e-02 1.05746673603370e+02 3.05158810719187e-01
2.16830188679245e-02 1.05060145019898e+02 3.04558927886127e-01
2.18792452830189e-02 1.04378073517555e+02 3.03947776228931e-01
2.20754716981132e-02 1.03700430160073e+02 3.03325649969373e-01
2.22716981132075e-02 1.03027186199048e+02 3.02692837081002e-01
2.24679245283019e-02 1.02358313072713e+02 3.02049619209286e-01
2.26641509433962e-02 1.01693782404734e+02 3.01396271603428e-01
2.28603773584906e-02 1.01033566002588e+02 3.00733063992160e-01
2.30566037735849e-02 1.00377635857613e+02 3.00060260264095e-01
2.32528301886792e-02 9.97259641425671e+01 2.99378118144268e-01
2.34490566037736e-02 9.90785232108686e+01 2.98686890057762e-01
2.36452830188679e-02 9.84352855954223e+01 2.97986823032669e-01
2.38415094339623e-02 9.77962240074555e+01 2.97278158837657e-01
2.40377358490566e-02 9.71613113353596e+01 2.96561133894310e-01
2.42339622641509e-02 9.65305206431711e+01 2.95835980067105e-01
2.44301886792453e-02 9.59038251705446e+01 2.95102924344544e-01
2.46264150943396e-02 9.52811983304929e+01 2.94362188519015e-01
2.48226415094340e-02 9.46626137086368e+01 2.93613989967315e-01
2.50188679245283e-02 9.40480450620842e+01 2.92858541541986e-01
2.52150943396226e-02 9.34374663183176e+01 2.92096051680467e-01
2.54113207547170e-02 9.28308515740876e+01 2.91326724306279e-01
2.56075471698113e-02 9.22281750939803e+01 2.90550759546358e-01
2.58037735849057e-02 9.16294113103338e+01 2.89768353418418e-01
2.60000000000000e-02 9.10345348211377e+01 2.88979697518820e-01
2.61962264150943e-02 9.04435203892961e+01 2.88184979732814e-01
2.63924528301887e-02 8.98563429415576e+01 2.87384384119557e-01
2.65886792452830e-02 8.92729775674517e+01 2.86578090807648e-01
2.67849056603774e-02 8.86933995179245e+01 2.85766276658989e-01
2.69811320754717e-02 8.81175842052170e+01 2.84949114963804e-01
2.71773584905660e-02 8.75455072008868e+01 2.84126775137230e-01
2.73735849056604e-02 8.69771442350861e+01 2.83299423377410e-01
2.75698113207547e-02 8.64124711955312e+01 2.82467222548125e-01
2.77660377358491e-02 8.58514641264807e+01 2.81630332252872e-01
2.79622641509434e-02 8.52940992277187e+01 2.80788908727221e-01
2.81584905660377e-02 8.47403528532663e+01 2.79943105447797e-01
2.83547169811321e-02 8.41902015112209e+01 2.79093072838491e-01
2.85509433962264e-02 8.36436218619110e+01 2.78238957979222e-01
2.87471698113208e-02 8.31005907171909e+01 2.77380905210094e-01
2.89433962264151e-02 8.25610850394567e+01 2.76519056013881e-01
2.91396226415094e-02 8.20250819406695e+01 2.75653549076806e-01
2.93358490566038e-02 8.14925586813845e+01 2.74784520180577e-01
2.95320754716981e-02 8.09634926695317e+01 2.73912102762887e-01
2.97283018867925e-02 8.04378614602250e+01 2.73036427636080e-01
2.99245283018868e-02 7.99156427540374e+01 2.72157622708971e-01
3.01207547169811e-02 7.93968143963140e+01 2.71275813543546e-01
3.03169811320755e-02 7.88813543762324e+01 2.70391123238886e-01
3.05132075471698e-02 7.83692408258693e+01 2.69503672323921e-01
3.07094339622642e-02 7.78604520190370e+01 2.68613579281219e-01
3.09056603773585e-02 7.73549663710722e+01 2.67720960276454e-01
3.11018867924528e-02 7.68527624372050e+01 2.66825928891428e-01
3.12981132075472e-02 7.63538189118894e+01 2.65928596644352e-01
3.14943396226415e-02 7.58581146278989e+01 2.65029072876218e-01
3.16905660377359e-02 7.53656285554292e+01 2.64127464794305e-01
3.18867924528302e-02 7.48763398012058e+01 2.63223877367049e-01
3.20830188679245e-02 7.43902276073827e+01 2.62318413809046e-01
3.22792452830189e-02 7.39072713513106e+01 2.61411175323511e-01
3.24754716981132e-02 7.34274505440087e+01 2.60502260848727e-01
3.26716981132075e-02 7.29507448295146e+01 2.59591767539894e-01
3.28679245283019e-02 7.24771339840213e+01 2.58679790658876e-01
3.30641509433962e-02 7.20065979150183e+01 2.57766423471558e-01
3.32603773584906e-02 7.15391166602410e+01 2.56851757702757e-01
3.34566037735849e-02 7.10746703874249e+01 2.55935883289605e-01
3.36528301886792e-02 7.06132393928585e+01 2.55018888139010e-01
3.38490566037736e-02 7.01548041007508e+01 2.54100858579989e-01
3.40452830188679e-02 6.96993450624006e+01 2.53181879256506e-01
3.42415094339623e-02 6.92468429553716e+01 2.52262033159568e-01
3.44377358490566e-02 6.87972785826729e+01 2.51341401527944e-01
3.46339622641509e-02 6.83506328717613e+01 2.50420064271128e-01
3.48301886792453e-02 6.79068868742847e+01 2.49498099735322e-01
3.50264150943396e-02 6.74660217647220e+01 2.48575584473902e-01
3.52226415094340e-02 6.70280188397711e+01 2.47652593667727e-01
3.54188679245283e-02 6.65928595175556e+01 2.46729201022339e-01
3.56150943396226e-02 6.61605253368363e+01 2.45805478795345e-01
3.58113207547170e-02 6.57309979562283e+01 2.44881497700833e-01
3.60075471698113e-02 6.53042591532545e+01 2.43957327303157e-01
3.62037735849057e-02 6.48802908240801e+01 2.43033035795354e-01
3.64000000000000e-02 6.44590749822336e+01 2.42108689781877e-01
3.65962264150943e-02 6.40405937580153e+01 2.41184354670092e-01
3.67924528301887e-02 6.36248293977394e+01 2.40260094571810e-01
3.69886792452830e-02 6.32117642629804e+01 2.39335972211019e-01
3.71849056603774e-02 6.28013808296686e+01 2.38412049294927e-01
3.73811320754717e-02 6.23936616878190e+01 2.37488386302303e-01
3.75773584905660e-02 6.19885895403175e+01 2.36565042276283e-01
3.77735849056604e-02 6.15861472023459e+01 2.35642075193297e-01
3.79698113207547e-02 6.11863176006536e+01 2.34719541868290e-01
3.81660377358491e-02 6.07890837728327e+01 2.33797497975481e-01
3.83622641509434e-02 6.03944288665988e+01 2.32875997960056e-01
3.85584905660377e-02 6.00023361389321e+01 2.31955095384681e-01
3.87547169811321e-02 5.96127889558014e+01 2.31034842729245e-01
3.89509433962264e-02 5.92257707910214e+01 2.30115291195038e-01
3.91471698113208e-02 5.88412652256979e+01 2.29196491049142e-01
3.93433962264151e-02 5.84592559475314e+01 2.28278491534076e-01
3.95396226415094e-02 5.80797267501252e+01 2.27361340885781e-01
3.97358490566038e-02 5.77026615322980e+01 2.26445086249364e-01
3.99320754716981e-02 5.73280442972675e+01 2.25529774002917e-01
4.01283018867925e-02 5.69558591523731e+01 2.24615449568142e-01
4.03245283018868e-02 5.65860903079983e+01 2.23702157225355e-01
4.05207547169811e-02 5.62187220770354e+01 2.22789940435479e-01
4.07169811320755e-02 5.58537388742211e+01 2.21878841753930e-01
4.09132075471698e-02 5.54911252154745e+01 2.20968902749673e-01
4.11094339622642e-02 5.51308657171164e+01 2.20060164311235e-01
4.13056603773585e-02 5.47729450955912e+01 2.19152666466102e-01
4.15018867924528e-02 5.44173481664418e+01 2.18246448204440e-01
4.16981132075472e-02 5.40640598437915e+01 2.17341547783286e-01
4.18943396226415e-02 5.37130651397041e+01 2.16438002644120e-01
4.20905660377359e-02 5.33643491635479e+01 2.15535849426840e-01
4.22867924528302e-02 5.30178971213646e+01 2.14635123892645e-01
4.24830188679245e-02 5.26736943151263e+01 2.13735861210706e-01
4.26792452830189e-02 5.23317261424584e+01 2.12838095787404e-01
4.28754716981132e-02 5.19919780956720e+01 2.11941861099859e-01
4.30716981132075e-02 5.16544357612648e+01 2.11047189980816e-01
4.32679245283019e-02 5.13190848193098e+01 2.10154114540266e-01
4.34641509433962e-02 5.09859110428480e+01 2.09262666091575e-01
4.36603773584906e-02 5.06549002971771e+01 2.08372875422699e-01
4.38566037735849e-02 5.03260385395765e+01 2.07484772633390e-01
4.40528301886792e-02 4.99993118183849e+01 2.06598386976591e-01
4.42490566037736e-02 4.96747062725179e+01 2.05713747128059e-01
4.44452830188679e-02 4.93522081308801e+01 2.04830881111273e-01
4.46415094339623e-02 4.90318037117809e+01 2.03949816308524e-01
4.48377358490566e-02 4.87134794223538e+01 2.03070579390667e-01
4.50339622641509e-02 4.83972217578807e+01 2.02193196571528e-01
4.52301886792453e-02 4.80830173015187e+01 2.01317693454083e-01
4.54264150943396e-02 4.77708527234294e+01 2.00444094880644e-01
4.56226415094340e-02 4.74607147803140e+01 1.99572425185691e-01
4.58188679245283e-02 4.71525903148520e+01 1.98702708124689e-01
4.60150943396226e-02 4.68464662551430e+01 1.97834966883821e-01
4.62113207547170e-02 4.65423296141520e+01 1.96969224013228e-01
4.64075471698113e-02 4.62401674890659e+01 1.96105501665847e-01
4.66037735849057e-02 4.59399670610252e+01 1.95243821452011e-01
4.68000000000000e-02 4.56417155942994e+01 1.94384204297958e-01
4.69962264150943e-02 4.53454004358410e+01 1.93526670683196e-01
4.71924528301887e-02 4.50510090147487e+01 1.92671240572906e-01
4.73886792452830e-02 4.47585288417338e+01 1.91817933354094e-01
4.75849056603774e-02 4.44679475085043e+01 1.90966768061997e-01
4.77811320754717e-02 4.41792526874994e+01 1.90117763241479e-01
4.79773584905660e-02 4.38924321311034e+01 1.89270936812220e-01
4.81735849056604e-02 4.36074736712149e+01 1.88426306293663e-01
4.83698113207547e-02 4.33243652187302e+01 1.87583888740466e-01
4.85660377358491e-02 4.30430947630304e+01 1.86743700750273e-01
4.87622641509434e-02 4.27636503714719e+01 1.85905758403046e-01
4.89584905660377e-02 4.24860201888002e+01 1.85070077473951e-01
4.91547169811321e-02 4.22101924368887e+01 1.84236673302279e-01
4.93509433962264e-02 4.19361554139958e+01 1.83405560664093e-01
4.95471698113208e-02 4.16638974943498e+01 1.82576753983664e-01
4.97433962264151e-02 4.13934071276556e+01 1.81750267272226e-01
4.99396226415094e-02 4.11246728386055e+01 1.80926114134861e-01
5.01358490566038e-02 4.08576832263913e+01 1.80104307712992e-01
5.03320754716981e-02 4.05924269641469e+01 1.79284860884485e-01
5.05283018867925e-02 4.03288927986921e+01 1.78467786139784e-01
5.07245283018868e-02 4.00670695498297e+01 1.77653095461612e-01
5.09207547169811e-02 3.98069461099461e+01 1.76840800523753e-01
5.11169811320755e-02 3.95485114435407e+01 1.76030912632991e-01
5.13132075471698e-02 3.92917545867578e+01 1.75223442674114e-01
5.15094339622642e-02 3.90366646468508e+01 1.74418401299885e-01
5.17056603773585e-02 3.87832308019323e+01 1.73615798812910e-01
5.19018867924528e-02 3.85314423003018e+01 1.72815645051007e-01
5.20981132075472e-02 3.82812884600607e+01 1.72017949575890e-01
5.22943396226415e-02 3.80327586686599e+01 1.71222721617693e-01
5.24905660377359e-02 3.77858423824486e+01 1.70429970080571e-01
5.26867924528302e-02 3.75405291262280e+01 1.69639703490492e-01
5.28830188679245e-02 3.72968084927408e+01 1.68851930174091e-01
5.30792452830189e-02 3.70546701424270e+01 1.68066658146990e-01
5.32754716981132e-02 3.68141038027872e+01 1.67283895005421e-01
5.34716981132075e-02 3.65750992680130e+01 1.66503648103838e-01
5.36679245283019e-02 3.63376463985543e+01 1.65725924502344e-01
5.38641509433962e-02 3.61017351206888e+01 1.64950730916823e-01
5.40603773584906e-02 3.58673554260336e+01 1.64178073888841e-01
5.42566037735849e-02 3.56344973713057e+01 1.63407959679111e-01
5.44528301886792e-02 3.54031510777137e+01 1.62640394164210e-01
5.46490566037736e-02 3.51733067306013e+01 1.61875383005329e-01
5.48452830188679e-02 3.49449545790311e+01 1.61112931598006e-01
5.50415094339623e-02 3.47180849353704e+01 1.60353045076660e-01
5.52377358490566e-02 3.44926881748810e+01 1.59595728267289e-01
5.54339622641509e-02 3.42687547352528e+01 1.58840985847550e-01
5.56301886792453e-02 3.40462751163714e+01 1.58088822246021e-01
5.58264150943396e-02 3.38252398797412e+01 1.57339241544561e-01
5.60226415094340e-02 3.36056396481432e+01 1.56592247637205e-01
5.62188679245283e-02 3.33874651052371e+01 1.55847844182580e-01
5.64150943396226e-02 3.31707069951663e+01 1.55106034607961e-01
5.66113207547170e-02 3.29553561221649e+01 1.54366822064402e-01
5.68075471698113e-02 3.27414033501145e+01 1.53630209577579e-01
5.70037735849057e-02 3.25288396023176e+01 1.52896199952526e-01
5.72000000000000e-02 3.23176558609502e+01 1.52164795681294e-01
5.73962264150943e-02 3.21078431667343e+01 1.51435999092742e-01
5.75924528301887e-02 3.18993926185567e+01 1.50709812307401e-01
5.77886792452830e-02 3.16922953730926e+01 1.49986237194590e-01
5.79849056603774e-02 3.14865426443793e+01 1.49265275515894e-01
5.81811320754717e-02 3.12821257035953e+01 1.48546928834254e-01
5.83773584905660e-02 3.10790358785378e+01 1.47831198425935e-01
5.85735849056604e-02 3.08772645533056e+01 1.47118085422933e-01
5.87698113207547e-02 3.06768031679336e+01 1.46407590769869e-01
5.89660377358491e-02 3.04776432180296e+01 1.45699715227308e-01
5.91622641509434e-02 3.02797762544138e+01 1.44994459331087e-01
5.93584905660377e-02 3.00831938827134e+01 1.44291823527618e-01
5.95547169811321e-02 2.98878877631474e+01 1.43591808087910e-01
5.97509433962264e-02 2.96938496100315e+01 1.42894413024291e-01
5.99471698113208e-02 2.95010711914731e+01 1.42199638224677e-01
6.01433962264151e-02 2.93095443290233e+01 1.41507483411742e-01
6.03396226415094e-02 2.91192608973289e+01 1.40817948145877e-01
6.05358490566038e-02 2.89302128237882e+01 1.40131031786650e-01
6.07320754716981e-02 2.87423920881650e+01 1.39446733620421e-01
6.09283018867925e-02 2.85557907223796e+01 1.38765052778964e-01
6.11245283018868e-02 2.83704008100388e+01 1.38085988160746e-01
6.13207547169811e-02 2.81862144861441e+01 1.37409538557572e-01
6.15169811320755e-02 2.80032239367581e+01 1.36735702615844e-01
6.17132075471698e-02 2.78214213986730e+01 1.36064478799764e-01
6.19094339622642e-02 2.76407991590401e+01 1.35395865512789e-01
