Energy (eV)          EEDF (eV^-(3/2))     First Anisotropy
3.20000000000000e-01 8.10458499544706e-02 1.66306822451705e-04
9.60000000000000e-01 7.22335991034433e-02 2.60565867724177e-04
1.60000000000000e+00 6.43795190298835e-02 3.08650581485089e-04
2.24000000000000e+00 5.73794262221878e-02 3.27973107857612e-04
2.88000000000000e+00 5.11404652162630e-02 3.32472485488137e-04
3.52000000000000e+00 4.55798768779686e-02 3.28103936879498e-04
4.16000000000000e+00 4.06239006122711e-02 3.18185577019258e-04
4.80000000000000e+00 3.62067959370325e-02 3.04792388233983e-04
5.44000000000000e+00 3.22699704427184e-02 2.89302644659127e-04
6.08000000000000e+00 2.87612025705047e-02 2.72662863510507e-04
6.72000000000000e+00 2.56339488990224e-02 2.55534400765901e-04
7.36000000000000e+00 2.28467267509726e-02 2.38382126875318e-04
8.00000000000000e+00 2.03625639299574e-02 2.21531571088298e-04
8.64000000000000e+00 1.81485082883461e-02 2.05207492046789e-04
9.28000000000000e+00 1.61751906206467e-02 1.89560827435125e-04
9.92000000000000e+00 1.44164350842138e-02 1.74688022038458e-04
1.05600000000000e+01 1.28489119795635e-02 1.60645166942392e-04
1.12000000000000e+01 1.14518282844662e-02 1.47458498884755e-04
1.18400000000000e+01 1.02066518367849e-02 1.35132284114831e-04
1.24800000000000e+01 9.09686550737527e-03 1.23654785899610e-04
1.31200000000000e+01 8.10774810217698e-03 1.13002805667474e-04
1.37600000000000e+01 7.22617908718770e-03 1.03145148947828e-04
1.44000000000000e+01 6.44046454601718e-03 9.40452725521616e-05
1.50400000000000e+01 5.74018206136756e-03 8.56633032741018e-05
1.56800000000000e+01 5.11604246280995e-03 7.79575711953210e-05
1.63200000000000e+01 4.55976660695650e-03 7.08857664169310e-05
1.69600000000000e+01 4.06397555553048e-03 6.44058027602802e-05
1.76000000000000e+01 3.62209269455858e-03 5.84764530815669e-05
1.82400000000000e+01 3.22825649630712e-03 5.30578065444143e-05
1.88800000000000e+01 2.87724276675895e-03 4.81115872624660e-05
1.95200000000000e+01 2.56439534725222e-03 4.36013652922072e-05
2.01600000000000e+01 2.28556435104586e-03 3.94926844028042e-05
2.08000000000000e+01 2.03705111552672e-03 3.57531259228225e-05
2.14400000000000e+01 1.81555913985526e-03 3.23523239303797e-05
2.20800000000000e+01 1.61815035724308e-03 2.92619438655085e-05
2.27200000000000e+01 1.44220616181892e-03 2.64556341143177e-05
2.33600000000000e+01 1.28539267310868e-03 2.39089581017024e-05
2.40000000000000e+01 1.14562977736669e-03 2.15993128236779e-05
2.46400000000000e+01 1.02106353509476e-03 1.95058384673865e-05
2.52800000000000e+01 9.10041588737888e-04 1.76093227406015e-05
2.59200000000000e+01 8.11091244342318e-04 1.58921027114375e-05
2.65600000000000e+01 7.22899936431642e-04 1.43379663022279e-05
2.72000000000000e+01 6.44297816969551e-04 1.29320550567800e-05
2.78400000000000e+01 5.74242237453818e-04 1.16607693817310e-05
2.84800000000000e+01 5.11803918298161e-04 1.05116771298741e-05
2.91200000000000e+01 4.56154622040348e-04 9.47342612956426e-06
2.97600000000000e+01 4.06556166863016e-04 8.53566105632682e-06
3.04000000000000e+01 3.62350634692744e-04 7.68894487981388e-06
3.10400000000000e+01 3.22951643988894e-04 6.92468499259471e-06
3.16800000000000e+01 2.87836571456730e-04 6.23506402985862e-06
3.23200000000000e+01 2.56539619506673e-04 5.61297531523948e-06
3.29600000000000e+01 2.28645637500313e-04 5.05196281298321e-06
3.36000000000000e+01 2.03784614822681e-04 4.54616542679631e-06
3.42400000000000e+01 1.81626772731982e-04 4.09026545786039e-06
3.48800000000000e+01 1.61878189880719e-04 3.67944101617639e-06
3.55200000000000e+01 1.44276903481222e-04 3.30932216858559e-06
3.61600000000000e+01 1.28589434397976e-04 2.97595060185385e-06
3.68000000000000e+01 1.14607690072469e-04 2.67574257876854e-06
3.74400000000000e+01 1.02146204198203e-04 2.40545496820578e-06
3.80800000000000e+01 9.10396765304622e-05 2.16215413570881e-06
3.87200000000000e+01 8.11407801966759e-05 1.94318748857933e-06
3.93600000000000e+01 7.23182074215992e-05 1.74615747826300e-06
4.00000000000000e+01 6.44549277440607e-05 1.56889787246379e-06
4.06400000000000e+01 5.74466356207175e-05 1.40945211959829e-06
4.12800000000000e+01 5.12003668244526e-05 1.26605363862494e-06
4.19200000000000e+01 4.56332652840873e-05 1.13710787774112e-06
4.25600000000000e+01 4.06714840076764e-05 1.02117599576937e-06
4.32000000000000e+01 3.62492055102509e-05 9.16960030130753e-07
4.38400000000000e+01 3.23077687520917e-05 8.23289425037443e-07
4.44800000000000e+01 2.87948910064652e-05 7.39108802865433e-07
4.51200000000000e+01 2.56639743349819e-05 6.63466870548024e-07
4.57600000000000e+01 2.28734874710492e-05 5.95506361236431e-07
4.64000000000000e+01 2.03864149121708e-05 5.34454919391577e-07
4.70400000000000e+01 1.81697659133619e-05 4.79616844898888e-07
4.76800000000000e+01 1.61941368685317e-05 4.30365618740281e-07
4.83200000000000e+01 1.44333212748701e-05 3.86137139225829e-07
4.89600000000000e+01 1.28639621064600e-05 3.46423603797127e-07
4.96000000000000e+01 1.14652419858872e-05 3.10767976983685e-07
5.02400000000000e+01 1.02186070440100e-05 2.78758990243401e-07
5.08800000000000e+01 9.10752080491832e-06 2.50026624170343e-07
5.15200000000000e+01 8.11724483139240e-06 2.24238027930266e-07
5.21600000000000e+01 7.23464322114799e-06 2.01093834809604e-07
5.28000000000000e+01 6.44800836053191e-06 1.80324836459508e-07
5.34400000000000e+01 5.74690562430969e-06 1.61688981805420e-07
5.40800000000000e+01 5.12203496150522e-06 1.44968669696003e-07
5.47200000000000e+01 4.56510753124349e-06 1.29968307203822e-07
5.53600000000000e+01 4.06873575218466e-06 1.16512108083797e-07
5.60000000000000e+01 3.62633530706699e-06 1.04442108262782e-07
5.66400000000000e+01 3.23203780245982e-06 9.36163773925647e-08
5.72800000000000e+01 2.88061292516774e-06 8.39074074655942e-08
5.79200000000000e+01 2.56739906269912e-06 7.52006612836230e-08
5.85600000000000e+01 2.28824146748716e-06 6.73932651985821e-08
5.92000000000000e+01 2.03943714461869e-06 6.03928320260724e-08
5.98400000000000e+01 1.81768573201236e-06 5.41164013773650e-08
6.04800000000000e+01 1.62004572147725e-06 4.84894858774187e-08
6.11200000000000e+01 1.44389543992906e-06 4.34452128448953e-08
6.17600000000000e+01 1.28689827318383e-06 3.89235520154300e-08
6.24000000000000e+01 1.14697167102688e-06 3.48706208005996e-08
6.30400000000000e+01 1.02225952241236e-06 3.12380594005489e-08
6.36800000000000e+01 9.11107534353617e-07 2.79824688357781e-08
6.43200000000000e+01 8.12041287907977e-07 2.50649056402353e-08
6.49600000000000e+01 7.23746680171033e-07 2.24504275700598e-08
6.56000000000000e+01 6.45052492845599e-07 2.01076852360083e-08
6.62400000000000e+01 5.74914856159330e-07 1.80085550681653e-08
6.68800000000000e+01 5.12403402046565e-07 1.61278094739198e-08
6.75200000000000e+01 4.56688922917883e-07 1.44428204588971e-08
6.81600000000000e+01 4.07032372312279e-07 1.29332933496371e-08
6.88000000000000e+01 3.62775061526841e-07 1.15810275900723e-08
6.94400000000000e+01 3.23329922183276e-07 1.03697018846396e-08
7.00800000000000e+01 2.88173718830197e-07 9.28468123227315e-09
7.07200000000000e+01 2.56840108282192e-07 8.31284364035680e-09
7.13600000000000e+01 2.28913453628568e-07 7.44242452850929e-09
7.20000000000000e+01 2.04023310855269e-07 6.66287703115452e-09
7.26400000000000e+01 1.81839514945621e-07 5.96474658727003e-09
7.32800000000000e+01 1.62067800277562e-07 5.33955836742035e-09
7.39200000000000e+01 1.44445897222408e-07 4.77971623388128e-09
7.45600000000000e+01 1.28740053166965e-07 4.27841206090522e-09
7.52000000000000e+01 1.14741931810729e-07 3.82954436037688e-09
7.58400000000000e+01 1.02265849607682e-07 3.42764526453705e-09
7.64800000000000e+01 9.11463126944078e-08 3.06781501326436e-09
7.71200000000000e+01 8.12358216321189e-08 2.74566317964382e-09
7.77600000000000e+01 7.24029148427671e-08 2.45725594515839e-09
7.84000000000000e+01 6.45304247856138e-08 2.19906880566895e-09
7.90400000000000e+01 5.75139237426399e-08 1.96794415216662e-09
7.96800000000000e+01 5.12603385963087e-08 1.76105322678498e-09
8.03200000000000e+01 4.56867162248599e-08 1.57586200537509e-09
8.09600000000000e+01 4.07191231382381e-08 1.41010060363853e-09
8.16000000000000e+01 3.62916647584488e-08 1.26173584489424e-09
8.22400000000000e+01 3.23456113352009e-08 1.12894666448323e-09
8.28800000000000e+01 2.88286189022042e-08 1.01010205900719e-09
8.35200000000000e+01 2.56940349401921e-08 9.03741318425525e-10
8.41600000000000e+01 2.29002795363651e-08 8.08556305839285e-10
8.48000000000000e+01 2.04102938314031e-08 7.23375573872018e-10
8.54400000000000e+01 1.81910484377579e-08 6.47150128191773e-10
8.60800000000000e+01 1.62131053084455e-08 5.78940668150995e-10
8.67200000000000e+01 1.44502272445789e-08 5.17906151974306e-10
8.73600000000000e+01 1.28790298617995e-08 4.63293549597948e-10
8.80000000000000e+01 1.14786713989810e-08 4.14428660338785e-10
8.86400000000000e+01 1.02305762545514e-08 3.70707885207216e-10
8.92800000000000e+01 9.11818858317367e-09 3.31590855022864e-10
8.99200000000000e+01 8.12675268427140e-09 2.96593825675441e-10
9.05600000000000e+01 7.24311726927730e-09 2.65283761013776e-10
9.12000000000000e+01 6.45556101123147e-09 2.37273032049636e-10
9.18400000000000e+01 5.75363706266349e-09 2.12214668524960e-10
9.24800000000000e+01 5.12803447930546e-09 1.89798105497360e-10
9.31200000000000e+01 4.57045471143642e-09 1.69745373526122e-10
9.37600000000000e+01 4.07350152452965e-09 1.51807686358923e-10
9.44000000000000e+01 3.63058288901201e-09 1.35762384790174e-10
9.50400000000000e+01 3.23582353771397e-09 1.21410199641436e-10
9.56800000000000e+01 2.88398703109437e-09 1.08572800652814e-10
9.63200000000000e+01 2.57040629644363e-09 9.70906015170123e-11
9.69600000000000e+01 2.29092171967568e-09 8.68207943751956e-11
9.76000000000000e+01 2.04182596850283e-09 7.76355898625402e-11
9.82400000000000e+01 1.81981481507919e-09 6.94206412740533e-11
9.88800000000000e+01 1.62194330578039e-09 6.20736336472676e-11
9.95200000000000e+01 1.44558669671635e-09 5.55030205542178e-11
1.00160000000000e+02 1.28840563679126e-09 4.96268931843279e-11
1.00800000000000e+02 1.14831513646753e-09 4.43719679037889e-11
1.01440000000000e+02 1.02345691060810e-09 3.96726799147564e-11
1.02080000000000e+02 9.12174728527665e-10 3.54703719264062e-11
1.02720000000000e+02 8.12992444274120e-10 3.17125679049112e-11
1.03360000000000e+02 7.24594415714250e-10 2.83523230045665e-11
1.04000000000000e+02 6.45808052684985e-10 2.53476417099689e-11
1.04640000000000e+02 5.75588262713367e-10 2.26609570504616e-11
1.05280000000000e+02 5.13003587979408e-10 2.02586644929585e-11
1.05920000000000e+02 4.57223849630168e-10 1.81107047867091e-11
1.06560000000000e+02 4.07509135548234e-10 1.61901906315683e-11
1.07200000000000e+02 3.63199985498551e-10 1.44730725771036e-11
1.07840000000000e+02 3.23708643460666e-10 1.29378400398476e-11
1.08480000000000e+02 2.88511261109516e-10 1.15652537559770e-11
1.09120000000000e+02 2.57140949024790e-10 1.03381063718631e-11
1.09760000000000e+02 2.29181583453932e-10 9.24100821994159e-12
1.10400000000000e+02 2.04262286476154e-10 8.26019563636608e-12
1.11040000000000e+02 1.82052506347453e-10 7.38335945368102e-12
1.11680000000000e+02 1.62257632767949e-10 6.59949154962703e-12
1.12320000000000e+02 1.44615088908536e-10 5.89874755518341e-12
1.12960000000000e+02 1.28890848358012e-10 5.27232402375062e-12
1.13600000000000e+02 1.14876330788380e-10 4.71234854139828e-12
1.14240000000000e+02 1.02385635159651e-10 4.21178141751270e-12
1.14880000000000e+02 9.12530737629165e-11 3.76432773791491e-12
1.15520000000000e+02 8.13309743910430e-11 3.36435869032244e-12
1.16160000000000e+02 7.24877214830279e-11 3.00684118645421e-12
1.16800000000000e+02 6.46060102580021e-11 2.68727490752334e-12
1.17440000000000e+02 5.75812906801650e-11 2.40163599157865e-12
1.18080000000000e+02 5.13203806140154e-11 2.14632666326225e-12
1.18720000000000e+02 4.57402297735342e-11 1.91813018005208e-12
1.19360000000000e+02 4.07668180692397e-11 1.71417053485403e-12
1.20000000000000e+02 3.63341737398115e-11 1.53187641370360e-12
1.20640000000000e+02 3.23834982439047e-11 1.36894896005448e-12
1.21280000000000e+02 2.88623863039419e-11 1.22333294431625e-12
1.21920000000000e+02 2.57241307558478e-11 1.09319097953604e-12
1.22560000000000e+02 2.29271029836357e-11 9.76880461916435e-13
1.23200000000000e+02 2.04342007203779e-11 8.72932948690135e-13
1.23840000000000e+02 1.82123558906995e-11 7.80035716145903e-13
1.24480000000000e+02 1.62320959663825e-11 6.97015267692720e-13
1.25120000000000e+02 1.44671530165080e-11 6.22822586093779e-13
1.25760000000000e+02 1.28941152662308e-11 5.56519945697329e-13
1.26400000000000e+02 1.14921165421514e-11 4.97269119904847e-13
1.27040000000000e+02 1.02425594848119e-11 4.44320836488254e-13
1.27680000000000e+02 9.12886885676064e-12 3.97005348911115e-13
1.28320000000000e+02 8.13627167384373e-12 3.54724005715888e-13
1.28960000000000e+02 7.25160124318867e-12 3.16941712482290e-13
1.29600000000000e+02 6.46312250846622e-12 2.83180191994451e-13
1.30240000000000e+02 5.76037638565392e-12 2.53011958214489e-13
1.30880000000000e+02 5.13404102443261e-12 2.26054928570648e-13
1.31520000000000e+02 4.57580815486327e-12 2.01967607039724e-13
1.32160000000000e+02 4.07827287909668e-12 1.80444777634669e-13
1.32800000000000e+02 3.63483544621474e-12 1.61213654287660e-13
1.33440000000000e+02 3.23961370725775e-12 1.44030438825475e-13
1.34080000000000e+02 2.88736508916290e-12 1.28677243838704e-13
1.34720000000000e+02 2.57341705260706e-12 1.14959341812374e-13
1.35360000000000e+02 2.29360511128463e-12 1.02702705969816e-13
1.36000000000000e+02 2.04421759045296e-12 9.17518119347172e-14
1.36640000000000e+02 1.82194639197363e-12 8.19676725837889e-14
1.37280000000000e+02 1.62384311275308e-12 7.32260813848983e-14
1.37920000000000e+02 1.44727993449863e-12 6.54160421292840e-14
1.38560000000000e+02 1.28991476599677e-12 5.84383653041504e-14
1.39200000000000e+02 1.14966017552983e-12 5.22044134425900e-14
1.39840000000000e+02 1.02465570132298e-12 4.66349796575136e-14
1.40480000000000e+02 9.13243172722604e-13 4.16592852383531e-14
1.41120000000000e+02 8.13944714744294e-13 3.72140836846279e-14
1.41760000000000e+02 7.25443144223104e-13 3.32428598876603e-14
1.42400000000000e+02 6.46564497523193e-13 2.96951143675069e-14
1.43040000000000e+02 5.76262458038825e-13 2.65257235414603e-14
1.43680000000000e+02 5.13604476919236e-13 2.36943679566354e-14
1.44320000000000e+02 4.57759402910313e-13 2.11650212741326e-14
1.44960000000000e+02 4.07986457224275e-13 1.89054935567611e-14
1.45600000000000e+02 3.63625407190222e-13 1.68870230958753e-14
1.46240000000000e+02 3.24087808340094e-13 1.50839116240637e-14
1.46880000000000e+02 2.88849198757280e-13 1.34731983069106e-14
1.47520000000000e+02 2.57442142146761e-13 1.20343683956435e-14
1.48160000000000e+02 2.29450027343871e-13 1.07490928593212e-14
1.48800000000000e+02 2.04501542012847e-13 9.60099570577769e-15
1.49440000000000e+02 1.82265747229380e-13 8.57544604971302e-15
1.50080000000000e+02 1.62447687612043e-13 7.65937229849272e-15
1.50720000000000e+02 1.44784478771480e-13 6.84109610529871e-15
1.51360000000000e+02 1.29041820177777e-13 6.11018398877139e-15
1.52000000000000e+02 1.15010887189615e-13 5.45731474132447e-15
1.52640000000000e+02 1.02505561018274e-13 4.87416094770386e-15
1.53280000000000e+02 9.13599598823015e-14 4.35328311360481e-15
1.53920000000000e+02 8.14262386038525e-14 3.88803506349657e-15
1.54560000000000e+02 7.25726274586065e-14 3.47247940923461e-15
1.55200000000000e+02 6.46816842648127e-14 3.10131201835908e-15
1.55840000000000e+02 5.76487365256164e-14 2.76979452478479e-15
1.56480000000000e+02 5.13804929598575e-14 2.47369402631530e-15
1.57120000000000e+02 4.57938060034481e-14 2.20922920434322e-15
1.57760000000000e+02 4.08145688660449e-14 1.97302218237392e-15
1.58400000000000e+02 3.63767325125955e-14 1.76205551265518e-15
1.59040000000000e+02 3.24214295301253e-14 1.57363374512614e-15
1.59680000000000e+02 2.88961932579546e-14 1.40534909093339e-15
1.60320000000000e+02 2.57542618231935e-14 1.25505074463166e-15
1.60960000000000e+02 2.29539578496212e-14 1.12081747554580e-15
1.61600000000000e+02 2.04581356118580e-14 1.00093314020434e-15
1.62240000000000e+02 1.82336883013871e-14 8.93864804785198e-16
1.62880000000000e+02 1.62511088683680e-14 7.98243199609156e-16
1.63520000000000e+02 1.44840986138531e-14 7.12845257293868e-16
1.64160000000000e+02 1.29092183404275e-14 6.36578512614168e-16
1.64800000000000e+02 1.15055774338241e-14 5.68467165737022e-16
1.65440000000000e+02 1.02545567512136e-14 5.07639631610341e-16
1.66080000000000e+02 9.13956164031569e-15 4.53317417150648e-16
1.66720000000000e+02 8.14580181315436e-15 4.04805184733882e-16
1.67360000000000e+02 7.26009515450864e-15 3.61481875559601e-16
1.68000000000000e+02 6.47069286259849e-15 3.22792779922075e-16
1.68640000000000e+02 5.76712360251658e-15 2.88242453452594e-16
1.69280000000000e+02 5.14005460511804e-15 2.57388389147953e-16
1.69920000000000e+02 4.58116786886036e-15 2.29835364606728e-16
1.70560000000000e+02 4.08304982242433e-15 2.05230392479072e-16
1.71200000000000e+02 3.63909298450280e-15 1.83258209806277e-16
1.71840000000000e+02 3.24340831628510e-15 1.63637248780202e-16
1.72480000000000e+02 2.89074710400252e-15 1.46116037576922e-16
1.73120000000000e+02 2.57643133531524e-15 1.30469985391046e-16
1.73760000000000e+02 2.29629164599120e-15 1.16498510686595e-16
1.74400000000000e+02 2.04661201374646e-15 1.04022476049000e-16
1.75040000000000e+02 1.82408046561668e-15 9.28818969261892e-17
1.75680000000000e+02 1.62574514499872e-15 8.29338950343101e-17
1.76320000000000e+02 1.44897515559620e-15 7.40508703197123e-17
1.76960000000000e+02 1.29142566286838e-15 6.61188681528542e-17
1.77600000000000e+02 1.15100679005695e-15 5.90361209172309e-17
1.78240000000000e+02 1.02585589619974e-15 5.27117453787594e-17
1.78880000000000e+02 9.14312868402551e-16 4.70645792065578e-17
1.79520000000000e+02 8.14898100623414e-16 4.20221417899370e-17
1.80160000000000e+02 7.26292866860622e-16 3.75197060812154e-17
1.80800000000000e+02 6.47321828396792e-16 3.34994696098117e-17
1.81440000000000e+02 5.76937443059562e-16 2.99098140779711e-17
1.82080000000000e+02 5.14206069689453e-16 2.67046440785036e-17
1.82720000000000e+02 4.58295583492191e-16 2.38427964844429e-17
1.83360000000000e+02 4.08464337994484e-16 2.12875129623999e-17
1.84000000000000e+02 3.64051327184816e-16 1.90059688670656e-17
1.84640000000000e+02 3.24467417341134e-16 1.69688524940594e-17
1.85280000000000e+02 2.89187532236571e-16 1.51499893112846e-17
1.85920000000000e+02 2.57743688060835e-16 1.35260063633268e-17
1.86560000000000e+02 2.29718785666237e-16 1.20760325565189e-17
1.87200000000000e+02 2.04741077793204e-16 1.07814309906451e-17
1.87840000000000e+02 1.82479237883607e-16 9.62555991268632e-18
1.88480000000000e+02 1.62637965070278e-16 8.59355923375085e-18
1.89120000000000e+02 1.44954067043356e-16 7.67215987704001e-18
1.89760000000000e+02 1.29192968833140e-16 6.84951351652867e-18
1.90400000000000e+02 1.15145601198816e-16 6.11504052672503e-18
1.91040000000000e+02 1.02625627347886e-16 5.45929419672405e-18
1.91680000000000e+02 9.14669711990296e-17 5.15404334757575e-18
