Energy (eV)          EEDF (eV^-(3/2))     First Anisotropy
1.40983606557377e-02 1.01623778569553e-01 4.88437879066440e-05
4.22950819672131e-02 1.01048578374039e-01 8.06980102192573e-05
7.04918032786885e-02 1.00476633866020e-01 1.06644581948431e-04
9.86885245901639e-02 9.99079266180041e-02 1.26425979625871e-04
1.26885245901639e-01 9.93424383076307e-02 1.42981615169042e-04
1.55081967213115e-01 9.87801507114620e-02 1.57420876488586e-04
1.83278688524590e-01 9.82210457178280e-02 1.70316910181065e-04
2.11475409836066e-01 9.76651053122712e-02 1.82015256673403e-04
2.39672131147541e-01 9.71123115826145e-02 1.92744713519784e-04
2.67868852459016e-01 9.65626467161810e-02 2.02666729372669e-04
2.96065573770492e-01 9.60160930055315e-02 2.11900624931627e-04
3.24262295081967e-01 9.54726328410517e-02 2.20537755062968e-04
3.52459016393443e-01 9.49322487113520e-02 2.28650040465509e-04
3.80655737704918e-01 9.43949232074331e-02 2.36295397901926e-04
4.08852459016393e-01 9.38606390170651e-02 2.43521349839009e-04
4.37049180327869e-01 9.33293789248436e-02 2.50367509923414e-04
4.65245901639344e-01 9.28011258153872e-02 2.56867348328563e-04
4.93442622950820e-01 9.22758626688063e-02 2.63049477014559e-04
5.21639344262295e-01 9.17535725605746e-02 2.68938604921205e-04
5.49836065573771e-01 9.12342386640775e-02 2.74556263388812e-04
5.78032786885246e-01 9.07178442468229e-02 2.79921365539160e-04
6.06229508196721e-01 9.02043726701870e-02 2.85050642956869e-04
6.34426229508197e-01 8.96938073915106e-02 2.89958992927842e-04
6.62622950819672e-01 8.91861319608359e-02 2.94659756959126e-04
6.90819672131147e-01 8.86813300213197e-02 2.99164946182265e-04
7.19016393442623e-01 8.81793853080161e-02 3.03485425953554e-04
7.47213114754098e-01 8.76802816494706e-02 3.07631068721182e-04
7.75409836065574e-01 8.71840029650184e-02 3.11610881456106e-04
8.03606557377049e-01 8.66905332644102e-02 3.15433111700882e-04
8.31803278688525e-01 8.61998566491638e-02 3.19105337992492e-04
8.60000000000000e-01 8.57119573101287e-02 3.22634546754127e-04
8.88196721311475e-01 8.52268195270992e-02 3.26027197236856e-04
9.16393442622951e-01 8.47444276699701e-02 3.29289278152228e-04
9.44590163934426e-01 8.42647661965218e-02 3.32426356633149e-04
9.72786885245902e-01 8.37878196520212e-02 3.35443619984170e-04
1.00098360655738e+00 8.33135726702190e-02 3.38345913101417e-04
1.02918032786885e+00 8.28420099699122e-02 3.41137770123431e-04
1.05737704918033e+00 8.23731163597178e-02 3.43823443276771e-04
1.08557377049180e+00 8.19068767322924e-02 3.46406928576891e-04
1.11377049180328e+00 8.14432760657862e-02 3.48891987112576e-04
1.14196721311475e+00 8.09822994233959e-02 3.51282165161838e-04
1.17016393442623e+00 8.05239319528667e-02 3.53580812563037e-04
1.19836065573770e+00 8.00681588821933e-02 3.55791096255994e-04
1.22655737704918e+00 7.96149655307460e-02 3.57916015929140e-04
1.25475409836066e+00 7.91643372970392e-02 3.59958418236470e-04
1.28295081967213e+00 7.87162596622351e-02 3.61921006001021e-04
1.31114754098361e+00 7.82707181896722e-02 3.63806349352652e-04
1.33934426229508e+00 7.78276985243971e-02 3.65616895123252e-04
1.36754098360656e+00 7.73871863927200e-02 3.67354975385455e-04
1.39573770491803e+00 7.69491676017429e-02 3.69022815869042e-04
1.42393442622951e+00 7.65136280358419e-02 3.70622541101898e-04
1.45213114754098e+00 7.60805536654989e-02 3.72156182197366e-04
1.48032786885246e+00 7.56499305374526e-02 3.73625684091117e-04
1.50852459016393e+00 7.52217447774197e-02 3.75032908999744e-04
1.53672131147541e+00 7.47959825896416e-02 3.76379642084100e-04
1.56491803278689e+00 7.43726302564492e-02 3.77667596048877e-04
1.59311475409836e+00 7.39516741378216e-02 3.78898415387624e-04
1.62131147540984e+00 7.35331006709426e-02 3.80073680869605e-04
1.64950819672131e+00 7.31168963672457e-02 3.81194911439946e-04
1.67770491803279e+00 7.27030478196123e-02 3.82263568733961e-04
1.70590163934426e+00 7.22915416942250e-02 3.83281061346989e-04
1.73409836065574e+00 7.18823647327376e-02 3.84248745971232e-04
1.76229508196721e+00 7.14755037518410e-02 3.85167930669277e-04
1.79049180327869e+00 7.10709456428532e-02 3.86039877376446e-04
1.81868852459016e+00 7.06686773712894e-02 3.86865804755338e-04
1.84688524590164e+00 7.02686859742779e-02 3.87646888805799e-04
1.87508196721311e+00 6.98709585666975e-02 3.88384265952789e-04
1.90327868852459e+00 6.94754823341416e-02 3.89079036003515e-04
1.93147540983607e+00 6.90822445347350e-02 3.89732262335371e-04
1.95967213114754e+00 6.86912324987212e-02 3.90344974102543e-04
1.98786885245902e+00 6.83024336280547e-02 3.90918167802509e-04
2.01606557377049e+00 6.79158353960008e-02 3.91452808750442e-04
2.04426229508197e+00 6.75314253467274e-02 3.91949832932354e-04
2.07245901639344e+00 6.71491910930644e-02 3.92410146897905e-04
2.10065573770492e+00 6.67691203216739e-02 3.92834629936351e-04
2.12885245901639e+00 6.63912007870320e-02 3.93224136183676e-04
2.15704918032787e+00 6.60154203129261e-02 3.93579494280160e-04
2.18524590163934e+00 6.56417667920593e-02 3.93901508882941e-04
2.21344262295082e+00 6.52702281856660e-02 3.94190961640912e-04
2.24163934426229e+00 6.49007925231224e-02 3.94448612119238e-04
2.26983606557377e+00 6.45334479015600e-02 3.94675199095477e-04
2.29803278688525e+00 6.41681824838989e-02 3.94871440109360e-04
2.32622950819672e+00 6.38049845032563e-02 3.95038033105719e-04
2.35442622950820e+00 6.34438422577357e-02 3.95175658039516e-04
2.38262295081967e+00 6.30847441116741e-02 3.95284976282403e-04
2.41081967213115e+00 6.27276784952653e-02 3.95366631729154e-04
2.43901639344262e+00 6.23726339041927e-02 3.95421251436375e-04
2.46721311475410e+00 6.20195988992554e-02 3.95449446622055e-04
2.49540983606557e+00 6.16685621045974e-02 3.95451812063374e-04
2.52360655737705e+00 6.13195122115828e-02 3.95428927439505e-04
2.55180327868852e+00 6.09724379741541e-02 3.95381358651231e-04
2.58000000000000e+00 6.06273282099076e-02 3.95309657121092e-04
2.60819672131148e+00 6.02841717997320e-02 3.95214360673542e-04
2.63639344262295e+00 5.99429576874515e-02 3.95095993990297e-04
2.66459016393443e+00 5.96036748794711e-02 3.94955069046757e-04
2.69278688524590e+00 5.92663124444205e-02 3.94792085886064e-04
2.72098360655738e+00 5.89308595115746e-02 3.94607531938700e-04
2.74918032786885e+00 5.85973052742153e-02 3.94401883127145e-04
2.77737704918033e+00 5.82656389855413e-02 3.94175604957299e-04
2.80557377049180e+00 5.79358499595794e-02 3.93929151771012e-04
2.83377049180328e+00 5.76079275708383e-02 3.93662967447866e-04
2.86196721311475e+00 5.72818612539699e-02 3.93377485725939e-04
2.89016393442623e+00 5.69576405034273e-02 3.93073130842659e-04
2.91836065573770e+00 5.66352548720253e-02 3.92750316828297e-04
2.94655737704918e+00 5.63146939739316e-02 3.92409448461328e-04
2.97475409836066e+00 5.59959474809788e-02 3.92050922215808e-04
3.00295081967213e+00 5.56790051234576e-02 3.91675125504119e-04
3.03114754098361e+00 5.53638566897863e-02 3.91282437270431e-04
3.05934426229508e+00 5.50504920261808e-02 3.90873228231648e-04
3.08754098360656e+00 5.47389010363299e-02 3.90447861110483e-04
3.11573770491803e+00 5.44290736810688e-02 3.90006691165468e-04
3.14393442622951e+00 5.41209999770794e-02 3.89550065484859e-04
3.17213114754098e+00 5.38146699995177e-02 3.89078323812198e-04
3.20032786885246e+00 5.35100738787236e-02 3.88591799367446e-04
3.22852459016393e+00 5.32072018008999e-02 3.88090818102916e-04
3.25672131147541e+00 5.29060440077960e-02 3.87575699203076e-04
3.28491803278688e+00 5.26065907963942e-02 3.87046755263612e-04
3.31311475409836e+00 5.23088325185976e-02 3.86504292465161e-04
3.34131147540984e+00 5.20127595809185e-02 3.85948611021959e-04
3.36950819672131e+00 5.17183624433001e-02 3.85380004493491e-04
3.39770491803279e+00 5.14256316214353e-02 3.84798760509906e-04
3.42590163934426e+00 5.11345576838161e-02 3.84205161495379e-04
3.45409836065574e+00 5.08451312523179e-02 3.83599483949893e-04
3.48229508196721e+00 5.05573430018960e-02 3.82981998878683e-04
3.51049180327869e+00 5.02711836602874e-02 3.82352971928385e-04
3.53868852459016e+00 4.99866440077116e-02 3.81712663782768e-04
3.56688524590164e+00 4.97037148757829e-02 3.81061329495398e-04
3.59508196721311e+00 4.94223871496011e-02 3.80399219145440e-04
3.62327868852459e+00 4.91426517650553e-02 3.79726578492520e-04
3.65147540983607e+00 4.88644997093386e-02 3.79043648284628e-04
3.67967213114754e+00 4.85879220206570e-02 3.78350664640914e-04
3.70786885245902e+00 4.83129097879409e-02 3.77647859159735e-04
3.73606557377049e+00 4.80394541505589e-02 3.76935459024160e-04
3.76426229508197e+00 4.77675462980318e-02 3.76213687348161e-04
3.79245901639344e+00 4.74971774690393e-02 3.75482762539764e-04
3.82065573770492e+00 4.72283389532799e-02 3.74742898890002e-04
3.84885245901639e+00 4.69610220890336e-02 3.73994307162058e-04
3.87704918032787e+00 4.66952182636064e-02 3.73237193933823e-04
3.90524590163934e+00 4.64309189130525e-02 3.72471761935944e-04
3.93344262295082e+00 4.61681155218994e-02 3.71698210136925e-04
3.96163934426230e+00 4.59067996228733e-02 3.70916733826346e-04
3.98983606557377e+00 4.56469627966258e-02 3.70127524921359e-04
4.01803278688525e+00 4.53885966708239e-02 3.69330771362402e-04
4.04622950819672e+00 4.51316929218101e-02 3.68526657646402e-04
4.07442622950820e+00 4.48762432723914e-02 3.67715365360786e-04
4.10262295081967e+00 4.46222394922244e-02 3.66897072561484e-04
4.13081967213115e+00 4.43696733975496e-02 3.66071954074859e-04
4.15901639344262e+00 4.41185368509293e-02 3.65240181565677e-04
4.18721311475410e+00 4.38688217609843e-02 3.64401923816006e-04
4.21540983606557e+00 4.36205200815477e-02 3.63557346148628e-04
4.24360655737705e+00 4.33736238131744e-02 3.62706610918853e-04
4.27180327868852e+00 4.31281250011030e-02 3.61849878007594e-04
4.30000000000000e+00 4.28840157355967e-02 3.60987304229310e-04
4.32819672131148e+00 4.26412881516886e-02 3.60119043608017e-04
4.35639344262295e+00 4.23999344289280e-02 3.59245247433297e-04
4.38459016393443e+00 4.21599467911290e-02 3.58366064315348e-04
4.41278688524590e+00 4.19213175061201e-02 3.57481640436309e-04
4.44098360655738e+00 4.16840388849630e-02 3.56592119006066e-04
4.46918032786885e+00 4.14481032833093e-02 3.55697640712321e-04
4.49737704918033e+00 4.12135030995400e-02 3.54798344172244e-04
4.52557377049180e+00 4.09802307750617e-02 3.53894365374815e-04
4.55377049180328e+00 4.07482787940633e-02 3.52985837930637e-04
4.58196721311475e+00 4.05176396832743e-02 3.52072893117860e-04
4.61016393442623e+00 4.02883060117234e-02 3.51155660113379e-04
4.63836065573770e+00 4.00602703900106e-02 3.50234265475461e-04
4.66655737704918e+00 3.98335254715450e-02 3.49308833562176e-04
4.69475409836066e+00 3.96080639508228e-02 3.48379486951444e-04
4.72295081967213e+00 3.93838785636898e-02 3.47446345911450e-04
4.75114754098361e+00 3.91609620871075e-02 3.46509528631479e-04
4.77934426229508e+00 3.89393073389206e-02 3.45569151260424e-04
4.80754098360656e+00 3.87189071776257e-02 3.44625327944842e-04
4.83573770491803e+00 3.84997545021408e-02 3.43678171039589e-04
4.86393442622951e+00 3.82818422511316e-02 3.42727790620756e-04
4.89213114754098e+00 3.80651634041280e-02 3.41774294871370e-04
4.92032786885246e+00 3.78497109799454e-02 3.40817790468869e-04
4.94852459016393e+00 3.76354780369133e-02 3.39858382087103e-04
4.97672131147541e+00 3.74224576726515e-02 3.38896172607354e-04
5.00491803278689e+00 3.72106430238481e-02 3.37931263150498e-04
5.03311475409836e+00 3.70000272660382e-02 3.36963753108750e-04
5.06131147540984e+00 3.67906036133845e-02 3.35993740338568e-04
5.08950819672131e+00 3.65823653180510e-02 3.35021320702312e-04
5.11770491803279e+00 3.63753056712139e-02 3.34046588424836e-04
5.14590163934426e+00 3.61694180016098e-02 3.33069636451944e-04
5.17409836065574e+00 3.59646956757358e-02 3.32090555982252e-04
5.20229508196721e+00 3.57611320976345e-02 3.31109436660888e-04
5.23049180327869e+00 3.55587207086828e-02 3.30126366606531e-04
5.25868852459016e+00 3.53574549873802e-02 3.29141432591120e-04
5.28688524590164e+00 3.51573284487618e-02 3.28154719604750e-04
5.31508196721311e+00 3.49583346453259e-02 3.27166311189665e-04
5.34327868852459e+00 3.47604671656831e-02 3.26176289776098e-04
5.37147540983607e+00 3.45637196347332e-02 3.25184736238148e-04
5.39967213114754e+00 3.43680857134595e-02 3.24191730074571e-04
5.42786885245902e+00 3.41735590987246e-02 3.23197349432009e-04
5.45606557377049e+00 3.39801335230679e-02 3.22201671127919e-04
5.48426229508197e+00 3.37878027545031e-02 3.21204770816147e-04
5.51245901639344e+00 3.35965605959727e-02 3.20206722577722e-04
5.54065573770492e+00 3.34064008861889e-02 3.19207599230968e-04
5.56885245901639e+00 3.32173174983886e-02 3.18207472643551e-04
5.59704918032787e+00 3.30293043404864e-02 3.17206413314993e-04
5.62524590163934e+00 3.28423553548788e-02 3.16204490543604e-04
5.65344262295082e+00 3.26564645182491e-02 3.15201772446258e-04
5.68163934426229e+00 3.24716258413730e-02 3.14198325978109e-04
5.70983606557377e+00 3.22878333689259e-02 3.13194217085570e-04
5.73803278688525e+00 3.21050811789746e-02 3.12189510321381e-04
5.76622950819672e+00 3.19233633837411e-02 3.11184269133133e-04
5.79442622950820e+00 3.17426741284524e-02 3.10178556153657e-04
5.82262295081967e+00 3.15630075914743e-02 3.09172432808589e-04
5.85081967213115e+00 3.13843579841235e-02 3.08165959470884e-04
5.87901639344262e+00 3.12067195504812e-02 3.07159195477869e-04
5.90721311475410e+00 3.10300865672079e-02 3.06152199274736e-04
5.93540983606557e+00 3.08544533430644e-02 3.05145028049173e-04
5.96360655737705e+00 3.06798142196163e-02 3.04137738002897e-04
5.99180327868852e+00 3.05061635701587e-02 3.03130384624946e-04
6.02000000000000e+00 3.03334957998346e-02 3.02123022319329e-04
6.04819672131148e+00 3.01618053454543e-02 3.01115704550092e-04
6.07639344262295e+00 2.99910866753162e-02 3.00108483856141e-04
6.10459016393443e+00 2.98213342890289e-02 2.99101411865995e-04
6.13278688524590e+00 2.96525427173337e-02 2.98094539430925e-04
6.16098360655738e+00 2.94847065216578e-02 2.97087916281224e-04
6.18918032786885e+00 2.93178202947555e-02 2.96081591279519e-04
6.21737704918033e+00 2.91518786597131e-02 2.95075612675843e-04
6.24557377049180e+00 2.89868762700504e-02 2.94070027757466e-04
6.27377049180328e+00 2.88228078095491e-02 2.93064882983679e-04
6.30196721311475e+00 2.86596679920810e-02 2.92060223998666e-04
6.33016393442623e+00 2.84974515614380e-02 2.91056095756676e-04
6.35836065573770e+00 2.83361532909106e-02 2.90052542195782e-04
6.38655737704918e+00 2.81757679838800e-02 2.89049606476746e-04
6.41475409836066e+00 2.80162904728858e-02 2.88047331223566e-04
6.44295081967213e+00 2.78577156197159e-02 2.87045758191158e-04
6.47114754098361e+00 2.77000383152409e-02 2.86044928392252e-04
6.49934426229508e+00 2.75432534792498e-02 2.85044882108641e-04
6.52754098360656e+00 2.73873560602856e-02 2.84045658902433e-04
6.55573770491803e+00 2.72323410354837e-02 2.83047297732666e-04
6.58393442622951e+00 2.70782034101763e-02 2.82049836648188e-04
6.61213114754098e+00 2.69249382184340e-02 2.81053313011013e-04
6.64032786885246e+00 2.67725405221995e-02 2.80057763721359e-04
6.66852459016393e+00 2.66210054113658e-02 2.79063224904872e-04
6.69672131147541e+00 2.64703280036171e-02 2.78069732030901e-04
6.72491803278688e+00 2.63205034442723e-02 2.77077319922364e-04
6.75311475409836e+00 2.61715269061282e-02 2.76086022765666e-04
6.78131147540984e+00 2.60233935893041e-02 2.75095874219368e-04
6.80950819672131e+00 2.58760987208722e-02 2.74106907125014e-04
6.83770491803279e+00 2.57296375553518e-02 2.73119153716261e-04
6.86590163934426e+00 2.55840053739051e-02 2.72132645829521e-04
6.89409836065574e+00 2.54391974844033e-02 2.71147414609617e-04
6.92229508196721e+00 2.52952092212754e-02 2.70163490620114e-04
6.95049180327869e+00 2.51520359453581e-02 2.69180903851981e-04
6.97868852459016e+00 2.50096730437461e-02 2.68199683826240e-04
7.00688524590164e+00 2.48681159294430e-02 2.67219859319306e-04
7.03508196721311e+00 2.47273600418189e-02 2.66241458560662e-04
7.06327868852459e+00 2.45874008458544e-02 2.65264509431975e-04
7.09147540983607e+00 2.44482338321988e-02 2.64289039187597e-04
7.11967213114754e+00 2.43098545170250e-02 2.63315074558773e-04
7.14786885245902e+00 2.41722584418844e-02 2.62342641761292e-04
7.17606557377049e+00 2.40354411735639e-02 2.61371766503226e-04
7.20426229508197e+00 2.38993983039427e-02 2.60402474080771e-04
7.23245901639344e+00 2.37641254496648e-02 2.59434789119535e-04
7.26065573770492e+00 2.36296182525578e-02 2.58468735759824e-04
7.28885245901639e+00 2.34958723789291e-02 2.57504337843475e-04
7.31704918032787e+00 2.33628835196155e-02 2.56541618650579e-04
7.34524590163934e+00 2.32306473898439e-02 2.55580600996897e-04
7.37344262295082e+00 2.30991597290933e-02 2.54621307240630e-04
7.40163934426229e+00 2.29684163009578e-02 2.53663759289265e-04
7.42983606557377e+00 2.28384128930102e-02 2.52707978689299e-04
7.45803278688525e+00 2.27091453164936e-02 2.51753986382392e-04
7.48622950819672e+00 2.25806094067059e-02 2.50801802879284e-04
7.51442622950820e+00 2.24528010223439e-02 2.49851448435090e-04
7.54262295081967e+00 2.23257160455444e-02 2.48902942801252e-04
7.57081967213115e+00 2.21993503817518e-02 2.47956305316720e-04
7.59901639344262e+00 2.20736999595860e-02 2.47011554913993e-04
7.62721311475410e+00 2.19487607307114e-02 2.46068710204034e-04
7.65540983606557e+00 2.18245286695449e-02 2.45127789244508e-04
7.68360655737705e+00 2.17009997736131e-02 2.44188809704488e-04
7.71180327868852e+00 2.15781700629338e-02 2.43251789030515e-04
7.74000000000000e+00 2.14560355800520e-02 2.42316744210823e-04
7.76819672131148e+00 2.13345923899122e-02 2.41383691861644e-04
7.79639344262295e+00 2.12138365797315e-02 2.40452648232629e-04
7.82459016393443e+00 2.10937642588742e-02 2.39523629212239e-04
7.85278688524590e+00 2.09743715587257e-02 2.38596650407273e-04
7.88098360655738e+00 2.08556546324184e-02 2.37671726924371e-04
7.90918032786885e+00 2.07376096551593e-02 2.36748873524727e-04
7.93737704918033e+00 2.06202328236529e-02 2.35828104780171e-04
7.96557377049180e+00 2.05035203561307e-02 2.34909434850888e-04
7.99377049180328e+00 2.03874684922293e-02 2.33992877566322e-04
8.02196721311475e+00 2.02720734928693e-02 2.33078446430035e-04
8.05016393442623e+00 2.01573316401351e-02 2.32166154694968e-04
8.07836065573770e+00 2.00432392370142e-02 2.31256015155704e-04
8.10655737704918e+00 1.99297926077019e-02 2.30348040295237e-04
8.13475409836066e+00 1.98169880970570e-02 2.29442242432824e-04
8.16295081967213e+00 1.97048220706268e-02 2.28538633512677e-04
8.19114754098361e+00 1.95932909145298e-02 2.27637225180673e-04
8.21934426229508e+00 1.94823910353397e-02 2.26738028788633e-04
8.24754098360656e+00 1.93721188599690e-02 2.25841055398646e-04
8.27573770491803e+00 1.92624708355546e-02 2.24946315853742e-04
8.30393442622951e+00 1.91534434292122e-02 2.24053820581906e-04
8.33213114754098e+00 1.90450331283162e-02 2.23163579734070e-04
8.36032786885246e+00 1.89372364399913e-02 2.22275603323262e-04
8.38852459016393e+00 1.88300498911318e-02 2.21389901025270e-04
8.41672131147541e+00 1.87234700282904e-02 2.20506482250636e-04
8.44491803278689e+00 1.86174934175665e-02 2.19625356148466e-04
8.47311475409836e+00 1.85121166444958e-02 2.18746531610361e-04
8.50131147540984e+00 1.84073363139402e-02 2.17870017336759e-04
8.52950819672131e+00 1.83031490498570e-02 2.16995821651996e-04
8.55770491803279e+00 1.81995514955562e-02 2.16123952634167e-04
8.58590163934426e+00 1.80965403132243e-02 2.15254418246078e-04
8.61409836065574e+00 1.79941121839403e-02 2.14387226147164e-04
8.64229508196721e+00 1.78922638075683e-02 2.13522383761092e-04
8.67049180327869e+00 1.77909919026520e-02 2.12659898279255e-04
8.69868852459016e+00 1.76902932063079e-02 2.11799776723761e-04
8.72688524590164e+00 1.75901644740072e-02 2.10942025771411e-04
8.75508196721311e+00 1.74906024798144e-02 2.10086651876967e-04
8.78327868852459e+00 1.73916040159377e-02 2.09233661397527e-04
8.81147540983607e+00 1.72931658927422e-02 2.08383060413524e-04
8.83967213114754e+00 1.71952849386463e-02 2.07534854792903e-04
8.86786885245902e+00 1.70979580000198e-02 2.06689050194226e-04
8.89606557377049e+00 1.70011819410826e-02 2.05845652069775e-04
