Energy (eV)          EEDF (eV^-(3/2))     First Anisotropy
2.15454545454545e-02 6.25261322078489e-02 3.16144557817297e-05
6.46363636363636e-02 6.21349241004869e-02 5.22166803567389e-05
1.07727272727273e-01 6.17461636703496e-02 6.89643371311967e-05
1.50818181818182e-01 6.13598356037274e-02 8.17074084517589e-05
1.93909090909091e-01 6.09759246812462e-02 9.23516470281242e-05
2.37000000000000e-01 6.05944157795105e-02 1.01616939636745e-04
2.80090909090909e-01 6.02152938682902e-02 1.09875507521674e-04
3.23181818181818e-01 5.98385440145745e-02 1.17351935130207e-04
3.66272727272727e-01 5.94641513770071e-02 1.24195047114744e-04
4.09363636363636e-01 5.90921012071157e-02 1.30509942520033e-04
4.52454545454545e-01 5.87223788487201e-02 1.36374356909905e-04
4.95545454545455e-01 5.83549697373484e-02 1.41847852701015e-04
5.38636363636364e-01 5.79898593996525e-02 1.46977358292458e-04
5.81727272727273e-01 5.76270334528541e-02 1.51800693878766e-04
6.24818181818182e-01 5.72664776041657e-02 1.56348915833136e-04
6.67909090909091e-01 5.69081776502275e-02 1.60647932268788e-04
7.11000000000000e-01 5.65521194765466e-02 1.64719650166682e-04
7.54090909090909e-01 5.61982890564631e-02 1.68582810555516e-04
7.97181818181818e-01 5.58466724520686e-02 1.72253610381746e-04
8.40272727272727e-01 5.54972558121454e-02 1.75746174259221e-04
8.83363636363636e-01 5.51500253721400e-02 1.79072918068623e-04
9.26454545454545e-01 5.48049674536205e-02 1.82244833769004e-04
9.69545454545454e-01 5.44620684637378e-02 1.85271715247386e-04
1.01263636363636e+00 5.41213148946879e-02 1.88162339671846e-04
1.05572727272727e+00 5.37826933225163e-02 1.90924614292846e-04
1.09881818181818e+00 5.34461904083076e-02 1.93565696977833e-04
1.14190909090909e+00 5.31117928962497e-02 1.96092095925264e-04
1.18500000000000e+00 5.27794876134656e-02 1.98509751973190e-04
1.22809090909091e+00 5.24492614722216e-02 2.00824109469127e-04
1.27118181818182e+00 5.21211014611160e-02 2.03040174243566e-04
1.31427272727273e+00 5.17949946529849e-02 2.05162562790662e-04
1.35736363636364e+00 5.14709282015443e-02 2.07195546314499e-04
1.40045454545455e+00 5.11488893408835e-02 2.09143087108850e-04
1.44354545454545e+00 5.08288653849634e-02 2.11008870379973e-04
1.48663636363636e+00 5.05108437271075e-02 2.12796331889302e-04
1.52972727272727e+00 5.01948118395243e-02 2.14508682079556e-04
1.57281818181818e+00 4.98807572728038e-02 2.16148927221313e-04
1.61590909090909e+00 4.95686676554272e-02 2.17719888014942e-04
1.65900000000000e+00 4.92585306932800e-02 2.19224215698318e-04
1.70209090909091e+00 4.89503341709927e-02 2.20664407583294e-04
1.74518181818182e+00 4.86440659459217e-02 2.22042819350396e-04
1.78827272727273e+00 4.83397139532742e-02 2.23361675944422e-04
1.83136363636364e+00 4.80372662037425e-02 2.24623082905471e-04
1.87445454545455e+00 4.77367107830318e-02 2.25829035311414e-04
1.91754545454545e+00 4.74380358513912e-02 2.26981426125556e-04
1.96063636363636e+00 4.71412296431421e-02 2.28082053724889e-04
2.00372727272727e+00 4.68462804662255e-02 2.29132628710196e-04
2.04681818181818e+00 4.65531767017353e-02 2.30134780081397e-04
2.08990909090909e+00 4.62619068034613e-02 2.31090060845673e-04
2.13300000000000e+00 4.59724592974340e-02 2.31999952859103e-04
2.17609090909091e+00 4.56848227828011e-02 2.32865872288833e-04
2.21918181818182e+00 4.53989859273548e-02 2.33689173334998e-04
2.26227272727273e+00 4.51149374711493e-02 2.34471151591947e-04
2.30536363636364e+00 4.48326662246886e-02 2.35213048447006e-04
2.34845454545455e+00 4.45521610684857e-02 2.35916054098221e-04
2.39154545454545e+00 4.42734109526252e-02 2.36581310586438e-04
2.43463636363636e+00 4.39964048963242e-02 2.37209914590115e-04
2.47772727272727e+00 4.37211319875065e-02 2.37802920008309e-04
2.52081818181818e+00 4.34475813823693e-02 2.38361340351649e-04
2.56390909090909e+00 4.31757423049561e-02 2.38886150955819e-04
2.60700000000000e+00 4.29056040467323e-02 2.39378290811587e-04
2.65009090909091e+00 4.26371559671786e-02 2.39838665150776e-04
2.69318181818182e+00 4.23703874902988e-02 2.40268146767743e-04
2.73627272727273e+00 4.21052881073043e-02 2.40667577216376e-04
2.77936363636364e+00 4.18418473751564e-02 2.41037769042845e-04
2.82245454545455e+00 4.15800549161554e-02 2.41379506994703e-04
2.86554545454545e+00 4.13199004175320e-02 2.41693549368047e-04
2.90863636363636e+00 4.10613736310386e-02 2.41980629267036e-04
2.95172727272727e+00 4.08044643725499e-02 2.42241455784794e-04
2.99481818181818e+00 4.05491625216596e-02 2.42476715111818e-04
3.03790909090909e+00 4.02954580212817e-02 2.42687071575346e-04
3.08100000000000e+00 4.00433408772544e-02 2.42873168423891e-04
3.12409090909091e+00 3.97928011587491e-02 2.43035629327880e-04
3.16718181818182e+00 3.95438289954514e-02 2.43175058855460e-04
3.21027272727273e+00 3.92964145796201e-02 2.43292042895543e-04
3.25336363636364e+00 3.90505481648783e-02 2.43387150019478e-04
3.29645454545455e+00 3.88062200658290e-02 2.43460932008872e-04
3.33954545454545e+00 3.85634206576739e-02 2.43513924542169e-04
3.38263636363636e+00 3.83221403758332e-02 2.43546647843087e-04
3.42572727272727e+00 3.80823697155709e-02 2.43559607294886e-04
3.46881818181818e+00 3.78440992316193e-02 2.43553294022655e-04
3.51190909090909e+00 3.76073195378072e-02 2.43528185444459e-04
3.55500000000000e+00 3.73720213066896e-02 2.43484745626896e-04
3.59809090909091e+00 3.71381952698306e-02 2.43423426286674e-04
3.64118181818182e+00 3.69058322154737e-02 2.43344666923694e-04
3.68427272727273e+00 3.66749229901583e-02 2.43248894928001e-04
3.72736363636364e+00 3.64454584976946e-02 2.43136526520623e-04
3.77045454545455e+00 3.62174296988048e-02 2.43007966986836e-04
3.81354545454545e+00 3.59908276107671e-02 2.42863611062800e-04
3.85663636363636e+00 3.57656433070613e-02 2.42703843303374e-04
3.89972727272727e+00 3.55418679170186e-02 2.42529038433240e-04
3.94281818181818e+00 3.53194926254714e-02 2.42339561682379e-04
3.98590909090909e+00 3.50985086724059e-02 2.42135769105702e-04
4.02900000000000e+00 3.48789073526174e-02 2.41918007741699e-04
4.07209090909091e+00 3.46606800159023e-02 2.41686616347279e-04
4.11518181818182e+00 3.44438180650998e-02 2.41441925380330e-04
4.15827272727273e+00 3.42283129573830e-02 2.41184256967569e-04
4.20136363636364e+00 3.40141562033745e-02 2.40913925611198e-04
4.24445454545455e+00 3.38013393668131e-02 2.40631238282609e-04
4.28754545454545e+00 3.35898540642202e-02 2.40336494657233e-04
4.33063636363636e+00 3.33796919645698e-02 2.40029987339056e-04
4.37372727272727e+00 3.31708447889616e-02 2.39712002076348e-04
4.41681818181818e+00 3.29633043102935e-02 2.39382817969060e-04
4.45990909090909e+00 3.27570623529383e-02 2.39042707667384e-04
4.50300000000000e+00 3.25521107924213e-02 2.38691937432910e-04
4.54609090909091e+00 3.23484415555474e-02 2.38330767713035e-04
4.58918181818182e+00 3.21460466187323e-02 2.37959453055428e-04
4.63227272727273e+00 3.19449180090466e-02 2.37578242013275e-04
4.67536363636364e+00 3.17450478034453e-02 2.37187377706484e-04
4.71845454545455e+00 3.15464281284556e-02 2.36787097845223e-04
4.76154545454545e+00 3.13490511598665e-02 2.36377634881184e-04
4.80463636363636e+00 3.11529091224208e-02 2.35959216152800e-04
4.84772727272727e+00 3.09579942895088e-02 2.35532064025510e-04
4.89081818181818e+00 3.07642989828643e-02 2.35096396027276e-04
4.93390909090909e+00 3.05718155722616e-02 2.34652424978746e-04
4.97700000000000e+00 3.03805364752152e-02 2.34200359003867e-04
5.02009090909091e+00 3.01904541570590e-02 2.33740401998433e-04
5.06318181818182e+00 3.00015611295080e-02 2.33272753514740e-04
5.10627272727273e+00 2.98138499515124e-02 2.32797608640098e-04
5.14936363636364e+00 2.96273132285789e-02 2.32315158459462e-04
5.19245454545455e+00 2.94419436124795e-02 2.31825590042532e-04
5.23554545454545e+00 2.92577338009618e-02 2.31329086545933e-04
5.27863636363636e+00 2.90746765374611e-02 2.30825827311613e-04
5.32172727272727e+00 2.88927646108155e-02 2.30315987962231e-04
5.36481818181818e+00 2.87119908549809e-02 2.29799740493688e-04
5.40790909090909e+00 2.85323481487494e-02 2.29277253364355e-04
5.45100000000000e+00 2.83538294154682e-02 2.28748691478844e-04
5.49409090909091e+00 2.81764276230835e-02 2.28214216581341e-04
5.53718181818182e+00 2.80001357828902e-02 2.27673987129459e-04
5.58027272727273e+00 2.78249469502361e-02 2.27128158163556e-04
5.62336363636364e+00 2.76508542239197e-02 2.26576881698033e-04
5.66645454545455e+00 2.74778507459182e-02 2.26020306689550e-04
5.70954545454545e+00 2.73059297011177e-02 2.25458579108671e-04
5.75263636363636e+00 2.71350843170438e-02 2.24891842009092e-04
5.79572727272727e+00 2.69653078635962e-02 2.24320235594979e-04
5.83881818181818e+00 2.67965936527827e-02 2.23743897286531e-04
5.88190909090909e+00 2.66289350384560e-02 2.23162961783271e-04
5.92500000000000e+00 2.64623254160518e-02 2.22577561033716e-04
5.96809090909091e+00 2.62967582226052e-02 2.21987824572336e-04
6.01118181818182e+00 2.61322269356574e-02 2.21393879392138e-04
6.05427272727273e+00 2.59687250738386e-02 2.20795849813769e-04
6.09736363636364e+00 2.58062461963312e-02 2.20193857822432e-04
6.14045454545455e+00 2.56447839026159e-02 2.19588023026664e-04
6.18354545454545e+00 2.54843318322196e-02 2.18978462710241e-04
6.22663636363636e+00 2.53248836644647e-02 2.18365291882407e-04
6.26972727272727e+00 2.51664331182204e-02 2.17748623326869e-04
6.31281818181818e+00 2.50089739516550e-02 2.17128567649603e-04
6.35590909090909e+00 2.48524999619905e-02 2.16505233325186e-04
6.39900000000000e+00 2.46970049852574e-02 2.15878726659389e-04
6.44209090909091e+00 2.45424828962920e-02 2.15249152081984e-04
6.48518181818182e+00 2.43889276077726e-02 2.14616612023010e-04
6.52827272727273e+00 2.42363330707061e-02 2.13981206786149e-04
6.57136363636364e+00 2.40846932739464e-02 2.13343034842636e-04
6.61445454545454e+00 2.39340022439572e-02 2.12702192785907e-04
6.65754545454545e+00 2.37842540445770e-02 2.12058775370176e-04
6.70063636363636e+00 2.36354427767850e-02 2.11412875547823e-04
6.74372727272727e+00 2.34875625784690e-02 2.10764584505977e-04
6.78681818181818e+00 2.33406076241944e-02 2.10113991702302e-04
6.82990909090909e+00 2.31945721249746e-02 2.09461184899700e-04
6.87300000000000e+00 2.30494503280430e-02 2.08806250125867e-04
6.91609090909091e+00 2.29052365168344e-02 2.08149271930481e-04
6.95918181818182e+00 2.27619250101321e-02 2.07490333267520e-04
7.00227272727273e+00 2.26195101624759e-02 2.06829515375188e-04
7.04536363636364e+00 2.24779863637272e-02 2.06166898034760e-04
7.08845454545455e+00 2.23373480388486e-02 2.05502559524106e-04
7.13154545454545e+00 2.21975896476840e-02 2.04836576647011e-04
7.17463636363636e+00 2.20587056847404e-02 2.04169024761635e-04
7.21772727272727e+00 2.19206906789712e-02 2.03499977808396e-04
7.26081818181818e+00 2.17835391935606e-02 2.02829508337326e-04
7.30390909090909e+00 2.16472458257094e-02 2.02157687534600e-04
7.34700000000000e+00 2.15118052064221e-02 2.01484585181408e-04
7.39009090909091e+00 2.13772120004769e-02 2.00810269881688e-04
7.43318181818182e+00 2.12434609056681e-02 2.00134808951573e-04
7.47627272727273e+00 2.11105466531478e-02 1.99458268306807e-04
7.51936363636364e+00 2.09784640070337e-02 1.98780712692371e-04
7.56245454545455e+00 2.08472077642032e-02 1.98102205636680e-04
7.60554545454545e+00 2.07167727540877e-02 1.97422809474257e-04
7.64863636363636e+00 2.05871538384697e-02 1.96742585367778e-04
7.69172727272727e+00 2.04583459112798e-02 1.96061593329727e-04
7.73481818181818e+00 2.03303438983961e-02 1.95379892243660e-04
7.77790909090909e+00 2.02031427574437e-02 1.94697539884881e-04
7.82100000000000e+00 2.00767374775967e-02 1.94014592879973e-04
7.86409090909091e+00 1.99511230795395e-02 1.93331106909658e-04
7.90718181818182e+00 1.98262946147906e-02 1.92647136605769e-04
7.95027272727273e+00 1.97022471659906e-02 1.91962735446465e-04
7.99336363636364e+00 1.95789758465468e-02 1.91277955961081e-04
8.03645454545454e+00 1.94564758004402e-02 1.90592849685923e-04
8.07954545454546e+00 1.93347422020348e-02 1.89907467182102e-04
8.12263636363636e+00 1.92137702558870e-02 1.89221858052892e-04
8.16572727272727e+00 1.90935551965569e-02 1.88536070960779e-04
8.20881818181818e+00 1.89740922884208e-02 1.87850153644277e-04
8.25190909090909e+00 1.88553768254842e-02 1.87164152934231e-04
8.29500000000000e+00 1.87374041311970e-02 1.86478114714847e-04
8.33809090909091e+00 1.86201695584085e-02 1.85792084105259e-04
8.38118181818182e+00 1.85036684887628e-02 1.85106105363952e-04
8.42427272727273e+00 1.83878963329409e-02 1.84420221791700e-04
8.46736363636364e+00 1.82728485303380e-02 1.83734475915123e-04
8.51045454545454e+00 1.81585205488838e-02 1.83048909444615e-04
8.55354545454545e+00 1.80449078848635e-02 1.82363563288551e-04
8.59663636363636e+00 1.79320060627411e-02 1.81678477567149e-04
8.63972727272727e+00 1.78198106349826e-02 1.80993691626090e-04
8.68281818181818e+00 1.77083171818810e-02 1.80309244049936e-04
8.72590909090909e+00 1.75975213113820e-02 1.79625172675218e-04
8.76900000000000e+00 1.74874186589114e-02 1.78941514553307e-04
8.81209090909091e+00 1.73780048873263e-02 1.78258306113586e-04
8.85518181818182e+00 1.72692756863714e-02 1.77575583075078e-04
8.89827272727273e+00 1.71612267728848e-02 1.76893380356750e-04
8.94136363636364e+00 1.70538538905026e-02 1.76211732242643e-04
8.98445454545455e+00 1.69471528094921e-02 1.75530672342180e-04
9.02754545454545e+00 1.68411193265847e-02 1.74850233601628e-04
9.07063636363636e+00 1.67357492648102e-02 1.74170448315248e-04
9.11372727272727e+00 1.66310384733330e-02 1.73491348136313e-04
9.15681818181818e+00 1.65269828272877e-02 1.72812964087958e-04
9.19990909090909e+00 1.64235782276172e-02 1.72135326573761e-04
9.24300000000000e+00 1.63208206009109e-02 1.71458465342715e-04
9.28609090909091e+00 1.62187058993539e-02 1.70782409636316e-04
9.32918181818182e+00 1.61172301002373e-02 1.70107188107035e-04
9.37227272727273e+00 1.60163892061316e-02 1.69432828735598e-04
9.41536363636364e+00 1.59161792446181e-02 1.68759358979917e-04
9.45845454545455e+00 1.58165962681325e-02 1.68086805737916e-04
9.50154545454545e+00 1.57176363538093e-02 1.67415195356863e-04
9.54463636363636e+00 1.56192956033269e-02 1.66744553642460e-04
9.58772727272727e+00 1.55215701427547e-02 1.66074905867808e-04
9.63081818181818e+00 1.54244561224000e-02 1.65406276782250e-04
9.67390909090909e+00 1.53279497166568e-02 1.64738690620021e-04
9.71700000000000e+00 1.52320471238546e-02 1.64072171067397e-04
9.76009090909091e+00 1.51367445662060e-02 1.63406741395640e-04
9.80318181818182e+00 1.50420382893649e-02 1.62742424385870e-04
9.84627272727273e+00 1.49479245625731e-02 1.62079242252860e-04
9.88936363636364e+00 1.48543996784150e-02 1.61417216779715e-04
9.93245454545455e+00 1.47614599526709e-02 1.60756369283217e-04
9.97554545454545e+00 1.46691017241722e-02 1.60096720621451e-04
1.00186363636364e+01 1.45773213546575e-02 1.59438291123564e-04
1.00617272727273e+01 1.44861152288085e-02 1.58781100792868e-04
1.01048181818182e+01 1.43954797536545e-02 1.58125169235338e-04
1.01479090909091e+01 1.43054113587957e-02 1.57470515507961e-04
1.01910000000000e+01 1.42159064961715e-02 1.56817158661683e-04
1.02340909090909e+01 1.41269616390558e-02 1.56165116573103e-04
1.02771818181818e+01 1.40385732845269e-02 1.55514406710976e-04
1.03202727272727e+01 1.39507379507059e-02 1.54865046910234e-04
1.03633636363636e+01 1.38634521774990e-02 1.54217054222995e-04
1.04064545454545e+01 1.37767125264610e-02 1.53570445312137e-04
1.04495454545455e+01 1.36905155806603e-02 1.52925236457785e-04
1.04926363636364e+01 1.36048579445437e-02 1.52281443563127e-04
1.05357272727273e+01 1.35197362438033e-02 1.51639082160510e-04
1.05788181818182e+01 1.34351471252435e-02 1.50998167417852e-04
1.06219090909091e+01 1.33510872566485e-02 1.50358714144339e-04
1.06650000000000e+01 1.32675533266515e-02 1.49720737139722e-04
1.07080909090909e+01 1.31845420438325e-02 1.49084250164307e-04
1.07511818181818e+01 1.31020501389160e-02 1.48449266637657e-04
1.07942727272727e+01 1.30200743623016e-02 1.47815800344212e-04
1.08373636363636e+01 1.29386114847210e-02 1.47183864384539e-04
1.08804545454545e+01 1.28576582971102e-02 1.46553471533859e-04
1.09235454545455e+01 1.27772116104838e-02 1.45924634247459e-04
1.09666363636364e+01 1.26972682558082e-02 1.45297364665501e-04
1.10097272727273e+01 1.26178250838783e-02 1.44671674618110e-04
1.10528181818182e+01 1.25388789651925e-02 1.44047575630724e-04
1.10959090909091e+01 1.24604267898296e-02 1.43425078928818e-04
1.11390000000000e+01 1.23824654673266e-02 1.42804195756471e-04
1.11820909090909e+01 1.23049919258671e-02 1.42184936435259e-04
1.12251818181818e+01 1.22280031142400e-02 1.41567311001830e-04
1.12682727272727e+01 1.21514959996283e-02 1.40951329851929e-04
1.13113636363636e+01 1.20754675681905e-02 1.40337002782234e-04
1.13544545454545e+01 1.19999148249417e-02 1.39724339317323e-04
1.13975454545455e+01 1.19248347936360e-02 1.39113348714224e-04
1.14406363636364e+01 1.18502245166483e-02 1.38504039966424e-04
1.14837272727273e+01 1.17760810548595e-02 1.37896421808121e-04
1.15268181818182e+01 1.17024014875391e-02 1.37290502718700e-04
1.15699090909091e+01 1.16291829122313e-02 1.36686290926702e-04
1.16130000000000e+01 1.15564224446399e-02 1.36083794700653e-04
1.16560909090909e+01 1.14841172178978e-02 1.35483021488455e-04
1.16991818181818e+01 1.14122643843160e-02 1.34883978499796e-04
1.17422727272727e+01 1.13408611133987e-02 1.34286673294480e-04
1.17853636363636e+01 1.12699045923599e-02 1.33691112906314e-04
1.18284545454545e+01 1.11993920260126e-02 1.33097304141622e-04
1.18715454545455e+01 1.11293206366581e-02 1.32505253583066e-04
1.19146363636364e+01 1.10596876639771e-02 1.31914967592993e-04
1.19577272727273e+01 1.09904903649209e-02 1.31326452316997e-04
1.20008181818182e+01 1.09217260136033e-02 1.30739713687738e-04
1.20439090909091e+01 1.08533919011933e-02 1.30154757428253e-04
1.20870000000000e+01 1.07854853358082e-02 1.29571589317690e-04
1.21300909090909e+01 1.07180036418545e-02 1.28990214403740e-04
1.21731818181818e+01 1.06509441615912e-02 1.28410637535134e-04
1.22162727272727e+01 1.05843042533473e-02 1.27832863899561e-04
1.22593636363636e+01 1.05180812919797e-02 1.27256898221933e-04
1.23024545454545e+01 1.04522726687702e-02 1.26682745037216e-04
1.23455454545455e+01 1.03868757913226e-02 1.26110408693625e-04
1.23886363636364e+01 1.03218880834604e-02 1.25539893355439e-04
1.24317272727273e+01 1.02573069851259e-02 1.24971203006033e-04
1.24748181818182e+01 1.01931299522785e-02 1.24404341451075e-04
1.25179090909091e+01 1.01293544567955e-02 1.23839312321304e-04
1.25610000000000e+01 1.00659779863715e-02 1.23276119315616e-04
1.26040909090909e+01 1.00029980439233e-02 1.22714765479794e-04
1.26471818181818e+01 9.94041214898992e-03 1.22155253693706e-04
1.26902727272727e+01 9.87821783612805e-03 1.21597587163605e-04
1.27333636363636e+01 9.81641265531988e-03 1.21041768687921e-04
1.27764545454545e+01 9.75499417187673e-03 1.20487800906779e-04
1.28195454545455e+01 9.69395996634304e-03 1.19935686304727e-04
1.28626363636364e+01 9.63330763440090e-03 1.19385427213097e-04
1.29057272727273e+01 9.57303478677578e-03 1.18837025812554e-04
1.29488181818182e+01 9.51313904914216e-03 1.18290484135834e-04
1.29919090909091e+01 9.45361806203001e-03 1.17745804070095e-04
1.30350000000000e+01 9.39446948073184e-03 1.17202987579412e-04
1.30780909090909e+01 9.33569097476334e-03 1.16662036043761e-04
1.31211818181818e+01 9.27728022911982e-03 1.16122950705178e-04
1.31642727272727e+01 9.21923494282944e-03 1.15585733118621e-04
1.32073636363636e+01 9.16155282931688e-03 1.15050384479112e-04
1.32504545454545e+01 9.10423161631328e-03 1.14516905850158e-04
1.32935454545455e+01 9.04726904576675e-03 1.13985298166061e-04
1.33366363636364e+01 8.99066287375319e-03 1.13455562233922e-04
1.33797272727273e+01 8.93441087038829e-03 1.12927698735799e-04
1.34228181818182e+01 8.87851081973952e-03 1.12401708231028e-04
1.34659090909091e+01 8.82296051973879e-03 1.11877591158216e-04
1.35090000000000e+01 8.76775778209575e-03 1.11355348039045e-04
1.35520909090909e+01 8.71290043180900e-03 1.10834978872135e-04
1.35951818181818e+01 8.65838630829460e-03 1.10316483541872e-04
