Energy (eV)          EEDF (eV^-(3/2))     First Anisotropy
6.38297872340425e-03 4.91582724608713e-01 2.67407056421453e-04
1.91489361702128e-02 4.87980598915207e-01 4.41431253377833e-04
3.19148936170213e-02 4.84404868179532e-01 5.82384921301618e-04
4.46808510638298e-02 4.80855339002929e-01 6.89253099542392e-04
5.74468085106383e-02 4.77331819382140e-01 7.78204383468784e-04
7.02127659574468e-02 4.73834118735998e-01 8.55355937082630e-04
8.29787234042553e-02 4.70362047867921e-01 9.23875376991068e-04
9.57446808510638e-02 4.66915418977423e-01 9.85676699251224e-04
1.08510638297872e-01 4.63494045617324e-01 1.04203005922721e-03
1.21276595744681e-01 4.60097742757419e-01 1.09383371137682e-03
1.34042553191489e-01 4.56726326685593e-01 1.14175298877055e-03
1.46808510638298e-01 4.53379615017056e-01 1.18629839613528e-03
1.59574468085106e-01 4.50057426750430e-01 1.22787271989273e-03
1.72340425531915e-01 4.46759582167231e-01 1.26680102439691e-03
1.85106382978723e-01 4.43485902906014e-01 1.30335060863140e-03
1.97872340425532e-01 4.40236211874859e-01 1.33774476737290e-03
2.10638297872340e-01 4.37010333314421e-01 1.37017256626923e-03
2.23404255319149e-01 4.33808092720478e-01 1.40079596534972e-03
2.36170212765957e-01 4.30629316898281e-01 1.42975512172352e-03
2.48936170212766e-01 4.27473833905947e-01 1.45717242190025e-03
2.61702127659574e-01 4.24341473050474e-01 1.48315557989716e-03
2.74468085106383e-01 4.21232064913715e-01 1.50780007659552e-03
2.87234042553191e-01 4.18145441296017e-01 1.53119108976652e-03
3.00000000000000e-01 4.15081435252103e-01 1.55340504460821e-03
3.12765957446809e-01 4.12039881039078e-01 1.57451087281746e-03
3.25531914893617e-01 4.09020614148560e-01 1.59457104393986e-03
3.38297872340426e-01 4.06023471258431e-01 1.61364241866829e-03
3.51063829787234e-01 4.03048290261732e-01 1.63177695961202e-03
3.63829787234043e-01 4.00094910221681e-01 1.64902232870506e-03
3.76595744680851e-01 3.97163171397749e-01 1.66542239081494e-03
3.89361702127660e-01 3.94252915211122e-01 1.68101764792990e-03
4.02127659574468e-01 3.91363984238129e-01 1.69584560041793e-03
4.14893617021277e-01 3.88496222223090e-01 1.70994106790872e-03
4.27659574468085e-01 3.85649474041334e-01 1.72333646228738e-03
4.40425531914894e-01 3.82823585718387e-01 1.73606202561427e-03
4.53191489361702e-01 3.80018404394969e-01 1.74814603826094e-03
4.65957446808511e-01 3.77233778344544e-01 1.75961500107029e-03
4.78723404255319e-01 3.74469556940108e-01 1.77049379609644e-03
4.91489361702128e-01 3.71725590670269e-01 1.78080582744371e-03
5.04255319148936e-01 3.69001731113071e-01 1.79057315075432e-03
5.17021276595745e-01 3.66297830929118e-01 1.79981657984250e-03
5.29787234042553e-01 3.63613743869110e-01 1.80855579015905e-03
5.42553191489362e-01 3.60949324745240e-01 1.81680940754273e-03
5.55319148936170e-01 3.58304429443466e-01 1.82459508845037e-03
5.68085106382979e-01 3.55678914896136e-01 1.83192959248388e-03
5.80851063829787e-01 3.53072639093304e-01 1.83882884758635e-03
5.93617021276596e-01 3.50485461056498e-01 1.84530800932179e-03
6.06382978723404e-01 3.47917240849162e-01 1.85138151365431e-03
6.19148936170213e-01 3.45367839555579e-01 1.85706312878062e-03
6.31914893617021e-01 3.42837119274095e-01 1.86236599508445e-03
6.44680851063830e-01 3.40324943121521e-01 1.86730266866063e-03
6.57446808510638e-01 3.37831175209908e-01 1.87188515779996e-03
6.70212765957447e-01 3.35355680654640e-01 1.87612495690562e-03
6.82978723404255e-01 3.32898325552063e-01 1.88003307786896e-03
6.95744680851064e-01 3.30458976986960e-01 1.88362007870906e-03
7.08510638297872e-01 3.28037503010987e-01 1.88689609018714e-03
7.21276595744681e-01 3.25633772649583e-01 1.88987083953013e-03
7.34042553191489e-01 3.23247655884376e-01 1.89255367565746e-03
7.46808510638298e-01 3.20879023646655e-01 1.89495358627237e-03
7.59574468085106e-01 3.18527747819773e-01 1.89707921979492e-03
7.72340425531915e-01 3.16193701219709e-01 1.89893890283462e-03
7.85106382978723e-01 3.13876757600426e-01 1.90054065685333e-03
7.97872340425532e-01 3.11576791635065e-01 1.90189221386971e-03
8.10638297872340e-01 3.09293678920895e-01 1.90300103091312e-03
8.23404255319149e-01 3.07027295961095e-01 1.90387430369821e-03
8.36170212765957e-01 3.04777520169328e-01 1.90451897868093e-03
8.48936170212766e-01 3.02544229854689e-01 1.90494176719852e-03
8.61702127659574e-01 3.00327304215490e-01 1.90514915325258e-03
8.74468085106383e-01 2.98126623340325e-01 1.90514740612404e-03
8.87234042553191e-01 2.95942068191459e-01 1.90494258967735e-03
9.00000000000000e-01 2.93773520608315e-01 1.90454057147394e-03
9.12765957446808e-01 2.91620863291346e-01 1.90394703150444e-03
9.25531914893617e-01 2.89483979805245e-01 1.90316747025180e-03
9.38297872340425e-01 2.87362754563269e-01 1.90220721644482e-03
9.51063829787234e-01 2.85257072830191e-01 1.90107143421758e-03
9.63829787234043e-01 2.83166820707064e-01 1.89976513002020e-03
9.76595744680851e-01 2.81091885133914e-01 1.89829315853286e-03
9.89361702127660e-01 2.79032153877006e-01 1.89666023070858e-03
1.00212765957447e+00 2.76987515523024e-01 1.89487091760212e-03
1.01489361702128e+00 2.74957859475121e-01 1.89292965587383e-03
1.02765957446808e+00 2.72943075946995e-01 1.89084074860826e-03
1.04042553191489e+00 2.70943055977887e-01 1.88860838398115e-03
1.05319148936170e+00 2.68957691367073e-01 1.88623663151238e-03
1.06595744680851e+00 2.66986874725946e-01 1.88372943701126e-03
1.07872340425532e+00 2.65030499452841e-01 1.88109063615458e-03
1.09148936170213e+00 2.63088459744874e-01 1.87832396657070e-03
1.10425531914894e+00 2.61160650538919e-01 1.87543306325292e-03
1.11702127659574e+00 2.59246967559531e-01 1.87242145363679e-03
1.12978723404255e+00 2.57347307295406e-01 1.86929256993979e-03
1.14255319148936e+00 2.55461567010086e-01 1.86604976013607e-03
1.15531914893617e+00 2.53589644686984e-01 1.86269628313027e-03
1.16808510638298e+00 2.51731439073573e-01 1.85923530364446e-03
1.18085106382979e+00 2.49886849659316e-01 1.85566990351670e-03
1.19361702127660e+00 2.48055776685379e-01 1.85200309174277e-03
1.20638297872340e+00 2.46238121093307e-01 1.84823779952229e-03
1.21914893617021e+00 2.44433784565855e-01 1.84437687144910e-03
1.23191489361702e+00 2.42642669520616e-01 1.84042309037512e-03
1.24468085106383e+00 2.40864679061329e-01 1.83637916859684e-03
1.25744680851064e+00 2.39099717016291e-01 1.83224774268774e-03
1.27021276595745e+00 2.37347687918459e-01 1.82803138326325e-03
1.28297872340426e+00 2.35608497013759e-01 1.82373260365263e-03
1.29574468085106e+00 2.33882050215500e-01 1.81935385495593e-03
1.30851063829787e+00 2.32168254139966e-01 1.81489752089361e-03
1.32127659574468e+00 2.30467016087689e-01 1.81036592688325e-03
1.33404255319149e+00 2.28778244050997e-01 1.80576134809672e-03
1.34680851063830e+00 2.27101846671256e-01 1.80108600455370e-03
1.35957446808511e+00 2.25437733271922e-01 1.79634205603021e-03
1.37234042553191e+00 2.23785813840867e-01 1.79153161052828e-03
1.38510638297872e+00 2.22145999037253e-01 1.78665673179272e-03
1.39787234042553e+00 2.20518200151371e-01 1.78171943447375e-03
1.41063829787234e+00 2.18902329135365e-01 1.77672167912295e-03
1.42340425531915e+00 2.17298298586543e-01 1.77166538012392e-03
1.43617021276596e+00 2.15706021753636e-01 1.76655241272877e-03
1.44893617021277e+00 2.14125412499022e-01 1.76138460831359e-03
1.46170212765957e+00 2.12556385327329e-01 1.75616374948169e-03
1.47446808510638e+00 2.10998855369656e-01 1.75089157751123e-03
1.48723404255319e+00 2.09452738389270e-01 1.74556979896227e-03
1.50000000000000e+00 2.07917950746031e-01 1.74020008104045e-03
1.51276595744681e+00 2.06394409423059e-01 1.73478404682217e-03
1.52553191489362e+00 2.04882032011787e-01 1.72932328226613e-03
1.53829787234043e+00 2.03380736717157e-01 1.72381934243267e-03
1.55106382978723e+00 2.01890442324077e-01 1.71827374696775e-03
1.56382978723404e+00 2.00411068222306e-01 1.71268797545844e-03
1.57659574468085e+00 1.98942534392289e-01 1.70706347404825e-03
1.58936170212766e+00 1.97484761409888e-01 1.70140166130582e-03
1.60212765957447e+00 1.96037670414728e-01 1.69570392383488e-03
1.61489361702128e+00 1.94601183133440e-01 1.68997161176622e-03
1.62765957446809e+00 1.93175221866223e-01 1.68420604501192e-03
1.64042553191489e+00 1.91759709491153e-01 1.67840851881294e-03
1.65319148936170e+00 1.90354569434282e-01 1.67258029948005e-03
1.66595744680851e+00 1.88959725691370e-01 1.66672262002560e-03
1.67872340425532e+00 1.87575102815117e-01 1.66083668608549e-03
1.69148936170213e+00 1.86200625919102e-01 1.65492368117278e-03
1.70425531914894e+00 1.84836220649493e-01 1.64898476255185e-03
1.71702127659574e+00 1.83481813205398e-01 1.64302105701032e-03
1.72978723404255e+00 1.82137330326721e-01 1.63703366647544e-03
1.74255319148936e+00 1.80802699297755e-01 1.63102367299680e-03
1.75531914893617e+00 1.79477847920404e-01 1.62499213475396e-03
1.76808510638298e+00 1.78162704533249e-01 1.61894008196823e-03
1.78085106382979e+00 1.76857197999992e-01 1.61286852223633e-03
1.79361702127660e+00 1.75561257712731e-01 1.60677844526249e-03
1.80638297872340e+00 1.74274813566592e-01 1.60067081899864e-03
1.81914893617021e+00 1.72997795977605e-01 1.59454658360379e-03
1.83191489361702e+00 1.71730135878519e-01 1.58840666489534e-03
1.84468085106383e+00 1.70471764694466e-01 1.58225196837774e-03
1.85744680851064e+00 1.69222614359960e-01 1.57608337541678e-03
1.87021276595745e+00 1.67982617308261e-01 1.56990174810273e-03
1.88297872340426e+00 1.66751706474183e-01 1.56370793356586e-03
1.89574468085106e+00 1.65529815271014e-01 1.55750276036591e-03
1.90851063829787e+00 1.64316877606474e-01 1.55128703479933e-03
1.92127659574468e+00 1.63112827872569e-01 1.54506154553183e-03
1.93404255319149e+00 1.61917600948157e-01 1.53882706770939e-03
1.94680851063830e+00 1.60731132177030e-01 1.53258435947314e-03
1.95957446808511e+00 1.59553357382910e-01 1.52633415839618e-03
1.97234042553191e+00 1.58384212859769e-01 1.52007718590013e-03
1.98510638297872e+00 1.57223635374162e-01 1.51381415117537e-03
1.99787234042553e+00 1.56071562144407e-01 1.50754574781774e-03
2.01063829787234e+00 1.54927930854683e-01 1.50127265039200e-03
2.02340425531915e+00 1.53792679645790e-01 1.49499551864573e-03
2.03617021276596e+00 1.52665747117270e-01 1.48871500125059e-03
2.04893617021277e+00 1.51547072307612e-01 1.48243173255793e-03
2.06170212765957e+00 1.50436594707519e-01 1.47614632928497e-03
2.07446808510638e+00 1.49334254251079e-01 1.46985939453845e-03
2.08723404255319e+00 1.48239991317692e-01 1.46357152138761e-03
2.10000000000000e+00 1.47153746713243e-01 1.45728328973524e-03
2.11276595744681e+00 1.46075461682587e-01 1.45099526312290e-03
2.12553191489362e+00 1.45005077901113e-01 1.44470799257554e-03
2.13829787234043e+00 1.43942537476492e-01 1.43842202001619e-03
2.15106382978723e+00 1.42887782930758e-01 1.43213787524875e-03
2.16382978723404e+00 1.41840757212067e-01 1.42585607287849e-03
2.17659574468085e+00 1.40801403686626e-01 1.41957711598801e-03
2.18936170212766e+00 1.39769666140287e-01 1.41330149940230e-03
2.20212765957447e+00 1.38745488761472e-01 1.40702970678000e-03
2.21489361702128e+00 1.37728816152256e-01 1.40076220764541e-03
2.22765957446809e+00 1.36719593320655e-01 1.39449946090501e-03
2.24042553191489e+00 1.35717765682054e-01 1.38824191797123e-03
2.25319148936170e+00 1.34723279042946e-01 1.38199001995871e-03
2.26595744680851e+00 1.33736079611385e-01 1.37574419482399e-03
2.27872340425532e+00 1.32756113989593e-01 1.36950486073097e-03
2.29148936170213e+00 1.31783329175258e-01 1.36327242904165e-03
2.30425531914894e+00 1.30817672546033e-01 1.35704730161323e-03
2.31702127659574e+00 1.29859091869387e-01 1.35082986804189e-03
2.32978723404255e+00 1.28907535295537e-01 1.34462050888556e-03
2.34255319148936e+00 1.27962951358610e-01 1.33841959852805e-03
2.35531914893617e+00 1.27025288961860e-01 1.33222750257404e-03
2.36808510638298e+00 1.26094497386969e-01 1.32604457519305e-03
2.38085106382979e+00 1.25170526287271e-01 1.31987116220681e-03
2.39361702127660e+00 1.24253325688797e-01 1.31370760383381e-03
2.40638297872340e+00 1.23342845976171e-01 1.30755423217830e-03
2.41914893617021e+00 1.22439037901389e-01 1.30141136738699e-03
2.43191489361702e+00 1.21541852580957e-01 1.29527932575335e-03
2.44468085106383e+00 1.20651241482279e-01 1.28915841591959e-03
2.45744680851064e+00 1.19767156432054e-01 1.28304893639711e-03
2.47021276595745e+00 1.18889549609972e-01 1.27695117842309e-03
2.48297872340426e+00 1.18018373549588e-01 1.27086542850012e-03
2.49574468085106e+00 1.17153581125332e-01 1.26479196605220e-03
2.50851063829787e+00 1.16295125560439e-01 1.25873106103536e-03
2.52127659574468e+00 1.15442960420901e-01 1.25268297667736e-03
2.53404255319149e+00 1.14597039616251e-01 1.24664797191380e-03
2.54680851063830e+00 1.13757317387150e-01 1.24062629912872e-03
2.55957446808511e+00 1.12923748312880e-01 1.23461820185196e-03
2.57234042553191e+00 1.12096287305550e-01 1.22862391738764e-03
2.58510638297872e+00 1.11274889610785e-01 1.22264367915177e-03
2.59787234042553e+00 1.10459510795863e-01 1.21667771449443e-03
2.61063829787234e+00 1.09650106756807e-01 1.21072624248047e-03
2.62340425531915e+00 1.08846633712815e-01 1.20478947641207e-03
2.63617021276596e+00 1.08049048206875e-01 1.19886762607275e-03
2.64893617021277e+00 1.07257307094423e-01 1.19296089562802e-03
2.66170212765957e+00 1.06471367550048e-01 1.18706948148640e-03
2.67446808510638e+00 1.05691187062146e-01 1.18119357472112e-03
2.68723404255319e+00 1.04916723433462e-01 1.17533336322471e-03
2.70000000000000e+00 1.04147934770241e-01 1.16948902968541e-03
2.71276595744681e+00 1.03384779488573e-01 1.16366074952534e-03
2.72553191489362e+00 1.02627216309258e-01 1.15784869322598e-03
2.73829787234043e+00 1.01875204258281e-01 1.15205302839784e-03
2.75106382978723e+00 1.01128702656433e-01 1.14627391782942e-03
2.76382978723404e+00 1.00387671125313e-01 1.14051151749983e-03
2.77659574468085e+00 9.96520695824005e-02 1.13476597881270e-03
2.78936170212766e+00 9.89218582414608e-02 1.12903745058430e-03
2.80212765957447e+00 9.81969976026165e-02 1.12332607716267e-03
2.81489361702128e+00 9.74774484580304e-02 1.11763199651197e-03
2.82765957446808e+00 9.67631718871665e-02 1.11195534235871e-03
2.84042553191489e+00 9.60541292571429e-02 1.10629624610232e-03
2.85319148936170e+00 9.53502822132219e-02 1.10065483500167e-03
2.86595744680851e+00 9.46515926841948e-02 1.09503123032829e-03
2.87872340425532e+00 9.39580228778255e-02 1.08942554942910e-03
2.89148936170213e+00 9.32695352811509e-02 1.08383790756270e-03
2.90425531914894e+00 9.25860926513734e-02 1.07826841615093e-03
2.91702127659574e+00 9.19076580209620e-02 1.07271718099839e-03
2.92978723404255e+00 9.12341946932714e-02 1.06718430427522e-03
2.94255319148936e+00 9.05656662427936e-02 1.06166988628255e-03
2.95531914893617e+00 8.99020365064337e-02 1.05617402376657e-03
2.96808510638298e+00 8.92432695883427e-02 1.05069680820187e-03
2.98085106382979e+00 8.85893298557054e-02 1.04523832769773e-03
2.99361702127660e+00 8.79401819389460e-02 1.03979866869596e-03
3.00638297872340e+00 8.72957907233693e-02 1.03437791434508e-03
3.01914893617021e+00 8.66561213537408e-02 1.02897614203136e-03
3.03191489361702e+00 8.60211392322948e-02 1.02359342847266e-03
3.04468085106383e+00 8.53908100106439e-02 1.01822984727765e-03
3.05744680851064e+00 8.47650995941722e-02 1.01288546734017e-03
3.07021276595745e+00 8.41439741380929e-02 1.00756035461435e-03
3.08297872340425e+00 8.35274000475909e-02 1.00225457369593e-03
3.09574468085106e+00 8.29153439700663e-02 9.96968186301573e-04
3.10851063829787e+00 8.23077727993000e-02 9.91701249720231e-04
3.12127659574468e+00 8.17046536716603e-02 9.86453818521175e-04
3.13404255319149e+00 8.11059539662092e-02 9.81225946075318e-04
3.14680851063830e+00 8.05116412972645e-02 9.76017683088403e-04
3.15957446808511e+00 7.99216835183509e-02 9.70829076107720e-04
3.17234042553191e+00 7.93360487185482e-02 9.65660169165386e-04
3.18510638297872e+00 7.87547052225645e-02 9.60511005242268e-04
3.19787234042553e+00 7.81776215836030e-02 9.55381624853274e-04
3.21063829787234e+00 7.76047665871089e-02 9.50272064606918e-04
3.22340425531915e+00 7.70361092472546e-02 9.45182358786738e-04
3.23617021276596e+00 7.64716188069824e-02 9.40112540760685e-04
3.24893617021277e+00 7.59112647311605e-02 9.35062641616034e-04
3.26170212765957e+00 7.53550167101390e-02 9.30032688770056e-04
3.27446808510638e+00 7.48028446563642e-02 9.25022707492345e-04
3.28723404255319e+00 7.42547187043948e-02 9.20032722261338e-04
3.30000000000000e+00 7.37106092043337e-02 9.15062755447552e-04
3.31276595744681e+00 7.31704867252022e-02 9.10112825973338e-04
3.32553191489362e+00 7.26343220516804e-02 9.05182950778320e-04
3.33829787234043e+00 7.21020861840967e-02 9.00273146125602e-04
3.35106382978723e+00 7.15737503321243e-02 8.95383426331311e-04
3.36382978723404e+00 7.10492859179836e-02 8.90513802471501e-04
3.37659574468085e+00 7.05286645733020e-02 8.85664283793366e-04
3.38936170212766e+00 7.00118581390807e-02 8.80834878972907e-04
3.40212765957447e+00 6.94988386596432e-02 8.76025594889050e-04
3.41489361702128e+00 6.89895783856747e-02 8.71236435376443e-04
3.42765957446808e+00 6.84840497711972e-02 8.66467402584062e-04
3.44042553191489e+00 6.79822254735152e-02 8.61718498186502e-04
3.45319148936170e+00 6.74840783474044e-02 8.56989722201344e-04
3.46595744680851e+00 6.69895814479979e-02 8.52281071785524e-04
3.47872340425532e+00 6.64987080278713e-02 8.47592542543891e-04
3.49148936170213e+00 6.60114315369691e-02 8.42924129696077e-04
3.50425531914894e+00 6.55277256170229e-02 8.38275826935103e-04
3.51702127659574e+00 6.50475641042933e-02 8.33647625266066e-04
3.52978723404255e+00 6.45709210267593e-02 8.29039514266690e-04
3.54255319148936e+00 6.40977706040278e-02 8.24451483211214e-04
3.55531914893617e+00 6.36280872419722e-02 8.19883519969128e-04
3.56808510638298e+00 6.31618455353351e-02 8.15335609884394e-04
3.58085106382979e+00 6.26990202650203e-02 8.10807736989742e-04
3.59361702127660e+00 6.22395863979861e-02 8.06299885089738e-04
3.60638297872340e+00 6.17835190820936e-02 8.01812036697726e-04
3.61914893617021e+00 6.13307936485796e-02 7.97344171428328e-04
3.63191489361702e+00 6.08813856106622e-02 7.92896269275333e-04
3.64468085106383e+00 6.04352706585441e-02 7.88468309021566e-04
3.65744680851064e+00 5.99924246617887e-02 7.84060267188560e-04
3.67021276595745e+00 5.95528236667764e-02 7.79672119171645e-04
3.68297872340426e+00 5.91164438965767e-02 7.75303840252289e-04
3.69574468085106e+00 5.86832617461458e-02 7.70955404601707e-04
3.70851063829787e+00 5.82532537845846e-02 7.66626784267085e-04
3.72127659574468e+00 5.78263967526850e-02 7.62317950265528e-04
3.73404255319149e+00 5.74026675627906e-02 7.58028873559767e-04
3.74680851063830e+00 5.69820432941795e-02 7.53759524096368e-04
3.75957446808511e+00 5.65645011952101e-02 7.49509869827039e-04
3.77234042553191e+00 5.61500186809554e-02 7.45279877763010e-04
3.78510638297872e+00 5.57385733330517e-02 7.41069514915754e-04
3.79787234042553e+00 5.53301428952599e-02 7.36878747368355e-04
3.81063829787234e+00 5.49247052755048e-02 7.32707539330815e-04
3.82340425531915e+00 5.45222385435925e-02 7.28555854156402e-04
3.83617021276596e+00 5.41227209310505e-02 7.24423655248437e-04
3.84893617021277e+00 5.37261308268583e-02 7.20310905163854e-04
3.86170212765957e+00 5.33324467793863e-02 7.16217564701175e-04
3.87446808510638e+00 5.29416474941934e-02 7.12143593880341e-04
3.88723404255319e+00 5.25537118338585e-02 7.08088952816985e-04
3.90000000000000e+00 5.21686188138745e-02 7.04053600856927e-04
3.91276595744681e+00 5.17863476044906e-02 7.00037495695570e-04
3.92553191489362e+00 5.14068775285884e-02 6.96040594322730e-04
3.93829787234043e+00 5.10301880615049e-02 6.92062853865624e-04
3.95106382978723e+00 5.06562588270827e-02 6.88104230753025e-04
3.96382978723404e+00 5.02850695994223e-02 6.84164679865261e-04
3.97659574468085e+00 4.99166003008315e-02 6.80244155445078e-04
3.98936170212766e+00 4.95508310016422e-02 6.76342611910587e-04
4.00212765957447e+00 4.91877419164104e-02 6.72460003048313e-04
4.01489361702128e+00 4.88273134055821e-02 6.68596281192252e-04
4.02765957446808e+00 4.84695259735141e-02 6.64751398102367e-04
