Energy (eV)          EEDF (eV^-(3/2))     First Anisotropy
1.74390243902439e-02 1.33675475806888e-01 7.81814983872919e-05
5.23170731707317e-02 1.32552403584757e-01 1.28991203284878e-04
8.71951219512195e-02 1.31438766834803e-01 1.69995358158789e-04
1.22073170731707e-01 1.30334486288854e-01 2.00972018172604e-04
1.56951219512195e-01 1.29239483334948e-01 2.26662912181806e-04
1.91829268292683e-01 1.28153680028106e-01 2.48864867564703e-04
2.26707317073171e-01 1.27076999078018e-01 2.68509734133612e-04
2.61585365853659e-01 1.26009363848159e-01 2.86161403279386e-04
2.96463414634146e-01 1.24950698336428e-01 3.02194627607460e-04
3.31341463414634e-01 1.23900927184104e-01 3.16874814399777e-04
3.66219512195122e-01 1.22859975665442e-01 3.30398830015825e-04
4.01097560975610e-01 1.21827769682577e-01 3.42917944516022e-04
4.35975609756098e-01 1.20804235762622e-01 3.54551677294352e-04
4.70853658536585e-01 1.19789301044841e-01 3.65396619270048e-04
5.05731707317073e-01 1.18782893283248e-01 3.75532305359819e-04
5.40609756097561e-01 1.17784940838807e-01 3.85025266612767e-04
5.75487804878049e-01 1.16795372676138e-01 3.93931910473206e-04
6.10365853658537e-01 1.15814118353045e-01 4.02300620111108e-04
6.45243902439024e-01 1.14841108020996e-01 4.10173318629452e-04
6.80121951219512e-01 1.13876272418262e-01 4.17586657748983e-04
7.15000000000000e-01 1.12919542865028e-01 4.24572934964263e-04
7.49878048780488e-01 1.11970851259786e-01 4.31160812987280e-04
7.84756097560976e-01 1.11030130070537e-01 4.37375890390649e-04
8.19634146341463e-01 1.10097312333993e-01 4.43241160070241e-04
8.54512195121951e-01 1.09172331649443e-01 4.48777382268563e-04
8.89390243902439e-01 1.08255122174055e-01 4.54003389842612e-04
9.24268292682927e-01 1.07345618619173e-01 4.58936341433834e-04
9.59146341463415e-01 1.06443756242619e-01 4.63591932065701e-04
9.94024390243903e-01 1.05549470847174e-01 4.67984569517243e-04
1.02890243902439e+00 1.04662698779220e-01 4.72127526416919e-04
1.06378048780488e+00 1.03783376910462e-01 4.76033066421549e-04
1.09865853658537e+00 1.02911442648266e-01 4.79712552437524e-04
1.13353658536585e+00 1.02046833925863e-01 4.83176542760519e-04
1.16841463414634e+00 1.01189489197921e-01 4.86434871921144e-04
1.20329268292683e+00 1.00339347436151e-01 4.89496721610284e-04
1.23817073170732e+00 9.94963481250237e-02 4.92370682667524e-04
1.27304878048781e+00 9.86604312574207e-02 4.95064808546148e-04
1.30792682926829e+00 9.78315373367314e-02 4.97586666073518e-04
1.34280487804878e+00 9.70096073532854e-02 4.99943375925630e-04
1.37768292682927e+00 9.61945827997375e-02 5.02141648319687e-04
1.41256097560976e+00 9.53864056602869e-02 5.04187819425263e-04
1.44743902439024e+00 9.45850184065478e-02 5.06087880314982e-04
1.48231707317073e+00 9.37903639934313e-02 5.07847503772630e-04
1.51719512195122e+00 9.30023858551347e-02 5.09472068391371e-04
1.55207317073171e+00 9.22210279010889e-02 5.10966680296277e-04
1.58695121951220e+00 9.14462345119657e-02 5.12336191976089e-04
1.62182926829268e+00 9.06779505404767e-02 5.13585222417699e-04
1.65670731707317e+00 8.99161212930127e-02 5.14718171648016e-04
1.69158536585366e+00 8.91606925403546e-02 5.15739233807501e-04
1.72646341463415e+00 8.84116105088865e-02 5.16652412962901e-04
1.76134146341463e+00 8.76688218767568e-02 5.17461534519686e-04
1.79621951219512e+00 8.69322737701048e-02 5.18170256420492e-04
1.83109756097561e+00 8.62019137592904e-02 5.18782079423803e-04
1.86597560975610e+00 8.54776898551581e-02 5.19300355871190e-04
1.90085365853659e+00 8.47595505091203e-02 5.19728300418412e-04
1.93573170731707e+00 8.40474445980182e-02 5.20068996685463e-04
1.97060975609756e+00 8.33413214320760e-02 5.20325403280675e-04
2.00548780487805e+00 8.26411307473858e-02 5.20500362743408e-04
2.04036585365854e+00 8.19468227023231e-02 5.20596607191022e-04
2.07524390243902e+00 8.12583478740091e-02 5.20616764210395e-04
2.11012195121951e+00 8.05756572547934e-02 5.20563362336961e-04
2.14500000000000e+00 7.98987022487615e-02 5.20438835563688e-04
2.17987804878049e+00 7.92274346713525e-02 5.20245529864520e-04
2.21475609756098e+00 7.85618067366070e-02 5.19985706433828e-04
2.24963414634146e+00 7.79017710631820e-02 5.19661544620046e-04
2.28451219512195e+00 7.72472806678070e-02 5.19275147616319e-04
2.31939024390244e+00 7.65982889619368e-02 5.18828545473691e-04
2.35426829268293e+00 7.59547497484371e-02 5.18323698496912e-04
2.38914634146341e+00 7.53166172183021e-02 5.17762500434075e-04
2.42402439024390e+00 7.46838459473888e-02 5.17146780956452e-04
2.45890243902439e+00 7.40563908957291e-02 5.16478310034528e-04
2.49378048780488e+00 7.34342073966154e-02 5.15758799542580e-04
2.52865853658537e+00 7.28172511612031e-02 5.14989904697282e-04
2.56353658536585e+00 7.22054782727391e-02 5.14173228012083e-04
2.59841463414634e+00 7.15988451834346e-02 5.13310320984538e-04
2.63329268292683e+00 7.09973087113626e-02 5.12402686195233e-04
2.66817073170732e+00 7.04008260373930e-02 5.11451779294671e-04
2.70304878048780e+00 6.98093547021390e-02 5.10459010427841e-04
2.73792682926829e+00 6.92228526050692e-02 5.09425747394432e-04
2.77280487804878e+00 6.86412779950508e-02 5.08353316410804e-04
2.80768292682927e+00 6.80645894738967e-02 5.07243002773327e-04
2.84256097560976e+00 6.74927459912256e-02 5.06096053792419e-04
2.87743902439024e+00 6.69257068415397e-02 5.04913679762416e-04
2.91231707317073e+00 6.63634316613232e-02 5.03697055332113e-04
2.94719512195122e+00 6.58058804261779e-02 5.02447320810558e-04
2.98207317073171e+00 6.52530134479694e-02 5.01165583411999e-04
3.01695121951220e+00 6.47047913720021e-02 4.99852918037101e-04
3.05182926829268e+00 6.41611751759940e-02 4.98510369615133e-04
3.08670731707317e+00 6.36221261619242e-02 4.97138953367139e-04
3.12158536585366e+00 6.30876059587002e-02 4.95739655008985e-04
3.15646341463415e+00 6.25575765176036e-02 4.94313432975927e-04
3.19134146341463e+00 6.20320001095784e-02 4.92861218941708e-04
3.22621951219512e+00 6.15108393225507e-02 4.91383918714299e-04
3.26109756097561e+00 6.09940570587637e-02 4.89882413094401e-04
3.29597560975610e+00 6.04816165321366e-02 4.88357558336285e-04
3.33085365853659e+00 5.99734812671657e-02 4.86810188018068e-04
3.36573170731707e+00 5.94696150917302e-02 4.85241113067362e-04
3.40060975609756e+00 5.89699821391544e-02 4.83651121745822e-04
3.43548780487805e+00 5.84745468440957e-02 4.82040981452282e-04
3.47036585365854e+00 5.79832739400112e-02 4.80411439013077e-04
3.50524390243902e+00 5.74961284566499e-02 4.78763221318777e-04
3.54012195121951e+00 5.70130757175633e-02 4.77097035936880e-04
3.57500000000000e+00 5.65340813376365e-02 4.75413571377415e-04
3.60987804878049e+00 5.60591112219497e-02 4.73713498631095e-04
3.64475609756098e+00 5.55881315593907e-02 4.71997471060665e-04
3.67963414634146e+00 5.51211088242414e-02 4.70266124262403e-04
3.71451219512195e+00 5.46580097724498e-02 4.68520077566022e-04
3.74939024390244e+00 5.41988014392616e-02 4.66759934184456e-04
3.78426829268293e+00 5.37434511368753e-02 4.64986281679654e-04
3.81914634146341e+00 5.32919264521163e-02 4.63199692412528e-04
3.85402439024390e+00 5.28441952441285e-02 4.61400723686502e-04
3.88890243902439e+00 5.24002256432221e-02 4.59589919040900e-04
3.92378048780488e+00 5.19599860451710e-02 4.57767808067126e-04
3.95865853658537e+00 5.15234451124249e-02 4.55934906202359e-04
3.99353658536585e+00 5.10905717707153e-02 4.54091716001790e-04
4.02841463414634e+00 5.06613352068430e-02 4.52238727200218e-04
4.06329268292683e+00 5.02357048664844e-02 4.50376417061305e-04
4.09817073170732e+00 4.98136504520187e-02 4.48505250715934e-04
4.13304878048781e+00 4.93951419203699e-02 4.46625681227892e-04
4.16792682926829e+00 4.89801494818580e-02 4.44738150699919e-04
4.20280487804878e+00 4.85686435950860e-02 4.42843090049911e-04
4.23768292682927e+00 4.81605949678532e-02 4.40940918769513e-04
4.27256097560976e+00 4.77559745540567e-02 4.39032046019392e-04
4.30743902439024e+00 4.73547535516238e-02 4.37116870634930e-04
4.34231707317073e+00 4.69569034004606e-02 4.35195781393560e-04
4.37719512195122e+00 4.65623957804216e-02 4.33269157274393e-04
4.41207317073171e+00 4.61712026092921e-02 4.31337367710446e-04
4.44695121951220e+00 4.57832960407900e-02 4.29400772597688e-04
4.48182926829268e+00 4.53986484634366e-02 4.27459723238438e-04
4.51670731707317e+00 4.50172324960105e-02 4.25514562096789e-04
4.55158536585366e+00 4.46390209881996e-02 4.23565622540134e-04
4.58646341463415e+00 4.42639870177947e-02 4.21613229778737e-04
4.62134146341463e+00 4.38921038887718e-02 4.19657700831294e-04
4.65621951219512e+00 4.35233451293940e-02 4.17699344727590e-04
4.69109756097561e+00 4.31576844903262e-02 4.15738462705768e-04
4.72597560975610e+00 4.27950959427666e-02 4.13775348190942e-04
4.76085365853659e+00 4.24355536773447e-02 4.11810287621658e-04
4.79573170731707e+00 4.20790321000145e-02 4.09843560200852e-04
4.83060975609756e+00 4.17255058325196e-02 4.07875437635320e-04
4.86548780487805e+00 4.13749497098185e-02 4.05906184962143e-04
4.90036585365854e+00 4.10273387782927e-02 4.03936060493592e-04
4.93524390243902e+00 4.06826482939714e-02 4.01965315977603e-04
4.97012195121951e+00 4.03408537207699e-02 3.99994196754285e-04
5.00500000000000e+00 4.00019307287431e-02 3.98022941714982e-04
5.03987804878049e+00 3.96658551930160e-02 3.96051784032059e-04
5.07475609756098e+00 3.93326031900638e-02 3.94080950912906e-04
5.10963414634146e+00 3.90021509980267e-02 3.92110663344117e-04
5.14451219512195e+00 3.86744750943436e-02 3.90141136823546e-04
5.17939024390244e+00 3.83495521540775e-02 3.88172581292759e-04
5.21426829268293e+00 3.80273590482553e-02 3.86205201265674e-04
5.24914634146342e+00 3.77078728422219e-02 3.84239195954262e-04
5.28402439024390e+00 3.73910707940073e-02 3.82274759215503e-04
5.31890243902439e+00 3.70769303532942e-02 3.80312080199754e-04
5.35378048780488e+00 3.67654291580402e-02 3.78351343112269e-04
5.38865853658537e+00 3.64565450346720e-02 3.76392726966344e-04
5.42353658536585e+00 3.61502559959070e-02 3.74436406235317e-04
5.45841463414634e+00 3.58465402391883e-02 3.72482550778106e-04
5.49329268292683e+00 3.55453761451322e-02 3.70531325943457e-04
5.52817073170732e+00 3.52467422759906e-02 3.68582892671894e-04
5.56304878048781e+00 3.49506173741242e-02 3.66637407435636e-04
5.59792682926829e+00 3.46569803610098e-02 3.64695022817461e-04
5.63280487804878e+00 3.43658103341669e-02 3.62755887282396e-04
5.66768292682927e+00 3.40770865672543e-02 3.60820144942171e-04
5.70256097560976e+00 3.37907885080630e-02 3.58887936138681e-04
5.73743902439024e+00 3.35068957770529e-02 3.56959397366202e-04
5.77231707317073e+00 3.32253881659017e-02 3.55034661356645e-04
5.80719512195122e+00 3.29462456360673e-02 3.53113857163032e-04
5.84207317073171e+00 3.26694483173613e-02 3.51197110241278e-04
5.87695121951220e+00 3.23949765065342e-02 3.49284542385373e-04
5.91182926829268e+00 3.21228106663303e-02 3.47376272240249e-04
5.94670731707317e+00 3.18529314227150e-02 3.45472415086258e-04
5.98158536585366e+00 3.15853195648879e-02 3.43573082617324e-04
6.01646341463415e+00 3.13199560434475e-02 3.41678383458836e-04
6.05134146341463e+00 3.10568219690356e-02 3.39788423088560e-04
6.08621951219512e+00 3.07958986109923e-02 3.37903303905486e-04
6.12109756097561e+00 3.05371673960234e-02 3.36023125297403e-04
6.15597560975610e+00 3.02806099068779e-02 3.34147983574926e-04
6.19085365853659e+00 3.00262078814449e-02 3.32277972433154e-04
6.22573170731707e+00 2.97739432102211e-02 3.30413182748472e-04
6.26060975609756e+00 2.95237979362629e-02 3.28553702369771e-04
6.29548780487805e+00 2.92757542534918e-02 3.26699616585233e-04
6.33036585365854e+00 2.90297945054268e-02 3.24851008044412e-04
6.36524390243903e+00 2.87859011839270e-02 3.23007956815393e-04
6.40012195121951e+00 2.85440569279465e-02 3.21170540440943e-04
6.43500000000000e+00 2.83042445222976e-02 3.19338833872916e-04
6.46987804878049e+00 2.80664468967906e-02 3.17512909888981e-04
6.50475609756098e+00 2.78306471239164e-02 3.15692838901846e-04
6.53963414634146e+00 2.75968284187514e-02 3.13878688763510e-04
6.57451219512195e+00 2.73649741373905e-02 3.12070525187161e-04
6.60939024390244e+00 2.71350677757617e-02 3.10268411671386e-04
6.64426829268293e+00 2.69070929684517e-02 3.08472409547904e-04
6.67914634146342e+00 2.66810334875411e-02 3.06682578028465e-04
6.71402439024390e+00 2.64568732414491e-02 3.04898974140647e-04
6.74890243902439e+00 2.62345962741148e-02 3.03121653104992e-04
6.78378048780488e+00 2.60141867628740e-02 3.01350668156375e-04
6.81865853658537e+00 2.57956290183275e-02 2.99586070361020e-04
6.85353658536585e+00 2.55789074828901e-02 2.97827908998673e-04
6.88841463414634e+00 2.53640067296834e-02 2.96076231489601e-04
6.92329268292683e+00 2.51509114614375e-02 2.94331083434676e-04
6.95817073170732e+00 2.49396065094024e-02 2.92592508654724e-04
6.99304878048781e+00 2.47300768322681e-02 2.90860549128339e-04
7.02792682926829e+00 2.45223075153872e-02 2.89135245333868e-04
7.06280487804878e+00 2.43162837688271e-02 2.87416636082653e-04
7.09768292682927e+00 2.41119909272096e-02 2.85704758348261e-04
7.13256097560976e+00 2.39094144483675e-02 2.83999647613356e-04
7.16743902439024e+00 2.37085399123092e-02 2.82301337799914e-04
7.20231707317073e+00 2.35093530201921e-02 2.80609861302949e-04
7.23719512195122e+00 2.33118395933056e-02 2.78925249023734e-04
7.27207317073171e+00 2.31159855720610e-02 2.77247530402462e-04
7.30695121951220e+00 2.29217770149910e-02 2.75576733358497e-04
7.34182926829268e+00 2.27292000980179e-02 2.73912884597722e-04
7.37670731707317e+00 2.25382411126824e-02 2.72256009458239e-04
7.41158536585366e+00 2.23488864659606e-02 2.70606131752579e-04
7.44646341463415e+00 2.21611226790297e-02 2.68963274079693e-04
7.48134146341464e+00 2.19749363863092e-02 2.67327457758699e-04
7.51621951219512e+00 2.17903143345092e-02 2.65698702856977e-04
7.55109756097561e+00 2.16072433816872e-02 2.64077028217827e-04
7.58597560975610e+00 2.14257104963124e-02 2.62462451403475e-04
7.62085365853659e+00 2.12457027565726e-02 2.60854988974769e-04
7.65573170731707e+00 2.10672073487464e-02 2.59254656347553e-04
7.69060975609756e+00 2.08902115670039e-02 2.57661467645858e-04
7.72548780487805e+00 2.07147028122629e-02 2.56075435986033e-04
7.76036585365854e+00 2.05406685912921e-02 2.54496573414086e-04
7.79524390243902e+00 2.03680965158219e-02 2.52924890929461e-04
7.83012195121951e+00 2.01969743016627e-02 2.51360398508502e-04
7.86500000000000e+00 2.00272897678301e-02 2.49803105050363e-04
7.89987804878049e+00 1.98590308358895e-02 2.48253018631900e-04
7.93475609756098e+00 1.96921855284578e-02 2.46710146374090e-04
7.96963414634146e+00 1.95267419689934e-02 2.45174494305554e-04
8.00451219512195e+00 1.93626883807356e-02 2.43646067621663e-04
8.03939024390244e+00 1.92000130858657e-02 2.42124870625429e-04
8.07426829268293e+00 1.90387045046757e-02 2.40610906747717e-04
8.10914634146341e+00 1.88787511547449e-02 2.39104178567164e-04
8.14402439024390e+00 1.87201416501216e-02 2.37604687759015e-04
8.17890243902439e+00 1.85628647007037e-02 2.36112435327690e-04
8.21378048780488e+00 1.84069091108591e-02 2.34627421482664e-04
8.24865853658537e+00 1.82522637792085e-02 2.33149645511674e-04
8.28353658536586e+00 1.80989176976409e-02 2.31679106017229e-04
8.31841463414634e+00 1.79468599505293e-02 2.30215800861051e-04
8.35329268292683e+00 1.77960797139543e-02 2.28759727181219e-04
8.38817073170732e+00 1.76465662549336e-02 2.27310881409145e-04
8.42304878048781e+00 1.74983089306579e-02 2.25869259221312e-04
8.45792682926829e+00 1.73512971879054e-02 2.24434855751724e-04
8.49280487804878e+00 1.72055205617704e-02 2.23007665476561e-04
8.52768292682927e+00 1.70609686754425e-02 2.21587682096493e-04
8.56256097560976e+00 1.69176312392914e-02 2.20174898752842e-04
8.59743902439024e+00 1.67754980501355e-02 2.18769307975300e-04
8.63231707317073e+00 1.66345589905145e-02 2.17370901696631e-04
8.66719512195122e+00 1.64948040279702e-02 2.15979671267149e-04
8.70207317073171e+00 1.63562232143317e-02 2.14595607468973e-04
8.73695121951220e+00 1.62188066850075e-02 2.13218700470690e-04
8.77182926829268e+00 1.60825446584375e-02 2.11848940019700e-04
8.80670731707317e+00 1.59474274349311e-02 2.10486315336031e-04
8.84158536585366e+00 1.58134453964455e-02 2.09130815003970e-04
8.87646341463415e+00 1.56805890057435e-02 2.07782427167819e-04
8.91134146341463e+00 1.55488488057151e-02 2.06441139483130e-04
8.94621951219512e+00 1.54182154187037e-02 2.05106939129042e-04
8.98109756097561e+00 1.52886795458392e-02 2.03779812820459e-04
9.01597560975610e+00 1.51602319663757e-02 2.02459746765460e-04
9.05085365853659e+00 1.50328635371748e-02 2.01146726841352e-04
9.08573170731707e+00 1.49065651916333e-02 1.99840738496073e-04
9.12060975609756e+00 1.47813279394621e-02 1.98541766647653e-04
9.15548780487805e+00 1.46571428659037e-02 1.97249795863469e-04
9.19036585365854e+00 1.45340011310980e-02 1.95964810314564e-04
9.22524390243903e+00 1.44118939694526e-02 1.94686793786178e-04
9.26012195121951e+00 1.42908126890193e-02 1.93415729688147e-04
9.29500000000000e+00 1.41707486708750e-02 1.92151601014918e-04
9.32987804878049e+00 1.40516933686348e-02 1.90894390506834e-04
9.36475609756098e+00 1.39336383074618e-02 1.89644080558649e-04
9.39963414634146e+00 1.38165750838482e-02 1.88400653126217e-04
9.43451219512195e+00 1.37004953648880e-02 1.87164089890776e-04
9.46939024390244e+00 1.35853908876841e-02 1.85934372216196e-04
9.50426829268293e+00 1.34712534587599e-02 1.84711481157957e-04
9.53914634146342e+00 1.33580749534761e-02 1.83495397472035e-04
9.57402439024390e+00 1.32458473154526e-02 1.82286101577429e-04
9.60890243902439e+00 1.31345625561095e-02 1.81083573704020e-04
9.64378048780488e+00 1.30242127537519e-02 1.79887793807655e-04
9.67865853658537e+00 1.29147900533551e-02 1.78698741483583e-04
9.71353658536585e+00 1.28062866658881e-02 1.77516396117117e-04
9.74841463414634e+00 1.26986948677594e-02 1.76340736843663e-04
9.78329268292683e+00 1.25920070002672e-02 1.75171742556379e-04
9.81817073170732e+00 1.24862154690538e-02 1.74009391913757e-04
9.85304878048781e+00 1.23813127435658e-02 1.72853663304522e-04
9.88792682926829e+00 1.22772913566216e-02 1.71704534983252e-04
9.92280487804878e+00 1.21741439035654e-02 1.70561984991610e-04
9.95768292682927e+00 1.20718630420569e-02 1.69425991078052e-04
9.99256097560976e+00 1.19704414914423e-02 1.68296530836048e-04
1.00274390243902e+01 1.18698720322363e-02 1.67173581465109e-04
1.00623170731707e+01 1.17701475060976e-02 1.66057120585586e-04
1.00971951219512e+01 1.16712608133558e-02 1.64947125037622e-04
1.01320731707317e+01 1.15732049159368e-02 1.63843571669245e-04
1.01669512195122e+01 1.14759728329712e-02 1.62746437191553e-04
1.02018292682927e+01 1.13795576441421e-02 1.61655698125342e-04
1.02367073170732e+01 1.12839524853928e-02 1.60571330865870e-04
1.02715853658537e+01 1.11891505521939e-02 1.59493311630500e-04
1.03064634146341e+01 1.10951450953465e-02 1.58421616521997e-04
1.03413414634146e+01 1.10019294241713e-02 1.57356221477124e-04
1.03762195121951e+01 1.09094969024055e-02 1.56297102328574e-04
1.04110975609756e+01 1.08178409513148e-02 1.55244234754470e-04
1.04459756097561e+01 1.07269550456827e-02 1.54197594338948e-04
1.04808536585366e+01 1.06368327168473e-02 1.53157156522593e-04
1.05157317073171e+01 1.05474675487799e-02 1.52122896661666e-04
1.05506097560976e+01 1.04588531810491e-02 1.51094789979448e-04
1.05854878048780e+01 1.03709833049872e-02 1.50072811624169e-04
1.06203658536585e+01 1.02838516665826e-02 1.49056936621240e-04
1.06552439024390e+01 1.01974520627317e-02 1.48047139929920e-04
1.06901219512195e+01 1.01117783440625e-02 1.47043396396421e-04
1.07250000000000e+01 1.00268244112691e-02 1.46045680809334e-04
1.07598780487805e+01 9.94258421786805e-03 1.45053967853568e-04
1.07947560975610e+01 9.85905176661421e-03 1.44068232164588e-04
1.08296341463415e+01 9.77622111219145e-03 1.43088448283202e-04
1.08645121951220e+01 9.69408635770756e-03 1.42114590708615e-04
1.08993902439024e+01 9.61264165732098e-03 1.41146633854006e-04
1.09342682926829e+01 9.53188121281319e-03 1.40184552098453e-04
1.09691463414634e+01 9.45179927615289e-03 1.39228319743349e-04
1.10040243902439e+01 9.37239014614403e-03 1.38277911063152e-04
