Energy (eV)          EEDF (eV^-(3/2))     First Anisotropy
1.62500000000000e-02 1.33714486245410e-01 7.55128230280105e-05
4.87500000000000e-02 1.32667381826003e-01 1.24623865302065e-04
8.12500000000000e-02 1.31628477173632e-01 1.64334223167793e-04
1.13750000000000e-01 1.30597708076924e-01 1.94391099881350e-04
1.46250000000000e-01 1.29575010827211e-01 2.19366889423701e-04
1.78750000000000e-01 1.28560322214698e-01 2.40992781123246e-04
2.11250000000000e-01 1.27553579524572e-01 2.60165860509192e-04
2.43750000000000e-01 1.26554720533134e-01 2.77428554663092e-04
2.76250000000000e-01 1.25563683503950e-01 2.93141071737566e-04
3.08750000000000e-01 1.24580407184036e-01 3.07558322905427e-04
3.41250000000000e-01 1.23604830800077e-01 3.20869244853285e-04
3.73750000000000e-01 1.22636894054663e-01 3.33218905273543e-04
4.06250000000000e-01 1.21676537122570e-01 3.44721837159546e-04
4.38750000000000e-01 1.20723700647057e-01 3.55470533427380e-04
4.71250000000000e-01 1.19778325736202e-01 3.65541099771440e-04
5.03750000000000e-01 1.18840353959256e-01 3.74997153345295e-04
5.36250000000000e-01 1.17909727343039e-01 3.83892593141499e-04
5.68750000000000e-01 1.16986388368350e-01 3.92273619162052e-04
6.01250000000000e-01 1.16070279966417e-01 4.00180236529569e-04
6.33750000000000e-01 1.15161345515366e-01 4.07647397387425e-04
6.66250000000000e-01 1.14259528836724e-01 4.14705882385371e-04
6.98750000000000e-01 1.13364774191946e-01 4.21382991259427e-04
7.31250000000000e-01 1.12477026278970e-01 4.27703091024455e-04
7.63750000000000e-01 1.11596230228797e-01 4.33688056315375e-04
7.96250000000000e-01 1.10722331602105e-01 4.39357626894590e-04
8.28750000000000e-01 1.09855276385876e-01 4.44729700736548e-04
8.61250000000000e-01 1.08995010990067e-01 4.49820576433006e-04
8.93750000000000e-01 1.08141482244290e-01 4.54645155313370e-04
9.26250000000000e-01 1.07294637394530e-01 4.59217111235040e-04
9.58750000000000e-01 1.06454424099883e-01 4.63549034198845e-04
9.91250000000000e-01 1.05620790429323e-01 4.67652552599994e-04
1.02375000000000e+00 1.04793684858487e-01 4.71538437909268e-04
1.05625000000000e+00 1.03973056266498e-01 4.75216694803870e-04
1.08875000000000e+00 1.03158853932797e-01 4.78696639169717e-04
1.12125000000000e+00 1.02351027534017e-01 4.81986965932233e-04
1.15375000000000e+00 1.01549527140864e-01 4.85095808308191e-04
1.18625000000000e+00 1.00754303215039e-01 4.88030789783162e-04
1.21875000000000e+00 9.99653066061697e-02 4.90799069889546e-04
1.25125000000000e+00 9.91824885487758e-02 4.93407384676369e-04
1.28375000000000e+00 9.84058006592550e-02 4.95862082613591e-04
1.31625000000000e+00 9.76351949328916e-02 4.98169156553126e-04
1.34875000000000e+00 9.68706237408904e-02 5.00334272270455e-04
1.38125000000000e+00 9.61120398274318e-02 5.02362794029661e-04
1.41375000000000e+00 9.53593963067522e-02 5.04259807548202e-04
1.44625000000000e+00 9.46126466602451e-02 5.06030140682397e-04
1.47875000000000e+00 9.38717447335869e-02 5.07678382108403e-04
1.51125000000000e+00 9.31366447338835e-02 5.09208898234847e-04
1.54375000000000e+00 9.24073012268403e-02 5.10625848550895e-04
1.57625000000000e+00 9.16836691339541e-02 5.11933199586166e-04
1.60875000000000e+00 9.09657037297266e-02 5.13134737635566e-04
1.64125000000000e+00 9.02533606389006e-02 5.14234080382420e-04
1.67375000000000e+00 8.95465958337168e-02 5.15234687536552e-04
1.70625000000000e+00 8.88453656311928e-02 5.16139870589402e-04
1.73875000000000e+00 8.81496266904230e-02 5.16952801775900e-04
1.77125000000000e+00 8.74593360099003e-02 5.17676522322122e-04
1.80375000000000e+00 8.67744509248577e-02 5.18313950048634e-04
1.83625000000000e+00 8.60949291046319e-02 5.18867886391291e-04
1.86875000000000e+00 8.54207285500463e-02 5.19341022894262e-04
1.90125000000000e+00 8.47518075908159e-02 5.19735947224129e-04
1.93375000000000e+00 8.40881248829713e-02 5.20055148748695e-04
1.96625000000000e+00 8.34296394063033e-02 5.20301023719121e-04
1.99875000000000e+00 8.27763104618281e-02 5.20475880090191e-04
2.03125000000000e+00 8.21280976692711e-02 5.20581942010013e-04
2.06375000000000e+00 8.14849609645718e-02 5.20621354007111e-04
2.09625000000000e+00 8.08468605974070e-02 5.20596184900091e-04
2.12875000000000e+00 8.02137571287343e-02 5.20508431452608e-04
2.16125000000000e+00 7.95856114283545e-02 5.20360021794343e-04
2.19375000000000e+00 7.89623846724928e-02 5.20152818626273e-04
2.22625000000000e+00 7.83440383413995e-02 5.19888622227368e-04
2.25875000000000e+00 7.77305342169691e-02 5.19569173277877e-04
2.29125000000000e+00 7.71218343803781e-02 5.19196155513052e-04
2.32375000000000e+00 7.65179012097414e-02 5.18771198220047e-04
2.35625000000000e+00 7.59186973777871e-02 5.18295878589547e-04
2.38875000000000e+00 7.53241858495493e-02 5.17771723932487e-04
2.42125000000000e+00 7.47343298800793e-02 5.17200213771673e-04
2.45375000000000e+00 7.41490930121739e-02 5.16582781817151e-04
2.48625000000000e+00 7.35684390741230e-02 5.15920817833090e-04
2.51875000000000e+00 7.29923321774730e-02 5.15215669403884e-04
2.55125000000000e+00 7.24207367148095e-02 5.14468643606253e-04
2.58375000000000e+00 7.18536173575558e-02 5.13681008593461e-04
2.61625000000000e+00 7.12909390537899e-02 5.12853995097523e-04
2.64875000000000e+00 7.07326670260776e-02 5.11988797854698e-04
2.68125000000000e+00 7.01787667693233e-02 5.11086576959117e-04
2.71375000000000e+00 6.96292040486373e-02 5.10148459149216e-04
2.74625000000000e+00 6.90839448972197e-02 5.09175539031046e-04
2.77875000000000e+00 6.85429556142613e-02 5.08168880242339e-04
2.81125000000000e+00 6.80062027628604e-02 5.07129516560986e-04
2.84375000000000e+00 6.74736531679561e-02 5.06058452961265e-04
2.87625000000000e+00 6.69452739142782e-02 5.04956666620826e-04
2.90875000000000e+00 6.64210323443126e-02 5.03825107881387e-04
2.94125000000000e+00 6.59008960562826e-02 5.02664701165875e-04
2.97375000000000e+00 6.53848329021468e-02 5.01476345854399e-04
3.00625000000000e+00 6.48728109856116e-02 5.00260917121298e-04
3.03875000000000e+00 6.43647986601600e-02 4.99019266735650e-04
3.07125000000000e+00 6.38607645270958e-02 4.97752223827213e-04
3.10375000000000e+00 6.33606774336027e-02 4.96460595619434e-04
3.13625000000000e+00 6.28645064708187e-02 4.95145168131689e-04
3.16875000000000e+00 6.23722209719263e-02 4.93806706852050e-04
3.20125000000000e+00 6.18837905102564e-02 4.92445957382220e-04
3.23375000000000e+00 6.13991848974082e-02 4.91063646056370e-04
3.26625000000000e+00 6.09183741813829e-02 4.89660480534753e-04
3.29875000000000e+00 6.04413286447331e-02 4.88237150373670e-04
3.33125000000000e+00 5.99680188027255e-02 4.86794327573025e-04
3.36375000000000e+00 5.94984154015185e-02 4.85332667102347e-04
3.39625000000000e+00 5.90324894163549e-02 4.83852807406559e-04
3.42875000000000e+00 5.85702120497668e-02 4.82355370892410e-04
3.46125000000000e+00 5.81115547297966e-02 4.80840964396407e-04
3.49375000000000e+00 5.76564891082307e-02 4.79310179635276e-04
3.52625000000000e+00 5.72049870588476e-02 4.77763593639761e-04
3.55875000000000e+00 5.67570206756792e-02 4.76201769172423e-04
3.59125000000000e+00 5.63125622712862e-02 4.74625255130292e-04
3.62375000000000e+00 5.58715843750468e-02 4.73034586933028e-04
3.65625000000000e+00 5.54340597314587e-02 4.71430286897234e-04
3.68875000000000e+00 5.49999612984550e-02 4.69812864597611e-04
3.72125000000000e+00 5.45692622457321e-02 4.68182817215499e-04
3.75375000000000e+00 5.41419359530918e-02 4.66540629875242e-04
3.78625000000000e+00 5.37179560087961e-02 4.64886775969078e-04
3.81875000000000e+00 5.32972962079346e-02 4.63221717471102e-04
3.85125000000000e+00 5.28799305508045e-02 4.61545905240508e-04
3.88375000000000e+00 5.24658332413046e-02 4.59859779314793e-04
3.91625000000000e+00 5.20549786853399e-02 4.58163769193276e-04
3.94875000000000e+00 5.16473414892402e-02 4.56458294111249e-04
3.98125000000000e+00 5.12428964581906e-02 4.54743763305308e-04
4.01375000000000e+00 5.08416185946742e-02 4.53020576270178e-04
4.04625000000000e+00 5.04434830969271e-02 4.51289123007212e-04
4.07875000000000e+00 5.00484653574054e-02 4.49549784265119e-04
4.11125000000000e+00 4.96565409612644e-02 4.47802931773153e-04
4.14375000000000e+00 4.92676856848495e-02 4.46048928466967e-04
4.17625000000000e+00 4.88818754941992e-02 4.44288128707557e-04
4.20875000000000e+00 4.84990865435591e-02 4.42520878493491e-04
4.24125000000000e+00 4.81192951739090e-02 4.40747515666737e-04
4.27375000000000e+00 4.77424779114997e-02 4.38968370112225e-04
4.30625000000000e+00 4.73686114664025e-02 4.37183763951453e-04
4.33875000000000e+00 4.69976727310700e-02 4.35394011730439e-04
4.37125000000000e+00 4.66296387789074e-02 4.33599420602035e-04
4.40375000000000e+00 4.62644868628557e-02 4.31800290502950e-04
4.43625000000000e+00 4.59021944139861e-02 4.29996914325721e-04
4.46875000000000e+00 4.55427390401044e-02 4.28189578085654e-04
4.50125000000000e+00 4.51860985243676e-02 4.26378561083038e-04
4.53375000000000e+00 4.48322508239104e-02 4.24564136060708e-04
4.56625000000000e+00 4.44811740684828e-02 4.22746569357273e-04
4.59875000000000e+00 4.41328465590989e-02 4.20926121055998e-04
4.63125000000000e+00 4.37872467666949e-02 4.19103045129534e-04
4.66375000000000e+00 4.34443533307990e-02 4.17277589580778e-04
4.69625000000000e+00 4.31041450582113e-02 4.15449996579746e-04
4.72875000000000e+00 4.27666009216933e-02 4.13620502596792e-04
4.76125000000000e+00 4.24317000586690e-02 4.11789338532293e-04
4.79375000000000e+00 4.20994217699348e-02 4.09956729842694e-04
4.82625000000000e+00 4.17697455183807e-02 4.08122896663365e-04
4.85875000000000e+00 4.14426509277205e-02 4.06288053928170e-04
4.89125000000000e+00 4.11181177812326e-02 4.04452411485822e-04
4.92375000000000e+00 4.07961260205107e-02 4.02616174213252e-04
4.95625000000000e+00 4.04766557442235e-02 4.00779542126014e-04
4.98875000000000e+00 4.01596872068852e-02 3.98942710485929e-04
5.02125000000000e+00 3.98452008176349e-02 3.97105869905864e-04
5.05375000000000e+00 3.95331771390256e-02 3.95269206451882e-04
5.08625000000000e+00 3.92235968858230e-02 3.93432901742795e-04
5.11875000000000e+00 3.89164409238135e-02 3.91597133047273e-04
5.15125000000000e+00 3.86116902686215e-02 3.89762073378463e-04
5.18375000000000e+00 3.83093260845362e-02 3.87927891586263e-04
5.21625000000000e+00 3.80093296833473e-02 3.86094752447298e-04
5.24875000000000e+00 3.77116825231898e-02 3.84262816752688e-04
5.28125000000000e+00 3.74163662073984e-02 3.82432241393764e-04
5.31375000000000e+00 3.71233624833701e-02 3.80603179445630e-04
5.34625000000000e+00 3.68326532414359e-02 3.78775780248622e-04
5.37875000000000e+00 3.65442205137422e-02 3.76950189487902e-04
5.41125000000000e+00 3.62580464731395e-02 3.75126549271208e-04
5.44375000000000e+00 3.59741134320811e-02 3.73304998204597e-04
5.47625000000000e+00 3.56924038415294e-02 3.71485671466519e-04
5.50875000000000e+00 3.54129002898717e-02 3.69668700880084e-04
5.54125000000000e+00 3.51355855018438e-02 3.67854214983653e-04
5.57375000000000e+00 3.48604423374624e-02 3.66042339099836e-04
5.60625000000000e+00 3.45874537909655e-02 3.64233195402782e-04
5.63875000000000e+00 3.43166029897617e-02 3.62426902984005e-04
5.67125000000000e+00 3.40478731933867e-02 3.60623577916646e-04
5.70375000000000e+00 3.37812477924696e-02 3.58823333318285e-04
5.73625000000000e+00 3.35167103077055e-02 3.57026279412391e-04
5.76875000000000e+00 3.32542443888372e-02 3.55232523588243e-04
5.80125000000000e+00 3.29938338136448e-02 3.53442170459581e-04
5.83375000000000e+00 3.27354624869429e-02 3.51655321921971e-04
5.86625000000000e+00 3.24791144395857e-02 3.49872077208811e-04
5.89875000000000e+00 3.22247738274805e-02 3.48092532946152e-04
5.93125000000000e+00 3.19724249306078e-02 3.46316783206246e-04
5.96375000000000e+00 3.17220521520499e-02 3.44544919560029e-04
5.99625000000000e+00 3.14736400170271e-02 3.42777031128289e-04
6.02875000000000e+00 3.12271731719412e-02 3.41013204631785e-04
6.06125000000000e+00 3.09826363834262e-02 3.39253524440408e-04
6.09375000000000e+00 3.07400145374072e-02 3.37498072621073e-04
6.12625000000000e+00 3.04992926381660e-02 3.35746928984641e-04
6.15875000000000e+00 3.02604558074145e-02 3.34000171131869e-04
6.19125000000000e+00 3.00234892833746e-02 3.32257874498363e-04
6.22375000000000e+00 2.97883784198666e-02 3.30520112398586e-04
6.25625000000000e+00 2.95551086854031e-02 3.28786956068885e-04
6.28875000000000e+00 2.93236656622916e-02 3.27058474709591e-04
6.32125000000000e+00 2.90940350457429e-02 3.25334735526332e-04
6.35375000000000e+00 2.88662026429873e-02 3.23615803770386e-04
6.38625000000000e+00 2.86401543723970e-02 3.21901742778195e-04
6.41875000000000e+00 2.84158762626163e-02 3.20192614010131e-04
6.45125000000000e+00 2.81933544516973e-02 3.18488477088345e-04
6.48375000000000e+00 2.79725751862440e-02 3.16789389833888e-04
6.51625000000000e+00 2.77535248205617e-02 3.15095408303091e-04
6.54875000000000e+00 2.75361898158136e-02 3.13406586823144e-04
6.58125000000000e+00 2.73205567391844e-02 3.11722978026980e-04
6.61375000000000e+00 2.71066122630496e-02 3.10044632887403e-04
6.64625000000000e+00 2.68943431641520e-02 3.08371600750572e-04
6.67875000000000e+00 2.66837363227843e-02 3.06703929368777e-04
6.71125000000000e+00 2.64747787219785e-02 3.05041664932551e-04
6.74375000000000e+00 2.62674574467010e-02 3.03384852102122e-04
6.77625000000000e+00 2.60617596830545e-02 3.01733534038258e-04
6.80875000000000e+00 2.58576727174859e-02 3.00087752432476e-04
6.84125000000000e+00 2.56551839360009e-02 2.98447547536622e-04
6.87375000000000e+00 2.54542808233840e-02 2.96812958191933e-04
6.90625000000000e+00 2.52549509624248e-02 2.95184021857442e-04
6.93875000000000e+00 2.50571820331512e-02 2.93560774637854e-04
6.97125000000000e+00 2.48609618120673e-02 2.91943251310851e-04
7.00375000000000e+00 2.46662781713983e-02 2.90331485353868e-04
7.03625000000000e+00 2.44731190783404e-02 2.88725508970374e-04
7.06875000000000e+00 2.42814725943180e-02 2.87125353115593e-04
7.10125000000000e+00 2.40913268742447e-02 2.85531047521718e-04
7.13375000000000e+00 2.39026701657923e-02 2.83942620722662e-04
7.16625000000000e+00 2.37154908086634e-02 2.82360100078306e-04
7.19875000000000e+00 2.35297772338715e-02 2.80783511798284e-04
7.23125000000000e+00 2.33455179630254e-02 2.79212880965276e-04
7.26375000000000e+00 2.31627016076204e-02 2.77648231557922e-04
7.29625000000000e+00 2.29813168683335e-02 2.76089586473217e-04
7.32875000000000e+00 2.28013525343259e-02 2.74536967548507e-04
7.36125000000000e+00 2.26227974825496e-02 2.72990395583042e-04
7.39375000000000e+00 2.24456406770601e-02 2.71449890359140e-04
7.42625000000000e+00 2.22698711683342e-02 2.69915470662968e-04
7.45875000000000e+00 2.20954780925933e-02 2.68387154304846e-04
7.49125000000000e+00 2.19224506711320e-02 2.66864958139249e-04
7.52375000000000e+00 2.17507782096517e-02 2.65348898084367e-04
7.55625000000000e+00 2.15804500975999e-02 2.63838989141316e-04
7.58875000000000e+00 2.14114558075142e-02 2.62335245412971e-04
7.62125000000000e+00 2.12437848943716e-02 2.60837680122504e-04
7.65375000000000e+00 2.10774269949432e-02 2.59346305631498e-04
7.68625000000000e+00 2.09123718271531e-02 2.57861133457685e-04
7.71875000000000e+00 2.07486091894438e-02 2.56382174292485e-04
7.75125000000000e+00 2.05861289601447e-02 2.54909438018115e-04
7.78375000000000e+00 2.04249210968471e-02 2.53442933724389e-04
7.81625000000000e+00 2.02649756357836e-02 2.51982669725216e-04
7.84875000000000e+00 2.01062826912118e-02 2.50528653574800e-04
7.88125000000000e+00 1.99488324548035e-02 2.49080892083507e-04
7.91375000000000e+00 1.97926151950387e-02 2.47639391333460e-04
7.94625000000000e+00 1.96376212566037e-02 2.46204156693835e-04
7.97875000000000e+00 1.94838410597949e-02 2.44775192835872e-04
8.01125000000000e+00 1.93312650999260e-02 2.43352503747598e-04
8.04375000000000e+00 1.91798839467412e-02 2.41936092748306e-04
8.07625000000000e+00 1.90296882438320e-02 2.40525962502730e-04
8.10875000000000e+00 1.88806687080589e-02 2.39122115034975e-04
8.14125000000000e+00 1.87328161289777e-02 2.37724551742208e-04
8.17375000000000e+00 1.85861213682704e-02 2.36333273408041e-04
8.20625000000000e+00 1.84405753591801e-02 2.34948280215722e-04
8.23875000000000e+00 1.82961691059507e-02 2.33569571761067e-04
8.27125000000000e+00 1.81528936832712e-02 2.32197147065153e-04
8.30375000000000e+00 1.80107402357234e-02 2.30831004586742e-04
8.33625000000000e+00 1.78696999772353e-02 2.29471142234528e-04
8.36875000000000e+00 1.77297641905376e-02 2.28117557379155e-04
8.40125000000000e+00 1.75909242266251e-02 2.26770246864971e-04
8.43375000000000e+00 1.74531715042219e-02 2.25429207021624e-04
8.46625000000000e+00 1.73164975092514e-02 2.24094433675410e-04
8.49875000000000e+00 1.71808937943098e-02 2.22765922160394e-04
8.53125000000000e+00 1.70463519781439e-02 2.21443667329359e-04
8.56375000000000e+00 1.69128637451335e-02 2.20127663564590e-04
8.59625000000000e+00 1.67804208447770e-02 2.18817904788388e-04
8.62875000000000e+00 1.66490150911816e-02 2.17514384473400e-04
8.66125000000000e+00 1.65186383625575e-02 2.16217095652841e-04
8.69375000000000e+00 1.63892826007157e-02 2.14926030930445e-04
8.72625000000000e+00 1.62609398105702e-02 2.13641182490252e-04
8.75875000000000e+00 1.61336020596435e-02 2.12362542106255e-04
8.79125000000000e+00 1.60072614775766e-02 2.11090101151829e-04
8.82375000000000e+00 1.58819102556426e-02 2.09823850609007e-04
8.85625000000000e+00 1.57575406462638e-02 2.08563781077593e-04
8.88875000000000e+00 1.56341449625330e-02 2.07309882784087e-04
8.92125000000000e+00 1.55117155777383e-02 2.06062145590470e-04
8.95375000000000e+00 1.53902449248921e-02 2.04820559002828e-04
8.98625000000000e+00 1.52697254962627e-02 2.03585112179802e-04
9.01875000000000e+00 1.51501498429109e-02 2.02355793940900e-04
9.05125000000000e+00 1.50315105742295e-02 2.01132592774659e-04
9.08375000000000e+00 1.49138003574861e-02 1.99915496846638e-04
9.11625000000000e+00 1.47970119173704e-02 1.98704494007303e-04
9.14875000000000e+00 1.46811380355442e-02 1.97499571799740e-04
9.18125000000000e+00 1.45661715501953e-02 1.96300717467215e-04
9.21375000000000e+00 1.44521053555952e-02 1.95107917960649e-04
9.24625000000000e+00 1.43389324016592e-02 1.93921159945908e-04
9.27875000000000e+00 1.42266456935115e-02 1.92740429810976e-04
9.31125000000000e+00 1.41152382910521e-02 1.91565713673016e-04
9.34375000000000e+00 1.40047033085286e-02 1.90396997385279e-04
9.37625000000000e+00 1.38950339141100e-02 1.89234266543887e-04
9.40875000000000e+00 1.37862233294645e-02 1.88077506494505e-04
9.44125000000000e+00 1.36782648293410e-02 1.86926702338891e-04
9.47375000000000e+00 1.35711517411531e-02 1.85781838941335e-04
9.50625000000000e+00 1.34648774445666e-02 1.84642900934969e-04
9.53875000000000e+00 1.33594353710906e-02 1.83509872727927e-04
9.57125000000000e+00 1.32548190036713e-02 1.82382738509477e-04
9.60375000000000e+00 1.31510218762893e-02 1.81261482255979e-04
9.63625000000000e+00 1.30480375735600e-02 1.80146087736721e-04
9.66875000000000e+00 1.29458597303369e-02 1.79036538519711e-04
9.70125000000000e+00 1.28444820313185e-02 1.77932817977331e-04
9.73375000000000e+00 1.27438982106574e-02 1.76834909291866e-04
9.76625000000000e+00 1.26441020515738e-02 1.75742795460955e-04
9.79875000000000e+00 1.25450873859707e-02 1.74656459302950e-04
9.83125000000000e+00 1.24468480940529e-02 1.73575883462163e-04
9.86375000000000e+00 1.23493781039486e-02 1.72501050414019e-04
9.89625000000000e+00 1.22526713913342e-02 1.71431942470121e-04
9.92875000000000e+00 1.21567219790621e-02 1.70368541783215e-04
9.96125000000000e+00 1.20615239367910e-02 1.69310830352055e-04
9.99375000000000e+00 1.19670713806194e-02 1.68258790026208e-04
1.00262500000000e+01 1.18733584727224e-02 1.67212402510756e-04
1.00587500000000e+01 1.17803794209901e-02 1.66171649370891e-04
1.00912500000000e+01 1.16881284786702e-02 1.65136512036452e-04
1.01237500000000e+01 1.15965999440126e-02 1.64106971806363e-04
1.01562500000000e+01 1.15057881599171e-02 1.63083009853004e-04
1.01887500000000e+01 1.14156875135835e-02 1.62064607226511e-04
1.02212500000000e+01 1.13262924361651e-02 1.61051744858933e-04
1.02537500000000e+01 1.12375974024241e-02 1.60044403568386e-04
