Energy (eV)          EEDF (eV^-(3/2))     First Anisotropy
1.18888888888889e-01 7.17016007246273e-02 8.81973655897447e-05
3.56666666666667e-01 6.90029483299526e-02 1.43380209493649e-04
5.94444444444444e-01 6.64058658399049e-02 1.83387236947053e-04
8.32222222222222e-01 6.39065304454171e-02 2.10412029636002e-04
1.07000000000000e+00 6.15012632072872e-02 2.30312952890109e-04
1.30777777777778e+00 5.91865236550259e-02 2.45416872927021e-04
1.54555555555556e+00 5.69589045732204e-02 2.56982641461527e-04
1.78333333333333e+00 5.48151269995534e-02 2.65801690373984e-04
2.02111111111111e+00 5.27520353548963e-02 2.72418343993603e-04
2.25888888888889e+00 5.07665928420311e-02 2.77230021911975e-04
2.49666666666667e+00 4.88558769600114e-02 2.80539465598094e-04
2.73444444444444e+00 4.70170752030731e-02 2.82584673864500e-04
2.97222222222222e+00 4.52474809265601e-02 2.83557320519862e-04
3.21000000000000e+00 4.35444893434406e-02 2.83614722909306e-04
3.44777777777778e+00 4.19055937104733e-02 2.82887969327671e-04
3.68555555555556e+00 4.03283816313585e-02 2.81487641721662e-04
3.92333333333333e+00 3.88105315097480e-02 2.79507967466706e-04
4.16111111111111e+00 3.73498091196393e-02 2.77029909047522e-04
4.39888888888889e+00 3.59440643294214e-02 2.74123514721509e-04
4.63666666666667e+00 3.45912279324863e-02 2.70849742333034e-04
4.87444444444444e+00 3.32893086015544e-02 2.67261896663104e-04
5.11222222222222e+00 3.20363899599298e-02 2.63406780280346e-04
5.35000000000000e+00 3.08306277529460e-02 2.59325625967280e-04
5.58777777777778e+00 2.96702471412829e-02 2.55054861418006e-04
5.82555555555556e+00 2.85535400857178e-02 2.50626743551195e-04
6.06333333333333e+00 2.74788628347383e-02 2.46069889006538e-04
6.30111111111111e+00 2.64446334994792e-02 2.41409721328624e-04
6.53888888888889e+00 2.54493297309369e-02 2.36668851036680e-04
6.77666666666667e+00 2.44914864771415e-02 2.31867401445193e-04
7.01444444444444e+00 2.35696938266915e-02 2.27023288801127e-04
7.25222222222222e+00 2.26825949346192e-02 2.22152465322482e-04
7.49000000000000e+00 2.18288840213655e-02 2.17269130442455e-04
7.72777777777778e+00 2.10073044546401e-02 2.12385915568610e-04
7.96555555555556e+00 2.02166468983570e-02 2.07514046743034e-04
8.20333333333333e+00 1.94557475334614e-02 2.02663488036397e-04
8.44111111111111e+00 1.87234863419687e-02 1.97843068270214e-04
8.67888888888889e+00 1.80187854612860e-02 1.93060593538233e-04
8.91666666666667e+00 1.73406075966147e-02 1.88322947762988e-04
9.15444444444445e+00 1.66879544941042e-02 1.83636182224527e-04
9.39222222222222e+00 1.60598654721161e-02 1.79005595984431e-04
9.63000000000000e+00 1.54554160050738e-02 1.74435807852779e-04
9.86777777777778e+00 1.48737163647181e-02 1.69930821109392e-04
1.01055555555556e+01 1.43139103097299e-02 1.65494081903671e-04
1.03433333333333e+01 1.37751738279156e-02 1.61128532594039e-04
1.05811111111111e+01 1.32567139144688e-02 1.56836658923892e-04
1.08188888888889e+01 1.27577674148768e-02 1.52620532828730e-04
1.10566666666667e+01 1.22775998976340e-02 1.48481852416953e-04
1.12944444444444e+01 1.18155045732550e-02 1.44421976963441e-04
1.15322222222222e+01 1.13708012576965e-02 1.40441960172587e-04
1.17700000000000e+01 1.09428353593237e-02 1.36542579007577e-04
1.20077777777778e+01 1.05309769275558e-02 1.32724359847625e-04
1.22455555555556e+01 1.01346197214252e-02 1.28987603691411e-04
1.24833333333333e+01 9.75318032024192e-03 1.25332408854170e-04
1.27211111111111e+01 9.38609725547912e-03 1.21758690817950e-04
1.29588888888889e+01 9.03283019392322e-03 1.18266200275977e-04
1.31966666666667e+01 8.69285913900482e-03 1.14854540931142e-04
1.34344444444444e+01 8.36568366541656e-03 1.11523184541001e-04
1.36722222222222e+01 8.05082218476730e-03 1.08271485691985e-04
1.39100000000000e+01 7.74781122966015e-03 1.05098694372125e-04
1.41477777777778e+01 7.45620477873195e-03 1.02003967403861e-04
1.43855555555556e+01 7.17557359764190e-03 9.89863797820623e-05
1.46233333333333e+01 6.90550460908120e-03 9.60449348548745e-05
1.48611111111111e+01 6.64560027910672e-03 9.31785730648903e-05
1.50988888888889e+01 6.39547803777744e-03 9.03861798856856e-05
1.53366666666667e+01 6.15476971402830e-03 8.76665939329525e-05
1.55744444444444e+01 5.92312099375329e-03 8.50186135753396e-05
1.58122222222222e+01 5.70019089965184e-03 8.24410036398220e-05
1.60500000000000e+01 5.48565128502181e-03 7.99325009164706e-05
1.62877777777778e+01 5.27918635516351e-03 7.74918191352973e-05
1.65255555555556e+01 5.08049220102519e-03 7.51176540802487e-05
1.67633333333333e+01 4.88927635298643e-03 7.28086881252342e-05
1.70011111111111e+01 4.70525734688167e-03 7.05635939848109e-05
1.72388888888889e+01 4.52816431326466e-03 6.83810380842486e-05
1.74766666666667e+01 4.35773657746880e-03 6.62596841823484e-05
1.77144444444444e+01 4.19372327591296e-03 6.41981961275771e-05
1.79522222222222e+01 4.03588298770196e-03 6.21952407920823e-05
1.81900000000000e+01 3.88398337658634e-03 6.02494903148603e-05
1.84277777777778e+01 3.73780085172498e-03 5.83596240912481e-05
1.86655555555556e+01 3.59712023762411e-03 5.65243309419126e-05
1.89033333333333e+01 3.46173445811318e-03 5.47423109806523e-05
1.91411111111111e+01 3.33144422935942e-03 5.30122770344479e-05
1.93788888888889e+01 3.20605776876675e-03 5.13329558796561e-05
1.96166666666667e+01 3.08539051190848e-03 4.97030897109627e-05
1.98544444444444e+01 2.96926484086045e-03 4.81214370919694e-05
2.00922222222222e+01 2.85750982329932e-03 4.65867740798446e-05
2.03300000000000e+01 2.74996095920490e-03 4.50978949394648e-05
2.05677777777778e+01 2.64645994046093e-03 4.36536127354069e-05
2.08055555555556e+01 2.54685441723551e-03 4.22527600878914e-05
2.10433333333333e+01 2.45099777417646e-03 4.08941897687688e-05
2.12811111111111e+01 2.35874891321597e-03 3.95767750354151e-05
2.15188888888889e+01 2.26997204730043e-03 3.82994098769887e-05
2.17566666666667e+01 2.18453650002788e-03 3.70610094500625e-05
2.19944444444444e+01 2.10231651330011e-03 3.58605101974310e-05
2.22322222222222e+01 2.02319106256016e-03 3.46968701129479e-05
2.24700000000000e+01 1.94704367756741e-03 3.35690687575243e-05
2.27077777777778e+01 1.87376227206877e-03 3.24761072183663e-05
2.29455555555556e+01 1.80323897843110e-03 3.14170082021981e-05
2.31833333333333e+01 1.73536998915216e-03 3.03908160434492e-05
2.34211111111111e+01 1.67005540317179e-03 2.93965965566331e-05
2.36588888888889e+01 1.60719907973345e-03 2.84334368493097e-05
2.38966666666667e+01 1.54670849655484e-03 2.75004452812187e-05
2.41344444444444e+01 1.48849461364009e-03 2.65967512270614e-05
2.43722222222222e+01 1.43247174244147e-03 2.57215049542527e-05
2.46100000000000e+01 1.37855741903128e-03 2.48738773479410e-05
2.48477777777778e+01 1.32667228343476e-03 2.40530596121437e-05
2.50855555555556e+01 1.27673996256957e-03 2.32582630750388e-05
2.53233333333333e+01 1.22868695801403e-03 2.24887189498013e-05
2.55611111111111e+01 1.18244253724496e-03 2.17436780020411e-05
2.57988888888889e+01 1.13793863011280e-03 2.10224102020143e-05
2.60366666666667e+01 1.09510972844173e-03 2.03242044866547e-05
2.62744444444444e+01 1.05389278960501e-03 1.96483683988156e-05
2.65122222222222e+01 1.01422714387510e-03 1.89942278141467e-05
2.67500000000000e+01 9.76054404666291e-04 1.83611265735087e-05
2.69877777777778e+01 9.39318383057936e-04 1.77484261078310e-05
2.72255555555556e+01 9.03965004926685e-04 1.71555051418000e-05
2.74633333333333e+01 8.69942231473159e-04 1.65817593752272e-05
2.77011111111111e+01 8.37199982247463e-04 1.60266011082573e-05
2.79388888888889e+01 8.05690061818015e-04 1.54894588631877e-05
2.81766666666667e+01 7.75366088697158e-04 1.49697770875312e-05
2.84144444444444e+01 7.46183427069900e-04 1.44670157798534e-05
2.86522222222222e+01 7.18099121187625e-04 1.39806501811758e-05
2.88900000000000e+01 6.91071831841716e-04 1.35101704077151e-05
2.91277777777778e+01 6.65061775818891e-04 1.30550810838181e-05
2.93655555555556e+01 6.40030667237230e-04 1.26149010336286e-05
2.96033333333333e+01 6.15941661270714e-04 1.21891629624325e-05
2.98411111111111e+01 5.92759299668620e-04 1.17774131042807e-05
3.00788888888889e+01 5.70449458815265e-04 1.13792108716516e-05
3.03166666666667e+01 5.48979299414356e-04 1.09941285646478e-05
3.05544444444444e+01 5.28317218151108e-04 1.06217510314624e-05
3.07922222222222e+01 5.08432801236544e-04 1.02616753773326e-05
3.10300000000000e+01 4.89296779443899e-04 9.91351063700783e-06
3.12677777777778e+01 4.70880985226277e-04 9.57687745073751e-06
3.15055555555556e+01 4.53158311186231e-04 9.25140778357421e-06
3.17433333333333e+01 4.36102670227435e-04 8.93674464073407e-06
3.19811111111111e+01 4.19688956992833e-04 8.63254176281674e-06
3.22188888888889e+01 4.03893011077425e-04 8.33846332520381e-06
3.24566666666667e+01 3.88691581407674e-04 8.05418368080822e-06
3.26944444444444e+01 3.74062292016995e-04 7.77938707203273e-06
3.29322222222222e+01 3.59983609151003e-04 7.51376737830896e-06
3.31700000000000e+01 3.46434809441169e-04 7.25702784096407e-06
3.34077777777778e+01 3.33395949533698e-04 7.00888079268251e-06
3.36455555555556e+01 3.20847836688109e-04 6.76904741869730e-06
3.38833333333333e+01 3.08772000561204e-04 6.53725751729325e-06
3.41211111111111e+01 2.97150665911595e-04 6.31324924840237e-06
3.43588888888889e+01 2.85966726545882e-04 6.09676888687179e-06
3.45966666666667e+01 2.75203720100940e-04 5.88757060716378e-06
3.48344444444444e+01 2.64845803812059e-04 5.68541624860461e-06
3.50722222222222e+01 2.54877731220787e-04 5.49007510660247e-06
3.53100000000000e+01 2.45284829646685e-04 5.30132370981822e-06
3.55477777777778e+01 2.36052978677996e-04 5.11894560192069e-06
3.57855555555556e+01 2.27168589356658e-04 4.94273114647316e-06
3.60233333333333e+01 2.18618584199147e-04 4.77247733266859e-06
3.62611111111111e+01 2.10390377875130e-04 4.60798757413327e-06
3.64988888888889e+01 2.02471858755995e-04 4.44907151213125e-06
3.67366666666667e+01 1.94851371061670e-04 4.29554484148903e-06
3.69744444444444e+01 1.87517697703831e-04 4.14722912425339e-06
3.72122222222222e+01 1.80460043793310e-04 4.00395162222941e-06
3.74500000000000e+01 1.73668020693033e-04 3.86554512086056e-06
3.76877777777778e+01 1.67131630785241e-04 3.73184775720903e-06
3.79255555555556e+01 1.60841252735175e-04 3.60270286473859e-06
3.81633333333333e+01 1.54787627344388e-04 3.47795881955786e-06
3.84011111111111e+01 1.48961843873589e-04 3.35746888272337e-06
3.86388888888889e+01 1.43355326975583e-04 3.24109104636220e-06
3.88766666666667e+01 1.37959824055774e-04 3.12868789618133e-06
3.91144444444444e+01 1.32767393124695e-04 3.02012646626497e-06
3.93522222222222e+01 1.27770391120112e-04 2.91527810755877e-06
3.95900000000000e+01 1.22961462618318e-04 2.81401835105835e-06
3.98277777777778e+01 1.18333529046635e-04 2.71622677445517e-06
4.00655555555556e+01 1.13879778250512e-04 2.62178688095574e-06
4.03033333333333e+01 1.09593654476712e-04 2.53058597969272e-06
4.05411111111111e+01 1.05468848691341e-04 2.44251506397601e-06
4.07788888888889e+01 1.01499289326173e-04 2.35746869270704e-06
4.10166666666667e+01 9.76791333301910e-05 2.27534488359131e-06
4.12544444444444e+01 9.40027575688676e-05 2.19604500152552e-06
4.14922222222222e+01 9.04647505554534e-05 2.11947365688430e-06
4.17300000000000e+01 8.70599044596864e-05 2.04553860060292e-06
4.19677777777778e+01 8.37832074685203e-05 1.97415062207063e-06
4.22055555555556e+01 8.06298363998522e-05 1.90522345582534e-06
4.24433333333333e+01 7.75951496099858e-05 1.83867368974087e-06
4.26811111111111e+01 7.46746801396977e-05 1.77442067209800e-06
4.29188888888889e+01 7.18641291612090e-05 1.71238642119654e-06
4.31566666666667e+01 6.91593596428563e-05 1.65249554345089e-06
4.33944444444444e+01 6.65563902595512e-05 1.59467514848596e-06
4.36322222222222e+01 6.40513895380313e-05 1.53885477138078e-06
4.38700000000000e+01 6.16406701997174e-05 1.48496629300235e-06
4.41077777777778e+01 5.93206837509861e-05 1.43294386256898e-06
4.43455555555556e+01 5.70880152538151e-05 1.38272382656639e-06
4.45833333333333e+01 5.49393783038429e-05 1.33424465896190e-06
4.48211111111111e+01 5.28716101783436e-05 1.28744689090093e-06
4.50588888888889e+01 5.08816671957553e-05 1.24227304240221e-06
4.52966666666667e+01 4.89666202303630e-05 1.19866756014652e-06
4.55344444444444e+01 4.71236504007450e-05 1.15657675341705e-06
4.57722222222222e+01 4.53500449242718e-05 1.11594873519317e-06
4.60100000000000e+01 4.36431931122796e-05 1.07673336212938e-06
4.62477777777778e+01 4.20005825392500e-05 1.03888217627198e-06
4.64855555555556e+01 4.04197953404941e-05 1.00234835135486e-06
4.67233333333333e+01 3.88985046563350e-05 9.67086640174671e-07
4.69611111111111e+01 3.74344711972214e-05 9.33053321780458e-07
4.71988888888889e+01 3.60255399576670e-05 9.00206150211305e-07
4.74366666666667e+01 3.46696370406967e-05 8.68504307607200e-07
4.76744444444444e+01 3.33647666051541e-05 8.37908356193975e-07
4.79122222222222e+01 3.21090079304591e-05 8.08380193979453e-07
4.81500000000000e+01 3.09005125814586e-05 7.79883009818309e-07
4.83877777777778e+01 2.97375016957239e-05 7.52381239813340e-07
4.86255555555556e+01 2.86182633623464e-05 7.25840527013972e-07
4.88633333333333e+01 2.75411501042270e-05 7.00227681985839e-07
4.91011111111111e+01 2.65045764463935e-05 6.75510643369823e-07
4.93388888888889e+01 2.55070165890700e-05 6.51658439626081e-07
4.95766666666667e+01 2.45470021594104e-05 6.28641153914363e-07
4.98144444444444e+01 2.36231200501127e-05 6.06429888299165e-07
5.00522222222222e+01 2.27340103411130e-05 5.84996730624802e-07
5.02900000000000e+01 2.18783642924674e-05 5.64314721049034e-07
5.05277777777778e+01 2.10549224234406e-05 5.44357819594217e-07
5.07655555555556e+01 2.02624726567099e-05 5.25100876070315e-07
5.10033333333333e+01 1.94998485356966e-05 5.06519600686351e-07
5.12411111111111e+01 1.87659275030700e-05 4.88590534735345e-07
5.14788888888889e+01 1.80596292530162e-05 4.71291022178049e-07
5.17166666666667e+01 1.73799141394772e-05 4.54599183474577e-07
5.19544444444444e+01 1.67257816458336e-05 4.38493889019687e-07
5.21922222222222e+01 1.60962689133594e-05 4.22954734497302e-07
5.24300000000000e+01 1.54904493202862e-05 4.07962016064016e-07
5.26677777777778e+01 1.49074311215884e-05 3.93496706301083e-07
5.29055555555556e+01 1.43463561350857e-05 3.79540431871247e-07
5.31433333333333e+01 1.38063984792261e-05 3.66075451711298e-07
5.33811111111111e+01 1.32867633543506e-05 3.53084635331052e-07
5.36188888888889e+01 1.27866858759248e-05 3.40551441789082e-07
5.38566666666667e+01 1.23054299475760e-05 3.28459900278802e-07
5.40944444444444e+01 1.18422871775889e-05 3.16794590488798e-07
5.43322222222222e+01 1.13965758369803e-05 3.05540624341773e-07
5.45700000000000e+01 1.09676398535417e-05 2.94683627660045e-07
5.48077777777778e+01 1.05548478486673e-05 2.84209722407631e-07
5.50455555555556e+01 1.01575922071162e-05 2.74105510156894e-07
5.52833333333333e+01 9.77528818330266e-06 2.64358055967086e-07
5.55211111111111e+01 9.40737303848436e-06 2.54954872375002e-07
5.57588888888889e+01 9.05330521457326e-06 2.45883903892104e-07
5.59966666666667e+01 8.71256353624676e-06 2.37133512654761e-07
5.62344444444444e+01 8.38464644379797e-06 2.28692463951657e-07
5.64722222222222e+01 8.06907125540432e-06 2.20549912740849e-07
5.67100000000000e+01 7.76537345495029e-06 2.12695390146972e-07
5.69477777777778e+01 7.47310601000786e-06 2.05118790388718e-07
5.71855555555556e+01 7.19183871322788e-06 1.97810358585363e-07
5.74233333333333e+01 6.92115754955218e-06 1.90760678877046e-07
5.76611111111111e+01 6.66066408537583e-06 1.83960662649253e-07
5.78988888888889e+01 6.40997488352701e-06 1.77401537134468e-07
5.81366666666667e+01 6.16872093836053e-06 1.71074834839225e-07
5.83744444444444e+01 5.93654713259582e-06 1.64972382909180e-07
5.86122222222222e+01 5.71311171496985e-06 1.59086293204244e-07
5.88500000000000e+01 5.49808579604090e-06 1.53408952381406e-07
5.90877777777778e+01 5.29115286525603e-06 1.47933012297199e-07
5.93255555555556e+01 5.09200832465455e-06 1.42651381040855e-07
5.95633333333333e+01 4.90035904082590e-06 1.37557214204605e-07
5.98011111111111e+01 4.71592291245712e-06 1.32643906244649e-07
6.00388888888889e+01 4.53842845608600e-06 1.27905082121789e-07
6.02766666666667e+01 4.36761440614553e-06 1.23334589532684e-07
6.05144444444444e+01 4.20322933039105e-06 1.18926491114175e-07
6.07522222222222e+01 4.04503126005562e-06 1.14675057156796e-07
6.09900000000000e+01 3.89278733289482e-06 1.10574758338488e-07
6.12277777777778e+01 3.74627345122841e-06 1.06620258694870e-07
6.14655555555556e+01 3.60527395180043e-06 1.02806409041783e-07
6.17033333333333e+01 3.46958128854600e-06 9.91282405759682e-08
6.19411111111111e+01 3.33899572642761e-06 9.55809585513991e-08
6.21788888888889e+01 3.21332504811303e-06 9.21599361622794e-08
6.24166666666667e+01 3.09238427080488e-06 8.88607088485067e-08
6.26544444444444e+01 2.97599537395300e-06 8.56789685935832e-08
6.28922222222222e+01 2.86398703738877e-06 8.26105585875122e-08
6.31300000000000e+01 2.75619438861049e-06 7.96514679140444e-08
6.33677777777778e+01 2.65245876064857e-06 7.67978264123985e-08
6.36055555555556e+01 2.55262745832453e-06 7.40458998631683e-08
6.38433333333333e+01 2.45655353363662e-06 7.13920853073523e-08
6.40811111111111e+01 2.36409556900364e-06 6.88329064267494e-08
6.43188888888889e+01 2.27511746956922e-06 6.63650090765928e-08
6.45566666666667e+01 2.18948826271527e-06 6.39851571202994e-08
6.47944444444445e+01 2.10708190527530e-06 6.16902282667060e-08
6.50322222222222e+01 2.02777709812266e-06 5.94772101688198e-08
6.52700000000000e+01 1.95145710725458e-06 5.73431965466526e-08
6.55077777777778e+01 1.87800959234155e-06 5.52853834383750e-08
6.57455555555556e+01 1.80732644123706e-06 5.33010656837606e-08
6.59833333333333e+01 1.73930361094138e-06 5.13876335066579e-08
6.62211111111111e+01 1.67384097414302e-06 4.95425691462499e-08
6.64588888888889e+01 1.61084217215403e-06 4.77634436001543e-08
6.66966666666667e+01 1.55021447296403e-06 4.60479135835121e-08
6.69344444444445e+01 1.49186863474223e-06 4.43937184951850e-08
6.71722222222222e+01 1.43571877455835e-06 4.27986775712621e-08
6.74100000000000e+01 1.38168224171386e-06 4.12606870602862e-08
6.76477777777778e+01 1.32967949634193e-06 3.97777174926198e-08
6.78855555555556e+01 1.27963399223894e-06 3.83478111161955e-08
6.81233333333333e+01 1.23147206426046e-06 3.69690794056553e-08
6.83611111111111e+01 1.18512281967561e-06 3.56397006096791e-08
6.85988888888889e+01 1.14051803403425e-06 3.43579173802815e-08
6.88366666666667e+01 1.09759205066803e-06 3.31220345564943e-08
6.90744444444445e+01 1.05628168404626e-06 3.19304169567294e-08
6.93122222222222e+01 1.01652612682515e-06 3.07814873052559e-08
6.95500000000000e+01 9.78266860168536e-07 2.96737241772501e-08
6.97877777777778e+01 9.41447567787830e-07 2.86056600127599e-08
7.00255555555556e+01 9.06014052985655e-07 2.75758792498023e-08
7.02633333333333e+01 8.71914158927761e-07 2.65830165116693e-08
7.05011111111111e+01 8.39097691723697e-07 2.56257548237754e-08
7.07388888888889e+01 8.07516346693364e-07 2.47028238904535e-08
7.09766666666667e+01 7.77123637212774e-07 2.38129984820759e-08
7.12144444444444e+01 7.47874826287485e-07 2.29550968308197e-08
7.14522222222222e+01 7.19726860739863e-07 2.21279791224290e-08
7.16900000000000e+01 6.92638307717517e-07 2.13305460033150e-08
7.19277777777778e+01 6.66569293827570e-07 2.05617371380035e-08
7.21655555555556e+01 6.41481446402689e-07 1.98205298518601e-08
7.24033333333333e+01 6.17337837050550e-07 1.91059378137390e-08
7.26411111111111e+01 5.94102927196013e-07 1.84170097412670e-08
7.28788888888889e+01 5.71742515872791e-07 1.77528281498879e-08
7.31166666666667e+01 5.50223689345476e-07 1.71125081807317e-08
7.33544444444444e+01 5.29514772661752e-07 1.64951964363162e-08
7.35922222222222e+01 5.09585283054479e-07 1.59000698849400e-08
7.38300000000000e+01 4.90405884990472e-07 1.53263347774373e-08
7.40677777777778e+01 4.71948347073458e-07 1.47732256006526e-08
7.43055555555556e+01 4.54185500459778e-07 1.42400040919371e-08
7.45433333333333e+01 4.37091198889267e-07 1.37259582829793e-08
7.47811111111111e+01 4.20640280129757e-07 1.32304015608385e-08
7.50188888888889e+01 4.04808529010118e-07 1.27526717608715e-08
