Energy (eV)          EEDF (eV^-(3/2))     First Anisotropy
1.37719298245614e-03 3.68546911317244e+00 1.78393068521148e-03
4.13157894736842e-03 3.66314471944220e+00 2.94676115622310e-03
6.88596491228070e-03 3.64095555368061e+00 3.89266775567262e-03
9.64035087719298e-03 3.61890079678393e+00 4.61287091165575e-03
1.23947368421053e-02 3.59697963446787e+00 5.21484738944448e-03
1.51491228070175e-02 3.57519125772320e+00 5.73918417698863e-03
1.79035087719298e-02 3.55353486204130e+00 6.20686126318885e-03
2.06578947368421e-02 3.53200964796663e+00 6.63053378935219e-03
2.34122807017544e-02 3.51061482098716e+00 7.01858569227941e-03
2.61666666666667e-02 3.48934959119505e+00 7.37693610244151e-03
2.89210526315789e-02 3.46821317364402e+00 7.70996190250528e-03
3.16754385964912e-02 3.44720478799432e+00 8.02101587116396e-03
3.44298245614035e-02 3.42632365870686e+00 8.31273891135987e-03
3.71842105263158e-02 3.40556901499565e+00 8.58725882178226e-03
3.99385964912281e-02 3.38494009063146e+00 8.84632241152088e-03
4.26929824561403e-02 3.36443612408208e+00 9.09138652957707e-03
4.54473684210526e-02 3.34405635847299e+00 9.32368273137666e-03
4.82017543859649e-02 3.32380004142467e+00 9.54426433096630e-03
5.09561403508772e-02 3.30366642515942e+00 9.75404141530906e-03
5.37105263157895e-02 3.28365476646646e+00 9.95380743931013e-03
5.64649122807018e-02 3.26376432656264e+00 1.01442597029459e-02
5.92192982456140e-02 3.24399437117666e+00 1.03260153759656e-02
6.19736842105263e-02 3.22434417051673e+00 1.04996242409048e-02
6.47280701754386e-02 3.20481299914857e+00 1.06655788878206e-02
6.74824561403509e-02 3.18540013606356e+00 1.08243229813202e-02
7.02368421052632e-02 3.16610486464776e+00 1.09762580631797e-02
7.29912280701754e-02 3.14692647257350e+00 1.11217491436244e-02
7.57456140350877e-02 3.12786425185524e+00 1.12611293572951e-02
7.85000000000000e-02 3.10891749881984e+00 1.13947039002604e-02
8.12543859649123e-02 3.09008551400867e+00 1.15227533258411e-02
8.40087719298246e-02 3.07136760224544e+00 1.16455363611294e-02
8.67631578947368e-02 3.05276307252181e+00 1.17632923179735e-02
8.95175438596491e-02 3.03427123803673e+00 1.18762431507751e-02
9.22719298245614e-02 3.01589141616855e+00 1.19845952644328e-02
9.50263157894737e-02 2.99762292839202e+00 1.20885410602524e-02
9.77807017543860e-02 2.97946510031125e+00 1.21882602839830e-02
1.00535087719298e-01 2.96141726163279e+00 1.22839212398199e-02
1.03289473684211e-01 2.94347874603805e+00 1.23756818033413e-02
1.06043859649123e-01 2.92564889136487e+00 1.24636903561157e-02
1.08798245614035e-01 2.90792703940987e+00 1.25480866290316e-02
1.11552631578947e-01 2.89031253595668e+00 1.26290024022656e-02
1.14307017543860e-01 2.87280473075177e+00 1.27065621628665e-02
1.17061403508772e-01 2.85540297748041e+00 1.27808836617997e-02
1.19815789473684e-01 2.83810663388026e+00 1.28520785069529e-02
1.22570175438596e-01 2.82091506130085e+00 1.29202525835661e-02
1.25324561403509e-01 2.80382762510162e+00 1.29855064288671e-02
1.28078947368421e-01 2.78684369448621e+00 1.30479356877427e-02
1.30833333333333e-01 2.76996264247929e+00 1.31076314347777e-02
1.33587719298246e-01 2.75318384590332e+00 1.31646804891674e-02
1.36342105263158e-01 2.73650668535559e+00 1.32191657014225e-02
1.39096491228070e-01 2.71993054518536e+00 1.32711662149342e-02
1.41850877192982e-01 2.70345481347112e+00 1.33207577050742e-02
1.44605263157895e-01 2.68707888199800e+00 1.33680125981772e-02
1.47359649122807e-01 2.67080214623532e+00 1.34130002724708e-02
1.50114035087719e-01 2.65462400531429e+00 1.34557872427577e-02
1.52868421052632e-01 2.63854386200582e+00 1.34964373304524e-02
1.55622807017544e-01 2.62256112269845e+00 1.35350118203988e-02
1.58377192982456e-01 2.60667519737648e+00 1.35715696057242e-02
1.61131578947368e-01 2.59088549959807e+00 1.36061673217909e-02
1.63885964912281e-01 2.57519144647378e+00 1.36388594703266e-02
1.66640350877193e-01 2.55959245864498e+00 1.36696985346095e-02
1.69394736842105e-01 2.54408796026242e+00 1.36987350864246e-02
1.72149122807018e-01 2.52867737896502e+00 1.37260178855723e-02
1.74903508771930e-01 2.51336014585869e+00 1.37515939725458e-02
1.77657894736842e-01 2.49813569549539e+00 1.37755087549571e-02
1.80412280701754e-01 2.48300346585221e+00 1.37978060882280e-02
1.83166666666667e-01 2.46796289831063e+00 1.38185283510102e-02
1.85921052631579e-01 2.45301343763591e+00 1.38377165157648e-02
1.88675438596491e-01 2.43815453195660e+00 1.38554102148751e-02
1.91429824561404e-01 2.42338563274415e+00 1.38716478026466e-02
1.94184210526316e-01 2.40870619479266e+00 1.38864664135073e-02
1.96938596491228e-01 2.39411567619876e+00 1.38999020012997e-02
1.99692982456140e-01 2.37961353841043e+00 1.39119894372011e-02
2.02447368421053e-01 2.36519924599893e+00 1.39227625269437e-02
2.05201754385965e-01 2.35087226684902e+00 1.39322540250982e-02
2.07956140350877e-01 2.33663207206865e+00 1.39404957254539e-02
2.10710526315789e-01 2.32247813596951e+00 1.39475184857561e-02
2.13464912280702e-01 2.30840993604758e+00 1.39533522660787e-02
2.16219298245614e-01 2.29442695296386e+00 1.39580261651109e-02
2.18973684210526e-01 2.28052867052520e+00 1.39615684544890e-02
2.21728070175439e-01 2.26671457566524e+00 1.39640066113082e-02
2.24482456140351e-01 2.25298415842546e+00 1.39653673489365e-02
2.27236842105263e-01 2.23933691193636e+00 1.39656766462362e-02
2.29991228070175e-01 2.22577233239878e+00 1.39649597752946e-02
2.32745614035088e-01 2.21228991906524e+00 1.39632413277627e-02
2.35500000000000e-01 2.19888917422152e+00 1.39605452398923e-02
2.38254385964912e-01 2.18556960316822e+00 1.39568948163378e-02
2.41008771929825e-01 2.17233071420254e+00 1.39523127528001e-02
2.43763157894737e-01 2.15917201860014e+00 1.39468211576047e-02
2.46517543859649e-01 2.14609303059709e+00 1.39404415722611e-02
2.49271929824561e-01 2.13309326737192e+00 1.39331949910549e-02
2.52026315789474e-01 2.12017224902779e+00 1.39251018797397e-02
2.54780701754386e-01 2.10732949857482e+00 1.39161821933775e-02
2.57535087719298e-01 2.09456454191243e+00 1.39064553933825e-02
2.60289473684211e-01 2.08187690781186e+00 1.38959404638039e-02
2.63043859649123e-01 2.06926612789879e+00 1.38846559268947e-02
2.65798245614035e-01 2.05673173663601e+00 1.38726198580038e-02
2.68552631578947e-01 2.04427327130627e+00 1.38598498998282e-02
2.71307017543860e-01 2.03189027199520e+00 1.38463632760643e-02
2.74061403508772e-01 2.01958228157428e+00 1.38321767934703e-02
2.76815789473684e-01 2.00734884572580e+00 1.38173068876303e-02
2.79570175438596e-01 1.99518951279986e+00 1.38017696127024e-02
2.82324561403509e-01 1.98310383392480e+00 1.37855806305096e-02
2.85078947368421e-01 1.97109136294796e+00 1.37687552554504e-02
2.87833333333333e-01 1.95915165641921e+00 1.37513084537816e-02
2.90587719298246e-01 1.94728427357457e+00 1.37332548538284e-02
2.93342105263158e-01 1.93548877631995e+00 1.37146087558010e-02
2.96096491228070e-01 1.92376472921498e+00 1.36953841412297e-02
2.98850877192982e-01 1.91211169945693e+00 1.36755946820428e-02
3.01605263157895e-01 1.90052925686471e+00 1.36552537493012e-02
3.04359649122807e-01 1.88901697386304e+00 1.36343744216071e-02
3.07114035087719e-01 1.87757442546662e+00 1.36129694932049e-02
3.09868421052632e-01 1.86620118926447e+00 1.35910514817811e-02
3.12622807017544e-01 1.85489684540431e+00 1.35686326359829e-02
3.15377192982456e-01 1.84366097657709e+00 1.35457249426743e-02
3.18131578947368e-01 1.83249316800154e+00 1.35223401339207e-02
3.20885964912281e-01 1.82139300740892e+00 1.34984896937331e-02
3.23640350877193e-01 1.81036008502777e+00 1.34741848645895e-02
3.26394736842105e-01 1.79939399356876e+00 1.34494366537185e-02
3.29149122807018e-01 1.78849432820971e+00 1.34242558391700e-02
3.31903508771930e-01 1.77766068658059e+00 1.33986529756809e-02
3.34657894736842e-01 1.76689266874869e+00 1.33726384003453e-02
3.37412280701754e-01 1.75618987720386e+00 1.33462222380949e-02
3.40166666666667e-01 1.74555191684383e+00 1.33194144069989e-02
3.42921052631579e-01 1.73497839495962e+00 1.32922246233921e-02
3.45675438596491e-01 1.72446892122107e+00 1.32646624068358e-02
3.48429824561403e-01 1.71402310766238e+00 1.32367370849201e-02
3.51184210526316e-01 1.70364056866784e+00 1.32084577979123e-02
3.53938596491228e-01 1.69332092095754e+00 1.31798334951288e-02
3.56692982456140e-01 1.68306378360045e+00 1.31508729638219e-02
3.59447368421053e-01 1.67286877791828e+00 1.31215848169855e-02
3.62201754385965e-01 1.66273552755411e+00 1.30919774808773e-02
3.64956140350877e-01 1.65266365843074e+00 1.30620592239626e-02
3.67710526315789e-01 1.64265279873692e+00 1.30318381523974e-02
3.70464912280702e-01 1.63270257891361e+00 1.30013222137656e-02
3.73219298245614e-01 1.62281263164034e+00 1.29705192007054e-02
3.75973684210526e-01 1.61298259182165e+00 1.29394367544268e-02
3.78728070175439e-01 1.60321209657360e+00 1.29080823681264e-02
3.81482456140351e-01 1.59350078521041e+00 1.28764633903080e-02
3.84236842105263e-01 1.58384829923110e+00 1.28445870280026e-02
3.86991228070175e-01 1.57425428230628e+00 1.28124603498960e-02
3.89745614035088e-01 1.56471838026501e+00 1.27800902893713e-02
3.92500000000000e-01 1.55524024108168e+00 1.27474836474650e-02
3.95254385964912e-01 1.54581951486305e+00 1.27146470957390e-02
3.98008771929825e-01 1.53645585383534e+00 1.26815871790710e-02
4.00763157894737e-01 1.52714891233136e+00 1.26483103183747e-02
4.03517543859649e-01 1.51789834677778e+00 1.26148228132424e-02
4.06271929824561e-01 1.50870381568243e+00 1.25811308445149e-02
4.09026315789474e-01 1.49956497962169e+00 1.25472404767850e-02
4.11780701754386e-01 1.49048150122799e+00 1.25131576608311e-02
4.14535087719298e-01 1.48145304517731e+00 1.24788882359882e-02
4.17289473684210e-01 1.47247927817684e+00 1.24444379324564e-02
4.20043859649123e-01 1.46355986895263e+00 1.24098123735505e-02
4.22798245614035e-01 1.45469448823744e+00 1.23750170778887e-02
4.25552631578947e-01 1.44588280875849e+00 1.23400574615255e-02
4.28307017543860e-01 1.43712450522546e+00 1.23049388400321e-02
4.31061403508772e-01 1.42841925431843e+00 1.22696664243073e-02
4.33815789473684e-01 1.41976673469476e+00 1.22342453412925e-02
4.36570175438596e-01 1.41116662692048e+00 1.21986806233578e-02
4.39324561403509e-01 1.40261861351561e+00 1.21629771975065e-02
4.42078947368421e-01 1.39412237892326e+00 1.21271399062874e-02
4.44833333333333e-01 1.38567760949800e+00 1.20911735031895e-02
4.47587719298246e-01 1.37728399349428e+00 1.20550826543835e-02
4.50342105263158e-01 1.36894122105493e+00 1.20188719404238e-02
4.53096491228070e-01 1.36064898419969e+00 1.19825458579077e-02
4.55850877192982e-01 1.35240697681389e+00 1.19461088210962e-02
4.58605263157895e-01 1.34421489463708e+00 1.19095651634942e-02
4.61359649122807e-01 1.33607243525189e+00 1.18729191393970e-02
4.64114035087719e-01 1.32797929807277e+00 1.18361749253966e-02
4.66868421052632e-01 1.31993518433498e+00 1.17993366218551e-02
4.69622807017544e-01 1.31193979708348e+00 1.17624082543446e-02
4.72377192982456e-01 1.30399284116204e+00 1.17253937750531e-02
4.75131578947368e-01 1.29609402320230e+00 1.16882970641554e-02
4.77885964912281e-01 1.28824305161293e+00 1.16511219311550e-02
4.80640350877193e-01 1.28043963656893e+00 1.16138721162001e-02
4.83394736842105e-01 1.27268349000085e+00 1.15765512913613e-02
4.86149122807017e-01 1.26497432558422e+00 1.15391630618894e-02
4.88903508771930e-01 1.25731185872894e+00 1.15017109674402e-02
4.91657894736842e-01 1.24969580656881e+00 1.14641984832705e-02
4.94412280701754e-01 1.24212588795103e+00 1.14266290214128e-02
4.97166666666667e-01 1.23460182342589e+00 1.13890059318223e-02
4.99921052631579e-01 1.22712333523640e+00 1.13513325034977e-02
5.02675438596491e-01 1.21969014730806e+00 1.13136119655790e-02
5.05429824561404e-01 1.21230198523869e+00 1.12758474884207e-02
5.08184210526316e-01 1.20495857628824e+00 1.12380421846443e-02
5.10938596491228e-01 1.19765964936879e+00 1.12001991053781e-02
5.13692982456140e-01 1.19040493504780e+00 1.11623212556998e-02
5.16447368421053e-01 1.18319416549802e+00 1.11244115859662e-02
5.19201754385965e-01 1.17602707452803e+00 1.10864729830123e-02
5.21956140350877e-01 1.16890339755880e+00 1.10485082857946e-02
5.24710526315789e-01 1.16182287161399e+00 1.10105202813929e-02
5.27464912280702e-01 1.15478523531021e+00 1.09725117059169e-02
5.30219298245614e-01 1.14779022884736e+00 1.09344852453931e-02
5.32973684210526e-01 1.14083759399909e+00 1.08964435366346e-02
5.35728070175439e-01 1.13392707410319e+00 1.08583891680948e-02
5.38482456140351e-01 1.12705841405219e+00 1.08203246806995e-02
5.41236842105263e-01 1.12023136028390e+00 1.07822525686674e-02
5.43991228070175e-01 1.11344566077206e+00 1.07441752803107e-02
5.46745614035088e-01 1.10670106501702e+00 1.07060952188197e-02
5.49500000000000e-01 1.09999732403654e+00 1.06680147430355e-02
5.52254385964912e-01 1.09333419035654e+00 1.06299361682036e-02
5.55008771929825e-01 1.08671141800200e+00 1.05918617667124e-02
5.57763157894737e-01 1.08012876248787e+00 1.05537937688209e-02
5.60517543859649e-01 1.07358598081006e+00 1.05157343633699e-02
5.63271929824561e-01 1.06708283143644e+00 1.04776856984805e-02
5.66026315789474e-01 1.06061907429794e+00 1.04396498822372e-02
5.68780701754386e-01 1.05419447077969e+00 1.04016289833589e-02
5.71535087719298e-01 1.04780878371220e+00 1.03636250318587e-02
5.74289473684210e-01 1.04146177736262e+00 1.03256400196890e-02
5.77043859649123e-01 1.03515321742604e+00 1.02876759013745e-02
5.79798245614035e-01 1.02888287101682e+00 1.02497345946351e-02
5.82552631578947e-01 1.02265050665999e+00 1.02118179809954e-02
5.85307017543860e-01 1.01645589428273e+00 1.01739279063841e-02
5.88061403508772e-01 1.01029880520588e+00 1.01360661779545e-02
5.90815789473684e-01 1.00417901214523e+00 1.00982345760117e-02
5.93570175438596e-01 9.98096289173695e-01 1.00604348469903e-02
5.96324561403509e-01 9.92050411742589e-01 1.00226686963276e-02
5.99078947368421e-01 9.86041156663416e-01 9.98493780056622e-03
6.01833333333333e-01 9.80068302099618e-01 9.94724380401889e-03
6.04587719298246e-01 9.74131627558393e-01 9.90958831929275e-03
6.07342105263158e-01 9.68230913882554e-01 9.87197292780622e-03
6.10096491228070e-01 9.62365943242440e-01 9.83439918029618e-03
6.12850877192982e-01 9.56536499127873e-01 9.79686859731648e-03
6.15605263157895e-01 9.50742366340163e-01 9.75938266972571e-03
6.18359649122807e-01 9.44983330984169e-01 9.72194285916740e-03
6.21114035087719e-01 9.39259180460398e-01 9.68455059854152e-03
6.23868421052632e-01 9.33569703457161e-01 9.64720729246839e-03
6.26622807017544e-01 9.27914689942769e-01 9.60991431774292e-03
6.29377192982456e-01 9.22293931157782e-01 9.57267302378285e-03
6.32131578947368e-01 9.16707219607296e-01 9.53548473306698e-03
6.34885964912281e-01 9.11154349053296e-01 9.49835074156596e-03
6.37640350877193e-01 9.05635114507029e-01 9.46127231916868e-03
6.40394736842105e-01 9.00149312221447e-01 9.42425071009884e-03
6.43149122807018e-01 8.94696739683679e-01 9.38728713332302e-03
6.45903508771930e-01 8.89277195607557e-01 9.35038278295273e-03
6.48657894736842e-01 8.83890479926186e-01 9.31353882864180e-03
6.51412280701754e-01 8.78536393784558e-01 9.27675641597539e-03
6.54166666666667e-01 8.73214739532211e-01 9.24003666685112e-03
6.56921052631579e-01 8.67925320715933e-01 9.20338067985431e-03
6.59675438596491e-01 8.62667942072510e-01 9.16678953062916e-03
6.62429824561403e-01 8.57442409521513e-01 9.13026427224070e-03
6.65184210526316e-01 8.52248530158143e-01 9.09380593553154e-03
6.67938596491228e-01 8.47086112246100e-01 9.05741552651173e-03
6.70692982456140e-01 8.41954965217720e-01 9.02109403563269e-03
6.73447368421053e-01 8.36854899645196e-01 8.98484243215613e-03
6.76201754385965e-01 8.31785727255442e-01 8.94866165844552e-03
6.78956140350877e-01 8.26747260915822e-01 8.91255263938514e-03
6.81710526315789e-01 8.21739314627237e-01 8.87651627965779e-03
6.84464912280702e-01 8.16761703517260e-01 8.84055346406308e-03
6.87219298245614e-01 8.11814243833312e-01 8.80466505782960e-03
6.89973684210526e-01 8.06896752935880e-01 8.76885190692149e-03
6.92728070175439e-01 8.02009049291772e-01 8.73311483834101e-03
6.95482456140351e-01 7.97150952467416e-01 8.69745466042605e-03
6.98236842105263e-01 7.92322283122200e-01 8.66187216314226e-03
7.00991228070175e-01 7.87522863001854e-01 8.62636811837143e-03
7.03745614035088e-01 7.82752514931863e-01 8.59094328019397e-03
7.06500000000000e-01 7.78011062810933e-01 8.55559838516737e-03
7.09254385964912e-01 7.73298331604487e-01 8.52033415260075e-03
7.12008771929824e-01 7.68614147338201e-01 8.48515128482425e-03
7.14763157894737e-01 7.63958337091590e-01 8.45005046745390e-03
7.17517543859649e-01 7.59330728991614e-01 8.41503236965324e-03
7.20271929824561e-01 7.54731152206342e-01 8.38009764439086e-03
7.23026315789474e-01 7.50159436938640e-01 8.34524692869288e-03
7.25780701754386e-01 7.45615414419905e-01 8.31048084389158e-03
7.28535087719298e-01 7.41098916903835e-01 8.27579999587026e-03
7.31289473684210e-01 7.36609777660235e-01 8.24120497530477e-03
7.34043859649123e-01 7.32147830968862e-01 8.20669635790123e-03
7.36798245614035e-01 7.27712912113312e-01 8.17227470462898e-03
7.39552631578947e-01 7.23304857374931e-01 8.13794056195096e-03
7.42307017543860e-01 7.18923504026778e-01 8.10369446204957e-03
7.45061403508772e-01 7.14568690327615e-01 8.06953692068326e-03
7.47815789473684e-01 7.10240255521389e-01 8.03546844453821e-03
7.50570175438596e-01 7.05938039814857e-01 8.00148952667731e-03
7.53324561403509e-01 7.01661884388213e-01 7.96760064192514e-03
7.56078947368421e-01 6.97411631383687e-01 7.93380225433747e-03
7.58833333333333e-01 6.93187123899717e-01 7.90009481497648e-03
7.61587719298246e-01 6.88988205985161e-01 7.86647876211418e-03
7.64342105263158e-01 6.84814722633534e-01 7.83295452143186e-03
7.67096491228070e-01 6.80666519777289e-01 7.79952250621577e-03
7.69850877192982e-01 6.76543444282131e-01 7.76618311755218e-03
7.72605263157895e-01 6.72445343941359e-01 7.73293674451926e-03
7.75359649122807e-01 6.68372067470253e-01 7.69978376437373e-03
7.78114035087719e-01 6.64323464500484e-01 7.66672454273520e-03
7.80868421052632e-01 6.60299385574567e-01 7.63375943376985e-03
7.83622807017544e-01 6.56299682140342e-01 7.60088878037022e-03
7.86377192982456e-01 6.52324206545489e-01 7.56811291433056e-03
7.89131578947368e-01 6.48372812032078e-01 7.53543215652154e-03
7.91885964912281e-01 6.44445352731154e-01 7.50284681706306e-03
7.94640350877193e-01 6.40541683657349e-01 7.47035719549282e-03
7.97394736842105e-01 6.36661660703529e-01 7.43796358093179e-03
8.00149122807017e-01 6.32805140635479e-01 7.40566625224794e-03
8.02903508771930e-01 6.28971981086608e-01 7.37346547821915e-03
8.05657894736842e-01 6.25162040552702e-01 7.34136151769197e-03
8.08412280701754e-01 6.21375178386694e-01 7.30935461973816e-03
8.11166666666667e-01 6.17611254793472e-01 7.27744502380970e-03
8.13921052631579e-01 6.13870130824723e-01 7.24563295988905e-03
8.16675438596491e-01 6.10151668373799e-01 7.21391864864072e-03
8.19429824561403e-01 6.06455730170622e-01 7.18230230155981e-03
8.22184210526316e-01 6.02782179776612e-01 7.15078412111506e-03
8.24938596491228e-01 5.99130881579655e-01 7.11936429900682e-03
8.27692982456140e-01 5.95501700793227e-01 7.08804302199386e-03
8.30447368421053e-01 5.91894503438960e-01 7.05682046823243e-03
8.33201754385965e-01 5.88309156354217e-01 7.02569680356546e-03
8.35956140350877e-01 5.84745527182983e-01 6.99467218744457e-03
8.38710526315789e-01 5.81203484370976e-01 6.96374677112518e-03
8.41464912280702e-01 5.77682897160791e-01 6.93292069779805e-03
8.44219298245614e-01 5.74183635587076e-01 6.90219410271781e-03
8.46973684210526e-01 5.70705570471732e-01 6.87156711333070e-03
8.49728070175438e-01 5.67248573419145e-01 6.84103984940099e-03
8.52482456140351e-01 5.63812516811443e-01 6.81061242313407e-03
8.55236842105263e-01 5.60397273803790e-01 6.78028493929803e-03
8.57991228070175e-01 5.57002718319701e-01 6.75005749534328e-03
8.60745614035088e-01 5.53628725046386e-01 6.71993018152178e-03
8.63500000000000e-01 5.50275169430129e-01 6.68990308100425e-03
8.66254385964912e-01 5.46941927671682e-01 6.65997626999439e-03
8.69008771929825e-01 5.43628876721704e-01 6.63014981784199e-03
