Energy (eV)          EEDF (eV^-(3/2))     First Anisotropy
9.25000000000000e-01 2.94837254486426e-02 7.22556848793409e-05
2.77500000000000e+00 2.47969172485351e-02 1.10201867692458e-04
4.62500000000000e+00 2.08551360343442e-02 1.23181472088529e-04
6.47500000000000e+00 1.75399504160823e-02 1.23516047707302e-04
8.32500000000000e+00 1.47517551595918e-02 1.18153807813120e-04
1.01750000000000e+01 1.24067785327953e-02 1.10029797789131e-04
1.20250000000000e+01 1.04345653718190e-02 1.00689972919278e-04
1.38750000000000e+01 8.77586024534556e-03 9.10157835505846e-05
1.57250000000000e+01 7.38082711655970e-03 8.15214433140827e-05
1.75750000000000e+01 6.20755201217290e-03 7.25023876045379e-05
1.94250000000000e+01 5.22078371099862e-03 6.41183817252057e-05
2.12750000000000e+01 4.39087461588382e-03 5.64434731754803e-05
2.31250000000000e+01 3.69288998733968e-03 4.94974160650693e-05
2.49750000000000e+01 3.10585877566641e-03 4.32660227215757e-05
2.68250000000000e+01 2.61214354271442e-03 3.77145750015942e-05
2.86750000000000e+01 2.19691054248936e-03 3.27967350045676e-05
3.05250000000000e+01 1.84768403909591e-03 2.84604661183937e-05
3.23750000000000e+01 1.55397147143797e-03 2.46519349957243e-05
3.42250000000000e+01 1.30694820269417e-03 2.13180356426806e-05
3.60750000000000e+01 1.09919238282084e-03 1.84079682759070e-05
3.79250000000000e+01 9.24461957987854e-04 1.58741695552271e-05
3.97750000000000e+01 7.77507127163230e-04 1.36727998599670e-05
4.16250000000000e+01 6.53912611077460e-04 1.17639313046707e-05
4.34750000000000e+01 5.49964994515569e-04 1.01115373092718e-05
4.53250000000000e+01 4.62541156216792e-04 8.68335451647121e-06
4.71750000000000e+01 3.89014434241978e-04 7.45066664331821e-06
4.90250000000000e+01 3.27175707533531e-04 6.38804478291852e-06
5.08750000000000e+01 2.75167022551873e-04 5.47306792087088e-06
5.27250000000000e+01 2.31425770791076e-04 4.68603975049323e-06
5.45750000000000e+01 1.94637739978987e-04 4.00971238935117e-06
5.64250000000000e+01 1.63697628378338e-04 3.42902370127919e-06
5.82750000000000e+01 1.37675835835256e-04 2.93085217372621e-06
6.01250000000000e+01 1.15790533807420e-04 2.50379137398499e-06
6.19750000000000e+01 9.73841752117689e-05 2.13794468106679e-06
6.38250000000000e+01 8.19037383267401e-05 1.82474009638571e-06
6.56750000000000e+01 6.88841111741985e-05 1.55676435466938e-06
6.75250000000000e+01 5.79341171623931e-05 1.32761519785308e-06
6.93750000000000e+01 4.87247621283536e-05 1.13177047417306e-06
7.12250000000000e+01 4.09793496604062e-05 9.64472634723035e-07
7.30750000000000e+01 3.44651677142333e-05 8.21627185678697e-07
7.49250000000000e+01 2.89864967456503e-05 6.99713690998172e-07
7.67750000000000e+01 2.43787292884290e-05 5.95707989426567e-07
7.86250000000000e+01 2.05034242990294e-05 5.07014377989969e-07
8.04750000000000e+01 1.72441476753082e-05 4.31406612584236e-07
8.23250000000000e+01 1.45029739769817e-05 3.66976678278472e-07
8.41750000000000e+01 1.21975442415277e-05 3.12090383150266e-07
8.60250000000000e+01 1.02585914971757e-05 2.65348926939389e-07
8.78750000000000e+01 8.62785962666406e-06 2.25555687725862e-07
8.97250000000000e+01 7.25635305372223e-06 1.91687555164599e-07
9.15750000000000e+01 6.10286466385438e-06 1.62870217051545e-07
9.34250000000000e+01 5.13273773059005e-06 1.38356877048242e-07
9.52750000000000e+01 4.31682464909586e-06 1.17509945405305e-07
9.71250000000000e+01 3.63061119214820e-06 9.97853018212241e-08
9.89750000000000e+01 3.05347997661025e-06 8.47187805750929e-08
1.00825000000000e+02 2.56809101115644e-06 7.19145732600600e-08
1.02675000000000e+02 2.15986071371061e-06 6.10352843206740e-08
1.04525000000000e+02 1.81652374560114e-06 5.17934096640170e-08
1.06375000000000e+02 1.52776449767627e-06 4.39440393577223e-08
1.08225000000000e+02 1.28490715632656e-06 3.72786123084933e-08
1.10075000000000e+02 1.08065503740292e-06 3.16195742619048e-08
1.11925000000000e+02 9.08871356279925e-07 2.68158108731746e-08
1.13775000000000e+02 7.64394847269029e-07 2.27387453290471e-08
1.15625000000000e+02 6.42884692640135e-07 1.92790053779705e-08
1.17475000000000e+02 5.40690102121449e-07 1.63435779409697e-08
1.19325000000000e+02 4.54740624374686e-07 1.38533809891429e-08
1.21175000000000e+02 3.82453894837954e-07 1.17411923164505e-08
1.23025000000000e+02 3.21658048206839e-07 9.94988341253687e-09
1.24875000000000e+02 2.70526464425394e-07 8.43091402953662e-09
1.26725000000000e+02 2.27522887620842e-07 7.14304939700438e-09
1.28575000000000e+02 1.91355269072399e-07 6.05126750850769e-09
1.30425000000000e+02 1.60936947419510e-07 5.12582860273021e-09
1.32275000000000e+02 1.35353999763186e-07 4.34148299635543e-09
1.34125000000000e+02 1.13837782719568e-07 3.67679688702471e-09
1.35975000000000e+02 9.57418384176348e-08 3.11357871171797e-09
1.37825000000000e+02 8.05224715784351e-08 2.63639118783562e-09
1.39675000000000e+02 6.77224141113381e-08 2.23213634065061e-09
1.41525000000000e+02 5.69570864277326e-08 1.88970268314748e-09
1.43375000000000e+02 4.79030426913425e-08 1.59966530702797e-09
1.45225000000000e+02 4.02882528410245e-08 1.35403100517153e-09
1.47075000000000e+02 3.38839294080096e-08 1.14602170911304e-09
1.48925000000000e+02 2.84976535631219e-08 9.69890518551252e-10
1.50775000000000e+02 2.39675938650653e-08 8.20765447958925e-10
1.52625000000000e+02 2.01576440112280e-08 6.94516739013668e-10
1.54475000000000e+02 1.69533335040217e-08 5.87644204820029e-10
1.56325000000000e+02 1.42583883681293e-08 4.97181598199053e-10
1.58175000000000e+02 1.19918385849117e-08 4.20615444924843e-10
1.60025000000000e+02 1.00855853364194e-08 3.55816165033844e-10
1.61875000000000e+02 8.48235496650053e-09 3.00979630933951e-10
1.63725000000000e+02 7.13397818547038e-09 2.54577588307794e-10
1.65575000000000e+02 5.99994281679582e-09 2.15315601844560e-10
1.67425000000000e+02 5.04617660285797e-09 1.82097388722283e-10
1.69275000000000e+02 4.24402349901558e-09 1.53994573687704e-10
1.71125000000000e+02 3.56938269857525e-09 1.30221044975736e-10
1.72975000000000e+02 3.00198452054837e-09 1.10111213958701e-10
1.74825000000000e+02 2.52478140413725e-09 9.31015865449897e-11
1.76675000000000e+02 2.12343571229103e-09 7.87151437113801e-11
1.78525000000000e+02 1.78588895531480e-09 6.65481045005522e-11
1.80375000000000e+02 1.50199949179260e-09 5.62587093466719e-11
1.82225000000000e+02 1.26323782149578e-09 4.75577164123102e-11
1.84075000000000e+02 1.06243031530782e-09 4.02003501819245e-11
1.85925000000000e+02 8.93543682494027e-10 3.39794810974405e-11
1.87775000000000e+02 7.51503699603734e-10 2.87198485930835e-11
1.89625000000000e+02 6.32042754688576e-10 2.42731683856139e-11
1.91475000000000e+02 5.31571626280706e-10 2.05139890649959e-11
1.93325000000000e+02 4.47071644711667e-10 1.73361835578523e-11
1.95175000000000e+02 3.76003995743084e-10 1.46499784533964e-11
1.97025000000000e+02 3.16233441523552e-10 1.23794389578745e-11
1.98875000000000e+02 2.65964167056779e-10 1.04603397775263e-11
2.00725000000000e+02 2.23685824678785e-10 8.83836286050033e-12
2.02575000000000e+02 1.88128155442633e-10 7.46757194290360e-12
2.04425000000000e+02 1.58222824003583e-10 6.30912148778899e-12
2.06275000000000e+02 1.33071320328246e-10 5.33016408611291e-12
2.08125000000000e+02 1.11917963829931e-10 4.50292588191931e-12
2.09975000000000e+02 9.41271988354891e-11 3.80392424000531e-12
2.11825000000000e+02 7.91644992226546e-11 3.21330582024001e-12
2.13675000000000e+02 6.65803085049505e-11 2.71428656645833e-12
2.15525000000000e+02 5.59965328416530e-11 2.29267795102101e-12
2.17375000000000e+02 4.70951811533461e-11 1.93648621642754e-12
2.19225000000000e+02 3.96088110336836e-11 1.63557338871974e-12
2.21075000000000e+02 3.33124934033848e-11 1.38137055974241e-12
2.22925000000000e+02 2.80170544833280e-11 1.16663539406537e-12
2.24775000000000e+02 2.35633920408375e-11 9.85247051742323e-13
2.26625000000000e+02 1.98176951399585e-11 8.32032764190538e-13
2.28475000000000e+02 1.66674237724213e-11 7.02621186238423e-13
2.30325000000000e+02 1.40179275767209e-11 5.93318397316035e-13
2.32175000000000e+02 1.17896020542380e-11 5.01003059633455e-13
2.34025000000000e+02 9.91549684049708e-12 4.23037778611366e-13
2.35875000000000e+02 8.33930417172694e-12 3.57194165718515e-13
2.37725000000000e+02 7.01366710990711e-12 3.01589488874961e-13
2.39575000000000e+02 5.89875669667605e-12 2.54633121409581e-13
2.41425000000000e+02 4.96107528648325e-12 2.14981276289578e-13
2.43275000000000e+02 4.17245010495583e-12 1.81498745654760e-13
2.45125000000000e+02 3.50918679379421e-12 1.53226563100528e-13
2.46975000000000e+02 2.95135751033028e-12 1.29354673173926e-13
2.48825000000000e+02 2.48220219259543e-12 1.09198833845712e-13
2.50675000000000e+02 2.08762500082075e-12 9.21810972513728e-14
2.52525000000000e+02 1.75577080588058e-12 7.78133151023464e-14
2.54375000000000e+02 1.47666900021344e-12 6.56832006890746e-14
2.56225000000000e+02 1.24193392946736e-12 5.54425517284766e-14
2.58075000000000e+02 1.04451294429511e-12 4.67972994804455e-14
2.59925000000000e+02 8.78474502478516e-13 3.94991012894188e-14
2.61775000000000e+02 7.38829954879758e-13 3.33382374523458e-14
2.63625000000000e+02 6.21383660752266e-13 2.81376103042162e-14
2.65475000000000e+02 5.22606929104175e-13 2.37476746881700e-14
2.67325000000000e+02 4.39531998664161e-13 2.00421554202849e-14
2.69175000000000e+02 3.69662871062321e-13 1.69144297149771e-14
2.71025000000000e+02 3.10900318196060e-13 1.42744714363147e-14
2.72875000000000e+02 2.61478810616379e-13 1.20462700169994e-14
2.74725000000000e+02 2.19913471938745e-13 1.01656503916850e-14
2.76575000000000e+02 1.84955465516118e-13 8.57843170643764e-15
2.78425000000000e+02 1.55554472960221e-13 7.23887221441400e-15
2.80275000000000e+02 1.30827137172778e-13 6.10835592231686e-15
2.82125000000000e+02 1.10030521752992e-13 5.15428344384014e-15
2.83975000000000e+02 9.25397893653121e-14 4.34913534042931e-15
2.85825000000000e+02 7.78294284107898e-14 3.66968115140132e-15
2.87675000000000e+02 6.54574639546439e-14 3.09631147442223e-15
2.89525000000000e+02 5.50521785250514e-14 2.61247397159060e-15
2.91375000000000e+02 4.63009438076329e-14 2.20419714573063e-15
2.93225000000000e+02 3.89408276822699e-14 1.85968824034346e-15
2.95075000000000e+02 3.27506943893064e-14 1.56899373632949e-15
2.96925000000000e+02 2.75445604734825e-14 1.32371270937634e-15
2.98775000000000e+02 2.31660068839659e-14 1.11675482477531e-15
3.00625000000000e+02 1.94834793412155e-14 9.42136024462868e-16
3.02475000000000e+02 1.63863357695154e-14 7.94806040692682e-16
3.04325000000000e+02 1.37815220397153e-14 6.70502782701639e-16
3.06175000000000e+02 1.15907761443836e-14 5.65629413044380e-16
3.08025000000000e+02 9.74827680440930e-15 4.77150580912868e-16
3.09875000000000e+02 8.19866585909618e-15 4.02504829301077e-16
3.11725000000000e+02 6.89538502217186e-15 3.39530657012548e-16
3.13575000000000e+02 5.79927703130391e-15 2.86404108499696e-16
3.15425000000000e+02 4.87740916245690e-15 2.41586095571684e-16
3.17275000000000e+02 4.10208376140806e-15 2.03777934577842e-16
3.19125000000000e+02 3.45000606369702e-15 1.71883818762832e-16
3.20975000000000e+02 2.90158430003892e-15 1.44979144854141e-16
3.22825000000000e+02 2.44034105876624e-15 1.22283781289241e-16
3.24675000000000e+02 2.05241821959832e-15 1.03139507640209e-16
3.26525000000000e+02 1.72616058440160e-15 8.69909748204316e-17
3.28375000000000e+02 1.45176569506619e-15 7.33696370012468e-17
3.30225000000000e+02 1.22098931722605e-15 6.18801917318294e-17
3.32075000000000e+02 1.02689774103814e-15 5.21891369974805e-17
3.33925000000000e+02 8.63659456861567e-16 4.40151149426091e-17
3.35775000000000e+02 7.26369946702139e-16 3.71207634757771e-17
3.37625000000000e+02 6.10904327255734e-16 3.13058404436960e-17
3.39475000000000e+02 5.13793417189409e-16 2.64014217576485e-17
3.41325000000000e+02 4.32119505083588e-16 2.22650058338692e-17
3.43175000000000e+02 3.63428686368024e-16 1.87763828593945e-17
3.45025000000000e+02 3.05657135402019e-16 1.58341494686521e-17
3.46875000000000e+02 2.57069097532825e-16 1.33527680485255e-17
3.48725000000000e+02 2.16204738094606e-16 1.12600856168684e-17
3.50575000000000e+02 1.81836281463541e-16 9.49524049412142e-18
3.52425000000000e+02 1.52931122360602e-16 8.00689619196742e-18
3.54275000000000e+02 1.28620801075735e-16 6.75175139952880e-18
3.56125000000000e+02 1.08174910469536e-16 5.69328292888722e-18
3.57975000000000e+02 9.09791507844973e-17 4.80068521767814e-18
3.59825000000000e+02 7.65168729194308e-17 4.04797567135285e-18
3.61675000000000e+02 6.43535556320666e-17 3.41323992531771e-18
3.63525000000000e+02 5.41237502851194e-17 2.87799515592965e-18
3.65375000000000e+02 4.55201008888200e-17 2.42665298605412e-18
3.67225000000000e+02 3.82841095454918e-17 2.04606641417850e-18
3.69075000000000e+02 3.21983698426116e-17 1.87410378834280e-18
