Energy (eV)          EEDF (eV^-(3/2))     First Anisotropy
1.64444444444444e-04 1.26272874551567e+02 4.45490874808188e-02
4.93333333333333e-04 1.25309660704879e+02 7.35298271462734e-02
8.22222222222222e-04 1.24353794286679e+02 9.69793195444242e-02
1.15111111111111e-03 1.23405219250560e+02 1.14740379475283e-01
1.48000000000000e-03 1.22463879976177e+02 1.29508946444366e-01
1.80888888888889e-03 1.21529721272710e+02 1.42305444300842e-01
2.13777777777778e-03 1.20602688363765e+02 1.53658495786450e-01
2.46666666666667e-03 1.19682726893619e+02 1.63887646362250e-01
2.79555555555556e-03 1.18769782921150e+02 1.73205037438447e-01
3.12444444444444e-03 1.17863802916681e+02 1.81760755820447e-01
3.45333333333333e-03 1.16964733758833e+02 1.89666013732010e-01
3.78222222222222e-03 1.16072522731457e+02 1.97006178252430e-01
4.11111111111111e-03 1.15187117520517e+02 2.03848629980246e-01
4.44000000000000e-03 1.14308466211026e+02 2.10247768889227e-01
4.76888888888889e-03 1.13436517284758e+02 2.16248345108187e-01
5.09777777777778e-03 1.12571219614908e+02 2.21887755929265e-01
5.42666666666667e-03 1.11712522465472e+02 2.27197677925780e-01
5.75555555555556e-03 1.10860375487465e+02 2.32205256246625e-01
6.08444444444444e-03 1.10014728715960e+02 2.36933990533130e-01
6.41333333333333e-03 1.09175532567162e+02 2.41404407402121e-01
6.74222222222222e-03 1.08342737835504e+02 2.45634579509788e-01
7.07111111111111e-03 1.07516295690763e+02 2.49640532155183e-01
7.40000000000000e-03 1.06696157675190e+02 2.53436566029400e-01
7.72888888888889e-03 1.05882275701105e+02 2.57035516376047e-01
8.05777777777778e-03 1.05074602046763e+02 2.60448963442340e-01
8.38666666666667e-03 1.04273089354893e+02 2.63687405008490e-01
8.71555555555555e-03 1.03477690629464e+02 2.66760398975150e-01
9.04444444444444e-03 1.02688359232932e+02 2.69676682305695e-01
9.37333333333333e-03 1.01905048883506e+02 2.72444270916357e-01
9.70222222222222e-03 1.01127713652432e+02 2.75070544156971e-01
1.00311111111111e-02 1.00356307961304e+02 2.77562316659059e-01
1.03600000000000e-02 9.95907865781703e+01 2.79925900184918e-01
1.06888888888889e-02 9.88311046211748e+01 2.82167156160959e-01
1.10177777777778e-02 9.80772175440288e+01 2.84291541643840e-01
1.13466666666667e-02 9.73290811432131e+01 2.86304149664219e-01
1.16755555555556e-02 9.65866515523925e+01 2.88209743578889e-01
1.20044444444444e-02 9.58498852398436e+01 2.90012787759656e-01
1.23333333333333e-02 9.51187390058923e+01 2.91717474495987e-01
1.26622222222222e-02 9.43931699804036e+01 2.93327747774088e-01
1.29911111111111e-02 9.36731356202559e+01 2.94847324369350e-01
1.33200000000000e-02 9.29585937068464e+01 2.96279712733613e-01
1.36488888888889e-02 9.22495023457069e+01 2.97628229427808e-01
1.39777777777778e-02 9.15458199577019e+01 2.98896014340365e-01
1.43066666666667e-02 9.08475052830121e+01 3.00086044419974e-01
1.46355555555556e-02 9.01545173765489e+01 3.01201145470575e-01
1.49644444444444e-02 8.94668156055530e+01 3.02244003231570e-01
1.52933333333333e-02 8.87843596472061e+01 3.03217173305147e-01
1.56222222222222e-02 8.81071094862799e+01 3.04123090163216e-01
1.59511111111111e-02 8.74350254127829e+01 3.04964075337760e-01
1.62800000000000e-02 8.67680680196321e+01 3.05742344982044e-01
1.66088888888889e-02 8.61061982019417e+01 3.06460016406098e-01
1.69377777777778e-02 8.54493771498819e+01 3.07119114495366e-01
1.72666666666667e-02 8.47975663513039e+01 3.07721577634818e-01
1.75955555555556e-02 8.41507275878304e+01 3.08269262671904e-01
1.79244444444444e-02 8.35088229326145e+01 3.08763949847515e-01
1.82533333333333e-02 8.28718147481120e+01 3.09207347253312e-01
1.85822222222222e-02 8.22396656838833e+01 3.09601094946367e-01
1.89111111111111e-02 8.16123386743989e+01 3.09946768753490e-01
1.92400000000000e-02 8.09897969368659e+01 3.10245883877472e-01
1.95688888888889e-02 8.03720039703360e+01 3.10499897920638e-01
1.98977777777778e-02 7.97589235497346e+01 3.10710214077786e-01
2.02266666666667e-02 7.91505197276057e+01 3.10878184130075e-01
2.05555555555556e-02 7.85467568307010e+01 3.11005110825511e-01
2.08844444444444e-02 7.79475994578890e+01 3.11092250412077e-01
2.12133333333333e-02 7.73530124780758e+01 3.11140814926712e-01
2.15422222222222e-02 7.67629610281517e+01 3.11151974334488e-01
2.18711111111111e-02 7.61774105109435e+01 3.11126858530008e-01
2.22000000000000e-02 7.55963265931865e+01 3.11066559284923e-01
2.25288888888889e-02 7.50196752045349e+01 3.10972131793151e-01
2.28577777777778e-02 7.44474225324640e+01 3.10844596461499e-01
2.31866666666667e-02 7.38795350234173e+01 3.10684940607975e-01
2.35155555555556e-02 7.33159793797851e+01 3.10494119707169e-01
2.38444444444444e-02 7.27567225579533e+01 3.10273058835878e-01
2.41733333333333e-02 7.22017317663629e+01 3.10022653969330e-01
2.45022222222222e-02 7.16509744635925e+01 3.09743773203661e-01
2.48311111111111e-02 7.11044183564473e+01 3.09437257909916e-01
2.51600000000000e-02 7.05620313980659e+01 3.09103923888205e-01
2.54888888888889e-02 7.00237817868855e+01 3.08744562211300e-01
2.58177777777778e-02 6.94896379622230e+01 3.08359940325103e-01
2.61466666666667e-02 6.89595686050011e+01 3.07950803100528e-01
2.64755555555556e-02 6.84335426350450e+01 3.07517873523325e-01
2.68044444444444e-02 6.79115292092608e+01 3.07061853588366e-01
2.71333333333333e-02 6.73934977198247e+01 3.06583425090081e-01
2.74622222222222e-02 6.68794177923923e+01 3.06083250373387e-01
2.77911111111111e-02 6.63692592843153e+01 3.05561973047393e-01
2.81200000000000e-02 6.58629922828746e+01 3.05020218720604e-01
2.84488888888889e-02 6.53605871042315e+01 3.04458595480992e-01
2.87777777777778e-02 6.48620142895538e+01 3.03877694622542e-01
2.91066666666667e-02 6.43672446054400e+01 3.03278091343330e-01
2.94355555555556e-02 6.38762490414816e+01 3.02660345140939e-01
2.97644444444444e-02 6.33889988085627e+01 3.02025000401866e-01
3.00933333333333e-02 6.29054653371702e+01 3.01372586912462e-01
3.04222222222222e-02 6.24256202757217e+01 3.00703620346924e-01
3.07511111111111e-02 6.19494354889013e+01 3.00018602733755e-01
3.10800000000000e-02 6.14768830560102e+01 2.99318022951902e-01
3.14088888888889e-02 6.10079352699255e+01 2.98602357009560e-01
3.17377777777778e-02 6.05425646336735e+01 2.97872068552095e-01
3.20666666666667e-02 6.00807438606344e+01 2.97127609351477e-01
3.23955555555556e-02 5.96224458723312e+01 2.96369419536140e-01
3.27244444444444e-02 5.91676437968427e+01 2.95597927999731e-01
3.30533333333333e-02 5.87163109672264e+01 2.94813552747006e-01
3.33822222222222e-02 5.82684209199572e+01 2.94016701225778e-01
3.37111111111111e-02 5.78239473933746e+01 2.93207770645595e-01
3.40400000000000e-02 5.73828643261428e+01 2.92387148328458e-01
3.43688888888889e-02 5.69451458562308e+01 2.91555211870541e-01
3.46977777777778e-02 5.65107663178599e+01 2.90712329514016e-01
3.50266666666667e-02 5.60797002415471e+01 2.89858860505797e-01
3.53555555555556e-02 5.56519223520914e+01 2.88995155229870e-01
3.56844444444444e-02 5.52274075670915e+01 2.88121555502756e-01
3.60133333333333e-02 5.48061309954753e+01 2.87238394816751e-01
3.63422222222222e-02 5.43880679360408e+01 2.86345998574223e-01
3.66711111111111e-02 5.39731938760080e+01 2.85444684313273e-01
3.70000000000000e-02 5.35614844895809e+01 2.84534761965338e-01
3.73288888888889e-02 5.31529156369581e+01 2.83616533946254e-01
3.76577777777778e-02 5.27474633615977e+01 2.82690295438733e-01
3.79866666666667e-02 5.23451038901426e+01 2.81756334664920e-01
3.83155555555556e-02 5.19458136305792e+01 2.80814932959309e-01
3.86444444444444e-02 5.15495691708549e+01 2.79866364989773e-01
3.89733333333333e-02 5.11563472775042e+01 2.78910898934014e-01
3.93022222222222e-02 5.07661248942878e+01 2.77948796650027e-01
3.96311111111111e-02 5.03788791408403e+01 2.76980313840791e-01
3.99600000000000e-02 4.99945873113284e+01 2.76005700249502e-01
4.02888888888889e-02 4.96132268734970e+01 2.75025199706720e-01
4.06177777777778e-02 4.92347754662076e+01 2.74039050351648e-01
4.09466666666667e-02 4.88592108992762e+01 2.73047484845306e-01
4.12755555555556e-02 4.84865111517863e+01 2.72050730406397e-01
4.16044444444444e-02 4.81166543707973e+01 2.71049008981368e-01
4.19333333333333e-02 4.77496188700635e+01 2.70042537375747e-01
4.22622222222222e-02 4.73853831287629e+01 2.69031527381440e-01
4.25911111111111e-02 4.70239257902351e+01 2.68016185899909e-01
4.29200000000000e-02 4.66652256607288e+01 2.66996715094016e-01
4.32488888888889e-02 4.63092617084876e+01 2.65973312407453e-01
4.35777777777778e-02 4.59560130615253e+01 2.64946170742364e-01
4.39066666666667e-02 4.56054590074006e+01 2.63915478630162e-01
4.42355555555556e-02 4.52575789916676e+01 2.62881420243867e-01
4.45644444444444e-02 4.49123526166700e+01 2.61844175532095e-01
4.48933333333333e-02 4.45697596403453e+01 2.60803920319014e-01
4.52222222222222e-02 4.42297799750386e+01 2.59760826401301e-01
4.55511111111111e-02 4.38923936863242e+01 2.58715061642319e-01
4.58800000000000e-02 4.35575809918370e+01 2.57666790092862e-01
4.62088888888889e-02 4.32253222603984e+01 2.56616171992818e-01
4.65377777777778e-02 4.28955980100010e+01 2.55563363916672e-01
4.68666666666667e-02 4.25683889075368e+01 2.54508518913056e-01
4.71955555555556e-02 4.22436757673714e+01 2.53451786502151e-01
4.75244444444444e-02 4.19214395502191e+01 2.52393312783310e-01
4.78533333333333e-02 4.16016613620263e+01 2.51333240512505e-01
4.81822222222222e-02 4.12843224528640e+01 2.50271709177617e-01
4.85111111111111e-02 4.09694042158285e+01 2.49208855071646e-01
4.88400000000000e-02 4.06568881859500e+01 2.48144811390459e-01
4.91688888888889e-02 4.03467560393613e+01 2.47079708223195e-01
4.94977777777778e-02 4.00389895914647e+01 2.46013672673429e-01
4.98266666666667e-02 3.97335707966296e+01 2.44946828975005e-01
5.01555555555556e-02 3.94304817468784e+01 2.43879298479967e-01
5.04844444444444e-02 3.91297046708357e+01 2.42811199746443e-01
5.08133333333333e-02 3.88312219326869e+01 2.41742648599567e-01
5.11422222222222e-02 3.85350160311440e+01 2.40673758190873e-01
5.14711111111111e-02 3.82410695984195e+01 2.39604639056069e-01
5.18000000000000e-02 3.79493653992079e+01 2.38535399195379e-01
5.21288888888889e-02 3.76598863298963e+01 2.37466144056849e-01
5.24577777777778e-02 3.73726154168939e+01 2.36396976638611e-01
5.27866666666667e-02 3.70875358163086e+01 2.35327997586351e-01
5.31155555555556e-02 3.68046308127345e+01 2.34259305175341e-01
5.34444444444444e-02 3.65238838182710e+01 2.33190995383177e-01
5.37733333333333e-02 3.62452783715507e+01 2.32123161938371e-01
5.41022222222222e-02 3.59687981367740e+01 2.31055896367785e-01
5.44311111111111e-02 3.56944269027515e+01 2.29989288042831e-01
5.47600000000000e-02 3.54221485819531e+01 2.28923424246376e-01
5.50888888888889e-02 3.51519472097605e+01 2.27858390151669e-01
5.54177777777778e-02 3.48838069429408e+01 2.26794268909680e-01
5.57466666666667e-02 3.46177120593116e+01 2.25731141732018e-01
5.60755555555556e-02 3.43536469566201e+01 2.24669087869395e-01
5.64044444444444e-02 3.40915961516275e+01 2.23608184672578e-01
5.67333333333333e-02 3.38315442792020e+01 2.22548507631596e-01
5.70622222222222e-02 3.35734760914175e+01 2.21490130414013e-01
5.73911111111111e-02 3.33173764566595e+01 2.20433124902277e-01
5.77200000000000e-02 3.30632303587381e+01 2.19377561250075e-01
5.80488888888889e-02 3.28110228961803e+01 2.18323507858745e-01
5.83777777777778e-02 3.25607392808342e+01 2.17271031452533e-01
5.87066666666667e-02 3.23123648375272e+01 2.16220197149847e-01
5.90355555555555e-02 3.20658850030296e+01 2.15171068439698e-01
5.93644444444444e-02 3.18212853252005e+01 2.14123707233330e-01
5.96933333333333e-02 3.15785514621403e+01 2.13078173896131e-01
6.00222222222222e-02 3.13376691813500e+01 2.12034527278825e-01
6.03511111111111e-02 3.10986243588965e+01 2.10992824747969e-01
6.06800000000000e-02 3.08614029785847e+01 2.09953122233816e-01
6.10088888888889e-02 3.06259911312889e+01 2.08915474205496e-01
6.13377777777778e-02 3.03923750136738e+01 2.07879933736390e-01
6.16666666666667e-02 3.01605409278520e+01 2.06846552565794e-01
6.19955555555556e-02 2.99304752804238e+01 2.05815381074515e-01
6.23244444444444e-02 2.97021645816805e+01 2.04786468328903e-01
6.26533333333333e-02 2.94755954448133e+01 2.03759862107069e-01
6.29822222222222e-02 2.92507545851284e+01 2.02735608924515e-01
6.33111111111111e-02 2.90276288192683e+01 2.01713754059203e-01
6.36400000000000e-02 2.88062050644384e+01 2.00694341592573e-01
6.39688888888889e-02 2.85864703377768e+01 1.99677414384323e-01
6.42977777777778e-02 2.83684117551805e+01 1.98663014129576e-01
6.46266666666667e-02 2.81520165309652e+01 1.97651181412613e-01
6.49555555555556e-02 2.79372719769759e+01 1.96641955682314e-01
6.52844444444444e-02 2.77241655018436e+01 1.95635375289988e-01
6.56133333333333e-02 2.75126846102465e+01 1.94631477511084e-01
6.59422222222222e-02 2.73028169021777e+01 1.93630298566384e-01
6.62711111111111e-02 2.70945500722178e+01 1.92631873642770e-01
6.66000000000000e-02 2.68878719088136e+01 1.91636236928605e-01
6.69288888888889e-02 2.66827702936842e+01 1.90643421588690e-01
6.72577777777778e-02 2.64792332007418e+01 1.89653459814525e-01
6.75866666666667e-02 2.62772486957575e+01 1.88666382871389e-01
6.79155555555555e-02 2.60768049355372e+01 1.87682221074124e-01
6.82444444444444e-02 2.58778901672268e+01 1.86701003819881e-01
6.85733333333333e-02 2.56804927276236e+01 1.85722759606138e-01
6.89022222222222e-02 2.54846010424920e+01 1.84747516048385e-01
6.92311111111111e-02 2.52902036258854e+01 1.83775299897407e-01
6.95600000000000e-02 2.50972890794721e+01 1.82806137069959e-01
6.98888888888889e-02 2.49058460919764e+01 1.81840052624319e-01
7.02177777777778e-02 2.47158634381860e+01 1.80877070804661e-01
7.05466666666667e-02 2.45273299786254e+01 1.79917215082537e-01
7.08755555555556e-02 2.43402346587913e+01 1.78960508133333e-01
7.12044444444444e-02 2.41545665085044e+01 1.78006971864691e-01
7.15333333333333e-02 2.39703146412665e+01 1.77056627431620e-01
7.18622222222222e-02 2.37874682536216e+01 1.76109495251289e-01
7.21911111111111e-02 2.36060166245234e+01 1.75165595017489e-01
7.25200000000000e-02 2.34259491147057e+01 1.74224945727374e-01
7.28488888888889e-02 2.32472551661566e+01 1.73287565657828e-01
7.31777777777778e-02 2.30699243012050e+01 1.72353472404850e-01
7.35066666666667e-02 2.28939461222024e+01 1.71422682920205e-01
7.38355555555556e-02 2.27193103108139e+01 1.70495213488738e-01
7.41644444444444e-02 2.25460066274133e+01 1.69571079753239e-01
7.44933333333333e-02 2.23740249104826e+01 1.68650296727140e-01
7.48222222222222e-02 2.22033550760160e+01 1.67732878806891e-01
7.51511111111111e-02 2.20339871169290e+01 1.66818839784159e-01
7.54800000000000e-02 2.18659111024717e+01 1.65908192869266e-01
7.58088888888889e-02 2.16991171777334e+01 1.65000950668485e-01
7.61377777777778e-02 2.15335955628013e+01 1.64097125219091e-01
7.64666666666667e-02 2.13693365524525e+01 1.63196728021933e-01
7.67955555555555e-02 2.12063305154958e+01 1.62299770019728e-01
7.71244444444444e-02 2.10445678942073e+01 1.61406261618850e-01
7.74533333333333e-02 2.08840392037694e+01 1.60516212700040e-01
7.77822222222222e-02 2.07247350317151e+01 1.59629632628878e-01
7.81111111111111e-02 2.05666460373763e+01 1.58746530266039e-01
7.84400000000000e-02 2.04097629513356e+01 1.57866913987886e-01
7.87688888888889e-02 2.02540765749615e+01 1.56990791664860e-01
7.90977777777778e-02 2.00995777796323e+01 1.56118170692787e-01
7.94266666666667e-02 1.99462575064388e+01 1.55249058021850e-01
7.97555555555556e-02 1.97941067655738e+01 1.54383460135947e-01
8.00844444444444e-02 1.96431166358046e+01 1.53521383071894e-01
8.04133333333333e-02 1.94932782639496e+01 1.52662832428468e-01
8.07422222222222e-02 1.93445828643601e+01 1.51807813375265e-01
8.10711111111111e-02 1.91970217184042e+01 1.50956330661374e-01
8.14000000000000e-02 1.90505861739564e+01 1.50108388633555e-01
8.17288888888889e-02 1.89052676449602e+01 1.49263991215725e-01
8.20577777777778e-02 1.87610576107120e+01 1.48423141936982e-01
8.23866666666667e-02 1.86179476155758e+01 1.47585843957483e-01
8.27155555555556e-02 1.84759292684154e+01 1.46752100048896e-01
8.30444444444444e-02 1.83349942421025e+01 1.45921912611350e-01
8.33733333333333e-02 1.81951342730285e+01 1.45095283681093e-01
8.37022222222222e-02 1.80563411606198e+01 1.44272214938025e-01
8.40311111111111e-02 1.79186067668570e+01 1.43452707713031e-01
8.43600000000000e-02 1.77819230157981e+01 1.42636763004076e-01
8.46888888888889e-02 1.76462818931679e+01 1.41824381456817e-01
8.50177777777778e-02 1.75116754456967e+01 1.41015563389731e-01
8.53466666666667e-02 1.73780957808467e+01 1.40210308817303e-01
8.56755555555555e-02 1.72455350662849e+01 1.39408617431546e-01
8.60044444444444e-02 1.71139855294234e+01 1.38610488617029e-01
8.63333333333333e-02 1.69834394569639e+01 1.37815921457373e-01
8.66622222222222e-02 1.68538891944455e+01 1.37024914741636e-01
8.69911111111111e-02 1.67253271457957e+01 1.36237466970595e-01
8.73200000000000e-02 1.65977457728852e+01 1.35453576370957e-01
8.76488888888889e-02 1.64711375951431e+01 1.34673240877103e-01
8.79777777777778e-02 1.63454951889453e+01 1.33896458153727e-01
8.83066666666667e-02 1.62208111873530e+01 1.33123225616567e-01
8.86355555555556e-02 1.60970782796232e+01 1.32353540415046e-01
8.89644444444444e-02 1.59742892107791e+01 1.31587399445603e-01
8.92933333333333e-02 1.58524367811852e+01 1.30824799357223e-01
8.96222222222222e-02 1.57315138461250e+01 1.30065736556868e-01
8.99511111111111e-02 1.56115133153825e+01 1.29310207214804e-01
9.02800000000000e-02 1.54924281528256e+01 1.28558207277264e-01
9.06088888888889e-02 1.53742513760463e+01 1.27809732449251e-01
9.09377777777778e-02 1.52569760557942e+01 1.27064778214936e-01
9.12666666666667e-02 1.51405953157279e+01 1.26323339856303e-01
9.15955555555556e-02 1.50251023319590e+01 1.25585412436826e-01
9.19244444444444e-02 1.49104903326520e+01 1.24850990813333e-01
9.22533333333333e-02 1.47967525976271e+01 1.24120069640720e-01
9.25822222222222e-02 1.46838824579662e+01 1.23392643376559e-01
9.29111111111111e-02 1.45718732956221e+01 1.22668706285625e-01
9.32400000000000e-02 1.44607185430302e+01 1.21948252451200e-01
9.35688888888889e-02 1.43504116827704e+01 1.21231275758934e-01
9.38977777777778e-02 1.42409462470435e+01 1.20517769915232e-01
9.42266666666667e-02 1.41323158174342e+01 1.19807728464043e-01
9.45555555555555e-02 1.40245140244871e+01 1.19101144771539e-01
9.48844444444444e-02 1.39175345473333e+01 1.18398012036705e-01
9.52133333333333e-02 1.38113711133196e+01 1.17698323295338e-01
9.55422222222222e-02 1.37060174976408e+01 1.17002071423982e-01
9.58711111111111e-02 1.36014675229749e+01 1.16309249143793e-01
9.62000000000000e-02 1.34977150591205e+01 1.15619849030611e-01
9.65288888888889e-02 1.33947540226803e+01 1.14933863499826e-01
9.68577777777778e-02 1.32925783765757e+01 1.14251284823008e-01
9.71866666666667e-02 1.31911821298223e+01 1.13572105143033e-01
9.75155555555555e-02 1.30905593371350e+01 1.12896316459742e-01
9.78444444444444e-02 1.29907040985797e+01 1.12223910639377e-01
9.81733333333333e-02 1.28916105592269e+01 1.11554879418004e-01
9.85022222222222e-02 1.27932729088090e+01 1.10889214404865e-01
9.88311111111111e-02 1.26956853813792e+01 1.10226907085655e-01
9.91600000000000e-02 1.25988422549735e+01 1.09567948831525e-01
9.94888888888889e-02 1.25027378513137e+01 1.08912330884928e-01
9.98177777777778e-02 1.24073665353585e+01 1.08260044374654e-01
1.00146666666667e-01 1.23127227150896e+01 1.07611080335089e-01
1.00475555555556e-01 1.22188008411820e+01 1.06965429670411e-01
1.00804444444444e-01 1.21255954065299e+01 1.06323083185777e-01
1.01133333333333e-01 1.20331009461107e+01 1.05684031600151e-01
1.01462222222222e-01 1.19413120365892e+01 1.05048265522631e-01
1.01791111111111e-01 1.18502232959997e+01 1.04415775465876e-01
1.02120000000000e-01 1.17598293834302e+01 1.03786551901911e-01
1.02448888888889e-01 1.16701249990573e+01 1.03160585105322e-01
1.02777777777778e-01 1.15811048827856e+01 1.02537865265643e-01
1.03106666666667e-01 1.14927638149951e+01 1.01918382587350e-01
1.03435555555556e-01 1.14050966158814e+01 1.01302127141269e-01
1.03764444444444e-01 1.13180981451519e+01 1.00689088917575e-01
