Energy (eV)          EEDF (eV^-(3/2))     First Anisotropy
8.58333333333333e-03 6.68819859698114e+00 9.54479088375487e-03
2.57500000000000e-02 6.31545626523572e+00 1.53736504069029e-02
4.29166666666667e-02 5.96348736778305e+00 1.92936178901292e-02
6.00833333333333e-02 5.63113417159449e+00 2.17206044720323e-02
7.72500000000000e-02 5.31730346723089e+00 2.33279448788473e-02
9.44166666666667e-02 5.02096297165865e+00 2.43904217538052e-02
1.11583333333333e-01 4.74113793160065e+00 2.50596763074265e-02
1.28750000000000e-01 4.47690791779934e+00 2.54323318818061e-02
1.45916666666667e-01 4.22740380035532e+00 2.55753489085801e-02
1.63083333333333e-01 3.99180488348360e+00 2.55377277967654e-02
1.80250000000000e-01 3.76933621167429e+00 2.53567001349813e-02
1.97416666666667e-01 3.55926601979504e+00 2.50613319409731e-02
2.14583333333333e-01 3.36090332280085e+00 2.46747740619431e-02
2.31750000000000e-01 3.17359564625215e+00 2.42157468602415e-02
2.48916666666667e-01 2.99672687968000e+00 2.36995636153986e-02
2.66083333333333e-01 2.82971524787099e+00 2.31388611282459e-02
2.83250000000000e-01 2.67201139943524e+00 2.25441369830545e-02
3.00416666666667e-01 2.52309659955000e+00 2.19241546650794e-02
3.17583333333333e-01 2.38248102221464e+00 2.12862552114573e-02
3.34750000000000e-01 2.24970214057940e+00 2.06366013775205e-02
3.51916666666667e-01 2.12432320537588e+00 1.99803720154016e-02
3.69083333333333e-01 2.00593180727240e+00 1.93219186620251e-02
3.86250000000000e-01 1.89413852141317e+00 1.86648932281099e-02
4.03416666666667e-01 1.78857562635964e+00 1.80123532689949e-02
4.20583333333333e-01 1.68889589378286e+00 1.73668493604092e-02
4.37750000000000e-01 1.59477144711091e+00 1.67304982492382e-02
4.54916666666667e-01 1.50589268295703e+00 1.61050445858593e-02
4.72083333333333e-01 1.42196725217611e+00 1.54919131878205e-02
4.89250000000000e-01 1.34271909882401e+00 1.48922535744600e-02
5.06416666666667e-01 1.26788755206335e+00 1.43069781501385e-02
5.23583333333333e-01 1.19722646831352e+00 1.37367949595962e-02
5.40750000000000e-01 1.13050342205001e+00 1.31822359319538e-02
5.57916666666667e-01 1.06749894124027e+00 1.26436813580227e-02
5.75083333333333e-01 1.00800578511056e+00 1.21213810681575e-02
5.92250000000000e-01 9.51828262803437e-01 1.16154728348837e-02
6.09416666666667e-01 8.98781589656827e-01 1.11259984342324e-02
6.26583333333333e-01 8.48691279142939e-01 1.06529176127920e-02
6.43750000000000e-01 8.01392569186990e-01 1.01961202802693e-02
6.60916666666667e-01 7.56729880188700e-01 9.75543719577804e-03
6.78083333333333e-01 7.14556303081650e-01 9.33064928175549e-03
6.95250000000000e-01 6.74733116304528e-01 8.92149577069634e-03
7.12416666666667e-01 6.37129329483929e-01 8.52768135836697e-03
7.29583333333333e-01 6.01621252417575e-01 8.14888243652748e-03
7.46750000000000e-01 5.68092088375443e-01 7.78475254215225e-03
7.63916666666667e-01 5.36431549904571e-01 7.43492713977448e-03
7.81083333333333e-01 5.06535495942867e-01 7.09902777610067e-03
7.98250000000000e-01 4.78305589389660e-01 6.77666570125686e-03
8.15416666666667e-01 4.51648973633267e-01 6.46744503727620e-03
8.32583333333333e-01 4.26477967025079e-01 6.17096551369545e-03
8.49750000000000e-01 4.02709774564205e-01 5.88682483687922e-03
8.66916666666667e-01 3.80266215550334e-01 5.61462075006812e-03
8.84083333333333e-01 3.59073466350687e-01 5.35395279293365e-03
9.01250000000000e-01 3.39061817647775e-01 5.10442380859494e-03
9.18416666666667e-01 3.20165445137057e-01 4.86564123912772e-03
9.35583333333333e-01 3.02322192952891e-01 4.63721821199005e-03
9.52750000000000e-01 2.85473369279449e-01 4.41877445241909e-03
9.69916666666667e-01 2.69563553289819e-01 4.20993705175883e-03
9.87083333333333e-01 2.54540412803964e-01 4.01034109056615e-03
1.00425000000000e+00 2.40354532200432e-01 3.81963014039548e-03
1.02141666666667e+00 2.26959249903668e-01 3.63745667873370e-03
1.03858333333333e+00 2.14310504721855e-01 3.46348238700414e-03
1.05575000000000e+00 2.02366691138920e-01 3.29737836607944e-03
1.07291666666667e+00 1.91088522465231e-01 3.13882532576457e-03
1.09008333333333e+00 1.80438901315806e-01 2.98751366180791e-03
1.10725000000000e+00 1.70382797892737e-01 2.84314347813917e-03
1.12441666666667e+00 1.60887134732187e-01 2.70542461651953e-03
1.14158333333333e+00 1.51920677665012e-01 2.57407659319079e-03
1.15875000000000e+00 1.43453933324558e-01 2.44882850223382e-03
1.17591666666667e+00 1.35459052110555e-01 2.32941893370293e-03
1.19308333333333e+00 1.27909736392233e-01 2.21559582319361e-03
1.21025000000000e+00 1.20781154205720e-01 2.10711628127554e-03
1.22741666666667e+00 1.14049857555377e-01 2.00374644174630e-03
1.24458333333333e+00 1.07693705132189e-01 1.90526125953261e-03
1.26175000000000e+00 1.01691789644135e-01 1.81144429761317e-03
1.27891666666667e+00 9.60243690306577e-02 1.72208753460845e-03
1.29608333333333e+00 9.06728014006595e-02 1.63699113561638e-03
1.31325000000000e+00 8.56194838427566e-02 1.55596321836781e-03
1.33041666666667e+00 8.08477945118186e-02 1.47881964045938e-03
1.34758333333333e+00 7.63420378540679e-02 1.40538375998774e-03
1.36475000000000e+00 7.20873930840725e-02 1.33548619575692e-03
1.38191666666667e+00 6.80698654248952e-02 1.26896460805963e-03
1.39908333333333e+00 6.42762399935227e-02 1.20566346043679e-03
1.41625000000000e+00 6.06940384177158e-02 1.14543378380256e-03
1.43341666666667e+00 5.73114777829510e-02 1.08813296008278e-03
1.45058333333333e+00 5.41174318087184e-02 1.03362449247157e-03
1.46775000000000e+00 5.11013943194580e-02 9.81777779806316e-04
1.48491666666667e+00 4.82534446801662e-02 9.32467909080999e-04
1.50208333333333e+00 4.55642151107031e-02 8.85575438760114e-04
1.51925000000000e+00 4.30248599280946e-02 8.40986187229406e-04
1.53641666666667e+00 4.06270264452167e-02 7.98591037859051e-04
1.55358333333333e+00 3.83628274525851e-02 7.58285737952376e-04
1.57075000000000e+00 3.62248153202977e-02 7.19970703336351e-04
1.58791666666667e+00 3.42059574963177e-02 6.83550837996491e-04
1.60508333333333e+00 3.22996133387014e-02 6.48935349855962e-04
1.62225000000000e+00 3.04995123094578e-02 6.16037572348230e-04
1.63941666666667e+00 2.87997333454335e-02 5.84774799494465e-04
1.65658333333333e+00 2.71946853531390e-02 5.55068118762399e-04
1.67375000000000e+00 2.56790888480668e-02 5.26842249633256e-04
1.69091666666667e+00 2.42479585860885e-02 5.00025394206038e-04
1.70808333333333e+00 2.28965871418105e-02 4.74549086754272e-04
1.72525000000000e+00 2.16205294490039e-02 4.50348048751648e-04
1.74241666666667e+00 2.04155881771727e-02 4.27360054565344e-04
1.75958333333333e+00 1.92777999059324e-02 4.05525796924261e-04
1.77675000000000e+00 1.82034221081960e-02 3.84788757522963e-04
1.79391666666667e+00 1.71889208380245e-02 3.65095087034411e-04
1.81108333333333e+00 1.62309590906059e-02 3.46393485460632e-04
1.82825000000000e+00 1.53263858422494e-02 3.28635087234243e-04
1.84541666666667e+00 1.44722256842090e-02 3.11773354585175e-04
1.86258333333333e+00 1.36656690227337e-02 2.95763971616598e-04
1.87975000000000e+00 1.29040628508930e-02 2.80564742724692e-04
1.89691666666667e+00 1.21849020208051e-02 2.66135498254325e-04
1.91408333333333e+00 1.15058209928587e-02 2.52438001094520e-04
1.93125000000000e+00 1.08645860657358e-02 2.39435857209013e-04
1.94841666666667e+00 1.02590880280866e-02 2.27094432483001e-04
1.96558333333333e+00 9.68733521201886e-03 2.15380770638315e-04
1.98275000000000e+00 9.14744695091204e-03 2.04263514686597e-04
1.99991666666667e+00 8.63764739251368e-03 1.93712833881868e-04
2.01708333333333e+00 8.15625965050878e-03 1.83700351797256e-04
2.03425000000000e+00 7.70170029612457e-03 1.74199077562950e-04
2.05141666666667e+00 7.27247414908092e-03 1.65183341881733e-04
2.06858333333333e+00 6.86716935365140e-03 1.56628734173336e-04
2.08575000000000e+00 6.48445274070816e-03 1.48512042528639e-04
2.10291666666667e+00 6.12306544197371e-03 1.40811197806252e-04
2.12008333333333e+00 5.78181874442796e-03 1.33505218827801e-04
2.13725000000000e+00 5.45959018525235e-03 1.26574160059628e-04
2.15441666666667e+00 5.15531985925779e-03 1.19999062879932e-04
2.17158333333333e+00 4.86800692859659e-03 1.13761907891716e-04
2.18875000000000e+00 4.59670633479675e-03 1.07845569427587e-04
2.20591666666667e+00 4.34052568980756e-03 1.02233773153116e-04
2.22308333333333e+00 4.09862233742694e-03 9.69110546492235e-05
2.24025000000000e+00 3.87020058491507e-03 9.18627199203432e-05
2.25741666666667e+00 3.65450908541554e-03 8.70748085766880e-05
2.27458333333333e+00 3.45083836388442e-03 8.25340579212432e-05
2.29175000000000e+00 3.25851848618018e-03 7.82278687238839e-05
2.30891666666667e+00 3.07691685519726e-03 7.41442733003899e-05
2.32608333333333e+00 2.90543612787051e-03 7.02719044189737e-05
2.34325000000000e+00 2.74351225261128e-03 6.65999656810880e-05
2.36041666666667e+00 2.59061261376535e-03 6.31182038866498e-05
2.37758333333333e+00 2.44623427787371e-03 5.98168821498443e-05
2.39475000000000e+00 2.30990234124820e-03 5.66867543002975e-05
2.41191666666667e+00 2.18116836770043e-03 5.37190409909932e-05
2.42908333333333e+00 2.05960891201231e-03 5.09054064822764e-05
2.44625000000000e+00 1.94482412864217e-03 4.82379365442587e-05
2.46341666666667e+00 1.83643645637253e-03 4.57091178257728e-05
2.48058333333333e+00 1.73408937517136e-03 4.33118178287649e-05
2.49775000000000e+00 1.63744623476370e-03 4.10392658540509e-05
2.51491666666667e+00 1.54618914717245e-03 3.88850352061446e-05
2.53208333333333e+00 1.46001794007792e-03 3.68430259375649e-05
2.54925000000000e+00 1.37864917051074e-03 3.49074484354246e-05
2.56641666666667e+00 1.30181519242778e-03 3.30728080881118e-05
2.58358333333333e+00 1.22926327550956e-03 3.13338904306197e-05
2.60075000000000e+00 1.16075477472042e-03 2.96857470191485e-05
2.61791666666667e+00 1.09606434525493e-03 2.81236822315869e-05
2.63508333333333e+00 1.03497920062265e-03 2.66432404910927e-05
2.65225000000000e+00 9.77298413444147e-04 2.52401941202460e-05
2.66941666666667e+00 9.22832254475947e-04 2.39105319883553e-05
2.68658333333333e+00 8.71401567965578e-04 2.26504485315350e-05
2.70375000000000e+00 8.22837182944596e-04 2.14563333173487e-05
2.72091666666667e+00 7.76979356721178e-04 2.03247612884766e-05
2.73808333333333e+00 7.33677248968943e-04 1.92524833338688e-05
2.75525000000000e+00 6.92788426055178e-04 1.82364173296570e-05
2.77241666666667e+00 6.54178392489870e-04 1.72736397610482e-05
2.78958333333333e+00 6.17720148141757e-04 1.63613776311805e-05
2.80675000000000e+00 5.83293770899417e-04 1.54970007747867e-05
2.82391666666667e+00 5.50786022175126e-04 1.46780146686854e-05
2.84108333333333e+00 5.20089974108548e-04 1.39020534931473e-05
2.85825000000000e+00 4.91104658181690e-04 1.31668735417675e-05
2.87541666666667e+00 4.63734733073145e-04 1.24703470559837e-05
2.89258333333333e+00 4.37890170786797e-04 1.18104562784689e-05
2.90975000000000e+00 4.13485960797862e-04 1.11852878062945e-05
2.92691666666667e+00 3.90441830402972e-04 1.05930273068718e-05
2.94408333333333e+00 3.68681980459936e-04 1.00319544244953e-05
2.96125000000000e+00 3.48134836289167e-04 9.50043794452142e-06
2.97841666666667e+00 3.28732812222592e-04 8.99693126733806e-06
2.99558333333333e+00 3.10412089112742e-04 8.51996804802989e-06
3.01275000000000e+00 2.93112404600681e-04 8.06815805730281e-06
3.02991666666667e+00 2.76776854878084e-04 7.64018330683678e-06
3.04708333333333e+00 2.61351707363442e-04 7.23479431846325e-06
3.06425000000000e+00 2.46786224115275e-04 6.85080658322509e-06
3.08141666666667e+00 2.33032494925803e-04 6.48709724605713e-06
3.09858333333333e+00 2.20045279605654e-04 6.14260191513046e-06
3.11575000000000e+00 2.07781859304269e-04 5.81631163404458e-06
3.13291666666667e+00 1.96201895983196e-04 5.50727004645628e-06
3.15008333333333e+00 1.85267299629299e-04 5.21457066862423e-06
3.16725000000000e+00 1.74942103072059e-04 4.93735430152922e-06
3.18441666666667e+00 1.65192343667172e-04 4.67480660707048e-06
3.20158333333333e+00 1.55985951498008e-04 4.42615577756850e-06
3.21875000000000e+00 1.47292643976480e-04 4.19067032482739e-06
3.23591666666667e+00 1.39083826226587e-04 3.96765700904613e-06
3.25308333333333e+00 1.31332496956693e-04 3.75645884831586e-06
3.27025000000000e+00 1.24013159717451e-04 3.55645323047545e-06
3.28741666666667e+00 1.17101739029762e-04 3.36705014412845e-06
3.30458333333333e+00 1.10575501134795e-04 3.18769047918896e-06
3.32175000000000e+00 1.04412979276560e-04 3.01784441501431e-06
3.33891666666667e+00 9.85939030858602e-05 2.85700991004172e-06
3.35608333333333e+00 9.30991318564756e-05 2.70471125135691e-06
3.37325000000000e+00 8.79105916359710e-05 2.56049767917368e-06
3.39041666666667e+00 8.30112157705327e-05 2.42394209775188e-06
3.40758333333333e+00 7.83848887274198e-05 2.29463983792986e-06
3.42475000000000e+00 7.40163931278739e-05 2.17220748369689e-06
3.44191666666667e+00 6.98913596888561e-05 2.05628177235507e-06
3.45908333333333e+00 6.59962199248236e-05 1.94651853909546e-06
3.47625000000000e+00 6.23181615515179e-05 1.84259171629791e-06
3.49341666666667e+00 5.88450863394191e-05 1.74419239546461e-06
3.51058333333333e+00 5.55655702913840e-05 1.65102792734343e-06
3.52775000000000e+00 5.24688260943988e-05 1.56282106879416e-06
3.54491666666667e+00 4.95446676343010e-05 1.47930918295132e-06
3.56208333333333e+00 4.67834764676494e-05 1.40024347220065e-06
3.57925000000000e+00 4.41761702075950e-05 1.32538825106639e-06
3.59641666666667e+00 4.17141726470551e-05 1.25452026443919e-06
3.61358333333333e+00 3.93893855299550e-05 1.18742803397942e-06
3.63075000000000e+00 3.71941619333986e-05 1.12391123858528e-06
3.64791666666667e+00 3.51212811128771e-05 1.06378013342457e-06
3.66508333333333e+00 3.31639247352712e-05 1.00685499314385e-06
3.68225000000000e+00 3.13156544677118e-05 9.52965584142717e-07
3.69941666666667e+00 2.95703907985057e-05 9.01950669640499e-07
3.71658333333333e+00 2.79223930266781e-05 8.53657535477429e-07
3.73375000000000e+00 2.63662403927032e-05 8.07941540706643e-07
3.75091666666667e+00 2.48968142467834e-05 7.64665696065500e-07
3.76808333333333e+00 2.35092812011810e-05 7.23700260218662e-07
3.78525000000000e+00 2.21990772430632e-05 6.84922357139590e-07
3.80241666666667e+00 2.09618927210854e-05 6.48215617189729e-07
3.81958333333333e+00 1.97936581606080e-05 6.13469833421984e-07
3.83675000000000e+00 1.86905308873640e-05 5.80580635902867e-07
3.85391666666667e+00 1.76488823869130e-05 5.49449186174118e-07
3.87108333333333e+00 1.66652863618530e-05 5.19981884749720e-07
3.88825000000000e+00 1.57365074695016e-05 4.92090093967911e-07
3.90541666666667e+00 1.48594906791872e-05 4.65689877955571e-07
3.92258333333333e+00 1.40313512170929e-05 4.40701753748554e-07
3.93975000000000e+00 1.32493650838510e-05 4.17050455493469e-07
3.95691666666667e+00 1.25109600939142e-05 3.94664713187234e-07
3.97408333333333e+00 1.18137074096772e-05 3.73477040959782e-07
3.99125000000000e+00 1.11553135576867e-05 3.53423536498376e-07
4.00841666666667e+00 1.05336128842390e-05 3.34443692820383e-07
4.02558333333333e+00 9.94656042758371e-06 3.16480218206065e-07
4.04275000000000e+00 9.39222519590648e-06 2.99478865618413e-07
4.05991666666667e+00 8.86878381531897e-06 2.83388272610127e-07
4.07708333333333e+00 8.37451452865112e-06 2.68159808205124e-07
4.09425000000000e+00 7.90779153579552e-06 2.53747427856255e-07
4.11141666666667e+00 7.46707964563165e-06 2.40107537308057e-07
4.12858333333333e+00 7.05092922334225e-06 2.27198862418447e-07
4.14575000000000e+00 6.65797142522240e-06 2.14982325854010e-07
4.16291666666667e+00 6.28691369586639e-06 2.03420931345764e-07
4.18008333333333e+00 5.93653551408787e-06 1.92479653034281e-07
4.19725000000000e+00 5.60568438083117e-06 1.82125330663587e-07
4.21441666666667e+00 5.29327202802715e-06 1.72326571193036e-07
4.23158333333333e+00 4.99827083689283e-06 1.63053654754348e-07
4.24875000000000e+00 4.71971045992358e-06 1.54278445584320e-07
4.26591666666667e+00 4.45667462893868e-06 1.45974308404936e-07
4.28308333333333e+00 4.20829813948684e-06 1.38116028511983e-07
4.30025000000000e+00 3.97376400670797e-06 1.30679736095731e-07
4.31741666666667e+00 3.75230077786663e-06 1.23642835184569e-07
4.33458333333333e+00 3.54317999338704e-06 1.16983935752785e-07
4.35175000000000e+00 3.34571379221078e-06 1.10682789427200e-07
4.36891666666667e+00 3.15925264908370e-06 1.04720229116592e-07
4.38608333333333e+00 2.98318323688663e-06 9.90781113399764e-08
4.40325000000000e+00 2.81692641044952e-06 9.37392616146928e-08
4.42041666666667e+00 2.65993530145980e-06 8.86874231727373e-08
4.43758333333333e+00 2.51169351866154e-06 8.39072079784100e-08
4.45475000000000e+00 2.37171345031420e-06 7.93840503469865e-08
4.47191666666667e+00 2.23953466020015e-06 7.51041633868604e-08
4.48908333333333e+00 2.11472237229061e-06 7.10544974034557e-08
4.50625000000000e+00 1.99686604148940e-06 6.72227005137868e-08
4.52341666666667e+00 1.88557800315116e-06 6.35970816559877e-08
4.54058333333333e+00 1.78049219725246e-06 6.01665752707163e-08
4.55775000000000e+00 1.68126296502020e-06 5.69207078610947e-08
4.57491666666667e+00 1.58756391189311e-06 5.38495665839173e-08
4.59208333333333e+00 1.49908683334310e-06 5.09437692653118e-08
4.60925000000000e+00 1.41554070168884e-06 4.81944360124542e-08
4.62641666666667e+00 1.33665070876589e-06 4.55931625478937e-08
4.64358333333333e+00 1.26215736152648e-06 4.31319947572195e-08
4.66075000000000e+00 1.19181562898083e-06 4.08034045925644e-08
4.67791666666667e+00 1.12539413617299e-06 3.86002674368069e-08
4.69508333333333e+00 1.06267440272481e-06 3.65158405010432e-08
4.71225000000000e+00 1.00345012459783e-06 3.45437423736588e-08
4.72941666666667e+00 9.47526495461122e-07 3.26779338078765e-08
4.74658333333333e+00 8.94719565586306e-07 3.09126993890278e-08
4.76375000000000e+00 8.44855637122707e-07 2.92426301798062e-08
4.78091666666667e+00 7.97770692722745e-07 2.76626074154774e-08
4.79808333333333e+00 7.53309855766105e-07 2.61677869479173e-08
4.81525000000000e+00 7.11326881208062e-07 2.47535845200696e-08
4.83241666666667e+00 6.71683674510447e-07 2.34156619304516e-08
4.84958333333333e+00 6.34249837179419e-07 2.21499138349321e-08
4.86675000000000e+00 5.98902238082242e-07 2.09524552535326e-08
4.88391666666667e+00 5.65524608411071e-07 1.98196098316512e-08
4.90108333333333e+00 5.34007159050130e-07 1.87478986435104e-08
4.91825000000000e+00 5.04246219643432e-07 1.77340295940884e-08
4.93541666666667e+00 4.76143897574398e-07 1.67748874604524e-08
4.95258333333333e+00 4.49607755809522e-07 1.58675243943541e-08
4.96975000000000e+00 4.24550509009412e-07 1.50091509328018e-08
4.98691666666667e+00 4.00889736406565e-07 1.41971275505035e-08
5.00408333333333e+00 3.78547610566957e-07 1.34289566046221e-08
5.02125000000000e+00 3.57450641529065e-07 1.27022747106339e-08
5.03841666666667e+00 3.37529435061203e-07 1.20148455773638e-08
5.05558333333333e+00 3.18718464293268e-07 1.13645531756277e-08
5.07275000000000e+00 3.00955854293198e-07 1.07493952726938e-08
5.08991666666667e+00 2.84183178531656e-07 1.01674773558127e-08
5.10708333333333e+00 2.68345266608127e-07 9.61700683938461e-09
5.12425000000000e+00 2.53390022873924e-07 9.09628758251012e-09
5.14141666666667e+00 2.39268255065552e-07 8.60371473617813e-09
5.15858333333333e+00 2.25933512420316e-07 8.13776983156555e-09
5.17575000000000e+00 2.13341932965013e-07 7.69701613165439e-09
5.19291666666667e+00 2.01452099233724e-07 7.28009426211139e-09
5.21008333333333e+00 1.90224901969765e-07 6.88571804709427e-09
5.22725000000000e+00 1.79623411549610e-07 6.51267056842249e-09
5.24441666666667e+00 1.69612756504435e-07 6.15980046131502e-09
5.26158333333333e+00 1.60160008764389e-07 5.82601838427225e-09
5.27875000000000e+00 1.51234075403319e-07 5.51029367841098e-09
5.29591666666667e+00 1.42805596359936e-07 5.21165122718298e-09
5.31308333333333e+00 1.34846847819569e-07 4.92916846405645e-09
5.33025000000000e+00 1.27331651068101e-07 4.66197254087021e-09
5.34741666666667e+00 1.20235286378261e-07 4.40923766590989e-09
5.36458333333333e+00 1.13534411662177e-07 4.17018256768308e-09
5.38175000000000e+00 1.07206985730497e-07 3.94406809494480e-09
5.39891666666667e+00 1.01232195788920e-07 3.73019496046498e-09
5.41608333333333e+00 9.55903889479433e-08 3.52790159156487e-09
