Energy (eV)          EEDF (eV^-(3/2))     First Anisotropy
4.00000000000000e-04 2.12896418917835e+02 8.27260475694552e-02
1.20000000000000e-03 2.07317159332341e+02 1.35269009805992e-01
2.00000000000000e-03 2.01884112340172e+02 1.75067812283304e-01
2.80000000000000e-03 1.96593446228165e+02 2.03252483210571e-01
3.60000000000000e-03 1.91441429698752e+02 2.25118794765424e-01
4.40000000000000e-03 1.86424429238433e+02 2.42731369496255e-01
5.20000000000000e-03 1.81538906555199e+02 2.57189582995151e-01
6.00000000000000e-03 1.76781416083118e+02 2.69175433626463e-01
6.80000000000000e-03 1.72148602552313e+02 2.79152889819508e-01
7.60000000000000e-03 1.67637198622623e+02 2.87457825190049e-01
8.40000000000000e-03 1.63244022579276e+02 2.94344508947025e-01
9.20000000000000e-03 1.58965976088956e+02 3.00012033163158e-01
1.00000000000000e-02 1.54800042014662e+02 3.04620433080822e-01
1.08000000000000e-02 1.50743282287850e+02 3.08301073004461e-01
1.16000000000000e-02 1.46792835836324e+02 3.11163637089543e-01
1.24000000000000e-02 1.42945916566439e+02 3.13301006953902e-01
1.32000000000000e-02 1.39199811398172e+02 3.14792768703349e-01
1.40000000000000e-02 1.35551878351704e+02 3.15707799740681e-01
1.48000000000000e-02 1.31999544684128e+02 3.16106219259036e-01
1.56000000000000e-02 1.28540305074998e+02 3.16040887391012e-01
1.64000000000000e-02 1.25171719859427e+02 3.15558577022258e-01
1.72000000000000e-02 1.21891413307485e+02 3.14700903511584e-01
1.80000000000000e-02 1.18697071948695e+02 3.13505072218686e-01
1.88000000000000e-02 1.15586442940426e+02 3.12004486767539e-01
1.96000000000000e-02 1.12557332479062e+02 3.10229249355529e-01
2.04000000000000e-02 1.09607604252792e+02 3.08206576309530e-01
2.12000000000000e-02 1.06735177934956e+02 3.05961146330315e-01
2.20000000000000e-02 1.03938027716872e+02 3.03515394709549e-01
2.28000000000000e-02 1.01214180879116e+02 3.00889763759247e-01
2.36000000000000e-02 9.85617164002384e+01 2.98102917434303e-01
2.44000000000000e-02 9.59787636019432e+01 2.95171926431409e-01
2.52000000000000e-02 9.34635008297747e+01 2.92112428757995e-01
2.60000000000000e-02 9.10141541683752e+01 2.88938769774691e-01
2.68000000000000e-02 8.86289961904130e+01 2.85664124947134e-01
2.76000000000000e-02 8.63063447382963e+01 2.82300607942389e-01
2.84000000000000e-02 8.40445617378140e+01 2.78859366231430e-01
2.92000000000000e-02 8.18420520428666e+01 2.75350665982327e-01
3.00000000000000e-02 7.96972623104727e+01 2.71783967726933e-01
3.08000000000000e-02 7.76086799052579e+01 2.68167994040295e-01
3.16000000000000e-02 7.55748318326526e+01 2.64510790274290e-01
3.24000000000000e-02 7.35942837000475e+01 2.60819779225344e-01
3.32000000000000e-02 7.16656387051729e+01 2.57101810483336e-01
3.40000000000000e-02 6.97875366509893e+01 2.53363205098907e-01
3.48000000000000e-02 6.79586529863946e+01 2.49609796115279e-01
3.56000000000000e-02 6.61776978720703e+01 2.45846965434472e-01
3.64000000000000e-02 6.44434152708087e+01 2.42079677423902e-01
3.72000000000000e-02 6.27545820616800e+01 2.38312509615515e-01
3.80000000000000e-02 6.11100071774131e+01 2.34549680803982e-01
3.88000000000000e-02 5.95085307643830e+01 2.30795076811738e-01
3.96000000000000e-02 5.79490233646119e+01 2.27052274155587e-01
4.04000000000000e-02 5.64303851192075e+01 2.23324561821260e-01
4.12000000000000e-02 5.49515449926755e+01 2.19614961327961e-01
4.20000000000000e-02 5.35114600175609e+01 2.15926245243937e-01
4.28000000000000e-02 5.21091145588845e+01 2.12260954295892e-01
4.36000000000000e-02 5.07435195978552e+01 2.08621413199324e-01
4.44000000000000e-02 4.94137120343547e+01 2.05009745323081e-01
4.52000000000000e-02 4.81187540077005e+01 2.01427886289408e-01
4.60000000000000e-02 4.68577322352106e+01 1.97877596600281e-01
4.68000000000000e-02 4.56297573681007e+01 1.94360473371520e-01
4.76000000000000e-02 4.44339633642618e+01 1.90877961248067e-01
4.84000000000000e-02 4.32695068774753e+01 1.87431362566633e-01
4.92000000000000e-02 4.21355666626338e+01 1.84021846825508e-01
5.00000000000000e-02 4.10313429965498e+01 1.80650459515719e-01
5.08000000000000e-02 3.99560571139422e+01 1.77318130362717e-01
5.16000000000000e-02 3.89089506582043e+01 1.74025681023209e-01
5.24000000000000e-02 3.78892851465646e+01 1.70773832277874e-01
5.32000000000000e-02 3.68963414492642e+01 1.67563210757045e-01
5.40000000000000e-02 3.59294192823832e+01 1.64394355233214e-01
5.48000000000000e-02 3.49878367139577e+01 1.61267722511417e-01
5.56000000000000e-02 3.40709296830409e+01 1.58183692945883e-01
5.64000000000000e-02 3.31780515313662e+01 1.55142575608999e-01
5.72000000000000e-02 3.23085725472855e+01 1.52144613136593e-01
5.80000000000000e-02 3.14618795216582e+01 1.49189986271533e-01
5.88000000000000e-02 3.06373753153790e+01 1.46278818125961e-01
5.96000000000000e-02 2.98344784382393e+01 1.43411178180884e-01
6.04000000000000e-02 2.90526226388253e+01 1.40587086040420e-01
6.12000000000000e-02 2.82912565051630e+01 1.37806514956700e-01
6.20000000000000e-02 2.75498430758295e+01 1.35069395140204e-01
6.28000000000000e-02 2.68278594612550e+01 1.32375616869267e-01
6.36000000000000e-02 2.61247964749498e+01 1.29725033411445e-01
6.44000000000000e-02 2.54401582743949e+01 1.27117463768589e-01
6.52000000000000e-02 2.47734620113440e+01 1.24552695256556e-01
6.60000000000000e-02 2.41242374912899e+01 1.22030485929799e-01
6.68000000000000e-02 2.34920268418545e+01 1.19550566860318e-01
6.76000000000000e-02 2.28763841898699e+01 1.17112644279832e-01
6.84000000000000e-02 2.22768753469217e+01 1.14716401593435e-01
6.92000000000000e-02 2.16930775031327e+01 1.12361501272426e-01
7.00000000000000e-02 2.11245789289722e+01 1.10047586633521e-01
7.08000000000000e-02 2.05709786848792e+01 1.07774283511177e-01
7.16000000000000e-02 2.00318863384958e+01 1.05541201829297e-01
7.24000000000000e-02 1.95069216893105e+01 1.03347937078235e-01
7.32000000000000e-02 1.89957145005180e+01 1.01194071702587e-01
7.40000000000000e-02 1.84979042379057e+01 9.90791764049508e-02
7.48000000000000e-02 1.80131398155830e+01 9.70028113705024e-02
7.56000000000000e-02 1.75410793483748e+01 9.49645274169226e-02
7.64000000000000e-02 1.70813899107029e+01 9.29638670739528e-02
7.72000000000000e-02 1.66337473017871e+01 9.10003655965850e-02
7.80000000000000e-02 1.61978358169991e+01 8.90735519156486e-02
7.88000000000000e-02 1.57733480252083e+01 8.71829495293479e-02
7.96000000000000e-02 1.53599845519633e+01 8.53280773390687e-02
8.04000000000000e-02 1.49574538683543e+01 8.35084504325947e-02
8.12000000000000e-02 1.45654720854098e+01 8.17235808176905e-02
8.20000000000000e-02 1.41837627538806e+01 7.99729781088260e-02
8.28000000000000e-02 1.38120566692715e+01 7.82561501696606e-02
8.36000000000000e-02 1.34500916819814e+01 7.65726037137612e-02
8.44000000000000e-02 1.30976125124200e+01 7.49218448658817e-02
8.52000000000000e-02 1.27543705709692e+01 7.33033796859999e-02
8.60000000000000e-02 1.24201237826624e+01 7.17167146581852e-02
8.68000000000000e-02 1.20946364164590e+01 7.01613571462534e-02
8.76000000000000e-02 1.17776789189922e+01 6.86368158180586e-02
8.84000000000000e-02 1.14690277526742e+01 6.71426010401600e-02
8.92000000000000e-02 1.11684652380443e+01 6.56782252445194e-02
9.00000000000000e-02 1.08757794002478e+01 6.42432032687890e-02
9.08000000000000e-02 1.05907638195386e+01 6.28370526716515e-02
9.16000000000000e-02 1.03132174856996e+01 6.14592940246124e-02
9.24000000000000e-02 1.00429446562783e+01 6.01094511815647e-02
9.32000000000000e-02 9.77975471853698e+00 5.87870515273627e-02
9.40000000000000e-02 9.52346205502139e+00 5.74916262065849e-02
9.48000000000000e-02 9.27388591265202e+00 5.62227103336055e-02
9.56000000000000e-02 9.03085027524609e+00 5.49798431850280e-02
9.64000000000000e-02 8.79418373938030e+00 5.37625683754754e-02
9.72000000000000e-02 8.56371939350676e+00 5.25704340176844e-02
9.80000000000000e-02 8.33929470023692e+00 5.14029928678024e-02
9.88000000000000e-02 8.12075138171033e+00 5.02598024567302e-02
9.96000000000000e-02 7.90793530796756e+00 4.91404252083154e-02
1.00400000000000e-01 7.70069638824840e+00 4.80444285451553e-02
1.01200000000000e-01 7.49888846513883e+00 4.69713849827314e-02
1.02000000000000e-01 7.30236921149192e+00 4.59208722125552e-02
1.02800000000000e-01 7.11100003005018e+00 4.48924731749747e-02
1.03600000000000e-01 6.92464595569835e+00 4.38857761222520e-02
1.04400000000000e-01 6.74317556027786e+00 4.29003746724895e-02
1.05200000000000e-01 6.56646085989575e+00 4.19358678549614e-02
1.06000000000000e-01 6.39437722466269e+00 4.09918601473649e-02
1.06800000000000e-01 6.22680329079645e+00 4.00679615054876e-02
1.07600000000000e-01 6.06362087502881e+00 3.91637873857569e-02
1.08400000000000e-01 5.90471489125560e+00 3.82789587611168e-02
1.09200000000000e-01 5.74997326937099e+00 3.74131021306512e-02
1.10000000000000e-01 5.59928687622892e+00 3.65658495233497e-02
1.10800000000000e-01 5.45254943867576e+00 3.57368384963945e-02
1.11600000000000e-01 5.30965746860008e+00 3.49257121283265e-02
1.12400000000000e-01 5.17051018994660e+00 3.41321190074259e-02
1.13200000000000e-01 5.03500946764279e+00 3.33557132156296e-02
1.14000000000000e-01 4.90305973838808e+00 3.25961543082895e-02
1.14800000000000e-01 4.77456794325689e+00 3.18531072900568e-02
1.15600000000000e-01 4.64944346206781e+00 3.11262425871668e-02
1.16400000000000e-01 4.52759804947276e+00 3.04152360163819e-02
1.17200000000000e-01 4.40894577272107e+00 2.97197687508322e-02
1.18000000000000e-01 4.29340295105452e+00 2.90395272829928e-02
1.18800000000000e-01 4.18088809669056e+00 2.83742033850099e-02
1.19600000000000e-01 4.07132185735222e+00 2.77234940665821e-02
1.20400000000000e-01 3.96462696030411e+00 2.70871015305983e-02
1.21200000000000e-01 3.86072815785500e+00 2.64647331267124e-02
1.22000000000000e-01 3.75955217428858e+00 2.58561013030293e-02
1.22800000000000e-01 3.66102765418503e+00 2.52609235560709e-02
1.23600000000000e-01 3.56508511209684e+00 2.46789223791772e-02
1.24400000000000e-01 3.47165688354350e+00 2.41098252094885e-02
1.25200000000000e-01 3.38067707729037e+00 2.35533643736500e-02
1.26000000000000e-01 3.29208152887824e+00 2.30092770323682e-02
1.26800000000000e-01 3.20580775537066e+00 2.24773051239473e-02
1.27600000000000e-01 3.12179491128721e+00 2.19571953069185e-02
1.28400000000000e-01 3.03998374569154e+00 2.14486989018756e-02
1.29200000000000e-01 2.96031656040409e+00 2.09515718326193e-02
1.30000000000000e-01 2.88273716930983e+00 2.04655745667105e-02
1.30800000000000e-01 2.80719085873239e+00 1.99904720555231e-02
1.31600000000000e-01 2.73362434884666e+00 1.95260336738834e-02
1.32400000000000e-01 2.66198575610271e+00 1.90720331593796e-02
1.33200000000000e-01 2.59222455663428e+00 1.86282485514165e-02
1.34000000000000e-01 2.52429155062636e+00 1.81944621300887e-02
1.34800000000000e-01 2.45813882761648e+00 1.77704603549407e-02
1.35600000000000e-01 2.39371973270535e+00 1.73560338036757e-02
1.36400000000000e-01 2.33098883365304e+00 1.69509771108742e-02
1.37200000000000e-01 2.26990188883737e+00 1.65550889067783e-02
1.38000000000000e-01 2.21041581605207e+00 1.61681717561934e-02
1.38800000000000e-01 2.15248866212262e+00 1.57900320975571e-02
1.39600000000000e-01 2.09607957331828e+00 1.54204801822186e-02
1.40400000000000e-01 2.04114876653965e+00 1.50593300139756e-02
1.41200000000000e-01 1.98765750126114e+00 1.47063992889028e-02
1.42000000000000e-01 1.93556805220886e+00 1.43615093355129e-02
1.42800000000000e-01 1.88484368275448e+00 1.40244850552841e-02
1.43600000000000e-01 1.83544861900630e+00 1.36951548635839e-02
1.44400000000000e-01 1.78734802457938e+00 1.33733506310193e-02
1.45200000000000e-01 1.74050797602678e+00 1.30589076252426e-02
1.46000000000000e-01 1.69489543891472e+00 1.27516644532348e-02
1.46800000000000e-01 1.65047824452471e+00 1.24514630040917e-02
1.47600000000000e-01 1.60722506716618e+00 1.21581483923330e-02
1.48400000000000e-01 1.56510540208376e+00 1.18715689017549e-02
1.49200000000000e-01 1.52408954394343e+00 1.15915759298417e-02
1.50000000000000e-01 1.48414856588258e+00 1.13180239327554e-02
1.50800000000000e-01 1.44525429910901e+00 1.10507703709144e-02
1.51600000000000e-01 1.40737931303457e+00 1.07896756551776e-02
1.52400000000000e-01 1.37049689592950e+00 1.05346030936436e-02
1.53200000000000e-01 1.33458103608366e+00 1.02854188390763e-02
1.54000000000000e-01 1.29960640346154e+00 1.00419918369655e-02
1.54800000000000e-01 1.26554833183794e+00 9.80419377423085e-03
1.55600000000000e-01 1.23238280140192e+00 9.57189902857744e-03
1.56400000000000e-01 1.20008642181651e+00 9.34498461850595e-03
1.57200000000000e-01 1.16863641572246e+00 9.12333015398517e-03
1.58000000000000e-01 1.13801060267429e+00 8.90681778778988e-03
1.58800000000000e-01 1.10818738349727e+00 8.69533216750740e-03
1.59600000000000e-01 1.07914572505439e+00 8.48876038821510e-03
1.60400000000000e-01 1.05086514541251e+00 8.28699194583075e-03
1.61200000000000e-01 1.02332569939726e+00 8.08991869113651e-03
1.62000000000000e-01 9.96507964526533e-01 7.89743478447730e-03
1.62800000000000e-01 9.70393027312522e-01 7.70943665113273e-03
1.63600000000000e-01 9.44962469922827e-01 7.52582293736124e-03
1.64400000000000e-01 9.20198357191067e-01 7.34649446711614e-03
1.65200000000000e-01 8.96083223967923e-01 7.17135419943087e-03
1.66000000000000e-01 8.72600062803658e-01 7.00030718647127e-03
1.66800000000000e-01 8.49732311953431e-01 6.83326053225122e-03
1.67600000000000e-01 8.27463843696959e-01 6.67012335200908e-03
1.68400000000000e-01 8.05778952964272e-01 6.51080673224129e-03
1.69200000000000e-01 7.84662346259546e-01 6.35522369138852e-03
1.70000000000000e-01 7.64099130875209e-01 6.20328914117042e-03
1.70800000000000e-01 7.44074804388700e-01 6.05491984856333e-03
1.71600000000000e-01 7.24575244434485e-01 5.91003439841722e-03
1.72400000000000e-01 7.05586698744111e-01 5.76855315670564e-03
1.73200000000000e-01 6.87095775447277e-01 5.63039823440349e-03
1.74000000000000e-01 6.69089433627075e-01 5.49549345198710e-03
1.74800000000000e-01 6.51554974122748e-01 5.36376430454974e-03
1.75600000000000e-01 6.34480030573474e-01 5.23513792752748e-03
1.76400000000000e-01 6.17852560696861e-01 5.10954306302851e-03
1.77200000000000e-01 6.01660837795999e-01 4.98691002675948e-03
1.78000000000000e-01 5.85893442489091e-01 4.86717067554242e-03
1.78800000000000e-01 5.70539254655807e-01 4.75025837541523e-03
1.79600000000000e-01 5.55587445594708e-01 4.63610797030916e-03
1.80400000000000e-01 5.41027470386188e-01 4.52465575129637e-03
1.81200000000000e-01 5.26849060455562e-01 4.41583942640012e-03
1.82000000000000e-01 5.13042216331044e-01 4.30959809096083e-03
1.82800000000000e-01 4.99597200591518e-01 4.20587219855066e-03
1.83600000000000e-01 4.86504530999116e-01 4.10460353242980e-03
1.84400000000000e-01 4.73754973811772e-01 4.00573517753639e-03
1.85200000000000e-01 4.61339537271033e-01 3.90921149300342e-03
1.86000000000000e-01 4.49249465260522e-01 3.81497808519543e-03
1.86800000000000e-01 4.37476231130596e-01 3.72298178125684e-03
1.87600000000000e-01 4.26011531684841e-01 3.63317060316510e-03
1.88400000000000e-01 4.14847281324152e-01 3.54549374228152e-03
1.89200000000000e-01 4.03975606344283e-01 3.45990153439196e-03
1.90000000000000e-01 3.93388839382831e-01 3.37634543523002e-03
1.90800000000000e-01 3.83079514011753e-01 3.29477799647586e-03
1.91600000000000e-01 3.73040359471584e-01 3.21515284222288e-03
1.92400000000000e-01 3.63264295543664e-01 3.13742464590510e-03
1.93200000000000e-01 3.53744427556736e-01 3.06154910767828e-03
1.94000000000000e-01 3.44474041524408e-01 2.98748293224700e-03
1.94800000000000e-01 3.35446599410043e-01 2.91518380713102e-03
1.95600000000000e-01 3.26655734515743e-01 2.84461038136354e-03
1.96400000000000e-01 3.18095246992165e-01 2.77572224461420e-03
1.97200000000000e-01 3.09759099466016e-01 2.70847990673020e-03
1.98000000000000e-01 3.01641412782129e-01 2.64284477768799e-03
1.98800000000000e-01 2.93736461857132e-01 2.57877914794901e-03
1.99600000000000e-01 2.86038671641768e-01 2.51624616921254e-03
2.00400000000000e-01 2.78542613189036e-01 2.45520983555863e-03
2.01200000000000e-01 2.71242999825369e-01 2.39563496497471e-03
2.02000000000000e-01 2.64134683422152e-01 2.33748718125900e-03
2.02800000000000e-01 2.57212650764952e-01 2.28073289629414e-03
2.03600000000000e-01 2.50472020017894e-01 2.22533929268457e-03
2.04400000000000e-01 2.43908037280694e-01 2.17127430675106e-03
2.05200000000000e-01 2.37516073235927e-01 2.11850661187629e-03
2.06000000000000e-01 2.31291619884145e-01 2.06700560219484e-03
2.06800000000000e-01 2.25230287364568e-01 2.01674137662136e-03
2.07600000000000e-01 2.19327800859090e-01 1.96768472321119e-03
2.08400000000000e-01 2.13579997577414e-01 1.91980710384689e-03
2.09200000000000e-01 2.07982823821203e-01 1.87308063924476e-03
2.10000000000000e-01 2.02532332125169e-01 1.82747809427546e-03
2.10800000000000e-01 1.97224678473079e-01 1.78297286359315e-03
2.11600000000000e-01 1.92056119586723e-01 1.73953895756683e-03
2.12400000000000e-01 1.87023010285929e-01 1.69715098850867e-03
2.13200000000000e-01 1.82121800917760e-01 1.65578415719348e-03
2.14000000000000e-01 1.77349034853086e-01 1.61541423966384e-03
2.14800000000000e-01 1.72701346048757e-01 1.57601757431547e-03
2.15600000000000e-01 1.68175456673672e-01 1.53757104925741e-03
2.16400000000000e-01 1.63768174797046e-01 1.50005208994179e-03
2.17200000000000e-01 1.59476392137276e-01 1.46343864705793e-03
2.18000000000000e-01 1.55297081869785e-01 1.42770918468557e-03
2.18800000000000e-01 1.51227296492328e-01 1.39284266870241e-03
2.19600000000000e-01 1.47264165746235e-01 1.35881855544063e-03
2.20400000000000e-01 1.43404894592126e-01 1.32561678058791e-03
2.21200000000000e-01 1.39646761238686e-01 1.29321774832769e-03
2.22000000000000e-01 1.35987115223091e-01 1.26160232071435e-03
2.22800000000000e-01 1.32423375541740e-01 1.23075180727837e-03
2.23600000000000e-01 1.28953028829977e-01 1.20064795485693e-03
2.24400000000000e-01 1.25573627589515e-01 1.17127293764554e-03
2.25200000000000e-01 1.22282788462309e-01 1.14260934746617e-03
2.26000000000000e-01 1.19078190549673e-01 1.11464018424755e-03
2.26800000000000e-01 1.15957573775435e-01 1.08734884671342e-03
2.27600000000000e-01 1.12918737292002e-01 1.06071912327436e-03
2.28400000000000e-01 1.09959537928185e-01 1.03473518311923e-03
2.29200000000000e-01 1.07077888677704e-01 1.00938156750204e-03
2.30000000000000e-01 1.04271757227309e-01 9.84643181220322e-04
2.30800000000000e-01 1.01539164523466e-01 9.60505284281022e-04
2.31600000000000e-01 9.88781833766138e-02 9.36953483750119e-04
2.32400000000000e-01 9.62869371019865e-02 9.13973725782125e-04
2.33200000000000e-01 9.37635981960675e-02 8.91552287825788e-04
2.34000000000000e-01 9.13063870477215e-02 8.69675771002313e-04
2.34800000000000e-01 8.89135706831053e-02 8.48331092652583e-04
2.35600000000000e-01 8.65834615434698e-02 8.27505479049773e-04
2.36400000000000e-01 8.43144162949917e-02 8.07186458273928e-04
2.37200000000000e-01 8.21048346697952e-02 7.87361853245195e-04
2.38000000000000e-01 7.99531583373464e-02 7.68019774912266e-04
2.38800000000000e-01 7.78578698054241e-02 7.49148615592853e-04
2.39600000000000e-01 7.58174913498928e-02 7.30737042462928e-04
2.40400000000000e-01 7.38305839725222e-02 7.12773991191625e-04
2.41200000000000e-01 7.18957463861189e-02 6.95248659718748e-04
2.42000000000000e-01 7.00116140262535e-02 6.78150502171783e-04
2.42800000000000e-01 6.81768580888878e-02 6.61469222919493e-04
2.43600000000000e-01 6.63901845932216e-02 6.45194770759212e-04
2.44400000000000e-01 6.46503334690989e-02 6.29317333234909e-04
2.45200000000000e-01 6.29560776683310e-02 6.13827331083323e-04
2.46000000000000e-01 6.13062222993074e-02 5.98715412805365e-04
2.46800000000000e-01 5.96996037842860e-02 5.83972449360061e-04
2.47600000000000e-01 5.81350890387678e-02 5.69589528978481e-04
2.48400000000000e-01 5.66115746723777e-02 5.55557952095037e-04
2.49200000000000e-01 5.51279862106859e-02 5.41869226393598e-04
2.50000000000000e-01 5.36832773374247e-02 5.28515061965969e-04
2.50800000000000e-01 5.22764291565621e-02 5.15487366580269e-04
2.51600000000000e-01 5.09064494737154e-02 5.02778241056821e-04
2.52400000000000e-01 4.95723720963952e-02 4.90379974749274e-04
